t, s[1].omega / s[0].omega 
0, -0.5199866693294403 
0.009999999999999995, -0.5187117353221424 
0.019999999999999934, -0.5175669714051622 
0.029999999999999874, -0.5165535366799922 
0.04000000000000012, -0.5156549228940405 
0.050000000000000405, -0.5148497753703388 
0.06000000000000069, -0.5141210741473675 
0.07000000000000098, -0.5134610950819547 
0.08000000000000126, -0.5128736396063039 
0.09000000000000155, -0.5123755852659551 
0.10000000000000184, -0.5119994331610026 
0.11000000000000212, -0.5117979575016635 
0.12000000000000241, -0.5118517425178125 
0.130000000000002, -0.5122803488844967 
0.1400000000000009, -0.5132577962327363 
0.1499999999999998, -0.515032303626328 
0.1599999999999987, -0.51794724734807 
0.1699999999999976, -0.522451793510854 
0.1799999999999965, -0.5290706391690866 
0.1899999999999954, -0.5382729485224409 
0.1999999999999943, -0.5501741508094653 
0.2099999999999932, -0.5641246178082959 
0.2199999999999921, -0.5785476297791378 
0.229999999999991, -0.59148921102366 
0.2399999999999899, -0.6016238814238675 
0.2499999999999888, -0.608740008104224 
0.2599999999999877, -0.613385317575986 
0.2699999999999866, -0.6162911749232984 
0.2799999999999855, -0.6180577495503996 
0.2899999999999844, -0.619091477487557 
0.2999999999999833, -0.6196429252028854 
0.3099999999999822, -0.6198564968911977 
0.3199999999999811, -0.61980594125074 
0.32999999999998, -0.6195142524374365 
0.3399999999999789, -0.6189619515565572 
0.3499999999999778, -0.6180881528073 
0.35999999999997667, -0.6167902096924952 
0.36999999999997557, -0.6149321869087191 
0.37999999999997447, -0.6123776337539271 
0.38999999999997337, -0.6090565532627213 
0.39999999999997227, -0.6050444982030744 
0.40999999999997117, -0.6005904437209326 
0.41999999999997006, -0.5960466407447812 
0.42999999999996896, -0.5917424077793119 
0.43999999999996786, -0.5878942449897236 
0.44999999999996676, -0.5845930647158626 
0.45999999999996566, -0.5818406288629596 
0.46999999999996456, -0.5795936470171912 
0.47999999999996346, -0.5777948883225668 
0.48999999999996235, -0.5763892595829985 
0.49999999999996125, -0.5753297031205257 
0.5099999999999602, -0.5745779267506229 
0.519999999999959, -0.5741032716648331 
0.529999999999958, -0.5738814652851615 
0.5399999999999568, -0.5738939992275183 
0.5499999999999557, -0.5741283074009242 
0.5599999999999546, -0.5745786116186158 
0.5699999999999535, -0.5752470825815192 
0.5799999999999524, -0.5761446612221219 
0.5899999999999513, -0.5772903425386008 
0.5999999999999502, -0.5787069368466411 
0.6099999999999491, -0.5804107319273542 
0.619999999999948, -0.5823933521305852 
0.6299999999999469, -0.584598574387568 
0.6399999999999458, -0.5869058846021306 
0.6499999999999447, -0.5891400289427918 
0.6599999999999436, -0.5911163300422149 
0.6699999999999425, -0.5927009092822724 
0.6799999999999414, -0.593844976965187 
0.6899999999999403, -0.5945742524333564 
0.6999999999999392, -0.5949521927717816 
0.7099999999999381, -0.5950452969049465 
0.719999999999937, -0.5949028639002862 
0.7299999999999359, -0.5945485267518391 
0.7399999999999348, -0.5939763604995795 
0.7499999999999337, -0.593145429424899 
0.7599999999999326, -0.5919678537206827 
0.7699999999999315, -0.5902848907176892 
0.7799999999999304, -0.587823796437166 
0.7899999999999293, -0.5841307502700848 
0.7999999999999282, -0.5785013783455526 
0.8099999999999271, -0.5700191333030602 
0.819999999999926, -0.5579397746477461 
0.8299999999999249, -0.5425032623303137 
0.8399999999999238, -0.5254685457740733 
0.8499999999999227, -0.5093764630789335 
0.8599999999999216, -0.49609459562614555 
0.8699999999999205, -0.4861767811805312 
0.8799999999999194, -0.4792474065414688 
0.8899999999999183, -0.4746055385074398 
0.8999999999999172, -0.471582292628284 
0.9099999999999161, -0.4696585553822616 
0.919999999999915, -0.4684669205176203 
0.9299999999999139, -0.46775887903515195 
0.9399999999999128, -0.46737039795062413 
0.9499999999999117, -0.4671950632722174 
0.9599999999999106, -0.46716533776638897 
0.9699999999999095, -0.4672403068738517 
0.9799999999999084, -0.46739820906368357 
0.9899999999999073, -0.46763237158535154 
0.9999999999999062, -0.46794928083815107 
1.0099999999999052, -0.46836723254574275 
1.019999999999904, -0.4689135041855096 
1.029999999999903, -0.4696178013409481 
1.039999999999902, -0.47050052932053504 
1.0499999999999008, -0.47155684603015213 
1.0599999999998997, -0.47274187470146806 
1.0699999999998986, -0.4739673914404742 
1.0799999999998975, -0.4751193253039827 
1.0899999999998964, -0.4760921460515829 
1.0999999999998953, -0.47681978312207607 
1.1099999999998942, -0.47728401988552394 
1.119999999999893, -0.4775006972092295 
1.129999999999892, -0.47749810307075513 
1.1399999999998909, -0.4772992957286393 
1.1499999999998898, -0.4769108430981439 
1.1599999999998887, -0.476314623996333 
1.1699999999998876, -0.4754576722062548 
1.1799999999998865, -0.4742346631464892 
1.1899999999998854, -0.4724572760339674 
1.1999999999998843, -0.4698073398971981 
1.2099999999998832, -0.46578846727433626 
1.219999999999882, -0.45974656918783346 
1.229999999999881, -0.4511105848551661 
1.2399999999998799, -0.439924922091491 
1.2499999999998788, -0.42726903505240516 
1.2599999999998777, -0.41488139438961885 
1.2699999999998766, -0.4041927065465898 
1.2799999999998755, -0.39577576617132654 
1.2899999999998744, -0.389510888498764 
1.2999999999998733, -0.3849844151079627 
1.3099999999998722, -0.3817578192093809 
1.319999999999871, -0.3794727212942052 
1.32999999999987, -0.37786686005181225 
1.3399999999998689, -0.37675892173353964 
1.3499999999998678, -0.37602847387857696 
1.3599999999998666, -0.3755995358668962 
1.3699999999998655, -0.37542933330546474 
1.3799999999998644, -0.3755017237497851 
1.3899999999998633, -0.3758245036961638 
1.3999999999998622, -0.37642999705321056 
1.4099999999998611, -0.37737842506119207 
1.41999999999986, -0.3787631560460529 
1.429999999999859, -0.3807153967941243 
1.4399999999998578, -0.3834021118969923 
1.4499999999998567, -0.38700382950194484 
1.4599999999998556, -0.39165099555092586 
1.4699999999998545, -0.3973047251536329 
1.4799999999998534, -0.4036234761776069 
1.4899999999998523, -0.40995347480287636 
1.4999999999998512, -0.41556221037900176 
1.5099999999998501, -0.41997761840294334 
1.519999999999849, -0.4231276167324693 
1.529999999999848, -0.42521349818287557 
1.5399999999998468, -0.42651358373439174 
1.5499999999998457, -0.42726638919315674 
1.5599999999998446, -0.42763830298883887 
1.5699999999998435, -0.42773063218296825 
1.5799999999998424, -0.4275948910692497 
1.5899999999998413, -0.42724499448570274 
1.5999999999998402, -0.42666529468041664 
1.6099999999998391, -0.4258177722709785 
1.619999999999838, -0.4246540977114335 
1.629999999999837, -0.4231384223658902 
1.6399999999998358, -0.42128015753064807 
1.6499999999998347, -0.4191606784869476 
1.6599999999998336, -0.41692792982433796 
1.6699999999998325, -0.4147513880880805 
1.6799999999998314, -0.4127659609580431 
1.6899999999998303, -0.41104162981076414 
1.6999999999998292, -0.4095876004921273 
1.709999999999828, -0.4083747281201992 
1.719999999999827, -0.4073587118437113 
1.729999999999826, -0.4064962870524867 
1.7399999999998248, -0.40575392079012496 
1.7499999999998237, -0.40511130497875225 
1.7599999999998226, -0.40456241456899605 
1.7699999999998215, -0.4041165286521659 
1.7799999999998204, -0.4038010756821306 
1.7899999999998193, -0.40366789040048695 
1.7999999999998182, -0.40380468894427485 
1.809999999999817, -0.4043542426508611 
1.819999999999816, -0.40554438488211747 
1.8299999999998149, -0.40773088062426605 
1.8399999999998138, -0.41144688738875984 
1.8499999999998127, -0.4174235262026188 
1.8599999999998116, -0.4264752047156991 
1.8699999999998105, -0.43905509815013766 
1.8799999999998094, -0.4544241752911599 
1.8899999999998083, -0.4701499217444923 
1.8999999999998072, -0.48322219565844315 
1.909999999999806, -0.49216128387641545 
1.919999999999805, -0.4975157794254838 
1.9299999999998039, -0.5005974617722609 
1.9399999999998028, -0.5024415145011837 
1.9499999999998017, -0.5036215712273526 
1.9599999999998006, -0.5044132918065201 
1.9699999999997995, -0.5049480070764985 
1.9799999999997984, -0.5052930521621151 
1.9899999999997973, -0.5054855921771172 
1.9999999999997962, -0.505545610744744 
2.0099999999998173, -0.5054809530358917 
2.0199999999998384, -0.5052899871302188 
2.0299999999998595, -0.5049646393584677 
2.0399999999998806, -0.5044956556830786 
2.0499999999999017, -0.5038809213032363 
2.059999999999923, -0.5031351241412935 
2.069999999999944, -0.5022954964518358 
2.079999999999965, -0.501417613834875 
2.089999999999986, -0.5005607789953486 
2.100000000000007, -0.49977056705732625 
2.1100000000000283, -0.49906808864222085 
2.1200000000000494, -0.49844994030314077 
2.1300000000000705, -0.4978963016890147 
2.1400000000000916, -0.4973818984228336 
2.1500000000001127, -0.4968851860989387 
2.160000000000134, -0.4963935017835074 
2.170000000000155, -0.49590466542699974 
2.180000000000176, -0.49542720395979145 
2.190000000000197, -0.49498156603681354 
2.2000000000002182, -0.4946041623631632 
2.2100000000002393, -0.49435575397502307 
2.2200000000002604, -0.49433598103443455 
2.2300000000002815, -0.49470645390114426 
2.2400000000003026, -0.49572496845584196 
2.2500000000003237, -0.49779067467742844 
2.260000000000345, -0.5014881429381025 
2.270000000000366, -0.5075844412023544 
2.280000000000387, -0.5168674716810362 
2.290000000000408, -0.5296705754003754 
2.3000000000004293, -0.5451460814219734 
2.3100000000004504, -0.5610118397761541 
2.3200000000004715, -0.5746383596730686 
2.3300000000004926, -0.5846739914914902 
2.3400000000005137, -0.5913651964863909 
2.3500000000005348, -0.5956529869489074 
2.360000000000556, -0.5983989355323908 
2.370000000000577, -0.6001750470115697 
2.380000000000598, -0.6013232137227151 
2.390000000000619, -0.6020454478841726 
2.4000000000006403, -0.6024624957546918 
2.4100000000006614, -0.6026450614064981 
2.4200000000006825, -0.6026294938920771 
2.4300000000007036, -0.6024253871316059 
2.4400000000007247, -0.6020192703982283 
2.450000000000746, -0.6013777354034808 
2.460000000000767, -0.6004541456072457 
2.470000000000788, -0.599203706548971 
2.480000000000809, -0.597608467742911 
2.49000000000083, -0.5957037284411367 
2.5000000000008513, -0.5935866559551758 
2.5100000000008724, -0.5913936207327162 
2.5200000000008935, -0.5892575846772308 
2.5300000000009146, -0.5872735294456524 
2.5400000000009357, -0.5854887384179577 
2.550000000000957, -0.5839133673739193 
2.560000000000978, -0.5825378953260781 
2.570000000000999, -0.581347885431147 
2.58000000000102, -0.5803329935716105 
2.5900000000010412, -0.579491047397744 
2.6000000000010624, -0.5788291333704257 
2.6100000000010835, -0.5783633205894139 
2.6200000000011046, -0.578118012593 
2.6300000000011257, -0.5781254606775886 
2.6400000000011468, -0.5784257549623706 
2.650000000001168, -0.5790674778955589 
2.660000000001189, -0.5801089468379366 
2.67000000000121, -0.581619359533964 
2.680000000001231, -0.5836779307745609 
2.6900000000012523, -0.5863670617267924 
2.7000000000012734, -0.5897530595856598 
2.7100000000012945, -0.5938472970899276 
2.7200000000013156, -0.5985485142609093 
2.7300000000013367, -0.6035913195231067 
2.740000000001358, -0.608556945231838 
2.750000000001379, -0.6129890515675274 
2.7600000000014, -0.6165636786977073 
2.770000000001421, -0.6191854046410774 
2.780000000001442, -0.6209495069459905 
2.7900000000014633, -0.6220355782243046 
2.8000000000014844, -0.6226201504494433 
2.8100000000015055, -0.622836603300064 
2.8200000000015266, -0.6227672825615473 
2.8300000000015477, -0.6224469783230321 
2.840000000001569, -0.6218651384298699 
2.85000000000159, -0.6209607124253739 
2.860000000001611, -0.6196059433221467 
2.870000000001632, -0.6175765494151306 
2.8800000000016532, -0.6145115002894512 
2.8900000000016743, -0.6098878292735551 
2.9000000000016954, -0.6030864091739716 
2.9100000000017165, -0.5936650535160445 
2.9200000000017377, -0.5818235526268885 
2.9300000000017588, -0.5686688223470245 
2.94000000000178, -0.5558207310954215 
2.950000000001801, -0.5446185151547485 
2.960000000001822, -0.5356683890009271 
2.970000000001843, -0.5289427541770501 
2.9800000000018643, -0.5240949416600688 
2.9900000000018854, -0.5207039878656181 
3.0000000000019065, -0.5183923585758841 
3.0100000000019276, -0.516860549464336 
3.0200000000019487, -0.5158847060975915 
3.03000000000197, -0.5153028419951651 
3.040000000001991, -0.5150002425366604 
3.050000000002012, -0.5148973778645148 
3.060000000002033, -0.5149408558552826 
3.070000000002054, -0.5150971164598281 
3.0800000000020753, -0.5153484052362642 
3.0900000000020964, -0.5156904564103799 
3.1000000000021175, -0.5161309771638715 
3.1100000000021386, -0.5166874281581698 
3.1200000000021597, -0.5173820816357767 
3.130000000002181, -0.5182326035112977 
3.140000000002202, -0.5192382093987822 
3.150000000002223, -0.520365196512069 
3.160000000002244, -0.5215403431638658 
3.1700000000022652, -0.5226616486186847 
3.1800000000022863, -0.5236267753741634 
3.1900000000023074, -0.5243640205182125 
3.2000000000023285, -0.5248462980229079 
3.2100000000023496, -0.5250830407269506 
3.2200000000023707, -0.5251009214543388 
3.230000000002392, -0.5249260136046698 
3.240000000002413, -0.5245722134308758 
3.250000000002434, -0.524034165809765 
3.260000000002455, -0.5232805741714092 
3.2700000000024763, -0.5222432422550678 
3.2800000000024974, -0.5207959628428802 
3.2900000000025185, -0.518714612996264 
3.3000000000025396, -0.5156087922926569 
3.3100000000025607, -0.5108329266141206 
3.3200000000025818, -0.5034651400021282 
3.330000000002603, -0.4926015498122135 
3.340000000002624, -0.4781687155725544 
3.350000000002645, -0.4616731894169027 
3.360000000002666, -0.4456706193139741 
3.3700000000026873, -0.43221373617174497 
3.3800000000027084, -0.4220114119613587 
3.3900000000027295, -0.4147605559618895 
3.4000000000027506, -0.40978889547132147 
3.4100000000027717, -0.40644393523095346 
3.420000000002793, -0.4042203648295894 
3.430000000002814, -0.4027626677044659 
3.440000000002835, -0.4018317985509974 
3.450000000002856, -0.4012710126220889 
3.460000000002877, -0.4009799409379749 
3.4700000000028983, -0.4008970978293783 
3.4800000000029194, -0.40098895409993435 
3.4900000000029405, -0.4012437657793533 
3.5000000000029616, -0.40166877056118755 
3.5100000000029827, -0.40228955559573676 
3.520000000003004, -0.4031501246227596 
3.530000000003025, -0.4043113278276918 
3.540000000003046, -0.4058438596399063 
3.550000000003067, -0.40781045078105504 
3.5600000000030882, -0.4102324635860123 
3.5700000000031094, -0.41304463612562775 
3.5800000000031305, -0.416062799347388 
3.5900000000031516, -0.4190069532807693 
3.6000000000031727, -0.4215942793491128 
3.6100000000031938, -0.42364480356316186 
3.620000000003215, -0.42511975217484715 
3.630000000003236, -0.4260820345094502 
3.640000000003257, -0.4266316908439999 
3.650000000003278, -0.4268600253060824 
3.6600000000032993, -0.42682955653900845 
3.6700000000033204, -0.42656889020120453 
3.6800000000033415, -0.4260718248641459 
3.6900000000033626, -0.42529531346012445 
3.7000000000033837, -0.4241559946504106 
3.710000000003405, -0.4225308973728061 
3.720000000003426, -0.4202761234689323 
3.730000000003447, -0.41728204883603287 
3.740000000003468, -0.4135645563969533 
3.750000000003489, -0.4093366579476726 
3.7600000000035103, -0.4049729184865168 
3.7700000000035314, -0.4008621537850218 
3.7800000000035525, -0.3972649299425256 
3.7900000000035736, -0.39427370680854035 
3.8000000000035947, -0.3918587518708933 
3.810000000003616, -0.3899336979565572 
3.820000000003637, -0.38840227737738536 
3.830000000003658, -0.3871816626454353 
3.840000000003679, -0.3862105605686084 
3.8500000000037002, -0.3854501194762917 
3.8600000000037213, -0.3848827224024446 
3.8700000000037424, -0.38451141323959165 
3.8800000000037635, -0.38436146385065706 
3.8900000000037847, -0.3844851739337778 
3.9000000000038058, -0.3849711277009261 
3.910000000003827, -0.38595954486639983 
3.920000000003848, -0.387665555950131 
3.930000000003869, -0.39041078039855936 
3.94000000000389, -0.3946565128951949 
3.9500000000039113, -0.40101003869393625 
3.9600000000039324, -0.41012726602036753 
3.9700000000039535, -0.4223801289639919 
3.9800000000039746, -0.4372508408001653 
3.9900000000039957, -0.4529075522732393 
4.000000000004016, -0.4668427398102752 
4.010000000003993, -0.4773910593020845 
4.02000000000397, -0.48445301718723854 
4.030000000003946, -0.48886660651526065 
4.040000000003923, -0.49156098159289596 
4.0500000000039, -0.4932049016189944 
4.0600000000038765, -0.4942053738288439 
4.070000000003853, -0.49479510460172094 
4.08000000000383, -0.49510426102213134 
4.090000000003807, -0.49520321672313034 
4.100000000003783, -0.49512541148383465 
4.11000000000376, -0.49487944438116155 
4.120000000003737, -0.4944566371747016 
4.130000000003713, -0.4938386661356315 
4.14000000000369, -0.49300878886870914 
4.150000000003667, -0.4919674742826274 
4.1600000000036434, -0.4907473714565648 
4.17000000000362, -0.4894170005068149 
4.180000000003597, -0.48806591902648727 
4.1900000000035735, -0.48677785460176687 
4.20000000000355, -0.48560823879625625 
4.210000000003527, -0.48457721123560543 
4.220000000003504, -0.4836766813044546 
4.23000000000348, -0.4828835353765045 
4.240000000003457, -0.4821720893322724 
4.250000000003434, -0.48152248993299845 
4.26000000000341, -0.480924900330424 
4.270000000003387, -0.4803811556841732 
4.280000000003364, -0.47990609356497715 
4.2900000000033405, -0.47953043414185476 
4.300000000003317, -0.4793066467819987 
4.310000000003294, -0.47931916173682876 
4.320000000003271, -0.4797005955559224 
4.330000000003247, -0.4806559810467448 
4.340000000003224, -0.48249624204144703 
4.350000000003201, -0.4856773798245415 
4.360000000003177, -0.4908260223217537 
4.370000000003154, -0.4986936089600844 
4.380000000003131, -0.509922231562337 
4.390000000003107, -0.5245126132016955 
4.400000000003084, -0.541197891065969 
4.410000000003061, -0.5575134483202975 
4.4200000000030375, -0.5710705483637553 
4.430000000003014, -0.5808878117620242 
4.440000000002991, -0.5873816186545406 
4.450000000002968, -0.5914948910255358 
4.460000000002944, -0.5940662883716069 
4.470000000002921, -0.5956660639623143 
4.480000000002898, -0.5966439335502586 
4.490000000002874, -0.5972067067225957 
4.500000000002851, -0.5974735709659132 
4.510000000002828, -0.5975081328398001 
4.520000000002804, -0.5973352337654384 
4.530000000002781, -0.5969489943222481 
4.540000000002758, -0.5963168615920613 
4.5500000000027345, -0.5953846221781933 
4.560000000002711, -0.5940887611945525 
4.570000000002688, -0.592381911405122 
4.580000000002665, -0.5902686313921061 
4.590000000002641, -0.5878321706432879 
4.600000000002618, -0.5852259603142234 
4.610000000002595, -0.5826266510800564 
4.620000000002571, -0.5801796974099028 
4.630000000002548, -0.5779711620973061 
4.640000000002525, -0.5760315320867947 
4.6500000000025015, -0.5743559171009686 
4.660000000002478, -0.5729247078707338 
4.670000000002455, -0.571717624667371 
4.6800000000024315, -0.5707208451480248 
4.690000000002408, -0.5699294367933 
4.700000000002385, -0.5693473738679742 
4.710000000002362, -0.5689866880983866 
4.720000000002338, -0.568866629486086 
4.730000000002315, -0.5690133124104941 
4.740000000002292, -0.5694601015372919 
4.750000000002268, -0.5702487732444925 
4.760000000002245, -0.571431082432017 
4.770000000002222, -0.5730695604037865 
4.7800000000021985, -0.5752349351318412 
4.790000000002175, -0.5779954641151083 
4.800000000002152, -0.5813916761817046 
4.810000000002129, -0.5853922548598689 
4.820000000002105, -0.5898403627332094 
4.830000000002082, -0.5944270946052638 
4.840000000002059, -0.5987442159902117 
4.850000000002035, -0.6024211413405651 
4.860000000002012, -0.6052582856422843 
4.870000000001989, -0.6072563927939806 
4.880000000001965, -0.6085447418876437 
4.890000000001942, -0.6092880364447144 
