t, s[1].omega / s[0].omega 
0, -0.899997605758878 
0.009999999999999995, -0.899712498633668 
0.019999999999999934, -0.8993291563100559 
0.029999999999999874, -0.8988306827771412 
0.04000000000000012, -0.8982057046420596 
0.050000000000000405, -0.8974622850948816 
0.06000000000000069, -0.896635429121798 
0.07000000000000098, -0.8957884086041575 
0.08000000000000126, -0.8950092442655413 
0.09000000000000155, -0.894400687596207 
0.10000000000000184, -0.8940619872815077 
0.11000000000000212, -0.8940666943029119 
0.12000000000000241, -0.894446463109702 
0.130000000000002, -0.8951881906433516 
0.1400000000000009, -0.8962432618341735 
0.1499999999999998, -0.8975426113037338 
0.1599999999999987, -0.8990123192884709 
0.1699999999999976, -0.9005864716399848 
0.1799999999999965, -0.9022142829259904 
0.1899999999999954, -0.9038587006771482 
0.1999999999999943, -0.9054857682513733 
0.2099999999999932, -0.9070485776420225 
0.2199999999999921, -0.9084756318770477 
0.229999999999991, -0.9096758700211878 
0.2399999999999899, -0.9105640025108379 
0.2499999999999888, -0.9110918110084907 
0.2599999999999877, -0.9112631239742413 
0.2699999999999866, -0.9111261158197947 
0.2799999999999855, -0.9107579213547442 
0.2899999999999844, -0.9102592872435361 
0.2999999999999833, -0.9097639188940887 
0.3099999999999822, -0.909452056594081 
0.3199999999999811, -0.9095474596738992 
0.32999999999998, -0.9102796919261771 
0.3399999999999789, -0.9118187059147351 
0.3499999999999778, -0.9142206525500667 
0.35999999999997667, -0.9174227478892734 
0.36999999999997557, -0.9212848676423185 
0.37999999999997447, -0.9256424188614731 
0.38999999999997337, -0.9303388151924352 
0.39999999999997227, -0.9352276360076035 
0.40999999999997117, -0.9401506693704382 
0.41999999999997006, -0.944908604920472 
0.42999999999996896, -0.9492525598820502 
0.43999999999996786, -0.9529250471280685 
0.44999999999996676, -0.9557438451888572 
0.45999999999996566, -0.9576686982633037 
0.46999999999996456, -0.9587939501658218 
0.47999999999996346, -0.9592821938981457 
0.48999999999996235, -0.9592997423317586 
0.49999999999996125, -0.9589920027324987 
0.5099999999999602, -0.9585005029872466 
0.519999999999959, -0.958009612781064 
0.529999999999958, -0.9578037828468711 
0.5399999999999568, -0.9582943307201048 
0.5499999999999557, -0.9599563638842454 
0.5599999999999546, -0.963162343472064 
0.5699999999999535, -0.9680128152634866 
0.5799999999999524, -0.9743033701150952 
0.5899999999999513, -0.9816402119318747 
0.5999999999999502, -0.9895860475131689 
0.6099999999999491, -0.9977347304697088 
0.619999999999948, -1.0057059859432935 
0.6299999999999469, -1.013112258753004 
0.6399999999999458, -1.0195631106324214 
0.6499999999999447, -1.0247429866647442 
0.6599999999999436, -1.028520472657897 
0.6699999999999425, -1.0309882317207497 
0.6799999999999414, -1.0323906560960794 
0.6899999999999403, -1.0330068908735606 
0.6999999999999392, -1.0330742206429098 
0.7099999999999381, -1.0327760610599017 
0.719999999999937, -1.0322780315619853 
0.7299999999999359, -1.0317913674460943 
0.7399999999999348, -1.0316347770928276 
0.7499999999999337, -1.0322344312858056 
0.7599999999999326, -1.0339991456701645 
0.7699999999999315, -1.0371167985750325 
0.7799999999999304, -1.0414494876457723 
0.7899999999999293, -1.046627815531313 
0.7999999999999282, -1.0522342175951738 
0.8099999999999271, -1.0579220814275598 
0.819999999999926, -1.0634344360583017 
0.8299999999999249, -1.068568688486866 
0.8399999999999238, -1.073139400635938 
0.8499999999999227, -1.0769726024793145 
0.8599999999999216, -1.0799406062563337 
0.8699999999999205, -1.082010139095429 
0.8799999999999194, -1.083256476344948 
0.8899999999999183, -1.083827462047641 
0.8999999999999172, -1.0838905678729307 
0.9099999999999161, -1.083603785832452 
0.919999999999915, -1.0831232199321974 
0.9299999999999139, -1.0826332387739837 
0.9399999999999128, -1.0823653875007664 
0.9499999999999117, -1.0825637154596968 
0.9599999999999106, -1.083391605585193 
0.9699999999999095, -1.0848527984587497 
0.9799999999999084, -1.0868054937891403 
0.9899999999999073, -1.0890478533016434 
0.9999999999999062, -1.0913936201614471 
1.0099999999999052, -1.0937016570486207 
1.019999999999904, -1.0958746851152974 
1.029999999999903, -1.0978471293094798 
1.039999999999902, -1.099570091343648 
1.0499999999999008, -1.1009982396829883 
1.0599999999998997, -1.102085584986463 
1.0699999999998986, -1.1027944272339223 
1.0799999999998975, -1.1031117419606669 
1.0899999999998964, -1.1030600023358788 
1.0999999999998953, -1.102696103750254 
1.1099999999998942, -1.10210535300584 
1.119999999999893, -1.1013991689372045 
1.129999999999892, -1.1007122679851027 
1.1399999999998909, -1.1001845189399933 
1.1499999999998898, -1.0999242857364622 
1.1599999999998887, -1.0999771235238913 
1.1699999999998876, -1.100324645275762 
1.1799999999998865, -1.100904837467049 
1.1899999999998854, -1.1016300765080373 
1.1999999999998843, -1.102399323314795 
1.2099999999998832, -1.1031129078510131 
1.219999999999882, -1.1036882484585389 
1.229999999999881, -1.104068970250668 
1.2399999999998799, -1.1042253070523893 
1.2499999999998788, -1.1041478860430487 
1.2599999999998777, -1.103837836830031 
1.2699999999998766, -1.1032980994323236 
1.2799999999998755, -1.1025314965844395 
1.2899999999998744, -1.1015469114323833 
1.2999999999998733, -1.100369322895456 
1.3099999999998722, -1.0990479175018664 
1.319999999999871, -1.0976581426138017 
1.32999999999987, -1.0962954807127003 
1.3399999999998689, -1.095062667771883 
1.3499999999998678, -1.09405616192899 
1.3599999999998666, -1.0933521705173201 
1.3699999999998655, -1.0929841971477239 
1.3799999999998644, -1.0929171787586738 
1.3899999999998633, -1.0930449500608361 
1.3999999999998622, -1.0932225608183859 
1.4099999999998611, -1.093307121939512 
1.41999999999986, -1.0931788336358708 
1.429999999999859, -1.0927435319821723 
1.4399999999998578, -1.0919338619641903 
1.4499999999998567, -1.0907167241542275 
1.4599999999998556, -1.0890987509942958 
1.4699999999998545, -1.0871188321652059 
1.4799999999998534, -1.0848301509176568 
1.4899999999998523, -1.0822859617134004 
1.4999999999998512, -1.0795391346168524 
1.5099999999998501, -1.0766535620811775 
1.519999999999849, -1.0737196916327827 
1.529999999999848, -1.070867843994591 
1.5399999999998468, -1.0682724410262625 
1.5499999999998457, -1.0661314658213066 
1.5599999999998446, -1.0646040939568366 
1.5699999999998435, -1.063726381987087 
1.5799999999998424, -1.0633754733427399 
1.5899999999998413, -1.0633251217373352 
1.5999999999998402, -1.0633394621655194 
1.6099999999998391, -1.0632255034438842 
1.619999999999838, -1.0628285713981602 
1.629999999999837, -1.0620053181975684 
1.6399999999998358, -1.060610161050317 
1.6499999999998347, -1.0585131390380416 
1.6599999999998336, -1.0556430852390783 
1.6699999999998325, -1.0520232133240603 
1.6799999999998314, -1.0477647765015805 
1.6899999999998303, -1.0430237264367155 
1.6999999999998292, -1.0379603268477784 
1.709999999999828, -1.0327312338238854 
1.719999999999827, -1.027511836378823 
1.729999999999826, -1.0225278656118484 
1.7399999999998248, -1.0180672794576904 
1.7499999999998237, -1.0144382789478381 
1.7599999999998226, -1.0118601885756573 
1.7699999999998215, -1.010344069445305 
1.7799999999998204, -1.0096713021580381 
1.7899999999998193, -1.009501713525109 
1.7999999999998182, -1.0095121767979285 
1.809999999999817, -1.0094623783601944 
1.819999999999816, -1.0091809364115059 
1.8299999999998149, -1.0085204061714714 
1.8399999999998138, -1.007322247812802 
1.8499999999998127, -1.0054144684937774 
1.8599999999998116, -1.0026517178414158 
1.8699999999998105, -0.9989819513703233 
1.8799999999998094, -0.9944892623903503 
1.8899999999998083, -0.9893695907678053 
1.8999999999998072, -0.9838592659232208 
1.909999999999806, -0.9781775594015496 
1.919999999999805, -0.9725162230887087 
1.9299999999998039, -0.9670631680554361 
1.9399999999998028, -0.9620300369276981 
1.9499999999998017, -0.9576558055993395 
1.9599999999998006, -0.9541666821883595 
1.9699999999997995, -0.9516959649647966 
1.9799999999997984, -0.9502102857781971 
1.9899999999997973, -0.949507092763298 
1.9999999999997962, -0.9492947826115208 
2.0099999999998173, -0.9492922156394454 
2.0199999999998384, -0.9492817687698863 
2.0299999999998595, -0.9491070061502741 
2.0399999999998806, -0.9486453441876735 
2.0499999999999017, -0.9477866830857732 
2.059999999999923, -0.9464353322840177 
2.069999999999944, -0.9445367043703659 
2.079999999999965, -0.9421094430584415 
2.089999999999986, -0.939250769428748 
2.100000000000007, -0.936102570294082 
2.1100000000000283, -0.9328037344662887 
2.1200000000000494, -0.9294630382851098 
2.1300000000000705, -0.9261615394430593 
2.1400000000000916, -0.9229707342044747 
2.1500000000001127, -0.9199699832880404 
2.160000000000134, -0.9172540144033159 
2.170000000000155, -0.9149273328913845 
2.180000000000176, -0.9130849048309019 
2.190000000000197, -0.9117822740098009 
2.2000000000002182, -0.9110073117496087 
2.2100000000002393, -0.9106725904837962 
2.2200000000002604, -0.9106375647676537 
2.2300000000002815, -0.9107472367152288 
2.2400000000003026, -0.9108636626544484 
2.2500000000003237, -0.9108789005422689 
2.260000000000345, -0.9107155168370781 
2.270000000000366, -0.9103262890690166 
2.280000000000387, -0.9096976363635798 
2.290000000000408, -0.9088507184045506 
2.3000000000004293, -0.9078314502496007 
2.3100000000004504, -0.9066904752121138 
2.3200000000004715, -0.9054653803538291 
2.3300000000004926, -0.9041762679706 
2.3400000000005137, -0.9028348682502744 
2.3500000000005348, -0.9014590156646726 
2.360000000000556, -0.9000839255280683 
2.370000000000577, -0.8987658533400908 
2.380000000000598, -0.8975773748679838 
2.390000000000619, -0.8965956763436399 
2.4000000000006403, -0.8958873512400342 
2.4100000000006614, -0.8954945007733437 
2.4200000000006825, -0.8954257021866863 
2.4300000000007036, -0.8956533442579581 
2.4400000000007247, -0.896118330112216 
2.450000000000746, -0.8967422811798776 
2.460000000000767, -0.897444069591028 
2.470000000000788, -0.898154906258795 
2.480000000000809, -0.8988274878919489 
2.49000000000083, -0.899437544822125 
2.5000000000008513, -0.8999775383873574 
2.5100000000008724, -0.9004438064981084 
2.5200000000008935, -0.9008223872096537 
2.5300000000009146, -0.9010822395966034 
2.5400000000009357, -0.9011821179309771 
2.550000000000957, -0.9010881388083491 
2.560000000000978, -0.9007908270957815 
2.570000000000999, -0.9003127038898733 
2.58000000000102, -0.8997078553899179 
2.5900000000010412, -0.8990603948088101 
2.6000000000010624, -0.8984836710001078 
2.6100000000010835, -0.8981136273149584 
2.6200000000011046, -0.8980882649271937 
2.6300000000011257, -0.8985153796355213 
2.6400000000011468, -0.8994445519228279 
2.650000000001168, -0.900860243471192 
2.660000000001189, -0.9026975996796118 
2.67000000000121, -0.9048682729115175 
2.680000000001231, -0.9072829278590641 
2.6900000000012523, -0.9098639277492259 
2.7000000000012734, -0.9125462973913298 
2.7100000000012945, -0.915266886206271 
2.7200000000013156, -0.9179452664998535 
2.7300000000013367, -0.9204674090203415 
2.740000000001358, -0.9226896917311397 
2.750000000001379, -0.9244735676448625 
2.7600000000014, -0.9257345536862601 
2.770000000001421, -0.9264688632679358 
2.780000000001442, -0.9267398597462071 
2.7900000000014633, -0.9266445563618368 
2.8000000000014844, -0.9262915251620365 
2.8100000000015055, -0.9258047398992494 
2.8200000000015266, -0.9253491857809857 
2.8300000000015477, -0.9251603866109832 
2.840000000001569, -0.9255468086236208 
2.85000000000159, -0.9268345749277357 
2.860000000001611, -0.9292627006022872 
2.870000000001632, -0.9328942313573885 
2.8800000000016532, -0.9376095891132451 
2.8900000000016743, -0.9431762947955967 
2.9000000000016954, -0.94933088953428 
2.9100000000017165, -0.9558206066284706 
2.9200000000017377, -0.9623960887904618 
2.9300000000017588, -0.9687781996461784 
2.94000000000178, -0.9746394912417784 
2.950000000001801, -0.9796431855280163 
2.960000000001822, -0.983543475190983 
2.970000000001843, -0.9862776788593761 
2.9800000000018643, -0.9879666713429035 
2.9900000000018854, -0.9888288132221273 
3.0000000000019065, -0.9890867243268324 
3.0100000000019276, -0.9889234193507142 
3.0200000000019487, -0.9884915503014383 
3.03000000000197, -0.9879598696025866 
3.040000000001991, -0.9875800887290225 
3.050000000002012, -0.9877400946032818 
3.060000000002033, -0.988936227034469 
3.070000000002054, -0.9916144140068942 
3.0800000000020753, -0.9959557459134387 
3.0900000000020964, -1.0017873030185427 
3.1000000000021175, -1.0086908805698995 
3.1100000000021386, -1.016187009244487 
3.1200000000021597, -1.0238487992661434 
3.130000000002181, -1.0313144472042433 
3.140000000002202, -1.0382504671742459 
3.150000000002223, -1.0443323689951962 
3.160000000002244, -1.0492852481135369 
3.1700000000022652, -1.0529683830432826 
3.1800000000022863, -1.0554274450557946 
3.1900000000023074, -1.056856891735893 
3.2000000000023285, -1.057505473414138 
3.2100000000023496, -1.0575999921569479 
3.2200000000023707, -1.0573241208687 
3.230000000002392, -1.0568452867471672 
3.240000000002413, -1.0563680632013988 
3.250000000002434, -1.0561804081612376 
3.260000000002455, -1.056635909249569 
3.2700000000024763, -1.0580326099542299 
3.2800000000024974, -1.06045743975779 
3.2900000000025185, -1.0637442052421346 
3.3000000000025396, -1.0675823504775326 
3.3100000000025607, -1.0716595308282943 
3.3200000000025818, -1.0757353189230359 
3.330000000002603, -1.0796432780456546 
3.340000000002624, -1.0832615217888288 
3.350000000002645, -1.086482594258813 
3.360000000002666, -1.0892005352807563 
3.3700000000026873, -1.0913240839256706 
3.3800000000027084, -1.0928076995190534 
3.3900000000027295, -1.093673498734409 
3.4000000000027506, -1.0940035892931443 
3.4100000000027717, -1.0939125485178933 
3.420000000002793, -1.0935271005082965 
3.430000000002814, -1.092987822521143 
3.440000000002835, -1.0924631411858747 
3.450000000002856, -1.0921464983431943 
3.460000000002877, -1.0922117093687782 
3.4700000000028983, -1.0927454644197057 
3.4800000000029194, -1.0937171812651392 
3.4900000000029405, -1.0950128184742127 
3.5000000000029616, -1.0964921476806437 
3.5100000000029827, -1.0980256022108048 
3.520000000003004, -1.0995076461582511 
3.530000000003025, -1.100860296543336 
3.540000000003046, -1.1020318514970935 
3.550000000003067, -1.1029900619454707 
3.5600000000030882, -1.1037116257277606 
3.5700000000031094, -1.1041739053610455 
3.5800000000031305, -1.104355007667691 
3.5900000000031516, -1.104242839173024 
3.6000000000031727, -1.103846579100158 
3.6100000000031938, -1.1032035235265174 
3.620000000003215, -1.1023806431107586 
3.630000000003236, -1.1014728898003594 
3.640000000003257, -1.1005947849420195 
3.650000000003278, -1.0998597587639751 
3.6600000000032993, -1.0993536775089017 
3.6700000000033204, -1.0991195080335674 
3.6800000000033415, -1.0991570370331831 
3.6900000000033626, -1.099424785803781 
3.7000000000033837, -1.0998413829081202 
3.710000000003405, -1.1002981704720953 
3.720000000003426, -1.1006834009777786 
3.730000000003447, -1.1009033318236718 
3.740000000003468, -1.1008919104603172 
3.750000000003489, -1.1006126501984466 
3.7600000000035103, -1.1000563095538864 
3.7700000000035314, -1.09923347249875 
3.7800000000035525, -1.0981632937532573 
3.7900000000035736, -1.0968651418650617 
3.8000000000035947, -1.095359084994403 
3.810000000003616, -1.0936742926352587 
3.820000000003637, -1.091859221133978 
3.830000000003658, -1.0899875923003635 
3.840000000003679, -1.0881578767979978 
3.8500000000037002, -1.0864877666202608 
3.8600000000037213, -1.0851027080359885 
3.8700000000037424, -1.084108826550535 
3.8800000000037635, -1.0835468878782069 
3.8900000000037847, -1.0833564316002198 
3.9000000000038058, -1.083389911035605 
3.910000000003827, -1.0834684853413434 
3.920000000003848, -1.0834294172657686 
3.930000000003869, -1.0831382035302322 
3.94000000000389, -1.082480761532389 
3.9500000000039113, -1.081361743669058 
3.9600000000039324, -1.07971924336596 
3.9700000000039535, -1.0775440388780417 
3.9800000000039746, -1.074881862260452 
3.9900000000039957, -1.0718125033503079 
4.000000000004016, -1.0684234909228132 
4.010000000003993, -1.0647993299552958 
4.02000000000397, -1.061031100761651 
4.030000000003946, -1.0572380162143968 
4.040000000003923, -1.053589260610233 
4.0500000000039, -1.050310333974957 
4.0600000000038765, -1.0476488441455352 
4.070000000003853, -1.0457850636346633 
4.08000000000383, -1.044730434394737 
4.090000000003807, -1.044306344814839 
4.100000000003783, -1.044232505666423 
4.11000000000376, -1.044240154195315 
4.120000000003737, -1.0441224779376248 
4.130000000003713, -1.043719214899148 
4.14000000000369, -1.042879400355138 
4.150000000003667, -1.0414397967982174 
4.1600000000036434, -1.0392392495920826 
4.17000000000362, -1.0361691762656486 
4.180000000003597, -1.0322286713402304 
4.1900000000035735, -1.0275356159011104 
4.20000000000355, -1.0222813351053546 
4.210000000003527, -1.0166715282470202 
4.220000000003504, -1.0109002324554954 
4.23000000000348, -1.0051642754982164 
4.240000000003457, -0.9996953330765118 
4.250000000003434, -0.9947772258202825 
4.26000000000341, -0.9907148662432604 
4.270000000003387, -0.9877393839140188 
4.280000000003364, -0.9858925706359101 
4.2900000000033405, -0.9849876960039419 
4.300000000003317, -0.9846946491246399 
4.310000000003294, -0.9846763807169809 
4.320000000003271, -0.9846716813522691 
4.330000000003247, -0.9844978797393255 
4.340000000003224, -0.9840123878612822 
4.350000000003201, -0.9830756145301273 
4.360000000003177, -0.9815399487849641 
4.370000000003154, -0.9792760145168803 
4.380000000003131, -0.976227347468555 
4.390000000003107, -0.9724539484351657 
4.400000000003084, -0.9681209492582685 
4.410000000003061, -0.9634374129962222 
4.4200000000030375, -0.9585968290560946 
4.430000000003014, -0.9537571608590139 
4.440000000002991, -0.9490561061423325 
4.450000000002968, -0.9446371422301881 
4.460000000002944, -0.940664921199561 
4.470000000002921, -0.9373157204138607 
4.480000000002898, -0.934736611074128 
4.490000000002874, -0.9329857507148551 
4.500000000002851, -0.9319916882655784 
4.510000000002828, -0.9315687853520656 
4.520000000002804, -0.9314820015588016 
4.530000000002781, -0.9315133933548504 
4.540000000002758, -0.931492708835538 
4.5500000000027345, -0.931293204368232 
4.560000000002711, -0.930815934996566 
4.570000000002688, -0.9299834952036307 
4.580000000002665, -0.9287508690624087 
4.590000000002641, -0.927124070524705 
4.600000000002618, -0.9251652827785751 
4.610000000002595, -0.9229718210858785 
4.620000000002571, -0.9206417041238133 
4.630000000002548, -0.9182505744454407 
4.640000000002525, -0.91585088588045 
4.6500000000025015, -0.9134858305010363 
4.660000000002478, -0.9112048111640012 
4.670000000002455, -0.9090717568898821 
4.6800000000024315, -0.9071638134073934 
4.690000000002408, -0.905561642395511 
4.700000000002385, -0.9043335091360107 
4.710000000002362, -0.9035159552767178 
4.720000000002338, -0.9030970968588802 
4.730000000002315, -0.9030121999941736 
4.740000000002292, -0.903157309783815 
4.750000000002268, -0.9034147769796375 
4.760000000002245, -0.903677035348224 
4.770000000002222, -0.9038602280466227 
4.7800000000021985, -0.903909284924777 
4.790000000002175, -0.9037993068846655 
4.800000000002152, -0.9035336501068325 
4.810000000002129, -0.9031351488555892 
4.820000000002105, -0.9026305066396582 
4.830000000002082, -0.9020355309367918 
4.840000000002059, -0.9013505687680299 
4.850000000002035, -0.900568509696455 
4.860000000002012, -0.8996892808206983 
4.870000000001989, -0.8987323901122707 
4.880000000001965, -0.8977430417836558 
4.890000000001942, -0.896791523645231 
4.900000000001919, -0.8959658666977053 
4.9100000000018955, -0.895357309405678 
4.920000000001872, -0.89504123439834 
4.930000000001849, -0.8950607136355014 
