t, s[1].omega / s[0].omega 
0, -1.2899963480686947 
0.009999999999999995, -1.2894501363262607 
0.019999999999999934, -1.2885465038239081 
0.029999999999999874, -1.2872888166044605 
0.04000000000000012, -1.2856842200125504 
0.050000000000000405, -1.2837458164857536 
0.06000000000000069, -1.2814950536197616 
0.07000000000000098, -1.2789638701923525 
0.08000000000000126, -1.2761962906992959 
0.09000000000000155, -1.273249735333119 
0.10000000000000184, -1.2701972719583619 
0.11000000000000212, -1.2671322019580578 
0.12000000000000241, -1.264173772880506 
0.130000000000002, -1.2614672962511262 
0.1400000000000009, -1.2591681249130957 
0.1499999999999998, -1.257404565719862 
0.1599999999999987, -1.256231743717266 
0.1699999999999976, -1.255603452415649 
0.1799999999999965, -1.255382439973988 
0.1899999999999954, -1.2553822469209908 
0.1999999999999943, -1.255412598249445 
0.2099999999999932, -1.2553046034766902 
0.2199999999999921, -1.2549107970702276 
0.229999999999991, -1.2540882984472714 
0.2399999999999899, -1.2526753266438253 
0.2499999999999888, -1.2504680410241573 
0.2599999999999877, -1.247202360985398 
0.2699999999999866, -1.242545790861016 
0.2799999999999855, -1.236105757741632 
0.2899999999999844, -1.2274603963947897 
0.2999999999999833, -1.2162123372514302 
0.3099999999999822, -1.2020566492347478 
0.3199999999999811, -1.1848467284451782 
0.32999999999998, -1.1646437462700052 
0.3399999999999789, -1.141745970874745 
0.3499999999999778, -1.1167037674123976 
0.35999999999997667, -1.0903235912623541 
0.36999999999997557, -1.0636494625106971 
0.37999999999997447, -1.037895688756907 
0.38999999999997337, -1.0143082171343774 
0.39999999999997227, -0.9939641311642172 
0.40999999999997117, -0.9775661056655053 
0.41999999999997006, -0.9653146294716232 
0.42999999999996896, -0.9569157862510647 
0.43999999999996786, -0.9517174323041044 
0.44999999999996676, -0.9489079180665597 
0.45999999999996566, -0.9476973227918786 
0.46999999999996456, -0.9474307302004557 
0.47999999999996346, -0.9476264174300711 
0.48999999999996235, -0.9479608018710516 
0.49999999999996125, -0.9482286326572045 
0.5099999999999602, -0.9482993206097631 
0.519999999999959, -0.9480795102062604 
0.529999999999958, -0.9474842121178859 
0.5399999999999568, -0.9464152302776329 
0.5499999999999557, -0.944745197682347 
0.5599999999999546, -0.942307077085861 
0.5699999999999535, -0.9388916531980639 
0.5799999999999524, -0.9342583462934465 
0.5899999999999513, -0.9281655342693692 
0.5999999999999502, -0.9204222106848486 
0.6099999999999491, -0.9109513335791605 
0.619999999999948, -0.8998412570220439 
0.6299999999999469, -0.8873576534537512 
0.6399999999999458, -0.8739040296592513 
0.6499999999999447, -0.8599463692505622 
0.6599999999999436, -0.8459347392328023 
0.6699999999999425, -0.8322494225433927 
0.6799999999999414, -0.819180145822143 
0.6899999999999403, -0.8069308533101273 
0.6999999999999392, -0.7956369124539381 
0.7099999999999381, -0.7853840209048092 
0.719999999999937, -0.7762229757577475 
0.7299999999999359, -0.7681785408528155 
0.7399999999999348, -0.7612530783275001 
0.7499999999999337, -0.7554267353364078 
0.7599999999999326, -0.7506562949806223 
0.7699999999999315, -0.7468746194899539 
0.7799999999999304, -0.7439920726968994 
0.7899999999999293, -0.7419005132828576 
0.7999999999999282, -0.7404795723880112 
0.8099999999999271, -0.7396042095786167 
0.819999999999926, -0.7391521980691859 
0.8299999999999249, -0.7390103071040831 
0.8399999999999238, -0.73907843024406 
0.8499999999999227, -0.7392715340324532 
0.8599999999999216, -0.739519845187901 
0.8699999999999205, -0.7397680118916453 
0.8799999999999194, -0.7399740236614195 
0.8899999999999183, -0.7401084785155405 
0.8999999999999172, -0.7401543991871807 
0.9099999999999161, -0.7401073113555925 
0.919999999999915, -0.7399748677060868 
0.9299999999999139, -0.7397751594372781 
0.9399999999999128, -0.7395331750174704 
0.9499999999999117, -0.7392755837310813 
0.9599999999999106, -0.7390248000546381 
0.9699999999999095, -0.738793722258055 
0.9799999999999084, -0.7385824613503078 
0.9899999999999073, -0.7383778969032586 
0.9999999999999062, -0.738156216824459 
1.0099999999999052, -0.7378878601197564 
1.019999999999904, -0.7375436346596344 
1.029999999999903, -0.7371004812477597 
1.039999999999902, -0.7365456291285638 
1.0499999999999008, -0.7358786695388665 
1.0599999999998997, -0.7351119576166719 
1.0699999999998986, -0.7342702886075335 
1.0799999999998975, -0.7333908056136426 
1.0899999999998964, -0.7325237170793053 
1.0999999999998953, -0.731733882556806 
1.1099999999998942, -0.7311028526318208 
1.119999999999893, -0.7307306123509948 
1.129999999999892, -0.7307361216090021 
1.1399999999998909, -0.73125581621869 
1.1499999999998898, -0.7324395651435504 
1.1599999999998887, -0.7344441436333337 
1.1699999999998876, -0.7374249398844606 
1.1799999999998865, -0.7415271316560197 
1.1899999999998854, -0.746877713088701 
1.1999999999998843, -0.7535793986520096 
1.2099999999998832, -0.761706637547872 
1.219999999999882, -0.7713029450225517 
1.229999999999881, -0.7823777653657557 
1.2399999999998799, -0.7949003931335533 
1.2499999999998788, -0.8087884001648185 
1.2599999999998777, -0.8238890219570597 
1.2699999999998766, -0.8399547744437181 
1.2799999999998755, -0.8566198449646265 
1.2899999999998744, -0.8733908354283741 
1.2999999999998733, -0.8896701563958633 
1.3099999999998722, -0.9048249814228572 
1.319999999999871, -0.9182937047584774 
1.32999999999987, -0.9296937412484019 
1.3399999999998689, -0.9388830608080746 
1.3499999999998678, -0.945949519908062 
1.3599999999998666, -0.9511419183749765 
1.3699999999998655, -0.9547817919902944 
1.3799999999998644, -0.9571906941324326 
1.3899999999998633, -0.958647412092039 
1.3999999999998622, -0.9593723523226458 
1.4099999999998611, -0.9595296654550138 
1.41999999999986, -0.9592387736682013 
1.429999999999859, -0.9585908687288741 
1.4399999999998578, -0.9576697281688452 
1.4499999999998567, -0.9565788377090401 
1.4599999999998556, -0.9554778525805847 
1.4699999999998545, -0.9546299071294547 
1.4799999999998534, -0.9544554898303054 
1.4899999999998523, -0.9555773566196272 
1.4999999999998512, -0.9588267854370234 
1.5099999999998501, -0.9651740647606081 
1.519999999999849, -0.9755604391367511 
1.529999999999848, -0.9906526925487127 
1.5399999999998468, -1.0105991121698177 
1.5499999999998457, -1.0348956649511671 
1.5599999999998446, -1.0624368652424094 
1.5699999999998435, -1.091736126333564 
1.5799999999998424, -1.121217404155685 
1.5899999999998413, -1.1494649783123014 
1.5999999999998402, -1.1753709082194597 
1.6099999999998391, -1.1981856935386623 
1.619999999999838, -1.217509707076446 
1.629999999999837, -1.2332567352809451 
1.6399999999998358, -1.2456007216954819 
1.6499999999998347, -1.25490583781853 
1.6599999999998336, -1.261644226346487 
1.6699999999998325, -1.2663152380655716 
1.6799999999998314, -1.2693824076403866 
1.6899999999998303, -1.2712372498226432 
1.6999999999998292, -1.272188899820642 
1.709999999999828, -1.2724725397321914 
1.719999999999827, -1.2722688890706837 
1.729999999999826, -1.2717290789831366 
1.7399999999998248, -1.2710005010708336 
1.7499999999998237, -1.2702476052325837 
1.7599999999998226, -1.2696579635908092 
1.7699999999998215, -1.269423681172874 
1.7799999999998204, -1.2696988848313175 
1.7899999999998193, -1.2705536971721874 
1.7999999999998182, -1.2719549948234148 
1.809999999999817, -1.273787620245679 
1.819999999999816, -1.2758998783367927 
1.8299999999998149, -1.2781445002689202 
1.8399999999998138, -1.2803987221769868 
1.8499999999998127, -1.2825660258064882 
1.8599999999998116, -1.284570452465481 
1.8699999999998105, -1.2863515667451568 
1.8799999999998094, -1.2878620949102613 
1.8899999999998083, -1.2890668786225927 
1.8999999999998072, -1.2899416440901779 
1.909999999999806, -1.2904711274059413 
1.919999999999805, -1.2906468019788773 
1.9299999999998039, -1.2904646390886456 
1.9399999999998028, -1.2899233262036058 
1.9499999999998017, -1.289023320139959 
1.9599999999998006, -1.2877669731704093 
1.9699999999997995, -1.286159727402149 
1.9799999999997984, -1.2842121263086623 
1.9899999999997973, -1.281942235880344 
1.9999999999997962, -1.279378015198644 
2.0099999999998173, -1.276559287037794 
2.0199999999998384, -1.2735394536977411 
2.0299999999998595, -1.2703880148308915 
2.0399999999998806, -1.267195334076021 
2.0499999999999017, -1.2640790419434658 
2.059999999999923, -1.2611861958466888 
2.069999999999944, -1.258680487912917 
2.079999999999965, -1.2567072262382446 
2.089999999999986, -1.2553447085954212 
2.100000000000007, -1.2545685024364355 
2.1100000000000283, -1.2542537323774836 
2.1200000000000494, -1.2542143739485463 
2.1300000000000705, -1.2542526035290262 
2.1400000000000916, -1.2541904954174181 
2.1500000000001127, -1.2538749616633353 
2.160000000000134, -1.253162888149241 
2.170000000000155, -1.2518973636354216 
2.180000000000176, -1.249882781035736 
2.190000000000197, -1.2468635831059476 
2.2000000000002182, -1.24251135169515 
2.2100000000002393, -1.2364268352747219 
2.2200000000002604, -1.2281643609790414 
2.2300000000002815, -1.2172824118979302 
2.2400000000003026, -1.2034149415694726 
2.2500000000003237, -1.1863478223112158 
2.260000000000345, -1.166082106616865 
2.270000000000366, -1.1428741606554331 
2.280000000000387, -1.117254580739912 
2.290000000000408, -1.090030310514748 
2.3000000000004293, -1.0622630140161677 
2.3100000000004504, -1.0352016825571246 
2.3200000000004715, -1.0101473982962177 
2.3300000000004926, -0.9882556377115629 
2.3400000000005137, -0.9703265465602304 
2.3500000000005348, -0.956662591760418 
2.360000000000556, -0.9470551064466586 
2.370000000000577, -0.940902088047605 
2.380000000000598, -0.9374001995435697 
2.390000000000619, -0.9357329275598693 
2.4000000000006403, -0.9351991130985825 
2.4100000000006614, -0.935266864504526 
2.4200000000006825, -0.9355693752690559 
2.4300000000007036, -0.935870021416913 
2.4400000000007247, -0.9360192951568027 
2.450000000000746, -0.9359159826140048 
2.460000000000767, -0.9354765944777859 
2.470000000000788, -0.9346125751595308 
2.480000000000809, -0.9332136496858074 
2.49000000000083, -0.9311366346970301 
2.5000000000008513, -0.9282012336654345 
2.5100000000008724, -0.9241968778108555 
2.5200000000008935, -0.918905946922173 
2.5300000000009146, -0.9121460136818416 
2.5400000000009357, -0.9038249570359992 
2.550000000000957, -0.8939904403447184 
2.560000000000978, -0.8828490570113673 
2.570000000000999, -0.8707404673892205 
2.58000000000102, -0.8580750429721496 
2.5900000000010412, -0.8452621970881977 
2.6000000000010624, -0.8326563690765215 
2.6100000000010835, -0.8205323689825743 
2.6200000000011046, -0.8090859629110064 
2.6300000000011257, -0.7984483838570287 
2.6400000000011468, -0.7887042877063591 
2.650000000001168, -0.7799068099174745 
2.660000000001189, -0.7720872865053466 
2.67000000000121, -0.7652597039445392 
2.680000000001231, -0.7594211954464959 
2.6900000000012523, -0.754550377384188 
2.7000000000012734, -0.7506053513147138 
2.7100000000012945, -0.7475229206947384 
2.7200000000013156, -0.7452200308066718 
2.7300000000013367, -0.7435977076147041 
2.740000000001358, -0.7425470088034387 
2.750000000001379, -0.7419559301081572 
2.7600000000014, -0.741716011522837 
2.770000000001421, -0.7417275993685893 
2.780000000001442, -0.741903218810909 
2.7900000000014633, -0.7421690845858292 
2.8000000000014844, -0.7424652283468982 
2.8100000000015055, -0.742744935757078 
2.8200000000015266, -0.7429741394541771 
2.8300000000015477, -0.7431311371961739 
2.840000000001569, -0.743206573068409 
2.85000000000159, -0.7432031710164012 
2.860000000001611, -0.7431344518409758 
2.870000000001632, -0.7430217987989587 
2.8800000000016532, -0.7428897975755908 
2.8900000000016743, -0.7427605295865193 
2.9000000000016954, -0.7426480610134136 
2.9100000000017165, -0.7425544860054551 
2.9200000000017377, -0.7424685606731039 
2.9300000000017588, -0.7423673629927907 
2.94000000000178, -0.742220670418204 
2.950000000001801, -0.7419970008044069 
2.960000000001822, -0.7416697718043224 
2.970000000001843, -0.7412221033797726 
2.9800000000018643, -0.7406494760834761 
2.9900000000018854, -0.7399604207392131 
3.0000000000019065, -0.7391761373202227 
3.0100000000019276, -0.7383301217710554 
3.0200000000019487, -0.7374685786229125 
3.03000000000197, -0.7366518695046008 
3.040000000001991, -0.7359567199762603 
3.050000000002012, -0.7354784942220086 
3.060000000002033, -0.7353325966065487 
3.070000000002054, -0.7356540175667935 
3.0800000000020753, -0.7365942661693372 
3.0900000000020964, -0.738315440878539 
3.1000000000021175, -0.7409818941730669 
3.1100000000021386, -0.744750627552112 
3.1200000000021597, -0.7497619312972656 
3.130000000002181, -0.7561316477561402 
3.140000000002202, -0.7639457603129709 
3.150000000002223, -0.773256965228248 
3.160000000002244, -0.7840817623969377 
3.1700000000022652, -0.7963957170292045 
3.1800000000022863, -0.8101242134016975 
3.1900000000023074, -0.8251266610254515 
3.2000000000023285, -0.841174359004029 
3.2100000000023496, -0.8579267735565692 
3.2200000000023707, -0.8749176672432076 
3.230000000002392, -0.891568419139603 
3.240000000002413, -0.9072441208450491 
3.250000000002434, -0.9213515890342994 
3.260000000002455, -0.9334507870445224 
3.2700000000024763, -0.9433326736473344 
3.2800000000024974, -0.9510286566896758 
3.2900000000025185, -0.9567544143429008 
3.3000000000025396, -0.9608227564686096 
3.3100000000025607, -0.9635639334860489 
3.3200000000025818, -0.9652739859093142 
3.330000000002603, -0.9661922882826068 
3.340000000002624, -0.9664997446694273 
3.350000000002645, -0.966328493991621 
3.360000000002666, -0.9657775006971713 
3.3700000000026873, -0.9649323844688842 
3.3800000000027084, -0.963890806411779 
3.3900000000027295, -0.9627961391672415 
3.4000000000027506, -0.9618811812759384 
3.4100000000027717, -0.9615188011875822 
3.420000000002793, -0.962266336664973 
3.430000000002814, -0.9648772005137266 
3.440000000002835, -0.9702450094056183 
3.450000000002856, -0.9792568944508377 
3.460000000002877, -0.9925720705033 
3.4700000000028983, -1.010395428298401 
3.4800000000029194, -1.0323455497613823 
3.4900000000029405, -1.0574872236669068 
3.5000000000029616, -1.0845183106617597 
3.5100000000029827, -1.1120255742494087 
3.520000000003004, -1.1387085673020239 
3.530000000003025, -1.1635155474533987 
3.540000000003046, -1.185694242644192 
3.550000000003067, -1.2047910750348998 
3.5600000000030882, -1.2206286573953276 
3.5700000000031094, -1.2332720039863387 
3.5800000000031305, -1.2429802839350228 
3.5900000000031516, -1.2501422095360164 
3.6000000000031727, -1.2552035591532116 
3.6100000000031938, -1.2586024733874104 
3.620000000003215, -1.2607253895669515 
3.630000000003236, -1.261887420046858 
3.640000000003257, -1.2623331184359723 
3.650000000003278, -1.2622506942990674 
3.6600000000032993, -1.261793648053393 
3.6700000000033204, -1.2611052572647121 
3.6800000000033415, -1.26034068960343 
3.6900000000033626, -1.2596783652163333 
3.7000000000033837, -1.2593102029733971 
3.710000000003405, -1.2594067289556885 
3.720000000003426, -1.260070200955402 
3.730000000003447, -1.261303978541365 
3.740000000003468, -1.2630194760335958 
3.750000000003489, -1.2650748293619645 
3.7600000000035103, -1.267319050119009 
3.7700000000035314, -1.2696198064217252 
3.7800000000035525, -1.2718711153515418 
3.7900000000035736, -1.2739897477210813 
3.8000000000035947, -1.275909797754654 
3.810000000003616, -1.2775794643503642 
3.820000000003637, -1.278959639220424 
3.830000000003658, -1.2800227368249542 
3.840000000003679, -1.2807509570738773 
3.8500000000037002, -1.2811340335770665 
3.8600000000037213, -1.281166876062287 
3.8700000000037424, -1.2808475660831145 
3.8800000000037635, -1.2801761246940901 
3.8900000000037847, -1.2791543406745827 
3.9000000000038058, -1.2777867055773044 
3.910000000003827, -1.2760822364099762 
3.920000000003848, -1.2740567932274942 
3.930000000003869, -1.2717354307221598 
3.94000000000389, -1.2691543334960445 
3.9500000000039113, -1.2663621122610624 
3.9600000000039324, -1.263420930461155 
3.9700000000039535, -1.2604088081989127 
3.9800000000039746, -1.2574240771430654 
3.9900000000039957, -1.254589654130256 
4.000000000004016, -1.252049505792501 
4.010000000003993, -1.2499479267383036 
4.02000000000397, -1.248390682798142 
4.030000000003946, -1.2474039199055171 
4.040000000003923, -1.2469165354812795 
4.0500000000039, -1.246779287039718 
4.0600000000038765, -1.2468075988996257 
4.070000000003853, -1.246820983126803 
4.08000000000383, -1.2466609184911759 
4.090000000003807, -1.2461864312729078 
4.100000000003783, -1.2452563663972547 
4.11000000000376, -1.2437075684761967 
4.120000000003737, -1.2413351628688134 
4.130000000003713, -1.2378795309525092 
4.14000000000369, -1.2330250143907255 
4.150000000003667, -1.2264157859403624 
4.1600000000036434, -1.2176918043416651 
4.17000000000362, -1.2065410361003983 
4.180000000003597, -1.1927560950136369 
4.1900000000035735, -1.1762806676041337 
4.20000000000355, -1.157237648281213 
4.210000000003527, -1.135942364286686 
4.220000000003504, -1.1129102434750653 
4.23000000000348, -1.0888619798274546 
4.240000000003457, -1.0647136083134257 
4.250000000003434, -1.0415252927641057 
4.26000000000341, -1.0203856928925492 
4.270000000003387, -1.0022372154529224 
4.280000000003364, -0.9876910817203672 
4.2900000000033405, -0.9769081889307892 
4.300000000003317, -0.9696025538587677 
4.310000000003294, -0.9651646354245782 
4.320000000003271, -0.9628444262939179 
4.330000000003247, -0.9619183975003835 
4.340000000003224, -0.9617921072222627 
4.350000000003201, -0.9620322648009775 
4.360000000003177, -0.9623497430818084 
4.370000000003154, -0.9625606951228787 
4.380000000003131, -0.9625450654776654 
4.390000000003107, -0.9622113638263722 
4.400000000003084, -0.9614693910589825 
4.410000000003061, -0.9602095689978226 
4.4200000000030375, -0.9582875307186972 
4.430000000003014, -0.9555145406979644 
4.440000000002991, -0.9516572930300154 
4.450000000002968, -0.9464534280266934 
4.460000000002944, -0.9396491009345476 
4.470000000002921, -0.931058529782217 
4.480000000002898, -0.9206316857580545 
4.490000000002874, -0.9085023745106533 
4.500000000002851, -0.8949891353809171 
4.510000000002828, -0.8805426657402031 
4.520000000002804, -0.8656623084121531 
4.530000000002781, -0.8508171605357524 
4.540000000002758, -0.836396802851964 
4.5500000000027345, -0.822695910713504 
4.560000000002711, -0.8099224591183185 
4.570000000002688, -0.7982158691405377 
4.580000000002665, -0.78766505128501 
4.590000000002641, -0.7783214517646778 
4.600000000002618, -0.7702061273127667 
4.610000000002595, -0.763312095988097 
4.620000000002571, -0.757604158607635 
4.630000000002548, -0.7530185097815624 
4.640000000002525, -0.7494640212194066 
4.6500000000025015, -0.7468262461385012 
4.660000000002478, -0.744974162814008 
4.670000000002455, -0.7437687312785468 
4.6800000000024315, -0.7430717703069427 
4.690000000002408, -0.7427536332146372 
4.700000000002385, -0.7426986171145807 
4.710000000002362, -0.7428077489923612 
4.720000000002338, -0.7429992730002806 
4.730000000002315, -0.7432076172706552 
4.740000000002292, -0.7433817755058493 
4.750000000002268, -0.743483923086196 
4.760000000002245, -0.7434887554947983 
4.770000000002222, -0.7433835508871074 
4.7800000000021985, -0.7431684227113068 
4.790000000002175, -0.7428558374965502 
4.800000000002152, -0.7424684768342712 
4.810000000002129, -0.7420350504542059 
4.820000000002105, -0.7415845396306813 
4.830000000002082, -0.7411401193082322 
4.840000000002059, -0.740714274218113 
4.850000000002035, -0.7403063242632909 
4.860000000002012, -0.7399029307820957 
4.870000000001989, -0.7394814168841067 
4.880000000001965, -0.7390150520797175 
4.890000000001942, -0.7384789727868516 
4.900000000001919, -0.7378553436034838 
4.9100000000018955, -0.737136816975008 
4.920000000001872, -0.7363281369584751 
4.930000000001849, -0.735446449287459 
