t, s[1].omega / s[0].omega 
0, -1.3299971461304487 
0.009999999999999995, -1.3295167974513358 
0.019999999999999934, -1.3286519308179376 
0.029999999999999874, -1.3274087311833829 
0.04000000000000012, -1.3258026841543016 
0.050000000000000405, -1.3238646853320881 
0.06000000000000069, -1.3216471466187558 
0.07000000000000098, -1.3192321881814593 
0.08000000000000126, -1.3167499292652722 
0.09000000000000155, -1.3144054631572637 
0.10000000000000184, -1.3124708697973966 
0.11000000000000212, -1.3111791324462905 
0.12000000000000241, -1.3105637056247141 
0.130000000000002, -1.3104170818019232 
0.1400000000000009, -1.3104219767868779 
0.1499999999999998, -1.3102911569573363 
0.1599999999999987, -1.3097897513486627 
0.1699999999999976, -1.3086652119184072 
0.1799999999999965, -1.3065421106846749 
0.1899999999999954, -1.3028036500575058 
0.1999999999999943, -1.2964757350710194 
0.2099999999999932, -1.2861694869464517 
0.2199999999999921, -1.2701911720881724 
0.229999999999991, -1.2469304557260976 
0.2399999999999899, -1.215559090634394 
0.2499999999999888, -1.1769558349256821 
0.2599999999999877, -1.1345268741657284 
0.2699999999999866, -1.0940433623985415 
0.2799999999999855, -1.0615599732280525 
0.2899999999999844, -1.0403149441443384 
0.2999999999999833, -1.029427450033936 
0.3099999999999822, -1.0254966196704285 
0.3199999999999811, -1.0250597277739064 
0.32999999999998, -1.0258481533697692 
0.3399999999999789, -1.026758583902327 
0.3499999999999778, -1.0273745366476077 
0.35999999999997667, -1.0275672361634285 
0.36999999999997557, -1.0272711003675628 
0.37999999999997447, -1.026365253997319 
0.38999999999997337, -1.0245840056077558 
0.39999999999997227, -1.0214006739399022 
0.40999999999997117, -1.0158475621018492 
0.41999999999997006, -1.0062774952784777 
0.42999999999996896, -0.9902124988121181 
0.43999999999996786, -0.964710623868872 
0.44999999999996676, -0.9278076270066004 
0.45999999999996566, -0.8806833246254088 
0.46999999999996456, -0.8284496544056825 
0.47999999999996346, -0.7779550026070514 
0.48999999999996235, -0.7344774856002325 
0.49999999999996125, -0.7002417940162736 
0.5099999999999602, -0.6750225198152284 
0.519999999999959, -0.6573800987261504 
0.529999999999958, -0.6455717235449967 
0.5399999999999568, -0.6380009103793495 
0.5499999999999557, -0.6333712301604211 
0.5599999999999546, -0.6306998811289807 
0.5699999999999535, -0.6292772567366519 
0.5799999999999524, -0.6286111873437767 
0.5899999999999513, -0.6283718967516403 
0.5999999999999502, -0.6283443010474353 
0.6099999999999491, -0.6283901952105697 
0.619999999999948, -0.6284208533344342 
0.6299999999999469, -0.6283795888144471 
0.6399999999999458, -0.6282333022134458 
0.6499999999999447, -0.6279711716440295 
0.6599999999999436, -0.6276067857319302 
0.6699999999999425, -0.6271780212107864 
0.6799999999999414, -0.626739525482442 
0.6899999999999403, -0.6263474022301865 
0.6999999999999392, -0.6260415215005622 
0.7099999999999381, -0.6258327265827224 
0.719999999999937, -0.6256996038149378 
0.7299999999999359, -0.6255957599510223 
0.7399999999999348, -0.6254650870711895 
0.7499999999999337, -0.6252591042726618 
0.7599999999999326, -0.624949438482208 
0.7699999999999315, -0.6245321909643868 
0.7799999999999304, -0.6240267386781029 
0.7899999999999293, -0.6234745978099784 
0.7999999999999282, -0.6229432468132767 
0.8099999999999271, -0.6225377282158169 
0.819999999999926, -0.6224214739788593 
0.8299999999999249, -0.6228472938773498 
0.8399999999999238, -0.6241991028997095 
0.8499999999999227, -0.6270440796675645 
0.8599999999999216, -0.6321928759534591 
0.8699999999999205, -0.6407603734532492 
0.8799999999999194, -0.6542058786486536 
0.8899999999999183, -0.6742980899750803 
0.8999999999999172, -0.7028832770250898 
0.9099999999999161, -0.7412536278253871 
0.919999999999915, -0.788968810270611 
0.9299999999999139, -0.8425326666129486 
0.9399999999999128, -0.8953671136416774 
0.9499999999999117, -0.9403966259421106 
0.9599999999999106, -0.9736621273022619 
0.9699999999999095, -0.9954692927035437 
0.9799999999999084, -1.0085892255120192 
0.9899999999999073, -1.0160536685270594 
0.9999999999999062, -1.0201247818987624 
1.0099999999999052, -1.0222131977090025 
1.019999999999904, -1.0231169908265292 
1.029999999999903, -1.0232573801100793 
1.039999999999902, -1.0228374616543752 
1.0499999999999008, -1.021943793777075 
1.0599999999998997, -1.0206359733301573 
1.0699999999998986, -1.0190877817117723 
1.0799999999998975, -1.0178672806383804 
1.0899999999998964, -1.0184165014566156 
1.0999999999998953, -1.0235572889002382 
1.1099999999998942, -1.037327229731194 
1.119999999999893, -1.0632382262759976 
1.129999999999892, -1.1013840132917583 
1.1399999999998909, -1.1470617922199773 
1.1499999999998898, -1.1929465325662976 
1.1599999999998887, -1.2328605391200906 
1.1699999999998876, -1.2637923927640868 
1.1799999999998865, -1.2856050188198156 
1.1899999999998854, -1.299813172828625 
1.1999999999998843, -1.308457025020753 
1.2099999999998832, -1.3133933961220017 
1.219999999999882, -1.3160059181331105 
1.229999999999881, -1.3172006334533042 
1.2399999999998799, -1.3175260799865998 
1.2499999999998788, -1.3173138031543847 
1.2599999999998777, -1.3168040382168866 
1.2699999999998766, -1.3162492354179252 
1.2799999999998755, -1.3159634169561003 
1.2899999999998744, -1.3162546880177142 
1.2999999999998733, -1.3172592473898754 
1.3099999999998722, -1.3188545567396455 
1.319999999999871, -1.3207652451470455 
1.32999999999987, -1.322728123536812 
1.3399999999998689, -1.3245631694583597 
1.3499999999998678, -1.326160028541013 
1.3599999999998666, -1.3274499130159452 
1.3699999999998655, -1.3283905972704875 
1.3799999999998644, -1.328959055652938 
1.3899999999998633, -1.329145129442886 
1.3999999999998622, -1.32894572169001 
1.4099999999998611, -1.3283611216628481 
1.41999999999986, -1.3273946838357178 
1.429999999999859, -1.3260559339866425 
1.4399999999998578, -1.3243660020533625 
1.4499999999998567, -1.3223636623995434 
1.4599999999998556, -1.3201111476589957 
1.4699999999998545, -1.3177037437040204 
1.4799999999998534, -1.3152912103926928 
1.4899999999998523, -1.3130996649950244 
1.4999999999998512, -1.3113974813752391 
1.5099999999998501, -1.310362178880586 
1.519999999999849, -1.3099433043671018 
1.529999999999848, -1.3098835589730795 
1.5399999999998468, -1.3098704103971344 
1.5499999999998457, -1.3096402108809104 
1.5599999999998446, -1.3089637681251558 
1.5699999999998435, -1.307562201494347 
1.5799999999998424, -1.3049994590989469 
1.5899999999998413, -1.3005674641964697 
1.5999999999998402, -1.2931900737135438 
1.6099999999998391, -1.2814180808513924 
1.619999999999838, -1.2636224599060446 
1.629999999999837, -1.2384602122941342 
1.6399999999998358, -1.2056013785057653 
1.6499999999998347, -1.1666035383508815 
1.6599999999998336, -1.1255172451816189 
1.6699999999998325, -1.0882569773722488 
1.6799999999998314, -1.060122307737351 
1.6899999999998303, -1.0430237488812184 
1.6999999999998292, -1.0350893040443632 
1.709999999999828, -1.0327559030643394 
1.719999999999827, -1.032950044706606 
1.729999999999826, -1.0338626692876485 
1.7399999999998248, -1.0346905042023176 
1.7499999999998237, -1.035155799511937 
1.7599999999998226, -1.0351704676094704 
1.7699999999998215, -1.034657633673519 
1.7799999999998204, -1.0334493588446871 
1.7899999999998193, -1.0311893477320064 
1.7999999999998182, -1.0271889955278153 
1.809999999999817, -1.0202051177093425 
1.819999999999816, -1.0081756566162716 
1.8299999999998149, -0.9881581901608709 
1.8399999999998138, -0.9570571629688907 
1.8499999999998127, -0.9136286125161782 
1.8599999999998116, -0.860729679066809 
1.8699999999998105, -0.8051021311812411 
1.8799999999998094, -0.7540099047308659 
1.8899999999998083, -0.7119605457400575 
1.8999999999998072, -0.680078639461185 
1.909999999999806, -0.6573194098219929 
1.919999999999805, -0.641817628881222 
1.9299999999998039, -0.6316856823704384 
1.9399999999998028, -0.625333914570208 
1.9499999999998017, -0.621538137273092 
1.9599999999998006, -0.619405566324335 
1.9699999999997995, -0.6183108516050198 
1.9799999999997984, -0.6178305299419335 
1.9899999999997973, -0.6176858675834314 
1.9999999999997962, -0.6176970691599414 
2.0099999999998173, -0.6177491262828723 
2.0199999999998384, -0.6177685137388012 
2.0299999999998595, -0.6177095924002789 
2.0399999999998806, -0.6175492541722302 
2.0499999999999017, -0.6172872671479284 
2.059999999999923, -0.616947826154997 
2.069999999999944, -0.6165766312495022 
2.079999999999965, -0.6162300226432242 
2.089999999999986, -0.6159581766304778 
2.100000000000007, -0.6157887704617004 
2.1100000000000283, -0.6157174277472505 
2.1200000000000494, -0.6157082793481297 
2.1300000000000705, -0.6157047481348984 
2.1400000000000916, -0.6156470099677818 
2.1500000000001127, -0.6154890675357616 
2.160000000000134, -0.6152086680173687 
2.170000000000155, -0.6148086432427229 
2.180000000000176, -0.6143140788444763 
2.190000000000197, -0.6137715365257579 
2.2000000000002182, -0.6132549985048088 
2.2100000000002393, -0.6128813735688952 
2.2200000000002604, -0.612837898021287 
2.2300000000002815, -0.6134242874693514 
2.2400000000003026, -0.6151131385566896 
2.2500000000003237, -0.618631892352894 
2.260000000000345, -0.6250669123478522 
2.270000000000366, -0.6359798084558529 
2.280000000000387, -0.6534943823976879 
2.290000000000408, -0.6802320580110214 
2.3000000000004293, -0.7188210473039889 
2.3100000000004504, -0.7705779681276783 
2.3200000000004715, -0.8333457688324495 
2.3300000000004926, -0.900015863615101 
2.3400000000005137, -0.9605648061707482 
2.3500000000005348, -1.0074263771662877 
2.360000000000556, -1.038985680301242 
2.370000000000577, -1.0581591961759709 
2.380000000000598, -1.069059469542741 
2.390000000000619, -1.0750004501273238 
2.4000000000006403, -1.0781051048405412 
2.4100000000006614, -1.079584319835679 
2.4200000000006825, -1.0800842859263686 
2.4300000000007036, -1.0799308139183426 
2.4400000000007247, -1.0792800189957714 
2.450000000000746, -1.0782287121748448 
2.460000000000767, -1.0769494804433408 
2.470000000000788, -1.0759212243812488 
2.480000000000809, -1.0762720567758675 
2.49000000000083, -1.080018182816122 
2.5000000000008513, -1.0896413857691665 
2.5100000000008724, -1.1066904936306097 
2.5200000000008935, -1.1303712763084555 
2.5300000000009146, -1.1576879262172572 
2.5400000000009357, -1.1850390301044245 
2.550000000000957, -1.2096578200004162 
2.560000000000978, -1.2300399396430708 
2.570000000000999, -1.2457301474183398 
2.58000000000102, -1.2569939093051823 
2.5900000000010412, -1.2645339825422026 
2.6000000000010624, -1.2692304044834344 
2.6100000000010835, -1.2719197482164204 
2.6200000000011046, -1.273266275925283 
2.6300000000011257, -1.2737361565211969 
2.6400000000011468, -1.273639512289642 
2.650000000001168, -1.2732014646802368 
2.660000000001189, -1.2726377495101684 
2.67000000000121, -1.2722061892896543 
2.680000000001231, -1.272185568920325 
2.6900000000012523, -1.2727648119199437 
2.7000000000012734, -1.2739372834174068 
2.7100000000012945, -1.2755238275281673 
2.7200000000013156, -1.2772942628688413 
2.7300000000013367, -1.2790590022699426 
2.740000000001358, -1.2806862064678477 
2.750000000001379, -1.2820860741544189 
2.7600000000014, -1.2831980669145375 
2.770000000001421, -1.283984777173345 
2.780000000001442, -1.2844265398775507 
2.7900000000014633, -1.284515166675937 
2.8000000000014844, -1.2842484817328896 
2.8100000000015055, -1.2836277169380492 
2.8200000000015266, -1.2826587759647126 
2.8300000000015477, -1.2813567157309915 
2.840000000001569, -1.2797516203607107 
2.85000000000159, -1.2778937099250323 
2.860000000001611, -1.2758562876771387 
2.870000000001632, -1.273739058820925 
2.8800000000016532, -1.2716778736548735 
2.8900000000016743, -1.2698533670520822 
2.9000000000016954, -1.2684613418706217 
2.9100000000017165, -1.26762019402267 
2.9200000000017377, -1.2672795579127538 
2.9300000000017588, -1.267233830704384 
2.94000000000178, -1.2672261002673375 
2.950000000001801, -1.2670274022586183 
2.960000000001822, -1.2664354906436381 
2.970000000001843, -1.265222659477476 
2.9800000000018643, -1.26307458056286 
2.9900000000018854, -1.2595472804343975 
3.0000000000019065, -1.2540679713577907 
3.0100000000019276, -1.246003888893057 
3.0200000000019487, -1.2347945409408574 
3.03000000000197, -1.2201026588637522 
3.040000000001991, -1.201951084072728 
3.050000000002012, -1.180883227947431 
3.060000000002033, -1.1581921978286513 
3.070000000002054, -1.1360745531857672 
3.0800000000020753, -1.117277198731556 
3.0900000000020964, -1.1039682471315642 
3.1000000000021175, -1.096544198493212 
3.1100000000021386, -1.093621087204618 
3.1200000000021597, -1.0931956990114593 
3.130000000002181, -1.0937073687648153 
3.140000000002202, -1.0943066656852283 
3.150000000002223, -1.0946343531703322 
3.160000000002244, -1.0945436619232123 
3.1700000000022652, -1.0939135591720475 
3.1800000000022863, -1.0925260508807877 
3.1900000000023074, -1.0899432109037073 
3.2000000000023285, -1.085324800673111 
3.2100000000023496, -1.0771479277198575 
3.2200000000023707, -1.0628794094498173 
3.230000000002392, -1.0389251199295964 
3.240000000002413, -1.001610316035268 
3.250000000002434, -0.9497594900926174 
3.260000000002455, -0.8874195050246323 
3.2700000000024763, -0.8232456829669226 
3.2800000000024974, -0.7659952187048061 
3.2900000000025185, -0.7205421075989489 
3.3000000000025396, -0.6874915614563276 
3.3100000000025607, -0.6649855897257512 
3.3200000000025818, -0.6504433089091167 
3.330000000002603, -0.641484851101821 
3.340000000002624, -0.6362376191943215 
3.350000000002645, -0.6333472479275568 
3.360000000002666, -0.6318865613564281 
3.3700000000026873, -0.6312469066239046 
3.3800000000027084, -0.6310420571693902 
3.3900000000027295, -0.6310328237831144 
3.4000000000027506, -0.6310722622682066 
3.4100000000027717, -0.6310686165852524 
3.420000000002793, -0.6309627755924059 
3.430000000002814, -0.6307175737762203 
3.440000000002835, -0.6303164273693286 
3.450000000002856, -0.6297674390141458 
3.460000000002877, -0.6291065916791644 
3.4700000000028983, -0.6283930628372456 
3.4800000000029194, -0.6276943014090752 
3.4900000000029405, -0.6270661506308234 
3.5000000000029616, -0.6265370101597306 
3.5100000000029827, -0.626102109104407 
3.520000000003004, -0.6257287552397367 
3.530000000003025, -0.6253697304813692 
3.540000000003046, -0.6249796472633117 
3.550000000003067, -0.6245282809968979 
3.5600000000030882, -0.6240073000232887 
3.5700000000031094, -0.6234314584950582 
3.5800000000031305, -0.6228385435382211 
3.5900000000031516, -0.6222923720975237 
3.6000000000031727, -0.6218913102281693 
3.6100000000031938, -0.6217830356046492 
3.620000000003215, -0.6221851735333107 
3.630000000003236, -0.6234107329140097 
3.640000000003257, -0.6258966803071844 
3.650000000003278, -0.6302333675270039 
3.6600000000032993, -0.6371911451437907 
3.6700000000033204, -0.6477358224328598 
3.6800000000033415, -0.6630111359191172 
3.6900000000033626, -0.684236140189319 
3.7000000000033837, -0.7124175135212237 
3.710000000003405, -0.7477535168338074 
3.720000000003426, -0.7887606448912927 
3.730000000003447, -0.8316808285400699 
3.740000000003468, -0.87125001221514 
3.750000000003489, -0.9030522098327158 
3.7600000000035103, -0.9255548494409385 
3.7700000000035314, -0.9399470442096879 
3.7800000000035525, -0.9485265241064721 
3.7900000000035736, -0.9533954172151512 
3.8000000000035947, -0.956019357476759 
3.810000000003616, -0.9572871606276208 
3.820000000003637, -0.9576924101457576 
3.830000000003658, -0.9574833913130667 
3.840000000003679, -0.9567593415845008 
3.8500000000037002, -0.9555348188848741 
3.8600000000037213, -0.9538113911165423 
3.8700000000037424, -0.951724272127727 
3.8800000000037635, -0.9498855745628959 
3.8900000000037847, -0.9500920231972668 
3.9000000000038058, -0.9564338877767118 
3.910000000003827, -0.9761727937554903 
3.920000000003848, -1.0183832218724735 
3.930000000003869, -1.0877811857490518 
3.94000000000389, -1.176131439325694 
3.9500000000039113, -1.2632912067612252 
3.9600000000039324, -1.3319719794729104 
3.9700000000039535, -1.377694657768834 
3.9800000000039746, -1.404908099278198 
3.9900000000039957, -1.4199988581367524 
4.000000000004016, -1.427977911477707 
4.010000000003993, -1.4320053421739976 
4.02000000000397, -1.4338666495112853 
4.030000000003946, -1.4345146006937526 
4.040000000003923, -1.434455585710229 
4.0500000000039, -1.4339991590688101 
4.0600000000038765, -1.4334250765293985 
4.070000000003853, -1.4330647110673844 
4.08000000000383, -1.4332297167406838 
4.090000000003807, -1.434023439740909 
4.100000000003783, -1.4352775192975633 
4.11000000000376, -1.4367142283585888 
4.120000000003737, -1.4381141027031 
4.130000000003713, -1.4393419249932053 
4.14000000000369, -1.4403052862207941 
4.150000000003667, -1.4409298337577987 
4.1600000000036434, -1.4411550576229848 
4.17000000000362, -1.4409320571838833 
4.180000000003597, -1.4402192207968705 
4.1900000000035735, -1.4389779334027017 
4.20000000000355, -1.4371684925154562 
4.210000000003527, -1.4347465125564405 
4.220000000003504, -1.4316624396478008 
4.23000000000348, -1.4278701032275063 
4.240000000003457, -1.4233592901786567 
4.250000000003434, -1.4182438002057014 
4.26000000000341, -1.412920988421785 
4.270000000003387, -1.4081740834267054 
4.280000000003364, -1.404888499818329 
4.2900000000033405, -1.4033806346771576 
4.300000000003317, -1.4031428424975112 
4.310000000003294, -1.4033740075950258 
4.320000000003271, -1.4034992529071544 
4.330000000003247, -1.4032030805146323 
4.340000000003224, -1.402221014711297 
4.350000000003201, -1.4000911617798093 
4.360000000003177, -1.3958024619979847 
4.370000000003154, -1.3870912166790064 
4.380000000003131, -1.3689374944722565 
4.390000000003107, -1.3308136748910708 
4.400000000003084, -1.2541953683648324 
4.410000000003061, -1.1191876185086131 
4.4200000000030375, -0.929840320234474 
4.430000000003014, -0.7286870087226947 
4.440000000002991, -0.564379878089056 
4.450000000002968, -0.45519318310014434 
4.460000000002944, -0.39120830845586524 
4.470000000002921, -0.355573054042537 
4.480000000002898, -0.3358153072297789 
4.490000000002874, -0.324688403565567 
4.500000000002851, -0.3182971298563865 
4.510000000002828, -0.31457057041758707 
4.520000000002804, -0.3123904388141244 
4.530000000002781, -0.31113851387266905 
4.540000000002758, -0.3104656727596656 
4.5500000000027345, -0.31017285420490975 
4.560000000002711, -0.31014887956412607 
4.570000000002688, -0.31033810130857603 
4.580000000002665, -0.31072456176374674 
4.590000000002641, -0.31132596571020676 
4.600000000002618, -0.31219389607481507 
4.610000000002595, -0.31341809759666456 
4.620000000002571, -0.3151331590584113 
4.630000000002548, -0.31752545250918746 
4.640000000002525, -0.3208351409521535 
4.6500000000025015, -0.32533946694330457 
4.660000000002478, -0.3312890297083071 
4.670000000002455, -0.33876376871644287 
4.6800000000024315, -0.3474668537159464 
4.690000000002408, -0.35661339878619863 
4.700000000002385, -0.3651400616392834 
4.710000000002362, -0.37218547412468445 
4.720000000002338, -0.3774247580183543 
4.730000000002315, -0.3810071113708421 
4.740000000002292, -0.383287845220302 
4.750000000002268, -0.38461704234426286 
4.760000000002245, -0.385252553725972 
4.770000000002222, -0.38534831883098297 
4.7800000000021985, -0.3849660465060794 
4.790000000002175, -0.38408518394910424 
4.800000000002152, -0.38260525903612636 
4.810000000002129, -0.3803468431909981 
4.820000000002105, -0.37707078367064606 
4.830000000002082, -0.3725495707586786 
4.840000000002059, -0.36671426712449273 
4.850000000002035, -0.35982187003696453 
4.860000000002012, -0.3524810941764152 
4.870000000001989, -0.34543371791261507 
4.880000000001965, -0.33924621999326626 
4.890000000001942, -0.334161640935049 
4.900000000001919, -0.33015528135398525 
4.9100000000018955, -0.3270652746059032 
4.920000000001872, -0.3246941235250477 
