t, s[1].omega / s[0].omega 
0, -1.2799563611951659 
0.009999999999999995, -1.27541537013889 
0.019999999999999934, -1.2705258133430681 
0.029999999999999874, -1.2652910838407878 
0.04000000000000012, -1.2597148208570723 
0.050000000000000405, -1.2538009073093457 
0.06000000000000069, -1.2475534670927213 
0.07000000000000098, -1.2409768621354083 
0.08000000000000126, -1.2340756892095335 
0.09000000000000155, -1.22685477648273 
0.10000000000000184, -1.2193191797962122 
0.11000000000000212, -1.2114741786554855 
0.12000000000000241, -1.2033252719205472 
0.130000000000002, -1.1948781731832496 
0.1400000000000009, -1.1861388058205136 
0.1499999999999998, -1.1771132977132643 
0.1599999999999987, -1.1678079756223372 
0.1699999999999976, -1.1582293592140416 
0.1799999999999965, -1.1483841547297888 
0.1899999999999954, -1.1382792482959159 
0.1999999999999943, -1.1279216988717773 
0.2099999999999932, -1.1173187308361647 
0.2199999999999921, -1.106477726214215 
0.229999999999991, -1.0954062165491556 
0.2399999999999899, -1.0841118744254632 
0.2499999999999888, -1.0726025046522507 
0.2599999999999877, -1.0608860351180351 
0.2699999999999866, -1.04897050733027 
0.2799999999999855, -1.0368640666553157 
0.2899999999999844, -1.0245749522767142 
0.2999999999999833, -1.0121114868918066 
0.3099999999999822, -0.9994820661687571 
0.3199999999999811, -0.986695147988035 
0.32999999999998, -0.9737592414942228 
0.3399999999999789, -0.9606828959856966 
0.3499999999999778, -0.9474746896712645 
0.35999999999997667, -0.9341432183241921 
0.36999999999997557, -0.9206970838651968 
0.37999999999997447, -0.9071448829069685 
0.38999999999997337, -0.8934951952934995 
0.39999999999997227, -0.879756572668049 
0.40999999999997117, -0.865937527103869 
0.41999999999997006, -0.8520465198318811 
0.42999999999996896, -0.8380919500993542 
0.43999999999996786, -0.8240821441932392 
0.44999999999996676, -0.8100253446612157 
0.45999999999996566, -0.7959296997626832 
0.46999999999996456, -0.7818032531808927 
0.47999999999996346, -0.7676539340261807 
0.48999999999996235, -0.7534895471588512 
0.49999999999996125, -0.7393177638586548 
0.5099999999999602, -0.7251461128660632 
0.519999999999959, -0.7109819718186445 
0.529999999999958, -0.696832559103822 
0.5399999999999568, -0.6827049261471926 
0.5499999999999557, -0.6686059501533478 
0.5599999999999546, -0.6545423273138962 
0.5699999999999535, -0.6405205664950391 
0.5799999999999524, -0.6265469834147174 
0.5899999999999513, -0.612627695316993 
0.5999999999999502, -0.5987686161489763 
0.6099999999999491, -0.5849754522432946 
0.619999999999948, -0.5712536985068404 
0.6299999999999469, -0.557608635114313 
0.6399999999999458, -0.5440453247029469 
0.6499999999999447, -0.5305686100627676 
0.6599999999999436, -0.5171831123147944 
0.6699999999999425, -0.503893229567755 
0.6799999999999414, -0.4907031360421946 
0.6899999999999403, -0.47761678164926813 
0.6999999999999392, -0.464637892010065 
0.7099999999999381, -0.45176996890001253 
0.719999999999937, -0.4390162911017308 
0.7299999999999359, -0.4263799156486993 
0.7399999999999348, -0.4138636794412107 
0.7499999999999337, -0.4014702012153476 
0.7599999999999326, -0.3892018838451212 
0.7699999999999315, -0.377060916957449 
0.7799999999999304, -0.3650492798393017 
0.7899999999999293, -0.3531687446161617 
0.7999999999999282, -0.3414208796808284 
0.8099999999999271, -0.3298070533516378 
0.819999999999926, -0.3183284377392902 
0.8299999999999249, -0.3069860128017073 
0.8399999999999238, -0.29578057056665724 
0.8499999999999227, -0.28471271950228105 
0.8599999999999216, -0.27378288901613057 
0.8699999999999205, -0.26299133406386027 
0.8799999999999194, -0.2523381398493152 
0.8899999999999183, -0.24182322659839936 
0.8999999999999172, -0.23144635438979347 
0.9099999999999161, -0.2212071280263153 
0.919999999999915, -0.21110500193146137 
0.9299999999999139, -0.20113928505643805 
0.9399999999999128, -0.1913091457837733 
0.9499999999999117, -0.18161361681439045 
0.9599999999999106, -0.1720516000258208 
0.9699999999999095, -0.16262187129002253 
0.9799999999999084, -0.15332308524006039 
0.9899999999999073, -0.1441537799756713 
0.9999999999999062, -0.13511238169850662 
1.0099999999999052, -0.12619720926857558 
1.019999999999904, -0.1174064786741458 
1.029999999999903, -0.10873830740804592 
1.039999999999902, -0.10019071874399568 
1.0499999999999008, -0.09176164590723197 
1.0599999999998997, -0.08344893613432049 
1.0699999999998986, -0.07525035461763227 
1.0799999999998975, -0.06716358833052599 
1.0899999999998964, -0.05918624972980816 
1.0999999999998953, -0.05131588033254442 
1.1099999999998942, -0.043549954164768374 
1.119999999999893, -0.03588588108007622 
1.129999999999892, -0.02832100994650963 
1.1399999999998909, -0.020852631700515333 
1.1499999999998898, -0.013477982267129486 
1.1599999999998887, -0.006194245345866897 
1.1699999999998876, 0.000013179232253162784 
1.1799999999998865, 0.0000029249375063528558 
1.1899999999998854, 0.00002913550046960021 
1.1999999999998843, 0.000009581842278631066 
1.2099999999998832, 0.00000729773402107878 
1.219999999999882, 0.000027114492281594908 
1.229999999999881, 0.0000011290720493819268 
1.2399999999998799, 0.000006705590354013373 
1.2499999999998788, 0.000004876819583689871 
1.2599999999998777, 2.122417466176961e-7 
1.2699999999998766, 0.00002628633690486736 
1.2799999999998755, 3.466662900287448e-7 
1.2899999999998744, 0.000013982210945208893 
1.2999999999998733, 0.000013391521526475256 
1.3099999999998722, 0.0000028507964558085195 
1.319999999999871, 0.0000011156504615842214 
1.32999999999987, 0.00001235609114093116 
1.3399999999998689, 0.000011624836097144666 
1.3499999999998678, 0.0000029922991853273317 
1.3599999999998666, 0.000005015038074367327 
1.3699999999998655, 0.000021670819646562168 
1.3799999999998644, 0.000013293741617903286 
1.3899999999998633, 0.000012842744824334338 
1.3999999999998622, 0.000024170060724963375 
1.4099999999998611, 0.000022023033337061497 
1.41999999999986, 0.000024712939562019607 
1.429999999999859, 0.000021450210000608072 
1.4399999999998578, 0.0000014130888846892764 
1.4499999999998567, 0.00002641620224636132 
1.4599999999998556, 0.000027446112694279663 
1.4699999999998545, 0.000022663396201072658 
1.4799999999998534, 0.0000011381891703052985 
1.4899999999998523, 0.000024585756236418887 
1.4999999999998512, 0.00002390203065383489 
1.5099999999998501, 0.0000026326011962968763 
1.519999999999849, 0.000007908403866867842 
1.529999999999848, 0.00002871480827137407 
1.5399999999998468, 0.000010427297591222088 
1.5499999999998457, 0.000029214018435008425 
1.5599999999998446, 0.000030438314500814726 
1.5699999999998435, 0.00003212788440694135 
1.5799999999998424, 0.000008710869798725335 
1.5899999999998413, 0.0000072854389620241974 
1.5999999999998402, 0.00003135524814617987 
1.6099999999998391, 0.000011766075617477534 
1.619999999999838, 0.000010175237856684352 
1.629999999999837, 0.000015588409232242176 
1.6399999999998358, 0.000017028990257846585 
1.6499999999998347, 0.0000035405498859600558 
1.6599999999998336, 0.000036857539222027363 
1.6699999999998325, 0.00003340803193636619 
1.6799999999998314, 0.000011383574725712956 
1.6899999999998303, 0.0000035429339201286137 
1.6999999999998292, 0.000028148589101613403 
1.709999999999828, 0.000016303560249474413 
1.719999999999827, 0.000029954534451225936 
1.729999999999826, 0.00013109533711933027 
1.7399999999998248, 0.0003672320173558347 
1.7499999999998237, 0.0007423177591824006 
1.7599999999998226, 0.0012603586238419634 
1.7699999999998215, 0.0019254195479115237 
1.7799999999998204, 0.002741630523374341 
1.7899999999998193, 0.0037131929637221404 
1.7999999999998182, 0.0048443862601036634 
1.809999999999817, 0.006139574531422463 
1.819999999999816, 0.007603213572104253 
1.8299999999998149, 0.009239858000991988 
1.8399999999998138, 0.011054168614472453 
1.8499999999998127, 0.013050919946478643 
1.8599999999998116, 0.015235008037431753 
1.8699999999998105, 0.017611458413469085 
1.8799999999998094, 0.02018543427643057 
1.8899999999998083, 0.022962244904025573 
1.8999999999998072, 0.025947354258351162 
1.909999999999806, 0.029146389799456277 
1.919999999999805, 0.032565151498915264 
1.9299999999998039, 0.03620962104635765 
1.9399999999998028, 0.04008597123956401 
1.9499999999998017, 0.044200575546041 
1.9599999999998006, 0.048560017820892344 
1.9699999999997995, 0.05317110216225734 
1.9799999999997984, 0.058040862881546806 
1.9899999999997973, 0.06317657456111062 
1.9999999999997962, 0.0685857621667634 
2.0099999999998173, 0.07427621117670913 
2.0199999999998384, 0.08025597768177031 
2.0299999999998595, 0.0865333984043732 
2.0399999999998806, 0.09311710057538114 
2.0499999999999017, 0.10001601159852215 
2.059999999999923, 0.10723936842173327 
2.069999999999944, 0.11479672652315513 
2.079999999999965, 0.12269796840665546 
2.089999999999986, 0.130953311487543 
2.100000000000007, 0.13957331523346378 
2.1100000000000283, 0.14856888740824814 
2.1200000000000494, 0.15795128924761695 
2.1300000000000705, 0.16773213937507744 
2.1400000000000916, 0.1779234162439822 
2.1500000000001127, 0.18853745886753512 
2.160000000000134, 0.199586965572492 
2.170000000000155, 0.21108499048443977 
2.180000000000176, 0.22304493742288609 
2.190000000000197, 0.23548055085308697 
2.2000000000002182, 0.2484059035087427 
2.2100000000002393, 0.2618353802656791 
2.2200000000002604, 0.27578365781175723 
2.2300000000002815, 0.2902656796230012 
2.2400000000003026, 0.3052966257209297 
2.2500000000003237, 0.3208918766520996 
2.260000000000345, 0.3370669710988962 
2.270000000000366, 0.3538375565018194 
2.280000000000387, 0.371219332049349 
2.290000000000408, 0.389227983373598 
2.3000000000004293, 0.4078791082803789 
2.3100000000004504, 0.4271881328432569 
2.3200000000004715, 0.4471702172052608 
2.3300000000004926, 0.467840150462035 
2.3400000000005137, 0.4892122340495483 
2.3500000000005348, 0.511300153131459 
2.360000000000556, 0.5341168355794979 
2.370000000000577, 0.5576742982685473 
2.380000000000598, 0.5819834805701439 
2.390000000000619, 0.6070540651274792 
2.4000000000006403, 0.632894286234728 
2.4100000000006614, 0.659510726426191 
2.4200000000006825, 0.6869081022077481 
2.4300000000007036, 0.7150890402346889 
2.4400000000007247, 0.7440538456544658 
2.450000000000746, 0.7738002647866655 
2.460000000000767, 0.8043232447990832 
2.470000000000788, 0.8356146935489654 
2.480000000000809, 0.8676632432796161 
2.49000000000083, 0.900454022378352 
2.5000000000008513, 0.9339684398924976 
2.5100000000008724, 0.9681839879423426 
2.5200000000008935, 1.003074067537379 
2.5300000000009146, 1.038607843566031 
2.5400000000009357, 1.0747501348596775 
2.550000000000957, 1.111461345199458 
2.560000000000978, 1.1486974409119042 
2.570000000000999, 1.186409980263758 
2.58000000000102, 1.2245461992010793 
2.5900000000010412, 1.26304915707551 
2.6000000000010624, 1.301857944865046 
2.6100000000010835, 1.340907957044582 
2.6200000000011046, 1.3801312267233476 
2.6300000000011257, 1.4194568219868942 
2.6400000000011468, 1.4588112996186473 
2.650000000001168, 1.4981192105992167 
2.660000000001189, 1.5373036500680202 
2.67000000000121, 1.5762868428620191 
2.680000000001231, 1.61499075439999 
2.6900000000012523, 1.6533377156304228 
2.7000000000012734, 1.6912510500672369 
2.7100000000012945, 1.7286556906436799 
2.7200000000013156, 1.765478774243902 
2.7300000000013367, 1.8016502023239718 
2.740000000001358, 1.837103156986517 
2.750000000001379, 1.87177456318084 
2.7600000000014, 1.9056054892996641 
2.770000000001421, 1.9385414802568455 
2.780000000001442, 1.9705328190708207 
2.7900000000014633, 2.001534714957039 
2.8000000000014844, 2.031507417862668 
2.8100000000015055, 2.060416261180756 
2.8200000000015266, 2.088231635992894 
2.8300000000015477, 2.114928901559457 
2.840000000001569, 2.1404882378712204 
2.85000000000159, 2.1648944468795572 
2.860000000001611, 2.1881367095341826 
2.870000000001632, 2.2102083059914306 
2.8800000000016532, 2.2311063063370677 
2.8900000000016743, 2.2508312389292846 
2.9000000000016954, 2.269386743047695 
2.9100000000017165, 2.2867792119738373 
2.9200000000017377, 2.303017431968048 
2.9300000000017588, 2.3181122218845607 
2.94000000000178, 2.3320760774155675 
2.950000000001801, 2.344922823204955 
2.960000000001822, 2.3566672753475157 
2.970000000001843, 2.367324916108033 
2.9800000000018643, 2.376911582070175 
2.9900000000018854, 2.3854431663659805 
3.0000000000019065, 2.392935335147362 
3.0100000000019276, 2.3994032580423252 
3.0200000000019487, 2.4048613519887585 
3.03000000000197, 2.4093230375538126 
3.040000000001991, 2.412800506621663 
3.050000000002012, 2.415304500160979 
3.060000000002033, 2.4168440946588388 
3.070000000002054, 2.4174264957238143 
3.0800000000020753, 2.4170568373114527 
3.0900000000020964, 2.4157379850043905 
3.1000000000021175, 2.4134703417823435 
3.1100000000021386, 2.4102516547401596 
3.1200000000021597, 2.4060768212518138 
3.130000000002181, 2.400937693133133 
3.140000000002202, 2.394822877424963 
3.150000000002223, 2.3877175325023243 
3.160000000002244, 2.3796031583151427 
3.1700000000022652, 2.3704573796857633 
3.1800000000022863, 2.3602537217318775 
3.1900000000023074, 2.348961376656958 
3.2000000000023285, 2.3365449613612084 
3.2100000000023496, 2.322964265583863 
3.2200000000023707, 2.30817399060398 
3.230000000002392, 2.292123478914404 
3.240000000002413, 2.2747564357585004 
3.250000000002434, 2.25601064399881 
3.260000000002455, 2.2358176744911704 
3.2700000000024763, 2.214102594989184 
3.2800000000024974, 2.1907836816263133 
3.2900000000025185, 2.1657721382418402 
3.3000000000025396, 2.138971830258703 
3.3100000000025607, 2.110279041511466 
3.3200000000025818, 2.0795822643846127 
3.330000000002603, 2.0467620358735905 
3.340000000002624, 2.0116908347335514 
3.350000000002645, 1.9742330577311753 
3.360000000002666, 1.934245096142212 
3.3700000000026873, 1.8915755369946532 
3.3800000000027084, 1.8460655170641231 
3.3900000000027295, 1.7975492611588246 
3.4000000000027506, 1.7458548396061582 
3.4100000000027717, 1.6908051828249797 
3.420000000002793, 1.6322193931121316 
3.430000000002814, 1.5699143948793308 
3.440000000002835, 1.5037069640469514 
3.450000000002856, 1.4334161745493974 
3.460000000002877, 1.3588662942773388 
3.4700000000028983, 1.2798901535812603 
3.4800000000029194, 1.1963329960081492 
3.4900000000029405, 1.108056802647793 
3.5000000000029616, 1.0149450579272645 
3.5100000000029827, 0.9169078958298814 
3.520000000003004, 0.8138875317085569 
3.530000000003025, 0.7058638471053839 
3.540000000003046, 0.5928599550165948 
3.550000000003067, 0.47494753342456597 
3.5600000000030882, 0.3522516790644753 
3.5700000000031094, 0.2249550054364803 
3.5800000000031305, 0.09330069360936218 
3.5900000000031516, -0.03971728641058008 
3.6000000000031727, -0.17040036998002847 
3.6100000000031938, -0.3043842455603071 
3.620000000003215, -0.4412202777632398 
3.630000000003236, -0.5804097821833554 
3.640000000003257, -0.721410531879455 
3.650000000003278, -0.8636449570529817 
3.6600000000032993, -1.0065098053540502 
3.6700000000033204, -1.1493869287194851 
3.6800000000033415, -1.291654778369372 
3.6900000000033626, -1.4327001318611978 
3.7000000000033837, -1.5719295518805128 
3.710000000003405, -1.708780089198276 
3.720000000003426, -1.8427287912620272 
3.730000000003447, -1.9733006583680854 
3.740000000003468, -2.1000747929540085 
3.750000000003489, -2.2226886036581455 
3.7600000000035103, -2.340840043090269 
3.7700000000035314, -2.4542879662382076 
3.7800000000035525, -2.5628507866964876 
3.7900000000035736, -2.6664036749563476 
3.8000000000035947, -2.764874584538412 
3.810000000003616, -2.858239408421084 
3.820000000003637, -2.9465165629949017 
3.830000000003658, -3.029761274153185 
3.840000000003679, -3.1080598052967003 
3.8500000000037002, -3.181523825127089 
3.8600000000037213, -3.2502850686932105 
3.8700000000037424, -3.3144904018959 
3.8800000000037635, -3.374297360181444 
3.8900000000037847, -3.4298701980964794 
3.9000000000038058, -3.4813764585062787 
3.910000000003827, -3.5289840486846598 
3.920000000003848, -3.572858794775155 
3.930000000003869, -3.6131624356076184 
3.94000000000389, -3.650051010691138 
3.9500000000039113, -3.683673594516873 
3.9600000000039324, -3.714171329260553 
3.9700000000039535, -3.741676709832237 
3.9800000000039746, -3.7663130783534213 
3.9900000000039957, -3.788194289041721 
4.000000000004016, -3.8074245087588396 
4.010000000003993, -3.8240981228387385 
4.02000000000397, -3.8382997200566424 
4.030000000003946, -3.850104134593868 
4.040000000003923, -3.8595765265220154 
4.0500000000039, -3.8667724856388777 
4.0600000000038765, -3.87173814643418 
4.070000000003853, -3.874510304565212 
4.08000000000383, -3.875116527513632 
4.090000000003807, -3.8735752541185495 
4.100000000003783, -3.8698958794856115 
4.11000000000376, -3.8640788234082697 
4.120000000003737, -3.856115581957845 
4.130000000003713, -3.8459887633545016 
4.14000000000369, -3.833672110672248 
4.150000000003667, -3.8191305154054445 
4.1600000000036434, -3.802320027477503 
4.17000000000362, -3.7831878689459577 
4.180000000003597, -3.761672460488524 
4.1900000000035735, -3.7377034717717494 
4.20000000000355, -3.7112019090271304 
4.210000000003527, -3.6820802555960355 
4.220000000003504, -3.6502426838424586 
4.23000000000348, -3.615585359636562 
4.240000000003457, -3.577996863514644 
4.250000000003434, -3.5373587555165042 
4.26000000000341, -3.4935463134333116 
4.270000000003387, -3.446429476554309 
4.280000000003364, -3.3958740286983504 
4.2900000000033405, -3.341743055002671 
4.300000000003317, -3.2838987061888 
4.310000000003294, -3.2222043013382318 
4.320000000003271, -3.1565267950417666 
4.330000000003247, -3.0867396265708056 
4.340000000003224, -3.012725956922594 
4.350000000003201, -2.934382283782982 
4.360000000003177, -2.851622404394434 
4.370000000003154, -2.7643816720835734 
4.380000000003131, -2.6726214642882082 
4.390000000003107, -2.576333749365597 
4.400000000003084, -2.4755456079266236 
4.410000000003061, -2.370323534250346 
4.4200000000030375, -2.2607773174217844 
4.430000000003014, -2.147063283576224 
4.440000000002991, -2.0293866735448254 
4.450000000002968, -1.9080029375277143 
4.460000000002944, -1.7832177526397819 
4.470000000002921, -1.655385611436404 
4.480000000002898, -1.5249068892049842 
4.490000000002874, -1.392223372203237 
4.500000000002851, -1.2578123133396195 
4.510000000002828, -1.1221791694439505 
4.520000000002804, -0.9858492575514236 
4.530000000002781, -0.8493586385888225 
4.540000000002758, -0.7132445884075246 
4.5500000000027345, -0.578036042983007 
4.560000000002711, -0.4442444041133633 
4.570000000002688, -0.31235506438443417 
4.580000000002665, -0.1828199587007356 
4.590000000002641, -0.05605137986455127 
4.600000000002618, 0.06280212460657951 
4.610000000002595, 0.17427852173051178 
4.620000000002571, 0.28207151636116345 
4.630000000002548, 0.38598306783571756 
4.640000000002525, 0.4858603686630726 
4.6500000000025015, 0.5815938278406332 
4.660000000002478, 0.673114312981045 
4.670000000002455, 0.7603898378864091 
4.6800000000024315, 0.8434218756788502 
4.690000000002408, 0.9222414628110717 
4.700000000002385, 0.9969052388614696 
4.710000000002362, 1.0674915434293517 
4.720000000002338, 1.1340966668106338 
4.730000000002315, 1.1968313271393256 
4.740000000002292, 1.2558174245467144 
4.750000000002268, 1.3111851034016926 
4.760000000002245, 1.3630701372559337 
4.770000000002222, 1.4116116378279857 
4.7800000000021985, 1.4569500790989025 
4.790000000002175, 1.499225620088411 
4.800000000002152, 1.5385767047786538 
4.810000000002129, 1.5751389145606518 
4.820000000002105, 1.6090440471061835 
4.830000000002082, 1.6404193953500381 
4.840000000002059, 1.669387200979987 
4.850000000002035, 1.6960642581974548 
4.860000000002012, 1.720561645302421 
4.870000000001989, 1.7429845636898873 
4.880000000001965, 1.7634322659823132 
4.890000000001942, 1.7819980571592275 
4.900000000001919, 1.7987693546082046 
4.9100000000018955, 1.8138277949616515 
