t, s[1].omega / s[0].omega 
0, -1.0600274278367008 
0.009999999999999995, -1.0654925166732359 
0.019999999999999934, -1.0743607566705813 
0.029999999999999874, -1.0833431171597365 
0.04000000000000012, -1.0904224459107401 
0.050000000000000405, -1.0952046602202594 
0.06000000000000069, -1.098127338628029 
0.07000000000000098, -1.0997735432897089 
0.08000000000000126, -1.1005966157608866 
0.09000000000000155, -1.1008828820531706 
0.10000000000000184, -1.1007867610207187 
0.11000000000000212, -1.100368788075134 
0.12000000000000241, -1.0996219422174032 
0.130000000000002, -1.098495588322971 
0.1400000000000009, -1.0969459326321949 
0.1499999999999998, -1.095070124784034 
0.1599999999999987, -1.0933908874553888 
0.1699999999999976, -1.0932276704981834 
0.1799999999999965, -1.0966900556035193 
0.1899999999999954, -1.1055964429285996 
0.1999999999999943, -1.1196776633546932 
0.2099999999999932, -1.1360820675185186 
0.2199999999999921, -1.151195257832128 
0.229999999999991, -1.1628097369910615 
0.2399999999999899, -1.17061552191356 
0.2499999999999888, -1.1753804983805491 
0.2599999999999877, -1.1780793135964804 
0.2699999999999866, -1.1794843957549912 
0.2799999999999855, -1.180098978635943 
0.2899999999999844, -1.180217620548477 
0.2999999999999833, -1.1800023793022703 
0.3099999999999822, -1.1795463352170847 
0.3199999999999811, -1.1789329303240241 
0.32999999999998, -1.1783079570836936 
0.3399999999999789, -1.1779602930518072 
0.3499999999999778, -1.1783452614938135 
0.35999999999997667, -1.1799394236387806 
0.36999999999997557, -1.1829471015490427 
0.37999999999997447, -1.18712156799572 
0.38999999999997337, -1.1918946091968887 
0.39999999999997227, -1.196657728947526 
0.40999999999997117, -1.2009505811620587 
0.41999999999997006, -1.2045058838153313 
0.42999999999996896, -1.2072226949919114 
0.43999999999996786, -1.209124008516628 
0.44999999999996676, -1.2103127285267594 
0.45999999999996566, -1.210927778770004 
0.46999999999996456, -1.211107907720501 
0.47999999999996346, -1.2109722052923622 
0.48999999999996235, -1.2106196795359592 
0.49999999999996125, -1.2101431509894027 
0.5099999999999602, -1.2096472919190213 
0.519999999999959, -1.2092544359013353 
0.529999999999958, -1.2090824675233474 
0.5399999999999568, -1.2092016853864702 
0.5499999999999557, -1.2096061251156343 
0.5599999999999546, -1.210224135717688 
0.5699999999999535, -1.210952829843476 
0.5799999999999524, -1.211688813515561 
0.5899999999999513, -1.2123451607316287 
0.5999999999999502, -1.2128571509463888 
0.6099999999999491, -1.2131810869001445 
0.619999999999948, -1.2132901929882716 
0.6299999999999469, -1.2131706427410949 
0.6399999999999458, -1.212819117447854 
0.6499999999999447, -1.212242149357461 
0.6599999999999436, -1.211457122001533 
0.6699999999999425, -1.2104947749165045 
0.6799999999999414, -1.2094027961541924 
0.6899999999999403, -1.2082488471296322 
0.6999999999999392, -1.2071197274620176 
0.7099999999999381, -1.206113217192254 
0.719999999999937, -1.2053201030701388 
0.7299999999999359, -1.2047962130866627 
0.7399999999999348, -1.204534801448298 
0.7499999999999337, -1.2044622720396396 
0.7599999999999326, -1.2044665515970876 
0.7699999999999315, -1.204434246844745 
0.7799999999999304, -1.20426779360746 
0.7899999999999293, -1.2038794240975137 
0.7999999999999282, -1.2031767715634218 
0.8099999999999271, -1.2020545160982716 
0.819999999999926, -1.200399927985318 
0.8299999999999249, -1.198113273003652 
0.8399999999999238, -1.195136967622962 
0.8499999999999227, -1.1914847305639378 
0.8599999999999216, -1.1872678850122773 
0.8699999999999205, -1.1827215885026994 
0.8799999999999194, -1.1782214598620266 
0.8899999999999183, -1.1742480258947023 
0.8999999999999172, -1.1712455964359054 
0.9099999999999161, -1.1694110117722585 
0.919999999999915, -1.168589230467379 
0.9299999999999139, -1.168399402286599 
0.9399999999999128, -1.1684610904581672 
0.9499999999999117, -1.168518649435332 
0.9599999999999106, -1.1684318319818332 
0.9699999999999095, -1.1681120246634866 
0.9799999999999084, -1.167459432421675 
0.9899999999999073, -1.1663086663594249 
0.9999999999999062, -1.1643726806439503 
1.0099999999999052, -1.1611842796547993 
1.019999999999904, -1.1560686035976513 
1.029999999999903, -1.1482404205018997 
1.039999999999902, -1.1371608647227933 
1.0499999999999008, -1.1231647945494805 
1.0599999999998997, -1.1079682660518628 
1.0699999999998986, -1.0943229096455491 
1.0799999999998975, -1.0846109579612107 
1.0899999999998964, -1.079481290710652 
1.0999999999998953, -1.0778580489167635 
1.1099999999998942, -1.0780838688378305 
1.119999999999893, -1.0788980691119463 
1.129999999999892, -1.0796633758346483 
1.1399999999998909, -1.0801623882233486 
1.1499999999998898, -1.0803609101839868 
1.1599999999998887, -1.0802674938191905 
1.1699999999998876, -1.0798676291462697 
1.1799999999998865, -1.0790879612968394 
1.1899999999998854, -1.0777602791283063 
1.1999999999998843, -1.0755691765528115 
1.2099999999998832, -1.071983869004935 
1.219999999999882, -1.0662160474970366 
1.229999999999881, -1.057338258528238 
1.2399999999998799, -1.0447925983233484 
1.2499999999998788, -1.0293266086008164 
1.2599999999998777, -1.0135922512465079 
1.2699999999998766, -1.0011325918885092 
1.2799999999998755, -0.9940881725264112 
1.2899999999998744, -0.9920200509848908 
1.2999999999998733, -0.9929258460127605 
1.3099999999998722, -0.9948746580915593 
1.319999999999871, -0.9967532328486091 
1.32999999999987, -0.9981583808423103 
1.3399999999998689, -0.9990524325195317 
1.3499999999998678, -0.9995158667858931 
1.3599999999998666, -0.9996313490556845 
1.3699999999998655, -0.9994420111770218 
1.3799999999998644, -0.9989358251819462 
1.3899999999998633, -0.9980301718598789 
1.3999999999998622, -0.9965435509159439 
1.4099999999998611, -0.9941483586391542 
1.41999999999986, -0.9903113170907101 
1.429999999999859, -0.9842651834347393 
1.4399999999998578, -0.9751322630143191 
1.4499999999998567, -0.9623818397106577 
1.4599999999998556, -0.9466149888408276 
1.4699999999998545, -0.9300490057238877 
1.4799999999998534, -0.9157617366836088 
1.4899999999998523, -0.9059455243271495 
1.4999999999998512, -0.9008380205405204 
1.5099999999998501, -0.899194142222892 
1.519999999999849, -0.8994258560607653 
1.529999999999848, -0.9003457896902208 
1.5399999999998468, -0.9013095095370032 
1.5499999999998457, -0.9020579348670813 
1.5599999999998446, -0.9025283908345131 
1.5699999999998435, -0.902729703957295 
1.5799999999998424, -0.9026779671148464 
1.5899999999998413, -0.9023659628572774 
1.5999999999998402, -0.9017445495389544 
1.6099999999998391, -0.9007033703663707 
1.619999999999838, -0.8990458438260489 
1.629999999999837, -0.8964635035770876 
1.6399999999998358, -0.8925339980807072 
1.6499999999998347, -0.8867933493197006 
1.6599999999998336, -0.8789315154066841 
1.6699999999998325, -0.869067727343236 
1.6799999999998314, -0.8579080837793404 
1.6899999999998303, -0.8465905750826384 
1.6999999999998292, -0.8362831976432862 
1.709999999999828, -0.827811962375878 
1.719999999999827, -0.8215087706541622 
1.729999999999826, -0.8172683341853582 
1.7399999999998248, -0.8147109606976766 
1.7499999999998237, -0.8133579652303948 
1.7599999999998226, -0.8127633351859431 
1.7699999999998215, -0.8125809966843198 
1.7799999999998204, -0.812576120890963 
1.7899999999998193, -0.8126038817360843 
1.7999999999998182, -0.8125781214754119 
1.809999999999817, -0.812443213850768 
1.819999999999816, -0.8121539267259277 
1.8299999999998149, -0.8116640577754953 
1.8399999999998138, -0.8109242842120492 
1.8499999999998127, -0.8098901108079886 
1.8599999999998116, -0.8085384466215807 
1.8699999999998105, -0.8068849277557941 
1.8799999999998094, -0.8049892886515376 
1.8899999999998083, -0.8029420653686847 
1.8999999999998072, -0.8008404682571204 
1.909999999999806, -0.7987687232241302 
1.919999999999805, -0.7967913157587541 
1.9299999999998039, -0.794956565036931 
1.9399999999998028, -0.7933033119782771 
1.9499999999998017, -0.7918652601701377 
1.9599999999998006, -0.79067107345109 
1.9699999999997995, -0.7897409960870587 
1.9799999999997984, -0.7890821590085065 
1.9899999999997973, -0.7886851267191339 
1.9999999999997962, -0.7885236718640398 
2.0099999999998173, -0.7885583381814228 
2.0199999999998384, -0.7887426655603498 
2.0299999999998595, -0.7890299518178762 
2.0399999999998806, -0.7893786551149665 
2.0499999999999017, -0.7897555830664629 
2.059999999999923, -0.7901368769648557 
2.069999999999944, -0.7905068876710978 
2.079999999999965, -0.790854795963446 
2.089999999999986, -0.7911693588536756 
2.100000000000007, -0.7914338413508828 
2.1100000000000283, -0.7916245449143922 
2.1200000000000494, -0.7917150916146531 
2.1300000000000705, -0.7916846629944574 
2.1400000000000916, -0.7915251960527641 
2.1500000000001127, -0.7912437351095913 
2.160000000000134, -0.7908605881944515 
2.170000000000155, -0.7904070213513557 
2.180000000000176, -0.7899257519238781 
2.190000000000197, -0.7894750521178613 
2.2000000000002182, -0.7891348164678889 
2.2100000000002393, -0.7890111217892618 
2.2200000000002604, -0.7892349947259738 
2.2300000000002815, -0.7899522401881915 
2.2400000000003026, -0.7913046868571872 
2.2500000000003237, -0.7934072384777747 
2.260000000000345, -0.7963262129469004 
2.270000000000366, -0.8000611192291152 
2.280000000000387, -0.8045275109761143 
2.290000000000408, -0.8095392415538466 
2.3000000000004293, -0.814798818005945 
2.3100000000004504, -0.8199196359645994 
2.3200000000004715, -0.8245023556423682 
2.3300000000004926, -0.8282479993391739 
2.3400000000005137, -0.8310401143620378 
2.3500000000005348, -0.8329393600197774 
2.360000000000556, -0.8341078287954474 
2.370000000000577, -0.8347261184859611 
2.380000000000598, -0.834943896610673 
2.390000000000619, -0.8348648486673401 
2.4000000000006403, -0.8345506292125323 
2.4100000000006614, -0.8340319999418447 
2.4200000000006825, -0.8333238945985425 
2.4300000000007036, -0.8324485985643092 
2.4400000000007247, -0.8314774148349551 
2.450000000000746, -0.8306048588033004 
2.460000000000767, -0.8302622865682338 
2.470000000000788, -0.8312413916210325 
2.480000000000809, -0.8347160867161539 
2.49000000000083, -0.8419623399530323 
2.5000000000008513, -0.853646249094753 
2.5100000000008724, -0.8689883286590268 
2.5200000000008935, -0.8856536715797774 
2.5300000000009146, -0.9008587444392437 
2.5400000000009357, -0.9128094095801691 
2.550000000000957, -0.9211764619070838 
2.560000000000978, -0.9265721092282743 
2.570000000000999, -0.9298562922333244 
2.58000000000102, -0.9317571461395942 
2.5900000000010412, -0.9327783074561514 
2.6000000000010624, -0.9332310755618257 
2.6100000000010835, -0.9332898642572767 
2.6200000000011046, -0.9330347135547393 
2.6300000000011257, -0.9324747490773895 
2.6400000000011468, -0.9315552426276982 
2.650000000001168, -0.9301528963341683 
2.660000000001189, -0.9280675511753703 
2.67000000000121, -0.9250297277902846 
2.680000000001231, -0.9207650902912243 
2.6900000000012523, -0.9151736739883735 
2.7000000000012734, -0.9086319294696761 
2.7100000000012945, -0.902233240861231 
2.7200000000013156, -0.8975753682718393 
2.7300000000013367, -0.8959376016798295 
2.740000000001358, -0.8974352058035528 
2.750000000001379, -0.9009999837346132 
2.7600000000014, -0.9051799088797237 
2.770000000001421, -0.9089210695769733 
2.780000000001442, -0.9117853462419033 
2.7900000000014633, -0.9137605455516098 
2.8000000000014844, -0.9150093830982913 
2.8100000000015055, -0.9157146497515333 
2.8200000000015266, -0.9160169866160259 
2.8300000000015477, -0.9160002769127692 
2.840000000001569, -0.9156914075724059 
2.85000000000159, -0.9150574067500387 
2.860000000001611, -0.9139915789482377 
2.870000000001632, -0.9122835037926371 
2.8800000000016532, -0.9095716703604673 
2.8900000000016743, -0.9052922797947431 
2.9000000000016954, -0.8986786917655396 
2.9100000000017165, -0.8889324496913618 
2.9200000000017377, -0.8756897261219649 
2.9300000000017588, -0.8596468346979483 
2.94000000000178, -0.8427508592555508 
2.950000000001801, -0.827462277369437 
2.960000000001822, -0.8155735004436193 
2.970000000001843, -0.807590331468681 
2.9800000000018643, -0.8029674616560445 
2.9900000000018854, -0.8007137533570179 
3.0000000000019065, -0.7998760348697804 
3.0100000000019276, -0.7997528179777984 
3.0200000000019487, -0.7999101892428663 
3.03000000000197, -0.800113188955956 
3.040000000001991, -0.8002468020257704 
3.050000000002012, -0.8002556162260598 
3.060000000002033, -0.8001051248727403 
3.070000000002054, -0.7997587363435225 
3.0800000000020753, -0.7991647997128916 
3.0900000000020964, -0.7982518243160286 
3.1000000000021175, -0.7969346867780823 
3.1100000000021386, -0.795136600467049 
3.1200000000021597, -0.7928254359292854 
3.130000000002181, -0.7900475783310944 
3.140000000002202, -0.7869330504620049 
3.150000000002223, -0.7836622996397 
3.160000000002244, -0.7804163622059527 
3.1700000000022652, -0.7773413725009968 
3.1800000000022863, -0.7745389217076767 
3.1900000000023074, -0.7720733017230498 
3.2000000000023285, -0.7699822070373075 
3.2100000000023496, -0.7682833594602917 
3.2200000000023707, -0.7669761202703999 
3.230000000002392, -0.7660407489989555 
3.240000000002413, -0.765438694302495 
3.250000000002434, -0.7651160636848132 
3.260000000002455, -0.7650102230551247 
3.2700000000024763, -0.7650576012267698 
3.2800000000024974, -0.7652002993446868 
3.2900000000025185, -0.7653901112604435 
3.3000000000025396, -0.7655900838609611 
3.3100000000025607, -0.765774623731628 
3.3200000000025818, -0.7659288601125515 
3.330000000002603, -0.7660469163360651 
3.340000000002624, -0.7661281418237433 
3.350000000002645, -0.7661713860757521 
3.360000000002666, -0.7661696506379996 
3.3700000000026873, -0.7661086167793637 
3.3800000000027084, -0.7659706673628242 
3.3900000000027295, -0.7657421815488903 
3.4000000000027506, -0.7654196990587333 
3.4100000000027717, -0.7650122663667442 
3.420000000002793, -0.7645409204696603 
3.430000000002814, -0.7640382068939819 
3.440000000002835, -0.7635498066959965 
3.450000000002856, -0.7631382473915976 
3.460000000002877, -0.7628867772179287 
3.4700000000028983, -0.7629004250625091 
3.4800000000029194, -0.7633014960038272 
3.4900000000029405, -0.7642185804066176 
3.5000000000029616, -0.7657708836598561 
3.5100000000029827, -0.7680513027942201 
3.520000000003004, -0.7711103921378689 
3.530000000003025, -0.774939814983292 
3.540000000003046, -0.77945174690268 
3.550000000003067, -0.7844551367659448 
3.5600000000030882, -0.7896435109838766 
3.5700000000031094, -0.7946238454282726 
3.5800000000031305, -0.7990061031304584 
3.5900000000031516, -0.8025217269996328 
3.6000000000031727, -0.8050932930414847 
3.6100000000031938, -0.8068096121389006 
3.620000000003215, -0.8078415541714794 
3.630000000003236, -0.8083639044965037 
3.640000000003257, -0.8085144714638135 
3.650000000003278, -0.8083844846289029 
3.6600000000032993, -0.8080240346086333 
3.6700000000033204, -0.8074521132899817 
3.6800000000033415, -0.8066689351471579 
3.6900000000033626, -0.8056747525573762 
3.7000000000033837, -0.8045051859135078 
3.710000000003405, -0.8032976297324096 
3.720000000003426, -0.8023990765163148 
3.730000000003447, -0.8024932043132631 
3.740000000003468, -0.8046413277429512 
3.750000000003489, -0.8100307494711692 
3.7600000000035103, -0.8192946143075661 
3.7700000000035314, -0.8317438882227955 
3.7800000000035525, -0.8453580968310737 
3.7900000000035736, -0.8578412439677046 
3.8000000000035947, -0.8677751265086628 
3.810000000003616, -0.8748898237368085 
3.820000000003637, -0.8796220155371831 
3.830000000003658, -0.8826072245161891 
3.840000000003679, -0.884403843746342 
3.8500000000037002, -0.8854147319459825 
3.8600000000037213, -0.8858994098512559 
3.8700000000037424, -0.8860082694822186 
3.8800000000037635, -0.8858108191718171 
3.8900000000037847, -0.8853101226764457 
3.9000000000038058, -0.8844418025790179 
3.910000000003827, -0.8830562265364053 
3.920000000003848, -0.8808820652297185 
3.930000000003869, -0.8774742699780905 
3.94000000000389, -0.8721711390135406 
3.9500000000039113, -0.864138860498757 
3.9600000000039324, -0.8526503646104656 
3.9700000000039535, -0.8376856317297235 
3.9800000000039746, -0.8205362527916135 
3.9900000000039957, -0.8036527589754948 
4.000000000004016, -0.7894911556552227 
4.010000000003993, -0.7793331739202974 
4.02000000000397, -0.7730691156083597 
4.030000000003946, -0.7697752370510792 
4.040000000003923, -0.768374263792164 
4.0500000000039, -0.7680009629496587 
4.0600000000038765, -0.7680885741809159 
4.070000000003853, -0.7683156946311315 
4.08000000000383, -0.7685198377723947 
4.090000000003807, -0.7686250101463419 
4.100000000003783, -0.7685933824623016 
4.11000000000376, -0.7683963613201116 
4.120000000003737, -0.7679981025901135 
4.130000000003713, -0.7673472359804795 
4.14000000000369, -0.7663767560237565 
4.150000000003667, -0.7650155124256484 
4.1600000000036434, -0.7632138021844131 
4.17000000000362, -0.7609761430288946 
4.180000000003597, -0.75838103845468 
4.1900000000035735, -0.7555685142978728 
4.20000000000355, -0.7526999631459593 
4.210000000003527, -0.7499171027907716 
4.220000000003504, -0.7473218890412145 
4.23000000000348, -0.744978105452012 
4.240000000003457, -0.7429228126434423 
4.250000000003434, -0.7411770451900079 
4.26000000000341, -0.7397513875048716 
4.270000000003387, -0.7386467962685114 
4.280000000003364, -0.7378530730459365 
4.2900000000033405, -0.7373475986746252 
4.300000000003317, -0.7370961194260002 
4.310000000003294, -0.7370560393138943 
4.320000000003271, -0.7371813869804591 
4.330000000003247, -0.7374279767336323 
4.340000000003224, -0.737757495560611 
4.350000000003201, -0.7381399542208523 
4.360000000003177, -0.7385544583672965 
4.370000000003154, -0.7389881750677232 
4.380000000003131, -0.7394330173441326 
4.390000000003107, -0.7398799122593844 
4.400000000003084, -0.7403122081358036 
4.410000000003061, -0.740701886048982 
4.4200000000030375, -0.7410123151768226 
4.430000000003014, -0.7412076678934305 
4.440000000002991, -0.7412639295177945 
4.450000000002968, -0.741174959248328 
4.460000000002944, -0.7409513963223315 
4.470000000002921, -0.7406158148053107 
4.480000000002898, -0.7401992766993742 
4.490000000002874, -0.7397425590226846 
4.500000000002851, -0.7393029128704633 
4.510000000002828, -0.7389656651944767 
4.520000000002804, -0.7388586775302733 
4.530000000002781, -0.7391657925452952 
4.540000000002758, -0.7401331122907903 
4.5500000000027345, -0.7420604751828579 
4.560000000002711, -0.7452708634834957 
4.570000000002688, -0.7500521458108709 
4.580000000002665, -0.7565678139560733 
4.590000000002641, -0.7647410934369505 
4.600000000002618, -0.7741439945966262 
4.610000000002595, -0.7839739873923262 
4.620000000002571, -0.7932213880793119 
4.630000000002548, -0.8010155194636306 
4.640000000002525, -0.806932016645885 
4.6500000000025015, -0.8110326417495672 
4.660000000002478, -0.8136667403628787 
4.670000000002455, -0.8152417773819087 
4.6800000000024315, -0.816094077781116 
4.690000000002408, -0.8164557636310914 
4.700000000002385, -0.816467086305632 
4.710000000002362, -0.8161978144242555 
4.720000000002338, -0.8156629634059991 
4.730000000002315, -0.8148298150991776 
4.740000000002292, -0.8136176032397374 
4.750000000002268, -0.8118936257729349 
4.760000000002245, -0.8094732292895536 
4.770000000002222, -0.806136982615687 
4.7800000000021985, -0.8016825541501736 
4.790000000002175, -0.7960212959570774 
4.800000000002152, -0.789306296278397 
4.810000000002129, -0.7820561447654231 
4.820000000002105, -0.7751932984087337 
4.830000000002082, -0.7698074143441078 
4.840000000002059, -0.7665997683415868 
4.850000000002035, -0.7654924468589268 
4.860000000002012, -0.7658239067595404 
4.870000000001989, -0.7668352855056522 
4.880000000001965, -0.7679817971239442 
4.890000000001942, -0.7689797580585528 
4.900000000001919, -0.7697270923384915 
4.9100000000018955, -0.7702135066455583 
4.920000000001872, -0.7704601070391323 
4.930000000001849, -0.7704868897412546 
