t, s[1].omega / s[0].omega 
0, -0.5799977340075763 
0.009999999999999995, -0.5797819561070159 
0.019999999999999934, -0.5795804174780249 
0.029999999999999874, -0.5793748265420507 
0.04000000000000012, -0.5791434306039521 
0.050000000000000405, -0.5788688833491663 
0.06000000000000069, -0.578542798156366 
0.07000000000000098, -0.5781663791758548 
0.08000000000000126, -0.5777491221575896 
0.09000000000000155, -0.5773081867800679 
0.10000000000000184, -0.5768702833625378 
0.11000000000000212, -0.5764771407937099 
0.12000000000000241, -0.5761954152148804 
0.130000000000002, -0.5761320216719737 
0.1400000000000009, -0.5764556400904666 
0.1499999999999998, -0.5774233438023846 
0.1599999999999987, -0.5794055214470053 
0.1699999999999976, -0.5828884359457759 
0.1799999999999965, -0.5884091698839071 
0.1899999999999954, -0.5963570152204234 
0.1999999999999943, -0.6066237593985244 
0.2099999999999932, -0.6182941139109543 
0.2199999999999921, -0.6297956904614334 
0.229999999999991, -0.639638628465292 
0.2399999999999899, -0.6471175830626466 
0.2499999999999888, -0.6523441270708996 
0.2599999999999877, -0.6558194992695846 
0.2699999999999866, -0.658066616689203 
0.2799999999999855, -0.659486784812197 
0.2899999999999844, -0.6603513415292481 
0.2999999999999833, -0.6608327560096556 
0.3099999999999822, -0.6610349553151933 
0.3199999999999811, -0.6610138900873139 
0.32999999999998, -0.6607890518633993 
0.3399999999999789, -0.6603482779536654 
0.3499999999999778, -0.6596483191867092 
0.35999999999997667, -0.6586147452609252 
0.36999999999997557, -0.6571476681480887 
0.37999999999997447, -0.6551430363154827 
0.38999999999997337, -0.6525363857677657 
0.39999999999997227, -0.6493579096162462 
0.40999999999997117, -0.6457616887582308 
0.41999999999997006, -0.6419940686839272 
0.42999999999996896, -0.6383142948165247 
0.43999999999996786, -0.6349221517904619 
0.44999999999996676, -0.6319309326311479 
0.45999999999996566, -0.6293803009275682 
0.46999999999996456, -0.6272637453223242 
0.47999999999996346, -0.6255523842165306 
0.48999999999996235, -0.6242095412441073 
0.49999999999996125, -0.6231975903030345 
0.5099999999999602, -0.6224803233025399 
0.519999999999959, -0.622023486604796 
0.529999999999958, -0.6217950287743516 
0.5399999999999568, -0.6217656918816074 
0.5499999999999557, -0.6219100042818088 
0.5599999999999546, -0.622207455312661 
0.5699999999999535, -0.6226435359215474 
0.5799999999999524, -0.6232102455663144 
0.5899999999999513, -0.623905440227114 
0.5999999999999502, -0.6247300454050566 
0.6099999999999491, -0.6256820637358396 
0.619999999999948, -0.6267472316016458 
0.6299999999999469, -0.6278887681524764 
0.6399999999999458, -0.629042215353559 
0.6499999999999447, -0.630122495397159 
0.6599999999999436, -0.6310444932351087 
0.6699999999999425, -0.6317473230032775 
0.6799999999999414, -0.6322073973193586 
0.6899999999999403, -0.6324341178953442 
0.6999999999999392, -0.6324549240615158 
0.7099999999999381, -0.6323002758026689 
0.719999999999937, -0.6319942477359162 
0.7299999999999359, -0.6315509249044641 
0.7399999999999348, -0.6309747746365159 
0.7499999999999337, -0.6302637223672151 
0.7599999999999326, -0.6294149255592456 
0.7699999999999315, -0.628433976471267 
0.7799999999999304, -0.6273470820485516 
0.7899999999999293, -0.6262099887591688 
0.7999999999999282, -0.6250943899648093 
0.8099999999999271, -0.6240209068777741 
0.819999999999926, -0.6228419515683384 
0.8299999999999249, -0.6212107465282573 
0.8399999999999238, -0.6188482920887188 
0.8499999999999227, -0.6159533292153676 
0.8599999999999216, -0.6131737138807296 
0.8699999999999205, -0.6110943405065911 
0.8799999999999194, -0.6098883573919367 
0.8899999999999183, -0.609395186145387 
0.8999999999999172, -0.6093476631456373 
0.9099999999999161, -0.6095162832563217 
0.919999999999915, -0.6097491471712695 
0.9299999999999139, -0.609960400385671 
0.9399999999999128, -0.6101065248353258 
0.9499999999999117, -0.6101661628052364 
0.9599999999999106, -0.6101265195546212 
0.9699999999999095, -0.6099753064859555 
0.9799999999999084, -0.609696924333767 
0.9899999999999073, -0.6092725296892263 
0.9999999999999062, -0.6086844216815263 
1.0099999999999052, -0.6079246314854884 
1.019999999999904, -0.6070048637888021 
1.029999999999903, -0.6059615171849433 
1.039999999999902, -0.6048500155225698 
1.0499999999999008, -0.6037296162863683 
1.0599999999998997, -0.6026474123483929 
1.0699999999998986, -0.601630229470566 
1.0799999999998975, -0.600686390149664 
1.0899999999998964, -0.5998133768573475 
1.0999999999998953, -0.5990062602288719 
1.1099999999998942, -0.5982638676514854 
1.119999999999893, -0.5975922355353539 
1.129999999999892, -0.5970063265501654 
1.1399999999998909, -0.5965311608871933 
1.1499999999998898, -0.5962030338387375 
1.1599999999998887, -0.5960709893723201 
1.1699999999998876, -0.5961984465522825 
1.1799999999998865, -0.5966647819044267 
1.1899999999998854, -0.5975665403266657 
1.1999999999998843, -0.5990174505972685 
1.2099999999998832, -0.6011451288830056 
1.219999999999882, -0.6040798922535934 
1.229999999999881, -0.6079278688286592 
1.2399999999998799, -0.612719693593901 
1.2499999999998788, -0.6183360732115719 
1.2599999999998777, -0.6244427469979652 
1.2699999999998766, -0.630506628452139 
1.2799999999998755, -0.6359465790495488 
1.2899999999998744, -0.64035142066889 
1.2999999999998733, -0.6436009771230613 
1.3099999999998722, -0.6458157257065908 
1.319999999999871, -0.6472213769420974 
1.32999999999987, -0.648040009746526 
1.3399999999998689, -0.6484421033878689 
1.3499999999998678, -0.6485394187191702 
1.3599999999998666, -0.6483927256963745 
1.3699999999998655, -0.6480196881238125 
1.3799999999998644, -0.6473971149491723 
1.3899999999998633, -0.6464555766879256 
1.3999999999998622, -0.6450658782680883 
1.4099999999998611, -0.6430198534132758 
1.41999999999986, -0.6400175420458968 
1.429999999999859, -0.6356935568579724 
1.4399999999998578, -0.6297352547138994 
1.4499999999998567, -0.62210835802726 
1.4599999999998556, -0.6132603027774565 
1.4699999999998545, -0.6040631647162645 
1.4799999999998534, -0.5954588453662959 
1.4899999999998523, -0.5880968275684834 
1.4999999999998512, -0.5822208860708573 
1.5099999999998501, -0.577770171324451 
1.519999999999849, -0.574533296981027 
1.529999999999848, -0.5722602676815884 
1.5399999999998468, -0.5707194937619462 
1.5499999999998457, -0.5697183767929916 
1.5599999999998446, -0.5691058319972584 
1.5699999999998435, -0.5687676747820298 
1.5799999999998424, -0.568620049827219 
1.5899999999998413, -0.5686030350470692 
1.5999999999998402, -0.568675233305721 
1.6099999999998391, -0.5688096561215207 
1.619999999999838, -0.568990947290954 
1.629999999999837, -0.5692136713042825 
1.6399999999998358, -0.5694808653274046 
1.6499999999998347, -0.5698014880299631 
1.6599999999998336, -0.5701853601087075 
1.6699999999998325, -0.5706353365953053 
1.6799999999998314, -0.5711387836071784 
1.6899999999998303, -0.5716627811498204 
1.6999999999998292, -0.5721576373490582 
1.709999999999828, -0.5725693396799082 
1.719999999999827, -0.5728550220029399 
1.729999999999826, -0.5729925767038445 
1.7399999999998248, -0.5729801406500485 
1.7499999999998237, -0.5728285236890168 
1.7599999999998226, -0.5725525466176367 
1.7699999999998215, -0.572165171444565 
1.7799999999998204, -0.5716752960494296 
1.7899999999998193, -0.5710886930052854 
1.7999999999998182, -0.5704116499388504 
1.809999999999817, -0.5696573019598461 
1.819999999999816, -0.5688541548905587 
1.8299999999998149, -0.5680528660498803 
1.8399999999998138, -0.5673178065396428 
1.8499999999998127, -0.566674316823274 
1.8599999999998116, -0.5659838985786136 
1.8699999999998105, -0.5648091556405699 
1.8799999999998094, -0.5625247476875448 
1.8899999999998083, -0.5588621062239814 
1.8999999999998072, -0.5543772997820422 
1.909999999999806, -0.5501074395901211 
1.919999999999805, -0.5468071567592359 
1.9299999999998039, -0.5446493565365236 
1.9399999999998028, -0.543428440079219 
1.9499999999998017, -0.5428375062280539 
1.9599999999998006, -0.5426147454076473 
1.9699999999997995, -0.5425792413936722 
1.9799999999997984, -0.5426191125754993 
1.9899999999997973, -0.5426692939957081 
1.9999999999997962, -0.5426925924667467 
2.0099999999998173, -0.5426666898514992 
2.0199999999998384, -0.5425763865468072 
2.0299999999998595, -0.5424100179221372 
2.0399999999998806, -0.5421593722298967 
2.0499999999999017, -0.5418224733626805 
2.059999999999923, -0.5414076927374131 
2.069999999999944, -0.5409361735707281 
2.079999999999965, -0.5404392478450221 
2.089999999999986, -0.5399501334637232 
2.100000000000007, -0.5394934442945348 
2.1100000000000283, -0.5390780287493393 
2.1200000000000494, -0.538696562349471 
2.1300000000000705, -0.5383313051882823 
2.1400000000000916, -0.5379624627587225 
2.1500000000001127, -0.5375751264369056 
2.160000000000134, -0.5371626792642716 
2.170000000000155, -0.5367272206657872 
2.180000000000176, -0.5362791086041891 
2.190000000000197, -0.5358377039992253 
2.2000000000002182, -0.5354347428658323 
2.2100000000002393, -0.535121356737134 
2.2200000000002604, -0.5349798120231751 
2.2300000000002815, -0.5351411825389533 
2.2400000000003026, -0.5358095515212646 
2.2500000000003237, -0.5372900903864183 
2.260000000000345, -0.5400085793612533 
2.270000000000366, -0.5444879621044517 
2.280000000000387, -0.551215358965974 
2.290000000000408, -0.5603340438371689 
2.3000000000004293, -0.5712451873418426 
2.3100000000004504, -0.5825211118998418 
2.3200000000004715, -0.5925172051244387 
2.3300000000004926, -0.600260782519555 
2.3400000000005137, -0.6057163079621988 
2.3500000000005348, -0.6093701297315861 
2.360000000000556, -0.6117700666659578 
2.370000000000577, -0.61333352845183 
2.380000000000598, -0.6143366364310061 
2.390000000000619, -0.6149535007356551 
2.4000000000006403, -0.6152916100990027 
2.4100000000006614, -0.6154143466873387 
2.4200000000006825, -0.61535362956522 
2.4300000000007036, -0.615116368126768 
2.4400000000007247, -0.6146874932245139 
2.450000000000746, -0.6140322760663455 
2.460000000000767, -0.6131016567505994 
2.470000000000788, -0.6118453004627851 
2.480000000000809, -0.6102349673730754 
2.49000000000083, -0.6082920360460999 
2.5000000000008513, -0.6061015561564977 
2.5100000000008724, -0.6037965463992371 
2.5200000000008935, -0.6015180460874447 
2.5300000000009146, -0.5993768127789925 
2.5400000000009357, -0.5974372332609565 
2.550000000000957, -0.5957232397053274 
2.560000000000978, -0.5942339767536022 
2.570000000000999, -0.592958620508822 
2.58000000000102, -0.591886076489424 
2.5900000000010412, -0.5910096888019334 
2.6000000000010624, -0.5903286403493967 
2.6100000000010835, -0.5898476689401024 
2.6200000000011046, -0.5895762083758376 
2.6300000000011257, -0.589527613866231 
2.6400000000011468, -0.5897188372771573 
2.650000000001168, -0.5901706890558444 
2.660000000001189, -0.590908539471892 
2.67000000000121, -0.5919628609462719 
2.680000000001231, -0.5933682956927256 
2.6900000000012523, -0.5951589385810525 
2.7000000000012734, -0.5973566394038708 
2.7100000000012945, -0.5999497512254952 
2.7200000000013156, -0.6028647119143925 
2.7300000000013367, -0.6059442292931236 
2.740000000001358, -0.6089571143989911 
2.750000000001379, -0.6116556245259511 
2.7600000000014, -0.6138565726061339 
2.770000000001421, -0.6154912564503691 
2.780000000001442, -0.6165944153345698 
2.7900000000014633, -0.6172552305769228 
2.8000000000014844, -0.617570115424871 
2.8100000000015055, -0.6176158846615027 
2.8200000000015266, -0.6174402572312573 
2.8300000000015477, -0.6170601598946808 
2.840000000001569, -0.6164603846413427 
2.85000000000159, -0.615588092416572 
2.860000000001611, -0.614340007487731 
2.870000000001632, -0.612539745570525 
2.8800000000016532, -0.609905903528918 
2.8900000000016743, -0.6060252968030116 
2.9000000000016954, -0.6003815808338075 
2.9100000000017165, -0.5925339535267009 
2.9200000000017377, -0.5824869962613262 
2.9300000000017588, -0.571014557941995 
2.94000000000178, -0.5594933973003218 
2.950000000001801, -0.5492455807128485 
2.960000000001822, -0.540996722225607 
2.970000000001843, -0.534834504635158 
2.9800000000018643, -0.5304709650738821 
2.9900000000018854, -0.5275009438481926 
3.0000000000019065, -0.5255449830497175 
3.0100000000019276, -0.5242992414298755 
3.0200000000019487, -0.5235387337114815 
3.03000000000197, -0.5231040514544097 
3.040000000001991, -0.5228853924122354 
3.050000000002012, -0.5228087860145314 
3.060000000002033, -0.5228256339998583 
3.070000000002054, -0.5229054085931132 
3.0800000000020753, -0.5230310256808063 
3.0900000000020964, -0.5231962860690944 
3.1000000000021175, -0.5234044980634357 
3.1100000000021386, -0.5236669066125111 
3.1200000000021597, -0.523999209051961 
3.130000000002181, -0.5244149043127972 
3.140000000002202, -0.5249159496620288 
3.150000000002223, -0.5254838224725801 
3.160000000002244, -0.5260762237408578 
3.1700000000022652, -0.5266339201868964 
3.1800000000022863, -0.5270967420100905 
3.1900000000023074, -0.5274204802897527 
3.2000000000023285, -0.5275850362386996 
3.2100000000023496, -0.5275911174926114 
3.2200000000023707, -0.5274504632956583 
3.230000000002392, -0.5271760097358305 
3.240000000002413, -0.526775094679685 
3.250000000002434, -0.5262454826807599 
3.260000000002455, -0.5255725257885577 
3.2700000000024763, -0.5247253475801766 
3.2800000000024974, -0.523649138130118 
3.2900000000025185, -0.522248296804064 
3.3000000000025396, -0.5203510177505717 
3.3100000000025607, -0.5176452603194684 
3.3200000000025818, -0.5136030098597358 
3.330000000002603, -0.5075093516550362 
3.340000000002624, -0.49883053885879064 
3.350000000002645, -0.48790676415422407 
3.360000000002666, -0.4762148475309519 
3.3700000000026873, -0.4655724013014727 
3.3800000000027084, -0.45709711825804317 
3.3900000000027295, -0.4509647778711673 
3.4000000000027506, -0.44679838061992605 
3.4100000000027717, -0.44407983940116064 
3.420000000002793, -0.4423557279376589 
3.430000000002814, -0.44129015511715386 
3.440000000002835, -0.4406532076101228 
3.450000000002856, -0.4402938916069134 
3.460000000002877, -0.440115543036162 
3.4700000000028983, -0.44005778416117164 
3.4800000000029194, -0.4400845440686065 
3.4900000000029405, -0.44017672609531894 
3.5000000000029616, -0.44032820907225745 
3.5100000000029827, -0.44054401836598195 
3.520000000003004, -0.4408393651480667 
3.530000000003025, -0.4412378693034607 
3.540000000003046, -0.44176703131823186 
3.550000000003067, -0.4424494694228643 
3.5600000000030882, -0.4432901009045517 
3.5700000000031094, -0.44426266246591367 
3.5800000000031305, -0.44530309332948387 
3.5900000000031516, -0.44631844373276913 
3.6000000000031727, -0.447212239684856 
3.6100000000031938, -0.44791329104857436 
3.620000000003215, -0.44839018497345107 
3.630000000003236, -0.4486457684363142 
3.640000000003257, -0.44870047529194607 
3.650000000003278, -0.44857582630096193 
3.6600000000032993, -0.44828295297676257 
3.6700000000033204, -0.44781497099144535 
3.6800000000033415, -0.44713969708697077 
3.6900000000033626, -0.4461890560961003 
3.7000000000033837, -0.44484225747745365 
3.710000000003405, -0.4429028167467389 
3.720000000003426, -0.4400802597006466 
3.730000000003447, -0.43601338356749614 
3.740000000003468, -0.43040088857692416 
3.750000000003489, -0.4232595778578953 
3.7600000000035103, -0.4151331375962702 
3.7700000000035314, -0.40695372062057117 
3.7800000000035525, -0.3995902624534418 
3.7900000000035736, -0.39350678054363686 
3.8000000000035947, -0.38875873041043174 
3.810000000003616, -0.38517232411095476 
3.820000000003637, -0.38250760138456324 
3.830000000003658, -0.3805438055431082 
3.840000000003679, -0.3791073176630515 
3.8500000000037002, -0.37807252316506135 
3.8600000000037213, -0.3773540092234219 
3.8700000000037424, -0.37689813834407715 
3.8800000000037635, -0.37667672670967045 
3.8900000000037847, -0.376683438953583 
3.9000000000038058, -0.3769328714100074 
3.910000000003827, -0.37746218971904455 
3.920000000003848, -0.37833510599800446 
3.930000000003869, -0.37964748910217966 
3.94000000000389, -0.3815323256153569 
3.9500000000039113, -0.38415796069754027 
3.9600000000039324, -0.38770646410171705 
3.9700000000039535, -0.3923110778670796 
3.9800000000039746, -0.39793855317615723 
3.9900000000039957, -0.40425593716190455 
4.000000000004016, -0.41061592093442884 
4.010000000003993, -0.41628225762053106 
4.02000000000397, -0.42076915838951334 
4.030000000003946, -0.4239912346197675 
4.040000000003923, -0.4261443440158502 
4.0500000000039, -0.42750814271691945 
4.0600000000038765, -0.42832554776627074 
4.070000000003853, -0.42876858624656267 
4.08000000000383, -0.4289455467665354 
4.090000000003807, -0.42891728845133503 
4.100000000003783, -0.4287107488699468 
4.11000000000376, -0.42832805968218246 
4.120000000003737, -0.4277534520067753 
4.130000000003713, -0.42696151301893526 
4.14000000000369, -0.425930398477748 
4.150000000003667, -0.4246606841570736 
4.1600000000036434, -0.4231932284381764 
4.17000000000362, -0.4216125499736199 
4.180000000003597, -0.42002714941864755 
4.1900000000035735, -0.4185361329548248 
4.20000000000355, -0.4172031141176166 
4.210000000003527, -0.41604978954219085 
4.220000000003504, -0.41506552737367236 
4.23000000000348, -0.4142226119007658 
4.240000000003457, -0.4134895682007014 
4.250000000003434, -0.4128397617370461 
4.26000000000341, -0.4122555734050441 
4.270000000003387, -0.41172984424693804 
4.280000000003364, -0.41126656961431085 
4.2900000000033405, -0.410882528097462 
4.300000000003317, -0.41061117241747114 
4.310000000003294, -0.4105100254888147 
4.320000000003271, -0.4106730251096745 
4.330000000003247, -0.4112493216908363 
4.340000000003224, -0.412468624487831 
4.350000000003201, -0.4146667317946114 
4.360000000003177, -0.41828560445522617 
4.370000000003154, -0.42378171303773493 
4.380000000003131, -0.4313383778535034 
4.390000000003107, -0.44038484973397385 
4.400000000003084, -0.4493650765569101 
4.410000000003061, -0.4564634690364399 
4.4200000000030375, -0.46088365615259264 
4.430000000003014, -0.463131613643907 
4.440000000002991, -0.46416677235200937 
4.450000000002968, -0.46468867927046853 
4.460000000002944, -0.4650283668030398 
4.470000000002921, -0.46529730774799855 
4.480000000002898, -0.4655184054374038 
4.490000000002874, -0.4656893177139761 
4.500000000002851, -0.465804255632068 
4.510000000002828, -0.46585871737441786 
4.520000000002804, -0.4658490775773675 
4.530000000002781, -0.46577159277639024 
4.540000000002758, -0.46562245032997573 
4.5500000000027345, -0.46539951367893717 
4.560000000002711, -0.46510580020415865 
4.570000000002688, -0.4647536314116598 
4.580000000002665, -0.4643669440150858 
4.590000000002641, -0.4639788459536199 
4.600000000002618, -0.4636236319304783 
4.610000000002595, -0.46332619820486975 
4.620000000002571, -0.4630938861791753 
4.630000000002548, -0.46291456080681226 
4.640000000002525, -0.46276159232420255 
4.6500000000025015, -0.4626032395231342 
4.660000000002478, -0.46241198455622523 
4.670000000002455, -0.46216991348489234 
4.6800000000024315, -0.46186913565674004 
4.690000000002408, -0.46150909533209805 
4.700000000002385, -0.46109343118382745 
4.710000000002362, -0.46062815044363664 
4.720000000002338, -0.4601217536595182 
4.730000000002315, -0.4595872925923688 
4.740000000002292, -0.45904583960584794 
4.750000000002268, -0.4585293534990531 
4.760000000002245, -0.45807622165310713 
4.770000000002222, -0.4577014633829652 
4.7800000000021985, -0.45730663919231385 
4.790000000002175, -0.45650291877290633 
4.800000000002152, -0.4544539556417903 
4.810000000002129, -0.4501298654562532 
4.820000000002105, -0.4432254065574953 
4.830000000002082, -0.43484236461615666 
4.840000000002059, -0.4267806683659357 
4.850000000002035, -0.420274994626136 
4.860000000002012, -0.4156123706294405 
4.870000000001989, -0.41251143924637645 
4.880000000001965, -0.41054308928507277 
4.890000000001942, -0.40933330599166046 
4.900000000001919, -0.40861140689367403 
