t, s[1].omega / s[0].omega 
0, -0.219930345694248 
0.009999999999999995, -0.21376379898456013 
0.019999999999999934, -0.20911957048443136 
0.029999999999999874, -0.20573257483827473 
0.04000000000000012, -0.20328122734037973 
0.050000000000000405, -0.20149420963230277 
0.06000000000000069, -0.20017304713055134 
0.07000000000000098, -0.1991832675440121 
0.08000000000000126, -0.19843972255507705 
0.09000000000000155, -0.19789471797352176 
0.10000000000000184, -0.1975310472802867 
0.11000000000000212, -0.1973603786944338 
0.12000000000000241, -0.19742765206250373 
0.130000000000002, -0.19782302413020317 
0.1400000000000009, -0.1987036694491891 
0.1499999999999998, -0.2003260384176171 
0.1599999999999987, -0.2030763105039523 
0.1699999999999976, -0.20743686987894697 
0.1799999999999965, -0.21369449307735827 
0.1899999999999954, -0.2210598731377414 
0.1999999999999943, -0.2264866027924633 
0.2099999999999932, -0.22567413633956673 
0.2199999999999921, -0.2176713972401277 
0.229999999999991, -0.2064527717770636 
0.2399999999999899, -0.1963113320014544 
0.2499999999999888, -0.18885412906990295 
0.2599999999999877, -0.18385563771093058 
0.2699999999999866, -0.1806150226467777 
0.2799999999999855, -0.17852751865716182 
0.2899999999999844, -0.17718314643028918 
0.2999999999999833, -0.1763279847330701 
0.3099999999999822, -0.17581276170054266 
0.3199999999999811, -0.17555632482756228 
0.32999999999998, -0.1755244093760548 
0.3399999999999789, -0.17571987025437436 
0.3499999999999778, -0.1761816726748276 
0.35999999999997667, -0.17699175243916096 
0.36999999999997557, -0.1782902933357776 
0.37999999999997447, -0.1803001864633335 
0.38999999999997337, -0.18335753609165026 
0.39999999999997227, -0.18792867334304678 
0.40999999999997117, -0.19455012586274667 
0.41999999999997006, -0.2035631837370882 
0.42999999999996896, -0.21457410118516237 
0.43999999999996786, -0.22605223192819396 
0.44999999999996676, -0.23593960759809227 
0.45999999999996566, -0.24302888296272243 
0.46999999999996456, -0.2474569317887259 
0.47999999999996346, -0.2500178004431094 
0.48999999999996235, -0.25146065579528887 
0.49999999999996125, -0.25227366313709887 
0.5099999999999602, -0.25272994406622795 
0.519999999999959, -0.252974058523072 
0.529999999999958, -0.25308209644846297 
0.5399999999999568, -0.2530951713426054 
0.5499999999999557, -0.2530373777280338 
0.5599999999999546, -0.2529263486802587 
0.5699999999999535, -0.25278073452870997 
0.5799999999999524, -0.252626112725491 
0.5899999999999513, -0.25249878342818904 
0.5999999999999502, -0.2524458464000397 
0.6099999999999491, -0.2525204380887276 
0.619999999999948, -0.25277249158468396 
0.6299999999999469, -0.25323622582327193 
0.6399999999999458, -0.25391574377528986 
0.6499999999999447, -0.2547724100883733 
0.6599999999999436, -0.25572271748689923 
0.6699999999999425, -0.2566556560894086 
0.6799999999999414, -0.2574659268590989 
0.6899999999999403, -0.2580833690878668 
0.6999999999999392, -0.2584809747796626 
0.7099999999999381, -0.2586624778196011 
0.719999999999937, -0.2586427933925074 
0.7299999999999359, -0.25843165346804986 
0.7399999999999348, -0.2580227664855276 
0.7499999999999337, -0.25738659415716675 
0.7599999999999326, -0.2564653686109488 
0.7699999999999315, -0.25517288459610454 
0.7799999999999304, -0.2534079272522475 
0.7899999999999293, -0.25109439948355244 
0.7999999999999282, -0.24824900513197887 
0.8099999999999271, -0.2450375650219016 
0.819999999999926, -0.2417523286328703 
0.8299999999999249, -0.23869887641734203 
0.8399999999999238, -0.23607991662771602 
0.8499999999999227, -0.23395981265350954 
0.8599999999999216, -0.23230140342856145 
0.8699999999999205, -0.23102035503527532 
0.8799999999999194, -0.2300238546454993 
0.8899999999999183, -0.22922993632562405 
0.8999999999999172, -0.228574333917528 
0.9099999999999161, -0.2280109953589009 
0.919999999999915, -0.22750981304728332 
0.9299999999999139, -0.2270535792936444 
0.9399999999999128, -0.2266353053025849 
0.9499999999999117, -0.22625623523389682 
0.9599999999999106, -0.22592370801769182 
0.9699999999999095, -0.22564546774740704 
0.9799999999999084, -0.22541035250388702 
0.9899999999999073, -0.22512872577199902 
0.9999999999999062, -0.22447512128087607 
1.0099999999999052, -0.2225682848610981 
1.019999999999904, -0.2176504178557014 
1.029999999999903, -0.20765876236485795 
1.039999999999902, -0.19251224378301537 
1.0499999999999008, -0.1755153731817421 
1.0599999999998997, -0.1606733998196604 
1.0699999999998986, -0.1496960808688731 
1.0799999999998975, -0.14224150493964177 
1.0899999999998964, -0.13732762914653565 
1.0999999999998953, -0.1340859617961722 
1.1099999999998942, -0.13191871631816005 
1.119999999999893, -0.13045097435804423 
1.129999999999892, -0.12945777098177014 
1.1399999999998909, -0.12881064337093223 
1.1499999999998898, -0.1284457294325927 
1.1599999999998887, -0.12834813265684275 
1.1699999999998876, -0.1285488138730532 
1.1799999999998865, -0.12913336153945668 
1.1899999999998854, -0.13026528170266732 
1.1999999999998843, -0.13222939792876634 
1.2099999999998832, -0.135499786014766 
1.219999999999882, -0.14081412936142107 
1.229999999999881, -0.14913768964691435 
1.2399999999998799, -0.1611424299130059 
1.2499999999998788, -0.17569344430789943 
1.2599999999998777, -0.1884277670152366 
1.2699999999998766, -0.19439095462419512 
1.2799999999998755, -0.1933492655649523 
1.2899999999998744, -0.1890592419406408 
1.2999999999998733, -0.18466534922732783 
1.3099999999998722, -0.18129911867219756 
1.319999999999871, -0.17899035567229482 
1.32999999999987, -0.17747435643408768 
1.3399999999998689, -0.17649850411878165 
1.3499999999998678, -0.17588531439810795 
1.3599999999998666, -0.1755243687590699 
1.3699999999998655, -0.1753539407432483 
1.3799999999998644, -0.17534736402862716 
1.3899999999998633, -0.1755059884092999 
1.3999999999998622, -0.17585796979009563 
1.4099999999998611, -0.17646225685577452 
1.41999999999986, -0.17741759561638354 
1.429999999999859, -0.17887614518847778 
1.4399999999998578, -0.18105865637551036 
1.4499999999998567, -0.18425896786123597 
1.4599999999998556, -0.18880376285025255 
1.4699999999998545, -0.19490575581143016 
1.4799999999998534, -0.20238052499116868 
1.4899999999998523, -0.21041029330958522 
1.4999999999998512, -0.21776917887853453 
1.5099999999998501, -0.2235234010504116 
1.519999999999849, -0.22747727223756117 
1.529999999999848, -0.22997114577154637 
1.5399999999998468, -0.2314706273034227 
1.5499999999998457, -0.23234524555785946 
1.5599999999998446, -0.23283334774621983 
1.5699999999998435, -0.23307507083055873 
1.5799999999998424, -0.23314955586413338 
1.5899999999998413, -0.23310099516640354 
1.5999999999998402, -0.23295517556224135 
1.6099999999998391, -0.23273076551823996 
1.619999999999838, -0.23244817414245386 
1.629999999999837, -0.23213655511459055 
1.6399999999998358, -0.23183746596057211 
1.6499999999998347, -0.23160311635313957 
1.6599999999998336, -0.2314888990002008 
1.6699999999998325, -0.23154243309178152 
1.6799999999998314, -0.23179188408993884 
1.6899999999998303, -0.23223522530471513 
1.6999999999998292, -0.2328330212170072 
1.709999999999828, -0.23351064480293843 
1.719999999999827, -0.23417497764531953 
1.729999999999826, -0.2347406438752829 
1.7399999999998248, -0.2351507945044246 
1.7499999999998237, -0.2353811507591721 
1.7599999999998226, -0.23542945837757484 
1.7699999999998215, -0.23530001208594786 
1.7799999999998204, -0.2349902087916472 
1.7899999999998193, -0.23448052789272616 
1.7999999999998182, -0.23372671489522073 
1.809999999999817, -0.23265420213930196 
1.819999999999816, -0.23115964389003216 
1.8299999999998149, -0.22913184948195292 
1.8399999999998138, -0.22650644861195834 
1.8499999999998127, -0.22334559388488717 
1.8599999999998116, -0.2198825073134695 
1.8699999999998105, -0.21645931394557222 
1.8799999999998094, -0.21338357588242904 
1.8899999999998083, -0.21082198568636884 
1.8999999999998072, -0.20879571002757893 
1.909999999999806, -0.20723682454999764 
1.919999999999805, -0.20604526029210762 
1.9299999999998039, -0.20512270276775557 
1.9399999999998028, -0.20438693753139964 
1.9499999999998017, -0.20377546081442377 
1.9599999999998006, -0.2032441734333772 
1.9699999999997995, -0.20276409486007188 
1.9799999999997984, -0.20231760343178115 
1.9899999999997973, -0.20189483958438328 
1.9999999999997962, -0.2014898712715763 
2.0099999999998173, -0.2010943602469398 
2.0199999999998384, -0.2006822656574605 
2.0299999999998595, -0.200169204277097 
2.0399999999998806, -0.19931058429896226 
2.0499999999999017, -0.19748732272115188 
2.059999999999923, -0.19342215903617782 
2.069999999999944, -0.18531770227146654 
2.079999999999965, -0.1723246560256261 
2.089999999999986, -0.15643236603535246 
2.100000000000007, -0.14140894114230446 
2.1100000000000283, -0.1296805889791499 
2.1200000000000494, -0.12148245695280491 
2.1300000000000705, -0.11601197426328509 
2.1400000000000916, -0.11238812219247 
2.1500000000001127, -0.10995860534565653 
2.160000000000134, -0.1083009022677714 
2.170000000000155, -0.10715618569308427 
2.180000000000176, -0.10637218932014474 
2.190000000000197, -0.10586656759843512 
2.2000000000002182, -0.10560709709400537 
2.2100000000002393, -0.10560453389254645 
2.2200000000002604, -0.1059164416103282 
2.2300000000002815, -0.10666307757425073 
2.2400000000003026, -0.10805847518017744 
2.2500000000003237, -0.11045740576552192 
2.260000000000345, -0.11439584563657243 
2.270000000000366, -0.12050863448953879 
2.280000000000387, -0.12896865743864466 
2.290000000000408, -0.13799970345580406 
2.3000000000004293, -0.1427550064884471 
2.3100000000004504, -0.1389027061805766 
2.3200000000004715, -0.12844237129083505 
2.3300000000004926, -0.11709470019978882 
2.3400000000005137, -0.10820186652165205 
2.3500000000005348, -0.102141350282283 
2.360000000000556, -0.09821029856528526 
2.370000000000577, -0.09568068210736258 
2.380000000000598, -0.09404404155467348 
2.390000000000619, -0.09298680334712195 
2.4000000000006403, -0.0923272375841865 
2.4100000000006614, -0.09196869302444385 
2.4200000000006825, -0.09187297424223845 
2.4300000000007036, -0.0920493498317635 
2.4400000000007247, -0.09255630640439552 
2.450000000000746, -0.09351651499310895 
2.460000000000767, -0.09514906253339228 
2.470000000000788, -0.09782556389988459 
2.480000000000809, -0.10215117359749301 
2.49000000000083, -0.1090296406246312 
2.5000000000008513, -0.1195224243225558 
2.5100000000008724, -0.13404215807980258 
2.5200000000008935, -0.15072418872526644 
2.5300000000009146, -0.1650944395638606 
2.5400000000009357, -0.173633616450196 
2.550000000000957, -0.17681717846127837 
2.560000000000978, -0.17715835868502192 
2.570000000000999, -0.176557834002231 
2.58000000000102, -0.17585181539544975 
2.5900000000010412, -0.1752854846714787 
2.6000000000010624, -0.1748863481745856 
2.6100000000010835, -0.17462625032858237 
2.6200000000011046, -0.17447478565042168 
2.6300000000011257, -0.1744130531792933 
2.6400000000011468, -0.17443603130686514 
2.650000000001168, -0.17455321429209697 
2.660000000001189, -0.17479046440624835 
2.67000000000121, -0.17519385503198007 
2.680000000001231, -0.17583547417325016 
2.6900000000012523, -0.1768204154091367 
2.7000000000012734, -0.1782923198021859 
2.7100000000012945, -0.18042977426594745 
2.7200000000013156, -0.18341571284528968 
2.7300000000013367, -0.18735300069507577 
2.740000000001358, -0.19212268844361896 
2.750000000001379, -0.19727682048879272 
2.7600000000014, -0.20214254908378013 
2.770000000001421, -0.2061490678229368 
2.780000000001442, -0.20908142478573039 
2.7900000000014633, -0.2110453463035725 
2.8000000000014844, -0.21227779410911546 
2.8100000000015055, -0.21300432956942364 
2.8200000000015266, -0.21338929084930602 
2.8300000000015477, -0.21353762939756304 
2.840000000001569, -0.21351117693407495 
2.85000000000159, -0.2133443505654415 
2.860000000001611, -0.2130567535500703 
2.870000000001632, -0.212663954267282 
2.8800000000016532, -0.21218739161874653 
2.8900000000016743, -0.21166215688536044 
2.9000000000016954, -0.2111393359014085 
2.9100000000017165, -0.21068035708708552 
2.9200000000017377, -0.21034500298678216 
2.9300000000017588, -0.2101783644102809 
2.94000000000178, -0.2102009550218989 
2.950000000001801, -0.21040283114996475 
2.960000000001822, -0.210742252251258 
2.970000000001843, -0.21115183182018535 
2.9800000000018643, -0.21155399504994926 
2.9900000000018854, -0.21188050440158981 
3.0000000000019065, -0.21208563261142666 
3.0100000000019276, -0.21214685580432993 
3.0200000000019487, -0.2120557832481703 
3.03000000000197, -0.21180585515394507 
3.040000000001991, -0.21138095266691823 
3.050000000002012, -0.2107454801661876 
3.060000000002033, -0.20983529987274924 
3.070000000002054, -0.2085513003210925 
3.0800000000020753, -0.20676415822197308 
3.0900000000020964, -0.20434813537075716 
3.1000000000021175, -0.20125901598564172 
3.1100000000021386, -0.19762899396201944 
3.1200000000021597, -0.19378616946352756 
3.130000000002181, -0.19013348100299826 
3.140000000002202, -0.18697314782759694 
3.150000000002223, -0.1844238012950627 
3.160000000002244, -0.1824556300046439 
3.1700000000022652, -0.1809665510845356 
3.1800000000022863, -0.17983945087844244 
3.1900000000023074, -0.17896995218151562 
3.2000000000023285, -0.17827531496522148 
3.2100000000023496, -0.17769463270917496 
3.2200000000023707, -0.17718561527971283 
3.230000000002392, -0.1767202410133914 
3.240000000002413, -0.1762802285468021 
3.250000000002434, -0.17585234193327948 
3.260000000002455, -0.17542215236843978 
3.2700000000024763, -0.174962074245362 
3.2800000000024974, -0.17440323247393041 
3.2900000000025185, -0.17356796012795822 
3.3000000000025396, -0.17202424482451242 
3.3100000000025607, -0.168855289495983 
3.3200000000025818, -0.1625847978655268 
3.330000000002603, -0.15197663125574085 
3.340000000002624, -0.13781119530162003 
3.350000000002645, -0.12317836597846368 
3.360000000002666, -0.11097484786595221 
3.3700000000026873, -0.10211361804276856 
3.3800000000027084, -0.096101088560443 
3.3900000000027295, -0.09210050332316447 
3.4000000000027506, -0.08941958908293547 
3.4100000000027717, -0.08758914126761254 
3.420000000002793, -0.08631470390447991 
3.430000000002814, -0.08541859426115894 
3.440000000002835, -0.08479893037937301 
3.450000000002856, -0.08440548137295534 
3.460000000002877, -0.08422810711787235 
3.4700000000028983, -0.08429499260430513 
3.4800000000029194, -0.08467986602753882 
3.4900000000029405, -0.08551817304109109 
3.5000000000029616, -0.08702802551636948 
3.5100000000029827, -0.08950918792982775 
3.520000000003004, -0.09321465272582362 
3.530000000003025, -0.09781282009603687 
3.540000000003046, -0.10117508133164506 
3.550000000003067, -0.09883759013419315 
3.5600000000030882, -0.08787273215359517 
3.5700000000031094, -0.07190091029049737 
3.5800000000031305, -0.05718788199750724 
3.5900000000031516, -0.04652625169162023 
3.6000000000031727, -0.03957010716837677 
3.6100000000031938, -0.03516028721386892 
3.620000000003215, -0.032345373344518175 
3.630000000003236, -0.030515968297121148 
3.640000000003257, -0.02931281824724923 
3.650000000003278, -0.02853291269621814 
3.6600000000032993, -0.02806984881586146 
3.6700000000033204, -0.027882332496501582 
3.6800000000033415, -0.027982238548369082 
3.6900000000033626, -0.0284382012832765 
3.7000000000033837, -0.029395422056508785 
3.710000000003405, -0.031115646045120182 
3.720000000003426, -0.034037066651795386 
3.730000000003447, -0.038814717182000254 
3.740000000003468, -0.04614113355505915 
3.750000000003489, -0.055776309340006804 
3.7600000000035103, -0.06443692109895799 
3.7700000000035314, -0.06580529356470521 
3.7800000000035525, -0.05750065171563867 
3.7900000000035736, -0.04493681685773973 
3.8000000000035947, -0.03393696459063031 
3.810000000003616, -0.026226750630582402 
3.820000000003637, -0.02124695996149322 
3.830000000003658, -0.01808270676547597 
3.840000000003679, -0.016054099135086736 
3.8500000000037002, -0.014740679217459304 
3.8600000000037213, -0.013900388240221828 
3.8700000000037424, -0.013403307686024773 
3.8800000000037635, -0.013193225091811155 
3.8900000000037847, -0.013270875286530693 
3.9000000000038058, -0.013694177853753802 
3.910000000003827, -0.014595630976869561 
3.920000000003848, -0.0162220333712721 
3.930000000003869, -0.019003895332195635 
3.94000000000389, -0.023644684845309724 
3.9500000000039113, -0.031116790884562824 
3.9600000000039324, -0.04210933129679847 
3.9700000000039535, -0.05510972760927255 
3.9800000000039746, -0.06439773754985359 
3.9900000000039957, -0.06421534404228288 
4.000000000004016, -0.05639797391883988 
4.010000000003993, -0.047096638350566974 
4.02000000000397, -0.039743498379485556 
4.030000000003946, -0.034745613455110944 
4.040000000003923, -0.03150800654202667 
4.0500000000039, -0.02942327900648601 
4.0600000000038765, -0.028075934041703426 
4.070000000003853, -0.0272154569006323 
4.08000000000383, -0.026702555033420144 
4.090000000003807, -0.02647193901832834 
4.100000000003783, -0.026513812828018617 
4.11000000000376, -0.02687096097693644 
4.120000000003737, -0.027651132826651114 
4.130000000003713, -0.02905900071348267 
4.14000000000369, -0.031456586626314134 
4.150000000003667, -0.035458932035574556 
4.1600000000036434, -0.04203004277991709 
4.17000000000362, -0.05235663114938931 
4.180000000003597, -0.06683674892327382 
4.1900000000035735, -0.08274849759777801 
4.20000000000355, -0.09386274664344993 
4.210000000003527, -0.09647457806398539 
4.220000000003504, -0.09332920941907209 
4.23000000000348, -0.08877453950446879 
4.240000000003457, -0.08494208231725706 
4.250000000003434, -0.08221390378452474 
4.26000000000341, -0.08038300371035127 
4.270000000003387, -0.07917990472369887 
4.280000000003364, -0.07840453404137267 
4.2900000000033405, -0.07793204770229051 
4.300000000003317, -0.07769521606200153 
4.310000000003294, -0.07767029365467422 
4.320000000003271, -0.07787112990107259 
4.330000000003247, -0.07835201702379292 
4.340000000003224, -0.07922047879125516 
4.350000000003201, -0.08066320469558882 
4.360000000003177, -0.08298973739191015 
4.370000000003154, -0.08669367171613448 
4.380000000003131, -0.09250029034548404 
4.390000000003107, -0.10126710253485802 
4.400000000003084, -0.11342754116173932 
4.410000000003061, -0.12784996645641647 
4.4200000000030375, -0.1413933422738975 
4.430000000003014, -0.15102948391141416 
4.440000000002991, -0.15628608765824353 
4.450000000002968, -0.1585911943307922 
4.460000000002944, -0.15943037258564413 
4.470000000002921, -0.15966869306924555 
4.480000000002898, -0.15969409584125838 
4.490000000002874, -0.15965817603411908 
4.500000000002851, -0.1596161610232865 
4.510000000002828, -0.15958903229468185 
4.520000000002804, -0.15958864937075914 
4.530000000002781, -0.15962833639993085 
4.540000000002758, -0.15972865371123307 
4.5500000000027345, -0.15992217182639332 
4.560000000002711, -0.1602585279918627 
4.570000000002688, -0.16080981752294593 
4.580000000002665, -0.1616753795503752 
4.590000000002641, -0.16298307243799684 
4.600000000002618, -0.16487937474715383 
4.610000000002595, -0.16749295248516155 
4.620000000002571, -0.17085545190907064 
4.630000000002548, -0.17479627809657142 
4.640000000002525, -0.17890371746509842 
4.6500000000025015, -0.1826599201800127 
4.660000000002478, -0.1856862089732016 
4.670000000002455, -0.18787636372478697 
4.6800000000024315, -0.18933356188778078 
4.690000000002408, -0.19023522680447677 
4.700000000002385, -0.1907431590330465 
4.710000000002362, -0.19097417142032094 
4.720000000002338, -0.19100246690847716 
4.730000000002315, -0.19087114093549135 
4.740000000002292, -0.19060403101186688 
4.750000000002268, -0.19021659947998287 
4.760000000002245, -0.18972646178798364 
4.770000000002222, -0.18916293083312657 
4.7800000000021985, -0.18857250664696926 
4.790000000002175, -0.18801652719330403 
4.800000000002152, -0.18756060652123943 
4.810000000002129, -0.18726065056909355 
