t, s[1].omega / s[0].omega 
0, -0.43999555759530373 
0.009999999999999995, -0.4395995132953807 
0.019999999999999934, -0.4392913697226444 
0.029999999999999874, -0.43904543379711225 
0.04000000000000012, -0.43882560015229527 
0.050000000000000405, -0.43859672787299725 
0.06000000000000069, -0.4383326807090956 
0.07000000000000098, -0.4380188674700559 
0.08000000000000126, -0.4376504359434653 
0.09000000000000155, -0.43722898866205606 
0.10000000000000184, -0.43676024025372706 
0.11000000000000212, -0.4362537950820604 
0.12000000000000241, -0.43572534108199834 
0.130000000000002, -0.43520096021715016 
0.1400000000000009, -0.43472167747963725 
0.1499999999999998, -0.434340747576318 
0.1599999999999987, -0.4340902279761446 
0.1699999999999976, -0.43386101397258325 
0.1799999999999965, -0.43312061770141075 
0.1899999999999954, -0.43055244538164494 
0.1999999999999943, -0.4242672288504701 
0.2099999999999932, -0.413398529644843 
0.2199999999999921, -0.39972245989903693 
0.229999999999991, -0.3865195225000201 
0.2399999999999899, -0.3760069207688096 
0.2499999999999888, -0.368596094118982 
0.2599999999999877, -0.36371606011041835 
0.2699999999999866, -0.3606129944508228 
0.2799999999999855, -0.3586760086773869 
0.2899999999999844, -0.3574848302321356 
0.2999999999999833, -0.3567698745695158 
0.3099999999999822, -0.3563639375904155 
0.3199999999999811, -0.35616583225873366 
0.32999999999998, -0.3561168057273886 
0.3399999999999789, -0.35618646549358834 
0.3499999999999778, -0.3563651598946535 
0.35999999999997667, -0.35666062581647695 
0.36999999999997557, -0.357097228527658 
0.37999999999997447, -0.3577160698069804 
0.38999999999997337, -0.3585736746697308 
0.39999999999997227, -0.3597360143594485 
0.40999999999997117, -0.36126360188319845 
0.41999999999997006, -0.36318384270305565 
0.42999999999996896, -0.3654532029316902 
0.43999999999996786, -0.36792828528411914 
0.44999999999996676, -0.37038015911797156 
0.45999999999996566, -0.37256704560723397 
0.46999999999996456, -0.3743233210899761 
0.47999999999996346, -0.375598680731439 
0.48999999999996235, -0.3764320987525821 
0.49999999999996125, -0.37689979939951584 
0.5099999999999602, -0.3770748681717971 
0.519999999999959, -0.37700754773922507 
0.529999999999958, -0.3767187388850729 
0.5399999999999568, -0.3761980723072162 
0.5499999999999557, -0.3754022687674228 
0.5599999999999546, -0.3742545821090831 
0.5699999999999535, -0.3726520476733071 
0.5799999999999524, -0.37049318776166895 
0.5899999999999513, -0.3677358103979119 
0.5999999999999502, -0.36446697494174013 
0.6099999999999491, -0.36092587696707723 
0.619999999999948, -0.3574315715268037 
0.6299999999999469, -0.3542577265395878 
0.6399999999999458, -0.3515517671537897 
0.6499999999999447, -0.349337003172441 
0.6599999999999436, -0.3475605036964498 
0.6699999999999425, -0.3461409261300007 
0.6799999999999414, -0.34499840344284843 
0.6899999999999403, -0.34406824560705906 
0.6999999999999392, -0.3433051078173129 
0.7099999999999381, -0.3426830290743782 
0.719999999999937, -0.3421947950833896 
0.7299999999999359, -0.34185279770683313 
0.7399999999999348, -0.3416930054130854 
0.7499999999999337, -0.3417837583644868 
0.7599999999999326, -0.3422417829028307 
0.7699999999999315, -0.34325878115592934 
0.7799999999999304, -0.3451419053692668 
0.7899999999999293, -0.34836571549428397 
0.7999999999999282, -0.35360812954948784 
0.8099999999999271, -0.3616706572041055 
0.819999999999926, -0.3730612828927058 
0.8299999999999249, -0.3870776680847035 
0.8399999999999238, -0.4010827609059766 
0.8499999999999227, -0.4117054434983678 
0.8599999999999216, -0.4175484826855687 
0.8699999999999205, -0.4197923367503268 
0.8799999999999194, -0.4203134709779043 
0.8899999999999183, -0.42031310700038826 
0.8999999999999172, -0.4202676580398415 
0.9099999999999161, -0.4202866776276325 
0.919999999999915, -0.4203576481256549 
0.9299999999999139, -0.42044615589269174 
0.9399999999999128, -0.42052427062167164 
0.9499999999999117, -0.4205738758137464 
0.9599999999999106, -0.42058394481935146 
0.9699999999999095, -0.4205479108120418 
0.9799999999999084, -0.42046280530159474 
0.9899999999999073, -0.42033046899533877 
0.9999999999999062, -0.4201603791830335 
1.0099999999999052, -0.41997256589832954 
1.019999999999904, -0.4197980118082748 
1.029999999999903, -0.4196741434534137 
1.039999999999902, -0.41963531165476803 
1.0499999999999008, -0.41970117468891016 
1.0599999999998997, -0.419867458859288 
1.0699999999998986, -0.4201033223215201 
1.0799999999998975, -0.4203578952844616 
1.0899999999998964, -0.420574625540469 
1.0999999999998953, -0.4207068038230314 
1.1099999999998942, -0.4207262631079276 
1.119999999999893, -0.42062230664069034 
1.129999999999892, -0.4203942025153979 
1.1399999999998909, -0.42004226486898666 
1.1499999999998898, -0.41956008177939497 
1.1599999999998887, -0.41892732436831215 
1.1699999999998876, -0.41810029705409313 
1.1799999999998865, -0.41699512650066983 
1.1899999999998854, -0.4154547844759329 
1.1999999999998843, -0.41318648720832113 
1.2099999999998832, -0.4096610373770443 
1.219999999999882, -0.4040214176669563 
1.229999999999881, -0.39521685481586744 
1.2399999999998799, -0.3827072713843037 
1.2499999999998788, -0.3674812629775216 
1.2599999999998777, -0.35199438252595233 
1.2699999999998766, -0.3385912488043039 
1.2799999999998755, -0.32827195104751505 
1.2899999999998744, -0.3208604301084238 
1.2999999999998733, -0.3157117785074809 
1.3099999999998722, -0.31217533533264386 
1.319999999999871, -0.3097493731147326 
1.32999999999987, -0.3080869744579247 
1.3399999999998689, -0.3069606262501519 
1.3499999999998678, -0.30622661120412653 
1.3599999999998666, -0.30579910054386195 
1.3699999999998655, -0.3056338675501096 
1.3799999999998644, -0.3057196035512365 
1.3899999999998633, -0.3060752103481794 
1.3999999999998622, -0.30675224576241855 
1.4099999999998611, -0.30784228780545897 
1.41999999999986, -0.3094888689971315 
1.429999999999859, -0.31190167859507734 
1.4399999999998578, -0.3153642039913973 
1.4499999999998567, -0.3202103243489455 
1.4599999999998556, -0.32672087273007944 
1.4699999999998545, -0.33489106705173666 
1.4799999999998534, -0.3441404216255032 
1.4899999999998523, -0.3532910604760219 
1.4999999999998512, -0.3610950536627743 
1.5099999999998501, -0.366909614050026 
1.519999999999849, -0.37082689392554263 
1.529999999999848, -0.37330675002378455 
1.5399999999998468, -0.37482111993636463 
1.5499999999998457, -0.37571585301639077 
1.5599999999998446, -0.37620950745588744 
1.5699999999998435, -0.3764298109456909 
1.5799999999998424, -0.3764463664017261 
1.5899999999998413, -0.37629226065926125 
1.5999999999998402, -0.37597770049574986 
1.6099999999998391, -0.3755003195389567 
1.619999999999838, -0.37485599426299876 
1.629999999999837, -0.3740517618806868 
1.6399999999998358, -0.3731180971123385 
1.6499999999998347, -0.3721132543900857 
1.6599999999998336, -0.3711134258929113 
1.6699999999998325, -0.37019172871999195 
1.6799999999998314, -0.36939792068311994 
1.6899999999998303, -0.36874900524717874 
1.6999999999998292, -0.36823193311306907 
1.709999999999828, -0.36781370719005174 
1.719999999999827, -0.36745371305986124 
1.729999999999826, -0.36711432544574063 
1.7399999999998248, -0.36676719013017134 
1.7499999999998237, -0.3663946146192044 
1.7599999999998226, -0.365987582661545 
1.7699999999998215, -0.3655426629465212 
1.7799999999998204, -0.3650594055895257 
1.7899999999998193, -0.36453860485196304 
1.7999999999998182, -0.36398048770005137 
1.809999999999817, -0.3633796859763257 
1.819999999999816, -0.3627083715847808 
1.8299999999998149, -0.36186572215350743 
1.8399999999998138, -0.3605486256852807 
1.8499999999998127, -0.35799602289419596 
1.8599999999998116, -0.352728422517445 
1.8699999999998105, -0.34293278653505865 
1.8799999999998094, -0.3281989379372406 
1.8899999999998083, -0.31100346406491836 
1.8999999999998072, -0.29509804931347605 
1.909999999999806, -0.2826930840597044 
1.919999999999805, -0.2739540188123686 
1.9299999999998039, -0.26808982526085695 
1.9399999999998028, -0.2642184556024564 
1.9499999999998017, -0.26166498141352745 
1.9599999999998006, -0.2599776844607748 
1.9699999999997995, -0.2588711222771475 
1.9799999999997984, -0.2581709258594927 
1.9899999999997973, -0.25777544842632427 
1.9999999999997962, -0.25763249870768695 
2.0099999999998173, -0.2577270154911457 
2.0199999999998384, -0.2580766773876525 
2.0299999999998595, -0.2587339241147482 
2.0399999999998806, -0.25979393580160937 
2.0499999999999017, -0.26140834400212265 
2.059999999999923, -0.26380261227683416 
2.069999999999944, -0.2672877864225812 
2.079999999999965, -0.2722384567975943 
2.089999999999986, -0.2789769610551161 
2.100000000000007, -0.2874999605984188 
2.1100000000000283, -0.29713570299698533 
2.1200000000000494, -0.3065441784866391 
2.1300000000000705, -0.3143792080124744 
2.1400000000000916, -0.32004668162540456 
2.1500000000001127, -0.3237550135169641 
2.160000000000134, -0.32604667506014195 
2.170000000000155, -0.3274229517882246 
2.180000000000176, -0.3282293192301722 
2.190000000000197, -0.3286752021551625 
2.2000000000002182, -0.3288799930400089 
2.2100000000002393, -0.32890876408822456 
2.2200000000002604, -0.32879460468165556 
2.2300000000002815, -0.3285525047873833 
2.2400000000003026, -0.3281896089894083 
2.2500000000003237, -0.32771484496508196 
2.260000000000345, -0.32714830169931813 
2.270000000000366, -0.32652753555921116 
2.280000000000387, -0.3259063308816873 
2.290000000000408, -0.3253442323968908 
2.3000000000004293, -0.32489114615511444 
2.3100000000004504, -0.32457436933626505 
2.3200000000004715, -0.324392725753721 
2.3300000000004926, -0.3243183798311825 
2.3400000000005137, -0.32430515014890304 
2.3500000000005348, -0.3243010437175017 
2.360000000000556, -0.3242605848184343 
2.370000000000577, -0.3241518776472777 
2.380000000000598, -0.32395636989184623 
2.390000000000619, -0.32366327780531345 
2.4000000000006403, -0.3232618728717982 
2.4100000000006614, -0.3227331595969569 
2.4200000000006825, -0.32203985768453147 
2.4300000000007036, -0.32111104960301573 
2.4400000000007247, -0.3198151517247472 
2.450000000000746, -0.3179129948457071 
2.460000000000767, -0.3149901337631742 
2.470000000000788, -0.31041096690619313 
2.480000000000809, -0.3034470982421738 
2.49000000000083, -0.29378644477930016 
2.5000000000008513, -0.28220235155147033 
2.5100000000008724, -0.27046301550960145 
2.5200000000008935, -0.2602413651947287 
2.5300000000009146, -0.25226743351331454 
2.5400000000009357, -0.24643354788790192 
2.550000000000957, -0.24228442392098531 
2.560000000000978, -0.23934983755878889 
2.570000000000999, -0.23726203332057283 
2.58000000000102, -0.2357648052884697 
2.5900000000010412, -0.23469068749852032 
2.6000000000010624, -0.23393684686429955 
2.6100000000010835, -0.23344784918710032 
2.6200000000011046, -0.23320612346554662 
2.6300000000011257, -0.23322963576954608 
2.6400000000011468, -0.23357699429051665 
2.650000000001168, -0.23436167065804633 
2.660000000001189, -0.23577882354577287 
2.67000000000121, -0.23814933667001337 
2.680000000001231, -0.24198162602899456 
2.6900000000012523, -0.24802695970045213 
2.7000000000012734, -0.2572205099045889 
2.7100000000012945, -0.2702320016067641 
2.7200000000013156, -0.28635698786529257 
2.7300000000013367, -0.3025432456148255 
2.740000000001358, -0.31482938783115444 
2.750000000001379, -0.32164952128078567 
2.7600000000014, -0.32439338261948913 
2.770000000001421, -0.3251349179248585 
2.780000000001442, -0.3251821631001205 
2.7900000000014633, -0.3250832836655054 
2.8000000000014844, -0.3250026747795858 
2.8100000000015055, -0.3249650604881757 
2.8200000000015266, -0.3249579115133391 
2.8300000000015477, -0.32496503671731813 
2.840000000001569, -0.32497499057535545 
2.85000000000159, -0.3249821912650252 
2.860000000001611, -0.324986970873958 
2.870000000001632, -0.3249964338808854 
2.8800000000016532, -0.32502631536211185 
2.8900000000016743, -0.32510301481672044 
2.9000000000016954, -0.3252641635466671 
2.9100000000017165, -0.32555578991026496 
2.9200000000017377, -0.3260246739524217 
2.9300000000017588, -0.32670551039948836 
2.94000000000178, -0.3276040294650779 
2.950000000001801, -0.3286808308221082 
2.960000000001822, -0.3298465102247028 
2.970000000001843, -0.3309792995609882 
2.9800000000018643, -0.331962395665641 
2.9900000000018854, -0.33271875065961903 
3.0000000000019065, -0.3332215973035778 
3.0100000000019276, -0.3334806089673501 
3.0200000000019487, -0.33351926585571995 
3.03000000000197, -0.33335608565091324 
3.040000000001991, -0.33299249204018744 
3.050000000002012, -0.3324043678689294 
3.060000000002033, -0.3315338700793459 
3.070000000002054, -0.33028090210634065 
3.0800000000020753, -0.32850000287899456 
3.0900000000020964, -0.32601951206794455 
3.1000000000021175, -0.3227083586569709 
3.1100000000021386, -0.3185925520100695 
3.1200000000021597, -0.31394603300558854 
3.130000000002181, -0.3092341394952716 
3.140000000002202, -0.304912149630468 
3.150000000002223, -0.30125057818505285 
3.160000000002244, -0.29830897844558035 
3.1700000000022652, -0.29601218521659123 
3.1800000000022863, -0.2942349454127306 
3.1900000000023074, -0.29285350614502403 
3.2000000000023285, -0.2917670015702168 
3.2100000000023496, -0.2909022804012216 
3.2200000000023707, -0.29021218928893566 
3.230000000002392, -0.2896726433668161 
3.240000000002413, -0.289281150605799 
3.250000000002434, -0.2890583821041089 
3.260000000002455, -0.289054281080516 
3.2700000000024763, -0.28936077795113285 
3.2800000000024974, -0.2901341140814498 
3.2900000000025185, -0.29162991402840654 
3.3000000000025396, -0.2942490239764049 
3.3100000000025607, -0.2985675852611332 
3.3200000000025818, -0.305248792466718 
3.330000000002603, -0.31459252948178174 
3.340000000002624, -0.3255272567301858 
3.350000000002645, -0.3348904325041956 
3.360000000002666, -0.33919728041754793 
3.3700000000026873, -0.338043000770282 
3.3800000000027084, -0.3340686238106422 
3.3900000000027295, -0.32990087035122984 
3.4000000000027506, -0.3266777541874616 
3.4100000000027717, -0.32450403591786015 
3.420000000002793, -0.32313565396956434 
3.430000000002814, -0.3223081960221149 
3.440000000002835, -0.32182499582035134 
3.450000000002856, -0.32155769250704386 
3.460000000002877, -0.32142784651099493 
3.4700000000028983, -0.32139035264089516 
3.4800000000029194, -0.3214224455620977 
3.4900000000029405, -0.3215176604797144 
3.5000000000029616, -0.3216834300094811 
3.5100000000029827, -0.3219410110198259 
3.520000000003004, -0.32232626296043637 
3.530000000003025, -0.3228893511186817 
3.540000000003046, -0.3236908881337291 
3.550000000003067, -0.32479146481682336 
3.5600000000030882, -0.3262314546183205 
3.5700000000031094, -0.32800100436196444 
3.5800000000031305, -0.3300106949758802 
3.5900000000031516, -0.3320882537630796 
3.6000000000031727, -0.33402327837589063 
3.6100000000031938, -0.3356426093688851 
3.620000000003215, -0.3368626667861673 
3.630000000003236, -0.3376867231626081 
3.640000000003257, -0.3381662940947694 
3.650000000003278, -0.33836192760510486 
3.6600000000032993, -0.33831972173903063 
3.6700000000033204, -0.33806139660172885 
3.6800000000033415, -0.33758074167303376 
3.6900000000033626, -0.3368418921145019 
3.7000000000033837, -0.3357795574580172 
3.710000000003405, -0.33430682003308465 
3.720000000003426, -0.3323410368303885 
3.730000000003447, -0.3298548304570614 
3.740000000003468, -0.3269348490912557 
3.750000000003489, -0.32379737364661887 
3.7600000000035103, -0.32072266493212825 
3.7700000000035314, -0.3179468886376542 
3.7800000000035525, -0.31559416547743624 
3.7900000000035736, -0.3136798476466502 
3.8000000000035947, -0.3121525072337268 
3.810000000003616, -0.3109356365532929 
3.820000000003637, -0.3099539417238716 
3.830000000003658, -0.3091456886369063 
3.840000000003679, -0.3084665903873987 
3.8500000000037002, -0.3078897225427474 
3.8600000000037213, -0.307404480544625 
3.8700000000037424, -0.30701661798641494 
3.8800000000037635, -0.30675089731532934 
3.8900000000037847, -0.3066578274921087 
3.9000000000038058, -0.30682624467519926 
3.910000000003827, -0.30740342929534453 
3.920000000003848, -0.30862148525686817 
3.930000000003869, -0.3108147670447537 
3.94000000000389, -0.3143684556257455 
3.9500000000039113, -0.3194419900397144 
3.9600000000039324, -0.32526786812589503 
3.9700000000039535, -0.329380684369312 
3.9800000000039746, -0.32852843346881666 
3.9900000000039957, -0.32193316094176827 
4.000000000004016, -0.31248027656068406 
4.010000000003993, -0.3036183117569918 
4.02000000000397, -0.2969097137944775 
4.030000000003946, -0.29235378587476013 
4.040000000003923, -0.28941309697591244 
4.0500000000039, -0.28755644647012585 
4.0600000000038765, -0.28639872053216525 
4.070000000003853, -0.2856904759931803 
4.08000000000383, -0.28527841993395087 
4.090000000003807, -0.28507217612328534 
4.100000000003783, -0.285022443587853 
4.11000000000376, -0.28510836663547645 
4.120000000003737, -0.2853313781031768 
4.130000000003713, -0.28571350852903094 
4.14000000000369, -0.2862986820119658 
4.150000000003667, -0.2871554553057901 
4.1600000000036434, -0.28837873476818243 
4.17000000000362, -0.2900856887869166 
4.180000000003597, -0.2923968830524974 
4.1900000000035735, -0.2953900263610352 
4.20000000000355, -0.299022204464562 
4.210000000003527, -0.3030551989474688 
4.220000000003504, -0.30706938498032477 
4.23000000000348, -0.3106177859125948 
4.240000000003457, -0.31341966728677606 
4.250000000003434, -0.315428891685278 
4.26000000000341, -0.3167580222344121 
4.270000000003387, -0.3175675226608678 
4.280000000003364, -0.3179977044312778 
4.2900000000033405, -0.31814690144743407 
4.300000000003317, -0.3180728405505161 
4.310000000003294, -0.31780044320552214 
4.320000000003271, -0.3173299021463912 
4.330000000003247, -0.31664530153589737 
4.340000000003224, -0.31572686742127803 
4.350000000003201, -0.3145693174996687 
4.360000000003177, -0.3132030742081594 
4.370000000003154, -0.3117059730520459 
4.380000000003131, -0.31019143595045406 
4.390000000003107, -0.308774713292321 
4.400000000003084, -0.30753829676032696 
4.410000000003061, -0.3065164877330149 
4.4200000000030375, -0.305700668631646 
4.430000000003014, -0.305054602597824 
4.440000000002991, -0.3045303284764391 
4.450000000002968, -0.3040805206237772 
4.460000000002944, -0.3036660833808624 
4.470000000002921, -0.3032589422360648 
4.480000000002898, -0.30284109113969837 
4.490000000002874, -0.3024016694707407 
4.500000000002851, -0.3019335570950311 
4.510000000002828, -0.3014298886040334 
4.520000000002804, -0.30087930031531196 
4.530000000002781, -0.3002560394074591 
4.540000000002758, -0.2994952107366138 
4.5500000000027345, -0.298431050666364 
4.560000000002711, -0.2966589184362357 
4.570000000002688, -0.29330051073934504 
4.580000000002665, -0.28685922214026915 
4.590000000002641, -0.2758363984566722 
4.600000000002618, -0.2604923942796591 
4.610000000002595, -0.2437256990835739 
4.620000000002571, -0.22896100575083822 
4.630000000002548, -0.21778557859216802 
4.640000000002525, -0.21000746635888104 
4.6500000000025015, -0.20477611622447758 
4.660000000002478, -0.2012762285041938 
4.670000000002455, -0.19891691623742588 
4.6800000000024315, -0.19731312375670335 
4.690000000002408, -0.19622615278700867 
4.700000000002385, -0.1955143625215153 
4.710000000002362, -0.1951013591051579 
4.720000000002338, -0.19495857138742675 
4.730000000002315, -0.195098803908201 
4.740000000002292, -0.19557929479610373 
4.750000000002268, -0.19651507268703958 
4.760000000002245, -0.1981056276844362 
4.770000000002222, -0.2006790799731754 
4.7800000000021985, -0.20475323390921113 
4.790000000002175, -0.21108528783861868 
4.800000000002152, -0.22059263105241883 
4.810000000002129, -0.2338628903829772 
4.820000000002105, -0.2500473025835962 
4.830000000002082, -0.2660884042469914 
4.840000000002059, -0.2783613905182082 
4.850000000002035, -0.2856032897754127 
4.860000000002012, -0.2890660987180149 
