t, s[1].omega / s[0].omega 
0, -1.0999970876636365 
0.009999999999999995, -1.0995910429331823 
0.019999999999999934, -1.0989574108499778 
0.029999999999999874, -1.0980973667349083 
0.04000000000000012, -1.0970186002689868 
0.050000000000000405, -1.095741186400832 
0.06000000000000069, -1.0943020482744659 
0.07000000000000098, -1.0927566846672963 
0.08000000000000126, -1.091177158789018 
0.09000000000000155, -1.0896459261168616 
0.10000000000000184, -1.0882469886818313 
0.11000000000000212, -1.0870574484430888 
0.12000000000000241, -1.0861405251037177 
0.130000000000002, -1.0855369676095301 
0.1400000000000009, -1.085252636911833 
0.1499999999999998, -1.0852478759013062 
0.1599999999999987, -1.0854390845167572 
0.1699999999999976, -1.0857154495758277 
0.1799999999999965, -1.0859614220494902 
0.1899999999999954, -1.0860729265209044 
0.1999999999999943, -1.0859635647684036 
0.2099999999999932, -1.085565371923413 
0.2199999999999921, -1.0848299711473615 
0.229999999999991, -1.0837317753057294 
0.2399999999999899, -1.0822701700382218 
0.2499999999999888, -1.0804666221210677 
0.2599999999999877, -1.0783562771705406 
0.2699999999999866, -1.0759782513958827 
0.2799999999999855, -1.073369933076324 
0.2899999999999844, -1.070567662644199 
0.2999999999999833, -1.0676123717764967 
0.3099999999999822, -1.0645569445756442 
0.3199999999999811, -1.0614725298899776 
0.32999999999998, -1.0584524006935716 
0.3399999999999789, -1.0556122891325743 
0.3499999999999778, -1.0530841128204669 
0.35999999999997667, -1.0509975356858814 
0.36999999999997557, -1.0494471424698675 
0.37999999999997447, -1.048455837137464 
0.38999999999997337, -1.0479571073678124 
0.39999999999997227, -1.047811599890115 
0.40999999999997117, -1.0478481321093323 
0.41999999999997006, -1.0479025044725705 
0.42999999999996896, -1.0478356534032964 
0.43999999999996786, -1.0475319197014488 
0.44999999999996676, -1.0468893621632187 
0.45999999999996566, -1.045814034955272 
0.46999999999996456, -1.0442247895090615 
0.47999999999996346, -1.0420679003099378 
0.48999999999996235, -1.0393331852819971 
0.49999999999996125, -1.036059851848074 
0.5099999999999602, -1.0323261087367968 
0.519999999999959, -1.0282283336993179 
0.529999999999958, -1.0238623341313269 
0.5399999999999568, -1.0193156205364917 
0.5499999999999557, -1.0146712989206108 
0.5599999999999546, -1.0100187261584075 
0.5699999999999535, -1.0054651390963731 
0.5799999999999524, -1.0011432899333121 
0.5899999999999513, -0.997209970282023 
0.5999999999999502, -0.993829606396507 
0.6099999999999491, -0.9911402149736674 
0.619999999999948, -0.9892099818092601 
0.6299999999999469, -0.9880062119212525 
0.6399999999999458, -0.9873984472697163 
0.6499999999999447, -0.9871965960625744 
0.6599999999999436, -0.9872007762925415 
0.6699999999999425, -0.9872362487953587 
0.6799999999999414, -0.9871635010384757 
0.6899999999999403, -0.9868705792457124 
0.6999999999999392, -0.986260610912068 
0.7099999999999381, -0.9852450060754055 
0.719999999999937, -0.9837477952031627 
0.7299999999999359, -0.9817203902391572 
0.7399999999999348, -0.9791587779924011 
0.7499999999999337, -0.9761107838348299 
0.7599999999999326, -0.9726657477886587 
0.7699999999999315, -0.9689312731258318 
0.7799999999999304, -0.9650104007912295 
0.7899999999999293, -0.9609899653591762 
0.7999999999999282, -0.9569417894981624 
0.8099999999999271, -0.9529316399978859 
0.819999999999926, -0.9490295713460541 
0.8299999999999249, -0.9453171679669241 
0.8399999999999238, -0.9418892956057388 
0.8499999999999227, -0.9388489299104592 
0.8599999999999216, -0.936294025730317 
0.8699999999999205, -0.9342972037225302 
0.8799999999999194, -0.9328835470611251 
0.8899999999999183, -0.9320165207417936 
0.8999999999999172, -0.9316011037995194 
0.9099999999999161, -0.93150430025671 
0.919999999999915, -0.9315828191961982 
0.9299999999999139, -0.9317051800622669 
0.9399999999999128, -0.9317619590764841 
0.9499999999999117, -0.9316663341844403 
0.9599999999999106, -0.9313513195176654 
0.9699999999999095, -0.9307692575939818 
0.9799999999999084, -0.9298952620268405 
0.9899999999999073, -0.9287316858900001 
0.9999999999999062, -0.9273081118693436 
1.0099999999999052, -0.9256733904573407 
1.019999999999904, -0.9238819863345258 
1.029999999999903, -0.921981281729946 
1.039999999999902, -0.9200056442069688 
1.0499999999999008, -0.917978515889016 
1.0599999999998997, -0.9159196978495322 
1.0699999999998986, -0.913853637858784 
1.0799999999998975, -0.9118154171995567 
1.0899999999998964, -0.9098527963537664 
1.0999999999998953, -0.9080240913016182 
1.1099999999998942, -0.9063926100354376 
1.119999999999893, -0.9050189822175768 
1.129999999999892, -0.903952855429938 
1.1399999999998909, -0.9032251170564597 
1.1499999999998898, -0.9028416175432433 
1.1599999999998887, -0.9027798217682885 
1.1699999999998876, -0.902990207218426 
1.1799999999998865, -0.9034032085845205 
1.1899999999998854, -0.9039401126665279 
1.1999999999998843, -0.9045244807421988 
1.2099999999998832, -0.9050910528027318 
1.219999999999882, -0.9055910278190532 
1.229999999999881, -0.905994117688 
1.2399999999998799, -0.9062877825812574 
1.2499999999998788, -0.9064733747098226 
1.2599999999998777, -0.9065591250896823 
1.2699999999998766, -0.9065515176086821 
1.2799999999998755, -0.9064483281570717 
1.2899999999998744, -0.9062366681715157 
1.2999999999998733, -0.9058972417472554 
1.3099999999998722, -0.9054129140836129 
1.319999999999871, -0.9047777097291831 
1.32999999999987, -0.9040029750739299 
1.3399999999998689, -0.9031199421998113 
1.3499999999998678, -0.902179889663997 
1.3599999999998666, -0.901252867939453 
1.3699999999998655, -0.9004242437120115 
1.3799999999998644, -0.8997872395070768 
1.3899999999998633, -0.8994308295865778 
1.3999999999998622, -0.8994254411119541 
1.4099999999998611, -0.8998113957587486 
1.41999999999986, -0.9005943622041321 
1.429999999999859, -0.9017485745175661 
1.4399999999998578, -0.9032252344106251 
1.4499999999998567, -0.904962669712211 
1.4599999999998556, -0.9068958991138018 
1.4699999999998545, -0.9089643605524755 
1.4799999999998534, -0.9111168496324866 
1.4899999999998523, -0.9133126584737347 
1.4999999999998512, -0.9155182223843452 
1.5099999999998501, -0.9176996416186858 
1.519999999999849, -0.9198132822502237 
1.529999999999848, -0.9217987834078079 
1.5399999999998468, -0.9235797661937748 
1.5499999999998457, -0.9250752473261771 
1.5599999999998446, -0.9262186298999558 
1.5699999999998435, -0.9269750187851747 
1.5799999999998424, -0.927347872338542 
1.5899999999998413, -0.9273736937382513 
1.5999999999998402, -0.9271115196617952 
1.6099999999998391, -0.9266357001460382 
1.619999999999838, -0.9260364700717765 
1.629999999999837, -0.9254272943642493 
1.6399999999998358, -0.9249532123098227 
1.6499999999998347, -0.9247911253957085 
1.6599999999998336, -0.9251334214671576 
1.6699999999998325, -0.9261537952278353 
1.6799999999998314, -0.9279670057423587 
1.6899999999998303, -0.9306024441142217 
1.6999999999998292, -0.9340049761756544 
1.709999999999828, -0.938059741111344 
1.719999999999827, -0.9426253412205406 
1.729999999999826, -0.9475603128750556 
1.7399999999998248, -0.9527358309484066 
1.7499999999998237, -0.9580348173679595 
1.7599999999998226, -0.9633411959992421 
1.7699999999998215, -0.968525093724724 
1.7799999999998204, -0.9734324392450967 
1.7899999999998193, -0.9778892476590179 
1.7999999999998182, -0.9817268499596479 
1.809999999999817, -0.9848212668591455 
1.819999999999816, -0.9871256852817964 
1.8299999999998149, -0.9886757927187362 
1.8399999999998138, -0.9895667945453869 
1.8499999999998127, -0.9899196217806389 
1.8599999999998116, -0.9898557076048455 
1.8699999999998105, -0.9894894095765309 
1.8799999999998094, -0.9889374898000154 
1.8899999999998083, -0.9883402750914663 
1.8999999999998072, -0.9878852957569169 
1.909999999999806, -0.9878181165276898 
1.919999999999805, -0.988421412956188 
1.9299999999998039, -0.9899543233187398 
1.9399999999998028, -0.9925735017455326 
1.9499999999998017, -0.9962815502700454 
1.9599999999998006, -1.0009353786464534 
1.9699999999997995, -1.0063038588816853 
1.9799999999997984, -1.0121351059693255 
1.9899999999997973, -1.0182011031835043 
1.9999999999997962, -1.0243116834262243 
2.0099999999998173, -1.0303064121489325 
2.0199999999998384, -1.0360371499327512 
2.0299999999998595, -1.0413532335236886 
2.0399999999998806, -1.046099696181883 
2.0499999999999017, -1.0501343920388637 
2.059999999999923, -1.0533589312450056 
2.069999999999944, -1.0557458334629344 
2.079999999999965, -1.057343403768635 
2.089999999999986, -1.0582553190906652 
2.100000000000007, -1.0586094669876194 
2.1100000000000283, -1.0585342268988247 
2.1200000000000494, -1.0581516423648274 
2.1300000000000705, -1.057586887999799 
2.1400000000000916, -1.0569868197312902 
2.1500000000001127, -1.0565347812994472 
2.160000000000134, -1.056444294816557 
2.170000000000155, -1.056919629364745 
2.180000000000176, -1.058094498345843 
2.190000000000197, -1.059986062925737 
2.2000000000002182, -1.0624968863159154 
2.2100000000002393, -1.065460080313871 
2.2200000000002604, -1.0686938821141472 
2.2300000000002815, -1.072037947347347 
2.2400000000003026, -1.0753663677471148 
2.2500000000003237, -1.0785857464464248 
2.260000000000345, -1.08162676495969 
2.270000000000366, -1.0844337621446818 
2.280000000000387, -1.086955149436801 
2.290000000000408, -1.0891379595154564 
2.3000000000004293, -1.0909297024056617 
2.3100000000004504, -1.0922878129062688 
2.3200000000004715, -1.0931920610530987 
2.3300000000004926, -1.093652557755203 
2.3400000000005137, -1.0937091100722098 
2.3500000000005348, -1.0934244811239924 
2.360000000000556, -1.092878158923829 
2.370000000000577, -1.0921651292363985 
2.380000000000598, -1.0913979585868914 
2.390000000000619, -1.0907046404120078 
2.4000000000006403, -1.09021413608724 
2.4100000000006614, -1.0900300452051794 
2.4200000000006825, -1.0902056758008019 
2.4300000000007036, -1.0907365319415836 
2.4400000000007247, -1.091572643821251 
2.450000000000746, -1.0926383746375958 
2.460000000000767, -1.0938476213970363 
2.470000000000788, -1.0951127178283548 
2.480000000000809, -1.0963511929613232 
2.49000000000083, -1.0974923222816177 
2.5000000000008513, -1.0984819267865449 
2.5100000000008724, -1.0992836386540397 
2.5200000000008935, -1.0998764454926342 
2.5300000000009146, -1.100249573288923 
2.5400000000009357, -1.1003965727554903 
2.550000000000957, -1.100311064705334 
2.560000000000978, -1.0999862479421034 
2.570000000000999, -1.0994184990311688 
2.58000000000102, -1.0986132510456683 
2.5900000000010412, -1.0975905726453408 
2.6000000000010624, -1.0963888141022085 
2.6100000000010835, -1.0950657353059357 
2.6200000000011046, -1.0936963205883714 
2.6300000000011257, -1.0923661056633966 
2.6400000000011468, -1.0911605621518592 
2.650000000001168, -1.0901542359024836 
2.660000000001189, -1.089403405925207 
2.67000000000121, -1.088941300384918 
2.680000000001231, -1.088771727200189 
2.6900000000012523, -1.0888615997554638 
2.7000000000012734, -1.0891398258420038 
2.7100000000012945, -1.0895082516126975 
2.7200000000013156, -1.0898603746049298 
2.7300000000013367, -1.0900977927421784 
2.740000000001358, -1.0901387688843296 
2.750000000001379, -1.0899207982611505 
2.7600000000014, -1.089401686767292 
2.770000000001421, -1.0885609298294494 
2.780000000001442, -1.087399500268573 
2.7900000000014633, -1.0859355557730237 
2.8000000000014844, -1.08419657187869 
2.8100000000015055, -1.0822117216860332 
2.8200000000015266, -1.0800085333368967 
2.8300000000015477, -1.0776150597623546 
2.840000000001569, -1.0750657397015981 
2.85000000000159, -1.0724078833312145 
2.860000000001611, -1.069706358310535 
2.870000000001632, -1.0670455384143784 
2.8800000000016532, -1.064528439459234 
2.8900000000016743, -1.0622716620513764 
2.9000000000016954, -1.0603918101353065 
2.9100000000017165, -1.0589795922809426 
2.9200000000017377, -1.0580672969573235 
2.9300000000017588, -1.057608028414177 
2.94000000000178, -1.0574838285670873 
2.950000000001801, -1.0575393244471554 
2.960000000001822, -1.0576186542366186 
2.970000000001843, -1.0575861482964843 
2.9800000000018643, -1.057328210085639 
2.9900000000018854, -1.056746262211279 
3.0000000000019065, -1.0557521824487917 
3.0100000000019276, -1.054272710718003 
3.0200000000019487, -1.0522620156459663 
3.03000000000197, -1.049714569655729 
3.040000000001991, -1.0466681885212732 
3.050000000002012, -1.0431931687594287 
3.060000000002033, -1.0393736933025406 
3.070000000002054, -1.035292512474649 
3.0800000000020753, -1.0310259042980163 
3.0900000000020964, -1.0266486684175462 
3.1000000000021175, -1.0222445920055983 
3.1100000000021386, -1.017917370354784 
3.1200000000021597, -1.0137976938398572 
3.130000000002181, -1.0100416371440089 
3.140000000002202, -1.00681420720799 
3.150000000002223, -1.004254712712286 
3.160000000002244, -1.0024321356493247 
3.1700000000022652, -1.0013132427665565 
3.1800000000022863, -1.0007662865246407 
3.1900000000023074, -1.000600667935203 
3.2000000000023285, -1.0006176281335994 
3.2100000000023496, -1.0006445207701165 
3.2200000000023707, -1.00054340230307 
3.230000000002392, -1.0002021339189362 
3.240000000002413, -0.9995215317965563 
3.250000000002434, -0.9984091547383797 
3.260000000002455, -0.9967850228980558 
3.2700000000024763, -0.994598061261271 
3.2800000000024974, -0.9918444176062666 
3.2900000000025185, -0.9885746023008698 
3.3000000000025396, -0.984882039877413 
3.3100000000025607, -0.9808787514763792 
3.3200000000025818, -0.9766723266197115 
3.330000000002603, -0.972354869994716 
3.340000000002624, -0.9680050395798684 
3.350000000002645, -0.9636976962085126 
3.360000000002666, -0.9595146579244604 
3.3700000000026873, -0.9555519289542445 
3.3800000000027084, -0.9519205098649304 
3.3900000000027295, -0.9487384898687952 
3.4000000000027506, -0.9461129693758378 
3.4100000000027717, -0.9441140464967737 
3.420000000002793, -0.9427498454177912 
3.430000000002814, -0.9419559690402821 
3.440000000002835, -0.9416076054821418 
3.450000000002856, -0.9415490220320331 
3.460000000002877, -0.9416249959174979 
3.4700000000028983, -0.9417007843522475 
3.4800000000029194, -0.9416675491553089 
3.4900000000029405, -0.9414388510845858 
3.5000000000029616, -0.9409462470045818 
3.5100000000029827, -0.9401395562379605 
3.520000000003004, -0.938992568811349 
3.530000000003025, -0.9375098271870222 
3.540000000003046, -0.935727530563585 
3.550000000003067, -0.9337045655928021 
3.5600000000030882, -0.9315067725823569 
3.5700000000031094, -0.9291924963459565 
3.5800000000031305, -0.9268059587239398 
3.5900000000031516, -0.9243794748370053 
3.6000000000031727, -0.9219410760386801 
3.6100000000031938, -0.9195229227825769 
3.620000000003215, -0.9171670856779768 
3.630000000003236, -0.9149271508451079 
3.640000000003257, -0.9128656395712709 
3.650000000003278, -0.9110481344355486 
3.6600000000032993, -0.9095352711566429 
3.6700000000033204, -0.9083735941707227 
3.6800000000033415, -0.9075863447895961 
3.6900000000033626, -0.9071661521363538 
3.7000000000033837, -0.9070726301572183 
3.710000000003405, -0.907237185249945 
3.720000000003426, -0.907574268865126 
3.730000000003447, -0.9079950583098324 
3.740000000003468, -0.9084189965519253 
3.750000000003489, -0.9087809780831375 
3.7600000000035103, -0.9090347472606044 
3.7700000000035314, -0.9091539756852562 
3.7800000000035525, -0.9091313982050624 
3.7900000000035736, -0.908975074239339 
3.8000000000035947, -0.9087011945615879 
3.810000000003616, -0.9083250099292276 
3.820000000003637, -0.9078534724543987 
3.830000000003658, -0.9072830114382774 
3.840000000003679, -0.9066034203552988 
3.8500000000037002, -0.9058058230804773 
3.8600000000037213, -0.9048911169597249 
3.8700000000037424, -0.9038760160735942 
3.8800000000037635, -0.9027958375843318 
3.8900000000037847, -0.9017045123255419 
3.9000000000038058, -0.9006720327495121 
3.910000000003827, -0.8997786601722977 
3.920000000003848, -0.8991053967100745 
3.930000000003869, -0.8987220436902851 
3.94000000000389, -0.8986762315484857 
3.9500000000039113, -0.8989870029389893 
3.9600000000039324, -0.899644404679065 
3.9700000000039535, -0.9006139720329749 
3.9800000000039746, -0.9018439596929165 
3.9900000000039957, -0.9032736390185733 
4.000000000004016, -0.9048415553141272 
4.010000000003993, -0.9064926079567841 
4.02000000000397, -0.9081825980815044 
4.030000000003946, -0.9098790329982483 
4.040000000003923, -0.9115576067170197 
4.0500000000039, -0.9131949093784933 
4.0600000000038765, -0.9147595864318591 
4.070000000003853, -0.9162059171516203 
4.08000000000383, -0.9174742987050596 
4.090000000003807, -0.9185008064423309 
4.100000000003783, -0.9192328452079015 
4.11000000000376, -0.91964331982529 
4.120000000003737, -0.9197364789052414 
4.130000000003713, -0.9195447997305104 
4.14000000000369, -0.9191223160805831 
4.150000000003667, -0.9185407472040743 
4.1600000000036434, -0.9178912105847936 
4.17000000000362, -0.9172893950736305 
4.180000000003597, -0.9168780688508382 
4.1900000000035735, -0.9168193719935028 
4.20000000000355, -0.9172727842825789 
4.210000000003527, -0.9183634569947471 
4.220000000003504, -0.9201544594159659 
4.23000000000348, -0.922636792334805 
4.240000000003457, -0.9257408090930834 
4.250000000003434, -0.9293606997680599 
4.26000000000341, -0.9333794916418795 
4.270000000003387, -0.9376859618159403 
4.280000000003364, -0.9421808154609436 
4.2900000000033405, -0.9467731267276139 
4.300000000003317, -0.9513696469330928 
4.310000000003294, -0.9558613571650573 
4.320000000003271, -0.9601144966269364 
4.330000000003247, -0.9639751487585204 
4.340000000003224, -0.9672926342725003 
4.350000000003201, -0.9699551167695161 
4.360000000003177, -0.9719185582143635 
4.370000000003154, -0.9732115718564742 
4.380000000003131, -0.973915699882794 
4.390000000003107, -0.9741366277470016 
4.400000000003084, -0.973983207924558 
4.410000000003061, -0.9735622452766979 
4.4200000000030375, -0.9729885194108657 
4.430000000003014, -0.9724048005442956 
4.440000000002991, -0.9720024128709114 
4.450000000002968, -0.9720272839774576 
4.460000000002944, -0.9727547501408735 
4.470000000002921, -0.974429125180874 
4.480000000002898, -0.9771912422769382 
4.490000000002874, -0.9810354457276113 
4.500000000002851, -0.9858216501383044 
4.510000000002828, -0.991329635263319 
4.520000000002804, -0.9973197958801385 
4.530000000002781, -1.0035726257479956 
4.540000000002758, -1.0099003086428608 
4.5500000000027345, -1.0161379922706348 
4.560000000002711, -1.0221265785300304 
4.570000000002688, -1.0276991343932422 
4.580000000002665, -1.0326821557542578 
4.590000000002641, -1.0369176010759507 
4.600000000002618, -1.040298705553872 
4.610000000002595, -1.0427989826714739 
4.620000000002571, -1.044474699501812 
4.630000000002548, -1.0454398182366307 
4.640000000002525, -1.04583099181029 
4.6500000000025015, -1.0457821637187752 
4.660000000002478, -1.04541779097717 
4.670000000002455, -1.0448634154328096 
4.6800000000024315, -1.0442664769647156 
4.690000000002408, -1.0438151747199087 
4.700000000002385, -1.043737529439399 
4.710000000002362, -1.044265019258143 
4.720000000002338, -1.0455665239963672 
4.730000000002315, -1.0476891027221755 
4.740000000002292, -1.0505467800953066 
4.750000000002268, -1.053962618057612 
4.760000000002245, -1.0577309447278078 
4.770000000002222, -1.0616642993726155 
4.7800000000021985, -1.0656131908948119 
4.790000000002175, -1.069465551374814 
4.800000000002152, -1.07313642366211 
4.810000000002129, -1.0765549549861608 
4.820000000002105, -1.0796532709397024 
4.830000000002082, -1.082361522024636 
4.840000000002059, -1.0846124587637678 
4.850000000002035, -1.0863547125189161 
4.860000000002012, -1.0875678475449364 
4.870000000001989, -1.088269833437188 
4.880000000001965, -1.0885128331358542 
4.890000000001942, -1.088372010168228 
4.900000000001919, -1.087936268449901 
4.9100000000018955, -1.0873066414500971 
4.920000000001872, -1.0866008837092052 
4.930000000001849, -1.0859559476629066 
