t, s[1].omega / s[0].omega 
0, -1.7599106788807064 
0.009999999999999995, -1.748888656315065 
0.019999999999999934, -1.7353131390013705 
0.029999999999999874, -1.7253749604876671 
0.04000000000000012, -1.723762948200673 
0.050000000000000405, -1.7267516717697071 
0.06000000000000069, -1.7296247741421151 
0.07000000000000098, -1.7312083479403946 
0.08000000000000126, -1.7318096463183839 
0.09000000000000155, -1.7318014394733763 
0.10000000000000184, -1.7313956569862199 
0.11000000000000212, -1.730747848578869 
0.12000000000000241, -1.7301433481304371 
0.130000000000002, -1.7300842166929218 
0.1400000000000009, -1.7309246465691968 
0.1499999999999998, -1.7324124967351557 
0.1599999999999987, -1.733983568831135 
0.1699999999999976, -1.735264625783514 
0.1799999999999965, -1.7361261140622937 
0.1899999999999954, -1.7365473979823096 
0.1999999999999943, -1.7365303807627552 
0.2099999999999932, -1.7360640554587987 
0.2199999999999921, -1.7351107035697222 
0.229999999999991, -1.7336031136997252 
0.2399999999999899, -1.7314580620730802 
0.2499999999999888, -1.7286384816231706 
0.2599999999999877, -1.7253345962307978 
0.2699999999999866, -1.7222275952122317 
0.2799999999999855, -1.7202907932070475 
0.2899999999999844, -1.7197879078145886 
0.2999999999999833, -1.7200111427554219 
0.3099999999999822, -1.7202380627027278 
0.3199999999999811, -1.7201695293295267 
0.32999999999998, -1.7197076553000037 
0.3399999999999789, -1.718736382867668 
0.3499999999999778, -1.7170799543228668 
0.35999999999997667, -1.7148175002923132 
0.36999999999997557, -1.7133376096723025 
0.37999999999997447, -1.7157806818697157 
0.38999999999997337, -1.7232150211210897 
0.39999999999997227, -1.7321755533256842 
0.40999999999997117, -1.7393642685135629 
0.41999999999997006, -1.744064523267021 
0.42999999999996896, -1.7467893420361893 
0.43999999999996786, -1.7481764203927426 
0.44999999999996676, -1.7486919162398074 
0.45999999999996566, -1.7486302868197163 
0.46999999999996456, -1.7481716745022482 
0.47999999999996346, -1.7474404343141274 
0.48999999999996235, -1.7465489547126736 
0.49999999999996125, -1.7456173567874207 
0.5099999999999602, -1.7447864522737493 
0.519999999999959, -1.744210560564353 
0.529999999999958, -1.7439481354479809 
0.5399999999999568, -1.7438626929659082 
0.5499999999999557, -1.7437222227339444 
0.5599999999999546, -1.7433183982750347 
0.5699999999999535, -1.7424226271916219 
0.5799999999999524, -1.740621270579199 
0.5899999999999513, -1.7370588132110907 
0.5999999999999502, -1.7301890621126432 
0.6099999999999491, -1.718543879942763 
0.619999999999948, -1.705304598582345 
0.6299999999999469, -1.7020090871523064 
0.6399999999999458, -1.7127439234360318 
0.6499999999999447, -1.7261570677026707 
0.6599999999999436, -1.7349222225564205 
0.6699999999999425, -1.7393679151701729 
0.6799999999999414, -1.741337369177079 
0.6899999999999403, -1.7420356974184201 
0.6999999999999392, -1.742065850298017 
0.7099999999999381, -1.741726058704368 
0.719999999999937, -1.7412191345643424 
0.7299999999999359, -1.7407631773462888 
0.7399999999999348, -1.7405546539621564 
0.7499999999999337, -1.7406349530440182 
0.7599999999999326, -1.740893225748539 
0.7699999999999315, -1.7411885093755632 
0.7799999999999304, -1.741395474957081 
0.7899999999999293, -1.7413964976394314 
0.7999999999999282, -1.7410731987154358 
0.8099999999999271, -1.7402757495189725 
0.819999999999926, -1.7387679128754985 
0.8299999999999249, -1.7361629957648337 
0.8399999999999238, -1.73187741419038 
0.8499999999999227, -1.725224921013271 
0.8599999999999216, -1.7160530430191696 
0.8699999999999205, -1.7062848473415866 
0.8799999999999194, -1.700103682716346 
0.8899999999999183, -1.6992234612697477 
0.8999999999999172, -1.7008497124500823 
0.9099999999999161, -1.7023845737416938 
0.919999999999915, -1.7031779407037662 
0.9299999999999139, -1.7033498226286887 
0.9399999999999128, -1.7030674466409548 
0.9499999999999117, -1.7024251446906482 
0.9599999999999106, -1.701558545788727 
0.9699999999999095, -1.7009006799616422 
0.9799999999999084, -1.7012636168116448 
0.9899999999999073, -1.7031125312205504 
0.9999999999999062, -1.7058565785813038 
1.0099999999999052, -1.7085367730974403 
1.019999999999904, -1.710635740669782 
1.029999999999903, -1.712054626247991 
1.039999999999902, -1.7128546665297937 
1.0499999999999008, -1.7131199941813655 
1.0599999999998997, -1.712915040592548 
1.0699999999998986, -1.712277198501857 
1.0799999999998975, -1.7112223570814653 
1.0899999999998964, -1.7097614691696024 
1.0999999999998953, -1.7079385947425412 
1.1099999999998942, -1.7059132940051343 
1.119999999999893, -1.7040612988232504 
1.129999999999892, -1.7028624811076902 
1.1399999999998909, -1.70245049582168 
1.1499999999998898, -1.7024645026629037 
1.1599999999998887, -1.7024723233113523 
1.1699999999998876, -1.7022271634950283 
1.1799999999998865, -1.7015678278375248 
1.1899999999998854, -1.700246710856581 
1.1999999999998843, -1.6978106581737198 
1.2099999999998832, -1.693768663811595 
1.219999999999882, -1.688987972017688 
1.229999999999881, -1.6884018531556895 
1.2399999999998799, -1.6974576671833368 
1.2499999999998788, -1.7121603695704795 
1.2599999999998777, -1.7246671057641911 
1.2699999999998766, -1.732513762490223 
1.2799999999998755, -1.736751387575642 
1.2899999999998744, -1.7388051539357268 
1.2999999999998733, -1.739624319170066 
1.3099999999998722, -1.7397380120378485 
1.319999999999871, -1.7394321950272613 
1.32999999999987, -1.7388867260772876 
1.3399999999998689, -1.7382565941361237 
1.3499999999998678, -1.7376811224068327 
1.3599999999998666, -1.737249377942414 
1.3699999999998655, -1.7369983995606901 
1.3799999999998644, -1.7369128746009448 
1.3899999999998633, -1.7368923778801748 
1.3999999999998622, -1.7367753815107243 
1.4099999999998611, -1.7363904042656142 
1.41999999999986, -1.735528391560615 
1.429999999999859, -1.7338284187152595 
1.4399999999998578, -1.7305905041606717 
1.4499999999998567, -1.724540103372627 
1.4599999999998556, -1.7138896272216928 
1.4699999999998545, -1.6981349523902474 
1.4799999999998534, -1.6826915618783111 
1.4899999999998523, -1.6771964371421664 
1.4999999999998512, -1.6813956216833226 
1.5099999999998501, -1.6872424827251322 
1.519999999999849, -1.6910132987827187 
1.529999999999848, -1.6928550477722406 
1.5399999999998468, -1.6935452484503883 
1.5499999999998457, -1.6935862106277988 
1.5599999999998446, -1.693235703586764 
1.5699999999998435, -1.6926703142141957 
1.5799999999998424, -1.6921459663072878 
1.5899999999998413, -1.692038617892902 
1.5999999999998402, -1.6925830776196171 
1.6099999999998391, -1.693606478835045 
1.619999999999838, -1.6947292827557203 
1.629999999999837, -1.6956757830287164 
1.6399999999998358, -1.6963181976481043 
1.6499999999998347, -1.696603046126128 
1.6599999999998336, -1.6964971741319261 
1.6699999999998325, -1.6959590771425304 
1.6799999999998314, -1.694923332847966 
1.6899999999998303, -1.6932946574511019 
1.6999999999998292, -1.6909574409686452 
1.709999999999828, -1.6878314774642131 
1.719999999999827, -1.6840474541189288 
1.729999999999826, -1.680253121468419 
1.7399999999998248, -1.6775760324131266 
1.7499999999998237, -1.6766161806697295 
1.7599999999998226, -1.676766071998252 
1.7699999999998215, -1.6771190723938443 
1.7799999999998204, -1.6772288160535787 
1.7899999999998193, -1.676974623527066 
1.7999999999998182, -1.6762855254798612 
1.809999999999817, -1.6750266463574923 
1.819999999999816, -1.673098147051008 
1.8299999999998149, -1.6710321142478493 
1.8399999999998138, -1.671031517521913 
1.8499999999998127, -1.675795955353705 
1.8599999999998116, -1.6843424685555823 
1.8699999999998105, -1.692881526929913 
1.8799999999998094, -1.6992287716589545 
1.8899999999998083, -1.7032620641371583 
1.8999999999998072, -1.7055595317348697 
1.909999999999806, -1.7066883840829132 
1.919999999999805, -1.7070495331101898 
1.9299999999998039, -1.7068975079402016 
1.9399999999998028, -1.7063937782529206 
1.9499999999998017, -1.7056593489623506 
1.9599999999998006, -1.704810290980382 
1.9699999999997995, -1.7039665881357773 
1.9799999999997984, -1.703254189937585 
1.9899999999997973, -1.7027896158937037 
1.9999999999997962, -1.7025907742100888 
2.0099999999998173, -1.7025181251145873 
2.0199999999998384, -1.7023644720571127 
2.0299999999998595, -1.7019385280852237 
2.0399999999998806, -1.7010161622449824 
2.0499999999999017, -1.6991923869853136 
2.059999999999923, -1.6956475148560906 
2.069999999999944, -1.688875790918327 
2.079999999999965, -1.6770167210428482 
2.089999999999986, -1.6609883869539857 
2.100000000000007, -1.6497135253162019 
2.1100000000000283, -1.652153079051327 
2.1200000000000494, -1.662375970747874 
2.1300000000000705, -1.6710141974235415 
2.1400000000000916, -1.6759106973688955 
2.1500000000001127, -1.6782298342009205 
2.160000000000134, -1.6791446211081478 
2.170000000000155, -1.679310024252522 
2.180000000000176, -1.6790495407310195 
2.190000000000197, -1.6785588347526836 
2.2000000000002182, -1.6780550148164477 
2.2100000000002393, -1.6778177488276662 
2.2200000000002604, -1.6780297481099786 
2.2300000000002815, -1.678607248982426 
2.2400000000003026, -1.6793103605821915 
2.2500000000003237, -1.6799356343986287 
2.260000000000345, -1.6803570422032774 
2.270000000000366, -1.6804923900079274 
2.280000000000387, -1.6802728311466795 
2.290000000000408, -1.679617447051983 
2.3000000000004293, -1.6784120615985696 
2.3100000000004504, -1.6764964733843262 
2.3200000000004715, -1.673669435719006 
2.3300000000004926, -1.6697510188728082 
2.3400000000005137, -1.6648080936267942 
2.3500000000005348, -1.6596079351308355 
2.360000000000556, -1.6557258958110392 
2.370000000000577, -1.654222655211235 
2.380000000000598, -1.6544094205698336 
2.390000000000619, -1.6549981440366213 
2.4000000000006403, -1.6553356750771926 
2.4100000000006614, -1.6552832971598694 
2.4200000000006825, -1.654826049628247 
2.4300000000007036, -1.6539097031026344 
2.4400000000007247, -1.6524787687049702 
2.450000000000746, -1.650825187202474 
2.460000000000767, -1.6503061755980337 
2.470000000000788, -1.6530588798348425 
2.480000000000809, -1.6592662420004345 
2.49000000000083, -1.6664233559234158 
2.5000000000008513, -1.672342192417382 
2.5100000000008724, -1.6764384206065035 
2.5200000000008935, -1.678968214977613 
2.5300000000009146, -1.6803474359652537 
2.5400000000009357, -1.6809208597537197 
2.550000000000957, -1.6809297055899104 
2.560000000000978, -1.6805338803441512 
2.570000000000999, -1.67984729267366 
2.58000000000102, -1.67897229320944 
2.5900000000010412, -1.678020156451059 
2.6000000000010624, -1.6771198660485531 
2.6100000000010835, -1.6764200944365264 
2.6200000000011046, -1.6760271985815618 
2.6300000000011257, -1.6758898528056467 
2.6400000000011468, -1.6758129809811755 
2.650000000001168, -1.675586898524747 
2.660000000001189, -1.6750235944188838 
2.67000000000121, -1.6738641131896972 
2.680000000001231, -1.6716064758915194 
2.6900000000012523, -1.6672543241792463 
2.7000000000012734, -1.6591336769464704 
2.7100000000012945, -1.645817181578506 
2.7200000000013156, -1.6303699919846935 
2.7300000000013367, -1.6233135461260315 
2.740000000001358, -1.6296083902418033 
2.750000000001379, -1.6404411541561426 
2.7600000000014, -1.648364777483306 
2.770000000001421, -1.6526499702680773 
2.780000000001442, -1.6546369989258962 
2.7900000000014633, -1.655386790408055 
2.8000000000014844, -1.6554671285115354 
2.8100000000015055, -1.6551609156096958 
2.8200000000015266, -1.6546536678620716 
2.8300000000015477, -1.6541685078575916 
2.840000000001569, -1.65398590666267 
2.85000000000159, -1.654268935227505 
2.860000000001611, -1.6549116518751201 
2.870000000001632, -1.6556670639485145 
2.8800000000016532, -1.6563327686705727 
2.8900000000016743, -1.6567858416372285 
2.9000000000016954, -1.656948973614932 
2.9100000000017165, -1.6567603493369962 
2.9200000000017377, -1.6561502758322324 
2.9300000000017588, -1.655023720290875 
2.94000000000178, -1.6532515409466029 
2.950000000001801, -1.6506770816150014 
2.960000000001822, -1.6471672729650293 
2.970000000001843, -1.6427847516471819 
2.9800000000018643, -1.638132683986252 
2.9900000000018854, -1.63448244778995 
3.0000000000019065, -1.6328331275340489 
3.0100000000019276, -1.632788132634781 
3.0200000000019487, -1.6332508595612159 
3.03000000000197, -1.633554026790652 
3.040000000001991, -1.6335077062855443 
3.050000000002012, -1.6330680677028648 
3.060000000002033, -1.6321566747718912 
3.070000000002054, -1.6306494673893883 
3.0800000000020753, -1.6286408049161203 
3.0900000000020964, -1.6272430874876977 
3.1000000000021175, -1.6290527945303073 
3.1100000000021386, -1.6355634739797664 
3.1200000000021597, -1.6444217798912057 
3.130000000002181, -1.6523220238595748 
3.140000000002202, -1.6579485876874345 
3.150000000002223, -1.661471238706039 
3.160000000002244, -1.6634535861091115 
3.1700000000022652, -1.6643958348650685 
3.1800000000022863, -1.6646483463099835 
3.1900000000023074, -1.6644367088267202 
3.2000000000023285, -1.6639100232799848 
3.2100000000023496, -1.6631880536261492 
3.2200000000023707, -1.662389343387596 
3.230000000002392, -1.6616307449727703 
3.240000000002413, -1.661020770476248 
3.250000000002434, -1.6606433630160313 
3.260000000002455, -1.6604918088077039 
3.2700000000024763, -1.6604333743577158 
3.2800000000024974, -1.6602827711499948 
3.2900000000025185, -1.6598638700301094 
3.3000000000025396, -1.658966725821435 
3.3100000000025607, -1.6572249124103364 
3.3200000000025818, -1.6539266527443108 
3.330000000002603, -1.6477845283251853 
3.340000000002624, -1.6370142190863946 
3.350000000002645, -1.6210715912326616 
3.360000000002666, -1.6050164563851848 
3.3700000000026873, -1.5985034947354604 
3.3800000000027084, -1.6026501426553257 
3.3900000000027295, -1.6095491875315062 
3.4000000000027506, -1.6144365840644284 
3.4100000000027717, -1.6170317001756644 
3.420000000002793, -1.618171709578311 
3.430000000002814, -1.6184901044069508 
3.440000000002835, -1.618324467377387 
3.450000000002856, -1.6178561469816732 
3.460000000002877, -1.617261124684545 
3.4700000000028983, -1.616839391777453 
3.4800000000029194, -1.6169746274383734 
3.4900000000029405, -1.6178194268916255 
3.5000000000029616, -1.6191170532331487 
3.5100000000029827, -1.6204680581159525 
3.520000000003004, -1.621603765134387 
3.530000000003025, -1.6224061510237793 
3.540000000003046, -1.6228352995422501 
3.550000000003067, -1.622877870822559 
3.5600000000030882, -1.6225218194283382 
3.5700000000031094, -1.6217456244842368 
3.5800000000031305, -1.6205165320851809 
3.5900000000031516, -1.6187986461346813 
3.6000000000031727, -1.6165815010961677 
3.6100000000031938, -1.6139541849768313 
3.620000000003215, -1.6112362982795474 
3.630000000003236, -1.6090225097146085 
3.640000000003257, -1.6078248377430868 
3.650000000003278, -1.6075542421775566 
3.6600000000032993, -1.607673215272822 
3.6700000000033204, -1.6077358581574281 
3.6800000000033415, -1.6075320989171442 
3.6900000000033626, -1.6069365463278114 
3.7000000000033837, -1.6057529092820952 
3.710000000003405, -1.6036175197904037 
3.720000000003426, -1.6000877777759932 
3.730000000003447, -1.5955132112617527 
3.740000000003468, -1.5932120594544705 
3.750000000003489, -1.5989290892949553 
3.7600000000035103, -1.612674567995412 
3.7700000000035314, -1.6273085904840632 
3.7800000000035525, -1.6379163326802533 
3.7900000000035736, -1.6442216178303362 
3.8000000000035947, -1.6475665978559566 
3.810000000003616, -1.6491545273648556 
3.820000000003637, -1.6497391370749224 
3.830000000003658, -1.6497402627594202 
3.840000000003679, -1.6493939796118666 
3.8500000000037002, -1.6488658966765357 
3.8600000000037213, -1.6483148983125147 
3.8700000000037424, -1.6478832431404407 
3.8800000000037635, -1.6476414563380914 
3.8900000000037847, -1.647580366858551 
3.9000000000038058, -1.6476422462297968 
3.910000000003827, -1.647727396216797 
3.920000000003848, -1.6477067014765479 
3.930000000003869, -1.6474461326550365 
3.94000000000389, -1.6467951634016564 
3.9500000000039113, -1.6455336341085047 
3.9600000000039324, -1.6432990280654618 
3.9700000000039535, -1.6395154175386484 
3.9800000000039746, -1.6333925346981164 
3.9900000000039957, -1.6242425135250547 
4.000000000004016, -1.6126104085374073 
4.010000000003993, -1.6018332128927013 
4.02000000000397, -1.5963531636731518 
4.030000000003946, -1.5963583521429892 
4.040000000003923, -1.5983732221173412 
4.0500000000039, -1.6000639994924366 
4.0600000000038765, -1.6009579016078106 
4.070000000003853, -1.6012149500986197 
4.08000000000383, -1.601013548057655 
4.090000000003807, -1.6004457788753363 
4.100000000003783, -1.5995918986138868 
4.11000000000376, -1.5987214798670408 
4.120000000003737, -1.598532243483367 
4.130000000003713, -1.5998832893011838 
4.14000000000369, -1.6028265395350036 
4.150000000003667, -1.606417304255872 
4.1600000000036434, -1.609692273068618 
4.17000000000362, -1.6122227414683148 
4.180000000003597, -1.6139628600058227 
4.1900000000035735, -1.6150073531565963 
4.20000000000355, -1.6154728930329754 
4.210000000003527, -1.6154602407265006 
4.220000000003504, -1.6150475521950238 
4.23000000000348, -1.6142960979179137 
4.240000000003457, -1.6132642734802158 
4.250000000003434, -1.6120276025214415 
4.26000000000341, -1.6107038919721244 
4.270000000003387, -1.6094800314694369 
4.280000000003364, -1.6085852712760862 
4.2900000000033405, -1.6081379390581418 
4.300000000003317, -1.6080148751806664 
4.310000000003294, -1.6079578659649663 
4.320000000003271, -1.6077441278454807 
4.330000000003247, -1.6071980444507545 
4.340000000003224, -1.606084102286946 
4.350000000003201, -1.6039470444717583 
4.360000000003177, -1.5998989587857375 
4.370000000003154, -1.5925022382916143 
4.380000000003131, -1.5806672861151412 
4.390000000003107, -1.5673221325391473 
4.400000000003084, -1.5619109325392828 
4.410000000003061, -1.5694709463766796 
4.4200000000030375, -1.5821338916095793 
4.430000000003014, -1.5919196386698702 
4.440000000002991, -1.5975063969739653 
4.450000000002968, -1.600257291726631 
4.460000000002944, -1.6014378305757184 
4.470000000002921, -1.6017731147231271 
4.480000000002898, -1.6016282175601275 
4.490000000002874, -1.6012034963613773 
4.500000000002851, -1.6006796917062993 
4.510000000002828, -1.6003031837962118 
4.520000000002804, -1.6003243809389798 
4.530000000002781, -1.6008042958768691 
4.540000000002758, -1.6015672696311534 
4.5500000000027345, -1.602373657814148 
4.560000000002711, -1.6030496451997274 
4.570000000002688, -1.6034913192888554 
4.580000000002665, -1.6036337076521971 
4.590000000002641, -1.603425945798263 
4.600000000002618, -1.6028132697032706 
4.610000000002595, -1.6017263164524465 
4.620000000002571, -1.600078862902249 
4.630000000002548, -1.5977785233117492 
4.640000000002525, -1.5947698718314332 
4.6500000000025015, -1.591153635165909 
4.660000000002478, -1.5873960115607486 
4.670000000002455, -1.584383122352655 
4.6800000000024315, -1.5828397845047433 
4.690000000002408, -1.5825828001552684 
4.700000000002385, -1.5828419069233504 
4.710000000002362, -1.5830434481663374 
4.720000000002338, -1.5829633015475353 
4.730000000002315, -1.582513779400586 
4.740000000002292, -1.581572074386793 
4.750000000002268, -1.5799072726481054 
4.760000000002245, -1.5772785626699706 
4.770000000002222, -1.5740962622684465 
4.7800000000021985, -1.5728955961272575 
4.790000000002175, -1.5778890374895194 
4.800000000002152, -1.5893828345731593 
4.810000000002129, -1.6022401611662347 
4.820000000002105, -1.6122466092921877 
4.830000000002082, -1.6186452503751738 
4.840000000002059, -1.6222869673721518 
4.850000000002035, -1.6241537329509796 
4.860000000002012, -1.6249440028979798 
4.870000000001989, -1.6250830914280414 
4.880000000001965, -1.624819901038692 
4.890000000001942, -1.624318502504258 
4.900000000001919, -1.623723398614197 
4.9100000000018955, -1.6231752403498614 
4.920000000001872, -1.6227749744271491 
4.930000000001849, -1.6225581729143514 
