t, s[1].omega / s[0].omega 
0, -0.8198529337046011 
0.009999999999999995, -0.8060680416864505 
0.019999999999999934, -0.7953970295284971 
0.029999999999999874, -0.7886483071200494 
0.04000000000000012, -0.7852860299042446 
0.050000000000000405, -0.7841686289341148 
0.06000000000000069, -0.7842279173494798 
0.07000000000000098, -0.7847424188345574 
0.08000000000000126, -0.7853206194514524 
0.09000000000000155, -0.7857881056852117 
0.10000000000000184, -0.786083890146412 
0.11000000000000212, -0.786192900319916 
0.12000000000000241, -0.786108320618247 
0.130000000000002, -0.7858112779225201 
0.1400000000000009, -0.7852586699756945 
0.1499999999999998, -0.7843752284756427 
0.1599999999999987, -0.7830518246412199 
0.1699999999999976, -0.7811582435457645 
0.1799999999999965, -0.7785807472837752 
0.1899999999999954, -0.7752825282823965 
0.1999999999999943, -0.771356737663143 
0.2099999999999932, -0.7670267521001821 
0.2199999999999921, -0.7625825524185722 
0.229999999999991, -0.7582967833405607 
0.2399999999999899, -0.75437192094458 
0.2499999999999888, -0.7509310428360711 
0.2599999999999877, -0.748033141170623 
0.2699999999999866, -0.7456918945422126 
0.2799999999999855, -0.7438885448729262 
0.2899999999999844, -0.7425791057595079 
0.2999999999999833, -0.7416996652986327 
0.3099999999999822, -0.7411728356152353 
0.3199999999999811, -0.7409159465586604 
0.32999999999998, -0.7408494345498406 
0.3399999999999789, -0.7409032815936094 
0.3499999999999778, -0.7410203283556995 
0.35999999999997667, -0.7411568285915767 
0.36999999999997557, -0.7412816170865278 
0.37999999999997447, -0.7413751716826644 
0.38999999999997337, -0.7414287649935207 
0.39999999999997227, -0.7414425775773094 
0.40999999999997117, -0.7414213982164388 
0.41999999999997006, -0.7413682498228542 
0.42999999999996896, -0.7412788533865775 
0.43999999999996786, -0.7411405837115546 
0.44999999999996676, -0.7409370632677141 
0.45999999999996566, -0.7406556506364559 
0.46999999999996456, -0.7402934358668045 
0.47999999999996346, -0.7398594747893635 
0.48999999999996235, -0.7393744759333043 
0.49999999999996125, -0.7388707215874888 
0.5099999999999602, -0.7383940776354886 
0.519999999999959, -0.7380080366156254 
0.529999999999958, -0.7377981005535184 
0.5399999999999568, -0.737873881560464 
0.5499999999999557, -0.7383663593854733 
0.5599999999999546, -0.7394190085117283 
0.5699999999999535, -0.7411734773284041 
0.5799999999999524, -0.7437516186530994 
0.5899999999999513, -0.7472344595529222 
0.5999999999999502, -0.7516357449963871 
0.6099999999999491, -0.7568669391302707 
0.619999999999948, -0.7626986168953654 
0.6299999999999469, -0.7687435280152506 
0.6399999999999458, -0.7745046135272946 
0.6499999999999447, -0.7795069783027897 
0.6599999999999436, -0.7834531793969368 
0.6699999999999425, -0.7862924791151167 
0.6799999999999414, -0.7881648405276226 
0.6899999999999403, -0.7892873332949466 
0.6999999999999392, -0.7898649152618126 
0.7099999999999381, -0.7900511987950438 
0.719999999999937, -0.7899434203798321 
0.7299999999999359, -0.789590513121949 
0.7399999999999348, -0.7890025167198308 
0.7499999999999337, -0.788158159526335 
0.7599999999999326, -0.7870128778034693 
0.7699999999999315, -0.7855139202267349 
0.7799999999999304, -0.7836336626810787 
0.7899999999999293, -0.7814331306010157 
0.7999999999999282, -0.7791517645692639 
0.8099999999999271, -0.77726846532797 
0.819999999999926, -0.7764149481939369 
0.8299999999999249, -0.7770778855952181 
0.8399999999999238, -0.779295642518074 
0.8499999999999227, -0.7826709147983328 
0.8599999999999216, -0.7866233120901008 
0.8699999999999205, -0.790581757894176 
0.8799999999999194, -0.7940979466514985 
0.8899999999999183, -0.7969276109340637 
0.8999999999999172, -0.7990282534578982 
0.9099999999999161, -0.8004835445677247 
0.919999999999915, -0.8014206615412167 
0.9299999999999139, -0.8019579931869654 
0.9399999999999128, -0.8021825244203805 
0.9499999999999117, -0.8021433223286243 
0.9599999999999106, -0.8018495786048268 
0.9699999999999095, -0.8012664258121307 
0.9799999999999084, -0.8003054090549815 
0.9899999999999073, -0.7988102664568146 
0.9999999999999062, -0.7965460245884322 
1.0099999999999052, -0.7932131937249889 
1.019999999999904, -0.7885217881730294 
1.029999999999903, -0.7823411626991847 
1.039999999999902, -0.7748614504363621 
1.0499999999999008, -0.7666255992000139 
1.0599999999998997, -0.7583632747733036 
1.0699999999998986, -0.7507418425258277 
1.0799999999998975, -0.7442037913631638 
1.0899999999998964, -0.7389406891241437 
1.0999999999998953, -0.7349475193060178 
1.1099999999998942, -0.73209394218875 
1.119999999999893, -0.7301841535390121 
1.129999999999892, -0.7290012691867633 
1.1399999999998909, -0.7283385076593677 
1.1499999999998898, -0.7280184958738112 
1.1599999999998887, -0.7279014661947014 
1.1699999999998876, -0.7278843682597381 
1.1799999999998865, -0.7278943755548187 
1.1899999999998854, -0.7278806118436941 
1.1999999999998843, -0.727807191822294 
1.2099999999998832, -0.7276494573807055 
1.219999999999882, -0.7273937903724581 
1.229999999999881, -0.7270394436981367 
1.2399999999998799, -0.7265990420978208 
1.2499999999998788, -0.7260946391445213 
1.2599999999998777, -0.7255495704534782 
1.2699999999998766, -0.7249803438512827 
1.2799999999998755, -0.7243933592653753 
1.2899999999998744, -0.7237877867425687 
1.2999999999998733, -0.723161957467646 
1.3099999999998722, -0.7225194501201596 
1.319999999999871, -0.7218728162131003 
1.32999999999987, -0.7212452580828689 
1.3399999999998689, -0.7206714947826645 
1.3499999999998678, -0.7201984105629686 
1.3599999999998666, -0.7198850057877219 
1.3699999999998655, -0.7198006537859785 
1.3799999999998644, -0.7200210496556372 
1.3899999999998633, -0.7206222594227201 
1.3999999999998622, -0.7216742141160846 
1.4099999999998611, -0.7232349962169535 
1.41999999999986, -0.7253459505758745 
1.429999999999859, -0.7280254781420334 
1.4399999999998578, -0.7312576270134807 
1.4499999999998567, -0.734972418642284 
1.4599999999998556, -0.739021189543742 
1.4699999999998545, -0.7431632291341793 
1.4799999999998534, -0.7470907467405473 
1.4899999999998523, -0.7505050746454944 
1.4999999999998512, -0.7532106149592008 
1.5099999999998501, -0.7551621870413147 
1.519999999999849, -0.7564377355752394 
1.529999999999848, -0.757171159550151 
1.5399999999998468, -0.75749446074696 
1.5499999999998457, -0.7575087681793976 
1.5599999999998446, -0.7572777344127155 
1.5699999999998435, -0.7568311497508107 
1.5799999999998424, -0.7561714384645916 
1.5899999999998413, -0.755281573480268 
1.5999999999998402, -0.7541376075608333 
1.6099999999998391, -0.7527330729081289 
1.619999999999838, -0.7511249925717346 
1.629999999999837, -0.7495054770654788 
1.6399999999998358, -0.7482737637688892 
1.6499999999998347, -0.7480225320254673 
1.6599999999998336, -0.7493185498330438 
1.6699999999998325, -0.7523165996285862 
1.6799999999998314, -0.7565757611959568 
1.6899999999998303, -0.7613565104240172 
1.6999999999998292, -0.7660329711916454 
1.709999999999828, -0.7702060230619167 
1.719999999999827, -0.7736555458210396 
1.729999999999826, -0.7763148859526808 
1.7399999999998248, -0.7782402052843326 
1.7499999999998237, -0.7795531341533841 
1.7599999999998226, -0.7803861990851535 
1.7699999999998215, -0.7808504890134814 
1.7799999999998204, -0.7810229859225399 
1.7899999999998193, -0.7809436517368743 
1.7999999999998182, -0.7806142015872071 
1.809999999999817, -0.7799939566953705 
1.819999999999816, -0.7789912053297011 
1.8299999999998149, -0.7774525743360339 
1.8399999999998138, -0.7751608390251137 
1.8499999999998127, -0.771863498120616 
1.8599999999998116, -0.767357890678446 
1.8699999999998105, -0.7616249077038912 
1.8799999999998094, -0.7549302467109489 
1.8899999999998083, -0.7477878958761724 
1.8999999999998072, -0.7407876903353846 
1.909999999999806, -0.7344134623236037 
1.919999999999805, -0.728957897768693 
1.9299999999998039, -0.7245329324276176 
1.9399999999998028, -0.7211204803476985 
1.9499999999998017, -0.7186225291962149 
1.9599999999998006, -0.7168981829182836 
1.9699999999997995, -0.7157897497270251 
1.9799999999997984, -0.7151418372958667 
1.9899999999997973, -0.7148149189676458 
1.9999999999997962, -0.7146931271430116 
2.0099999999998173, -0.7146863177083255 
2.0199999999998384, -0.7147277187669301 
2.0299999999998595, -0.7147694232148947 
2.0399999999998806, -0.7147780553985225 
2.0499999999999017, -0.7147322149120482 
2.059999999999923, -0.7146219458087867 
2.069999999999944, -0.7144487666007968 
2.079999999999965, -0.7142236899112788 
2.089999999999986, -0.7139616422386137 
2.100000000000007, -0.713673818856748 
2.1100000000000283, -0.7133621429948247 
2.1200000000000494, -0.7130193004217007 
2.1300000000000705, -0.7126341607290063 
2.1400000000000916, -0.7121990283416941 
2.1500000000001127, -0.7117149257835119 
2.160000000000134, -0.7111937314597767 
2.170000000000155, -0.7106586685889981 
2.180000000000176, -0.710145263403907 
2.190000000000197, -0.7097037600961689 
2.2000000000002182, -0.7094024546019427 
2.2100000000002393, -0.7093303529778893 
2.2200000000002604, -0.7095972570867732 
2.2300000000002815, -0.7103299040481652 
2.2400000000003026, -0.7116638904806455 
2.2500000000003237, -0.7137319505170904 
2.260000000000345, -0.7166485768267913 
2.270000000000366, -0.7204885951267241 
2.280000000000387, -0.7252548790365705 
2.290000000000408, -0.7308329195584398 
2.3000000000004293, -0.7369447164861249 
2.3100000000004504, -0.7431413883924778 
2.3200000000004715, -0.7488848735648143 
2.3300000000004926, -0.7537154499201135 
2.3400000000005137, -0.7574043695462235 
2.3500000000005348, -0.7599798813562064 
2.360000000000556, -0.7616316722562264 
2.370000000000577, -0.7625904165506915 
2.380000000000598, -0.7630526405672191 
2.390000000000619, -0.763155905287545 
2.4000000000006403, -0.7629808099236055 
2.4100000000006614, -0.7625600114061675 
2.4200000000006825, -0.761884962632616 
2.4300000000007036, -0.760907862724136 
2.4400000000007247, -0.7595395632621522 
2.450000000000746, -0.757646219310119 
2.460000000000767, -0.7550495083381862 
2.470000000000788, -0.7515362874315719 
2.480000000000809, -0.746881708926838 
2.49000000000083, -0.7408928601793254 
2.5000000000008513, -0.7335158299364589 
2.5100000000008724, -0.7250811222091007 
2.5200000000008935, -0.7165520281694283 
2.5300000000009146, -0.7092832227467696 
2.5400000000009357, -0.7042366583182653 
2.550000000000957, -0.7014858310370927 
2.560000000000978, -0.7004547963604884 
2.570000000000999, -0.7004240157535955 
2.58000000000102, -0.7008353199481496 
2.5900000000010412, -0.701352441553693 
2.6000000000010624, -0.701807876012233 
2.6100000000010835, -0.7021328079035001 
2.6200000000011046, -0.7023049046134778 
2.6300000000011257, -0.7023166248472409 
2.6400000000011468, -0.7021575843224639 
2.650000000001168, -0.7018049518997997 
2.660000000001189, -0.7012189424591175 
2.67000000000121, -0.7003440476901966 
2.680000000001231, -0.6991195771308327 
2.6900000000012523, -0.6975025393321524 
2.7000000000012734, -0.6954978876725675 
2.7100000000012945, -0.6931783406212861 
2.7200000000013156, -0.6906743574146663 
2.7300000000013367, -0.6881358148945959 
2.740000000001358, -0.685690664779653 
2.750000000001379, -0.6834240936683985 
2.7600000000014, -0.6813808485987336 
2.770000000001421, -0.6795791052892483 
2.780000000001442, -0.6780244486294172 
2.7900000000014633, -0.6767187707256836 
2.8000000000014844, -0.6756637814320336 
2.8100000000015055, -0.6748608492892467 
2.8200000000015266, -0.6743091594090795 
2.8300000000015477, -0.674003799863914 
2.840000000001569, -0.673934848037961 
2.85000000000159, -0.6740879312864201 
2.860000000001611, -0.6744461462642065 
2.870000000001632, -0.674992751567301 
2.8800000000016532, -0.6757137640586927 
2.8900000000016743, -0.6765994145447423 
2.9000000000016954, -0.6776432260021635 
2.9100000000017165, -0.6788373876839657 
2.9200000000017377, -0.6801637601083208 
2.9300000000017588, -0.6815822246808102 
2.94000000000178, -0.6830222569909594 
2.950000000001801, -0.6843866524529619 
2.960000000001822, -0.6855722920245739 
2.970000000001843, -0.6864998978925707 
2.9800000000018643, -0.6871343825577563 
2.9900000000018854, -0.6874838723305684 
3.0000000000019065, -0.6875826533201509 
3.0100000000019276, -0.687471882838072 
3.0200000000019487, -0.6871872761003411 
3.03000000000197, -0.686755372499603 
3.040000000001991, -0.6861968026361744 
3.050000000002012, -0.6855359967493744 
3.060000000002033, -0.6848195211336786 
3.070000000002054, -0.6841479937991836 
3.0800000000020753, -0.6837273927865307 
3.0900000000020964, -0.6839396676966933 
3.1000000000021175, -0.6854093674309165 
3.1100000000021386, -0.6889900765094029 
3.1200000000021597, -0.695529601509212 
3.130000000002181, -0.7053220287274691 
3.140000000002202, -0.7175227816691897 
3.150000000002223, -0.730244462663146 
3.160000000002244, -0.74156661178031 
3.1700000000022652, -0.7504842000797068 
3.1800000000022863, -0.7569540640177436 
3.1900000000023074, -0.7614114629234032 
3.2000000000023285, -0.7643761988610981 
3.2100000000023496, -0.7662877472582094 
3.2200000000023707, -0.76747076167947 
3.230000000002392, -0.7681470893403641 
3.240000000002413, -0.7684576842265469 
3.250000000002434, -0.7684814246780111 
3.260000000002455, -0.7682467345771322 
3.2700000000024763, -0.7677349355926298 
3.2800000000024974, -0.7668752635093348 
3.2900000000025185, -0.7655329101495129 
3.3000000000025396, -0.7634963167458998 
3.3100000000025607, -0.7604815669554224 
3.3200000000025818, -0.7561871196006166 
3.330000000002603, -0.7504267504960092 
3.340000000002624, -0.7433026563640587 
3.350000000002645, -0.7352838243047103 
3.360000000002666, -0.7270788454344694 
3.3700000000026873, -0.7193798810373251 
3.3800000000027084, -0.7126670818485067 
3.3900000000027295, -0.7071621909027981 
3.4000000000027506, -0.7028829923907999 
3.4100000000027717, -0.699721580244396 
3.420000000002793, -0.6975072506879199 
3.430000000002814, -0.6960481931196987 
3.440000000002835, -0.6951576460360017 
3.450000000002856, -0.6946697291417273 
3.460000000002877, -0.6944475131493607 
3.4700000000028983, -0.6943847508859671 
3.4800000000029194, -0.6944029676488379 
3.4900000000029405, -0.6944461303560384 
3.5000000000029616, -0.694475157530921 
3.5100000000029827, -0.6944640057648448 
3.520000000003004, -0.6943980596828039 
3.530000000003025, -0.6942740943212218 
3.540000000003046, -0.6940995968661922 
3.550000000003067, -0.6938890064779668 
3.5600000000030882, -0.6936565643894814 
3.5700000000031094, -0.6934088024438927 
3.5800000000031305, -0.6931410983849393 
3.5900000000031516, -0.692840501791613 
3.6000000000031727, -0.6924929543204841 
3.6100000000031938, -0.6920905698964674 
3.620000000003215, -0.6916357486842394 
3.630000000003236, -0.6911421348121594 
3.640000000003257, -0.6906346987588142 
3.650000000003278, -0.6901511830800678 
3.6600000000032993, -0.689745763873272 
3.6700000000033204, -0.6894943520821758 
3.6800000000033415, -0.6894999741408203 
3.6900000000033626, -0.6898961582315002 
3.7000000000033837, -0.690846245266951 
3.710000000003405, -0.6925369281391988 
3.720000000003426, -0.6951644190363278 
3.730000000003447, -0.6989103358218198 
3.740000000003468, -0.7039014601980979 
3.750000000003489, -0.7101463089909336 
3.7600000000035103, -0.7174517177364584 
3.7700000000035314, -0.7253561914428832 
3.7800000000035525, -0.733160456399008 
3.7900000000035736, -0.7401173778329224 
3.8000000000035947, -0.7457045996169521 
3.810000000003616, -0.7497793212291324 
3.820000000003637, -0.752513668933247 
3.830000000003658, -0.7542154972129071 
3.840000000003679, -0.7551829273994628 
3.8500000000037002, -0.7556414076877527 
3.8600000000037213, -0.7557365631107139 
3.8700000000037424, -0.7555469619024736 
3.8800000000037635, -0.7550968174564194 
3.8900000000037847, -0.7543612928483849 
3.9000000000038058, -0.7532622340576499 
3.910000000003827, -0.7516531181134274 
3.920000000003848, -0.7492919894687318 
3.930000000003869, -0.7458035212847872 
3.94000000000389, -0.7406433061332824 
3.9500000000039113, -0.7331150891659878 
3.9600000000039324, -0.7225649103741931 
3.9700000000039535, -0.7088901620872591 
3.9800000000039746, -0.6931671522597254 
3.9900000000039957, -0.6776160564135227 
4.000000000004016, -0.6644975460790703 
4.010000000003993, -0.6549491516536174 
4.02000000000397, -0.6488357811053241 
4.030000000003946, -0.6453465283543445 
4.040000000003923, -0.6435796923769315 
4.0500000000039, -0.6428205731073897 
4.0600000000038765, -0.6425900002759127 
4.070000000003853, -0.6425981629813423 
4.08000000000383, -0.6426815951619148 
4.090000000003807, -0.6427517485279041 
4.100000000003783, -0.6427599310029571 
4.11000000000376, -0.6426756450073723 
4.120000000003737, -0.6424744845405298 
4.130000000003713, -0.642133143254995 
4.14000000000369, -0.6416306304897348 
4.150000000003667, -0.6409550502081875 
4.1600000000036434, -0.6401131778273587 
4.17000000000362, -0.6391365590182975 
4.180000000003597, -0.6380774681106388 
4.1900000000035735, -0.6369944305775261 
4.20000000000355, -0.6359354536666093 
4.210000000003527, -0.6349285479575 
4.220000000003504, -0.6339827178452764 
4.23000000000348, -0.6330958391918925 
4.240000000003457, -0.6322638471428547 
4.250000000003434, -0.6314875956765733 
4.26000000000341, -0.630776641473515 
4.270000000003387, -0.6301509735104418 
4.280000000003364, -0.6296419351502262 
4.2900000000033405, -0.6292929713722758 
4.300000000003317, -0.6291602133564862 
4.310000000003294, -0.6293126717254889 
4.320000000003271, -0.6298319052834659 
4.330000000003247, -0.6308111824102249 
4.340000000003224, -0.632353952518585 
4.350000000003201, -0.6345704474452563 
4.360000000003177, -0.6375691023210039 
4.370000000003154, -0.6414364575255419 
4.380000000003131, -0.6461973831966867 
4.390000000003107, -0.6517531551809582 
4.400000000003084, -0.6578179407220601 
4.410000000003061, -0.6639115297744842 
4.4200000000030375, -0.6694703857071609 
4.430000000003014, -0.6740494734628333 
4.440000000002991, -0.6774718469157379 
4.450000000002968, -0.6798174861973914 
4.460000000002944, -0.6813002671342996 
4.470000000002921, -0.682148492130023 
4.480000000002898, -0.6825434642415422 
4.490000000002874, -0.6826049992216516 
4.500000000002851, -0.6823966880353178 
4.510000000002828, -0.681932985146697 
4.520000000002804, -0.6811800091028839 
4.530000000002781, -0.6800461391474034 
4.540000000002758, -0.6783588734613601 
4.5500000000027345, -0.6758244390741595 
4.560000000002711, -0.6719730623347799 
4.570000000002688, -0.6661215572092638 
4.580000000002665, -0.6574559589520284 
4.590000000002641, -0.6454043224725959 
4.600000000002618, -0.6302938509262682 
4.610000000002595, -0.6137227735235594 
4.620000000002571, -0.5979548589262831 
4.630000000002548, -0.5847486591891233 
4.640000000002525, -0.5747533408561235 
4.6500000000025015, -0.5677342329992319 
4.660000000002478, -0.5630709059195146 
4.670000000002455, -0.5601079020193899 
4.6800000000024315, -0.5583028993540855 
4.690000000002408, -0.557255025940308 
4.700000000002385, -0.5566856809650127 
4.710000000002362, -0.5564083956873535 
4.720000000002338, -0.5563014225185108 
4.730000000002315, -0.5562865758440637 
4.740000000002292, -0.5563142663115987 
4.750000000002268, -0.5563537770767255 
4.760000000002245, -0.5563877949939986 
4.770000000002222, -0.5564101760431022 
4.7800000000021985, -0.5564254752113749 
4.790000000002175, -0.5564480115117685 
4.800000000002152, -0.5564980342380276 
4.810000000002129, -0.5565939766595415 
4.820000000002105, -0.5567426627364951 
4.830000000002082, -0.5569318619373536 
4.840000000002059, -0.5571298194473483 
4.850000000002035, -0.557293459296196 
4.860000000002012, -0.5573817506488671 
4.870000000001989, -0.5573669934091938 
4.880000000001965, -0.5572385789497682 
4.890000000001942, -0.5569996356740486 
4.900000000001919, -0.5566610631473639 
4.9100000000018955, -0.5562372383088725 
4.920000000001872, -0.5557455172679135 
