t, s[1].omega / s[0].omega 
0, -1.329994930073494 
0.009999999999999995, -1.3292929337519275 
0.019999999999999934, -1.328205424920511 
0.029999999999999874, -1.3267340555866873 
0.04000000000000012, -1.324881736703611 
0.050000000000000405, -1.3226532000365832 
0.06000000000000069, -1.3200557132385202 
0.07000000000000098, -1.317099889738744 
0.08000000000000126, -1.3138005269946378 
0.09000000000000155, -1.3101774074880423 
0.10000000000000184, -1.30625602427005 
0.11000000000000212, -1.302068269195107 
0.12000000000000241, -1.2976532489355872 
0.130000000000002, -1.29305851796048 
0.1400000000000009, -1.288342015321132 
0.1499999999999998, -1.283574710649736 
0.1599999999999987, -1.2788433299485653 
0.1699999999999976, -1.2742516781162372 
0.1799999999999965, -1.2699184120767848 
0.1899999999999954, -1.2659692397401268 
0.1999999999999943, -1.2625229048708966 
0.2099999999999932, -1.259672874914775 
0.2199999999999921, -1.2574693785018982 
0.229999999999991, -1.2559076855281388 
0.2399999999999899, -1.2549270258685055 
0.2499999999999888, -1.254420644819566 
0.2599999999999877, -1.2542532466641065 
0.2699999999999866, -1.2542798228990055 
0.2799999999999855, -1.254360494330049 
0.2899999999999844, -1.2543685532049786 
0.2999999999999833, -1.254191628394543 
0.3099999999999822, -1.2537275994892179 
0.3199999999999811, -1.2528773433104048 
0.32999999999998, -1.2515360572246725 
0.3399999999999789, -1.2495843375790656 
0.3499999999999778, -1.2468797826810527 
0.35999999999997667, -1.2432497922773527 
0.36999999999997557, -1.2384864435142946 
0.37999999999997447, -1.2323447327066794 
0.38999999999997337, -1.2245458976006844 
0.39999999999997227, -1.214787707035435 
0.40999999999997117, -1.2027632024458244 
0.41999999999997006, -1.188188140436694 
0.42999999999996896, -1.1708353217738594 
0.43999999999996786, -1.1505715461106165 
0.44999999999996676, -1.1273909723694588 
0.45999999999996566, -1.1014381407985712 
0.46999999999996456, -1.073015313873568 
0.47999999999996346, -1.0425717859943897 
0.48999999999996235, -1.0106763752159862 
0.49999999999996125, -0.9779773003840524 
0.5099999999999602, -0.9451553591015232 
0.519999999999959, -0.9128766623507479 
0.529999999999958, -0.8817504526601565 
0.5399999999999568, -0.852296124508848 
0.5499999999999557, -0.8249218043559149 
0.5599999999999546, -0.7999150114574098 
0.5699999999999535, -0.7774442856026255 
0.5799999999999524, -0.7575694839699096 
0.5899999999999513, -0.7402578631636446 
0.5999999999999502, -0.7254030646049987 
0.6099999999999491, -0.7128445637919062 
0.619999999999948, -0.7023858131181302 
0.6299999999999469, -0.6938100055589691 
0.6399999999999458, -0.6868929790982172 
0.6499999999999447, -0.6814132110037495 
0.6599999999999436, -0.6771591170020312 
0.6699999999999425, -0.6739340052598884 
0.6799999999999414, -0.6715590805496572 
0.6899999999999403, -0.6698748871800012 
0.6999999999999392, -0.6687415469985573 
0.7099999999999381, -0.6680381072503436 
0.719999999999937, -0.6676612705217059 
0.7299999999999359, -0.6675237387269753 
0.7399999999999348, -0.6675523660564926 
0.7499999999999337, -0.6676862821203553 
0.7599999999999326, -0.6678751160552542 
0.7699999999999315, -0.6680774246384951 
0.7799999999999304, -0.6682594013065668 
0.7899999999999293, -0.668393916279357 
0.7999999999999282, -0.6684599078235774 
0.8099999999999271, -0.6684421081923585 
0.819999999999926, -0.6683310438064229 
0.8299999999999249, -0.6681232004896924 
0.8399999999999238, -0.6678211992498102 
0.8499999999999227, -0.6674337996661338 
0.8599999999999216, -0.666975551572334 
0.8699999999999205, -0.6664659615026972 
0.8799999999999194, -0.6659281260947325 
0.8899999999999183, -0.6653868926229566 
0.8999999999999172, -0.6648667085934432 
0.9099999999999161, -0.6643893901668625 
0.919999999999915, -0.6639720585256994 
0.9299999999999139, -0.6636254679981705 
0.9399999999999128, -0.6633528969425506 
0.9499999999999117, -0.6631497107531161 
0.9599999999999106, -0.6630036456507183 
0.9699999999999095, -0.6628958005758058 
0.9799999999999084, -0.6628022560225534 
0.9899999999999073, -0.6626961622971258 
0.9999999999999062, -0.6625500677022427 
1.0099999999999052, -0.662338212804082 
1.019999999999904, -0.6620385231372174 
1.029999999999903, -0.661634097838728 
1.039999999999902, -0.661114102110687 
1.0499999999999008, -0.6604740960216381 
1.0599999999998997, -0.6597159365535895 
1.0699999999998986, -0.6588474507937208 
1.0799999999998975, -0.6578820907756313 
1.0899999999998964, -0.656838755262063 
1.0999999999998953, -0.6557419184892823 
1.1099999999998942, -0.6546221571317854 
1.119999999999893, -0.653517125067631 
1.129999999999892, -0.6524729947165953 
1.1399999999998909, -0.6515463624942677 
1.1499999999998898, -0.6508066002859615 
1.1599999999998887, -0.6503386199733395 
1.1699999999998876, -0.6502459992135862 
1.1799999999998865, -0.650654389266116 
1.1899999999998854, -0.6517150845703521 
1.1999999999998843, -0.6536085723863088 
1.2099999999998832, -0.6565477900144366 
1.219999999999882, -0.6607806849190877 
1.229999999999881, -0.666591485799866 
1.2399999999998799, -0.6742998392999229 
1.2499999999998788, -0.6842566492350007 
1.2599999999998777, -0.6968351051788806 
1.2699999999998766, -0.7124150948961854 
1.2799999999998755, -0.7313591400592753 
1.2899999999998744, -0.7539784654138414 
1.2999999999998733, -0.7804891736961542 
1.3099999999998722, -0.8109610549941474 
1.319999999999871, -0.8452652611225978 
1.32999999999987, -0.8830311468762209 
1.3399999999998689, -0.9236253189977887 
1.3499999999998678, -0.9661651190382179 
1.3599999999998666, -1.009572894266226 
1.3699999999998655, -1.0526672325025705 
1.3799999999998644, -1.0942763660098205 
1.3899999999998633, -1.1333519235324125 
1.3999999999998622, -1.1690612406013072 
1.4099999999998611, -1.2008431219121034 
1.41999999999986, -1.2284219761783481 
1.429999999999859, -1.2517847084220863 
1.4399999999998578, -1.2711310975588415 
1.4499999999998567, -1.2868108598506587 
1.4599999999998556, -1.299259716963092 
1.4699999999998545, -1.308943669387868 
1.4799999999998534, -1.316316619445784 
1.4899999999998523, -1.321792671023352 
1.4999999999998512, -1.325731654252779 
1.5099999999998501, -1.3284349661593773 
1.519999999999849, -1.3301485174607401 
1.529999999999848, -1.3310700241974822 
1.5399999999998468, -1.3313586448051589 
1.5499999999998457, -1.33114569690284 
1.5599999999998446, -1.3305456713289934 
1.5699999999998435, -1.3296668693658806 
1.5799999999998424, -1.328620691292635 
1.5899999999998413, -1.3275280177281052 
1.5999999999998402, -1.3265206139490402 
1.6099999999998391, -1.3257356789682726 
1.619999999999838, -1.3253031731837246 
1.629999999999837, -1.3253283722497542 
1.6399999999998358, -1.3258750061535551 
1.6499999999998347, -1.3269553264213245 
1.6599999999998336, -1.32853119454228 
1.6699999999998325, -1.3305256824040095 
1.6799999999998314, -1.3328404327467043 
1.6899999999998303, -1.3353725542798478 
1.6999999999998292, -1.3380264485064828 
1.709999999999828, -1.340719116105576 
1.719999999999827, -1.3433802337585505 
1.729999999999826, -1.3459495546774969 
1.7399999999998248, -1.3483739776391013 
1.7499999999998237, -1.3506056041759809 
1.7599999999998226, -1.352601015990785 
1.7699999999998215, -1.3543213396208742 
1.7799999999998204, -1.3557325206804334 
1.7899999999998193, -1.3568054219878336 
1.7999999999998182, -1.3575156313175587 
1.809999999999817, -1.3578430455457768 
1.819999999999816, -1.3577713489875232 
1.8299999999998149, -1.3572874703263682 
1.8399999999998138, -1.356381050166617 
1.8499999999998127, -1.3550439233264802 
1.8599999999998116, -1.3532696269534807 
1.8699999999998105, -1.3510529737426784 
1.8799999999998094, -1.3483897571370844 
1.8899999999998083, -1.3452766658733817 
1.8999999999998072, -1.3417114740194043 
1.909999999999806, -1.3376935467020308 
1.919999999999805, -1.3332246755262682 
1.9299999999998039, -1.3283102492732213 
1.9399999999998028, -1.32296079309579 
1.9499999999998017, -1.3171939845711196 
1.9599999999998006, -1.3110373655467256 
1.9699999999997995, -1.3045320535269667 
1.9799999999997984, -1.2977376876401976 
1.9899999999997973, -1.290738450959732 
1.9999999999997962, -1.2836491716132277 
2.0099999999998173, -1.2766193052471984 
2.0199999999998384, -1.2698314919259477 
2.0299999999998595, -1.2634912009066641 
2.0399999999998806, -1.2578056543561356 
2.0499999999999017, -1.252954048506021 
2.059999999999923, -1.2490558950854884 
2.069999999999944, -1.2461474016508198 
2.079999999999965, -1.2441745181689692 
2.089999999999986, -1.2430053161317618 
2.100000000000007, -1.2424567864529605 
2.1100000000000283, -1.242326295589181 
2.1200000000000494, -1.2424181191693127 
2.1300000000000705, -1.2425595030316272 
2.1400000000000916, -1.2426055238345732 
2.1500000000001127, -1.2424352160226955 
2.160000000000134, -1.2419423785439836 
2.170000000000155, -1.2410238687300092 
2.180000000000176, -1.2395670375009264 
2.190000000000197, -1.2374369578440803 
2.2000000000002182, -1.2344635451391623 
2.2100000000002393, -1.2304286215635114 
2.2200000000002604, -1.22505342530156 
2.2300000000002815, -1.217988003084504 
2.2400000000003026, -1.208805325911622 
2.2500000000003237, -1.1970046672315513 
2.260000000000345, -1.1820302905779407 
2.270000000000366, -1.1633118308823927 
2.280000000000387, -1.1403305063765128 
2.290000000000408, -1.1127091737586194 
2.3000000000004293, -1.0803142671846324 
2.3100000000004504, -1.0433465796721424 
2.3200000000004715, -1.002391352684218 
2.3300000000004926, -0.9584025182862305 
2.3400000000005137, -0.9126133020079928 
2.3500000000005348, -0.8663899681413616 
2.360000000000556, -0.8210653875569573 
2.370000000000577, -0.7777939299082809 
2.380000000000598, -0.7374574190314835 
2.390000000000619, -0.7006314057585096 
2.4000000000006403, -0.667602586744465 
2.4100000000006614, -0.6384185107576109 
2.4200000000006825, -0.6129501285552187 
2.4300000000007036, -0.5909526801214097 
2.4400000000007247, -0.5721168141938525 
2.450000000000746, -0.5561071341761835 
2.460000000000767, -0.5425887023541915 
2.470000000000788, -0.531243613490458 
2.480000000000809, -0.5217801500032869 
2.49000000000083, -0.5139368078435828 
2.5000000000008513, -0.5074830187034999 
2.5100000000008724, -0.5022179051559523 
2.5200000000008935, -0.4979679864604989 
2.5300000000009146, -0.4945844312480905 
2.5400000000009357, -0.49194022349716093 
2.550000000000957, -0.48992745259221987 
2.560000000000978, -0.48845483770878073 
2.570000000000999, -0.4874455348492844 
2.58000000000102, -0.4868352388676463 
2.5900000000010412, -0.48657057354868133 
2.6000000000010624, -0.486607753792551 
2.6100000000010835, -0.4869115007268092 
2.6200000000011046, -0.48745419001636947 
2.6300000000011257, -0.4882152135331856 
2.6400000000011468, -0.4891805332362796 
2.650000000001168, -0.4903424024075815 
2.660000000001189, -0.49169922256967463 
2.67000000000121, -0.49325549434100213 
2.680000000001231, -0.49502180772011456 
2.6900000000012523, -0.4970148030525741 
2.7000000000012734, -0.49925701978665316 
2.7100000000012945, -0.5017765373546991 
2.7200000000013156, -0.504606301445034 
2.7300000000013367, -0.5077830187052763 
2.740000000001358, -0.511345492567827 
2.750000000001379, -0.5153322641404847 
2.7600000000014, -0.5197784237669956 
2.770000000001421, -0.5247114911960452 
2.780000000001442, -0.5301463582076698 
2.7900000000014633, -0.5360794858116795 
2.8000000000014844, -0.5424828734809839 
2.8100000000015055, -0.5492987461904372 
2.8200000000015266, -0.5564363234797609 
2.8300000000015477, -0.5637722270531742 
2.840000000001569, -0.5711557859983505 
2.85000000000159, -0.5784195532973259 
2.860000000001611, -0.5853938937640906 
2.870000000001632, -0.5919230552238165 
2.8800000000016532, -0.5978793840827688 
2.8900000000016743, -0.6031727474652092 
2.9000000000016954, -0.60775365279987 
2.9100000000017165, -0.6116103564566471 
2.9200000000017377, -0.6147616558398945 
2.9300000000017588, -0.6172476247334024 
2.94000000000178, -0.6191203184883148 
2.950000000001801, -0.6204357911294561 
2.960000000001822, -0.621248013344357 
2.970000000001843, -0.6216047010293791 
2.9800000000018643, -0.621544731997591 
2.9900000000018854, -0.6210967061764722 
3.0000000000019065, -0.6202782147820155 
3.0100000000019276, -0.6190954548981319 
3.0200000000019487, -0.617542908482215 
3.03000000000197, -0.6156028712958436 
3.040000000001991, -0.6132446529197675 
3.050000000002012, -0.6104232625103829 
3.060000000002033, -0.60707732835076 
3.070000000002054, -0.6031258357352643 
3.0800000000020753, -0.5984629323731402 
3.0900000000020964, -0.5929493959364148 
3.1000000000021175, -0.5863981018164552 
3.1100000000021386, -0.5785484388958796 
3.1200000000021597, -0.5690201235713365 
3.130000000002181, -0.5572285547486506 
3.140000000002202, -0.5422290295660027 
3.150000000002223, -0.522432482120585 
3.160000000002244, -0.49510073764351265 
3.1700000000022652, -0.4555044735437158 
3.1800000000022863, -0.39571344042011874 
3.1900000000023074, -0.30354644025730704 
3.2000000000023285, -0.16410381269362673 
3.2100000000023496, 0.030254667108384106 
3.2200000000023707, 0.25984614855836924 
3.230000000002392, 0.4763803485706551 
3.240000000002413, 0.6388648108090393 
3.250000000002434, 0.7429613562540384 
3.260000000002455, 0.805014842407417 
3.2700000000024763, 0.8415179479364893 
3.2800000000024974, 0.8632943318841507 
3.2900000000025185, 0.8765556735400625 
3.3000000000025396, 0.8847515067543357 
3.3100000000025607, 0.8898107394172331 
3.3200000000025818, 0.8928347359686816 
3.330000000002603, 0.894466912341839 
3.340000000002624, 0.8950904143732649 
3.350000000002645, 0.8949365548222331 
3.360000000002666, 0.8941467847822858 
3.3700000000026873, 0.8928102537824092 
3.3800000000027084, 0.8909884221519625 
3.3900000000027295, 0.8887325867422861 
3.4000000000027506, 0.8860969767783743 
3.4100000000027717, 0.8831480830484856 
3.420000000002793, 0.8799696936662236 
3.430000000002814, 0.8766627321066695 
3.440000000002835, 0.8733395252399299 
3.450000000002856, 0.8701134217257157 
3.460000000002877, 0.8670861588437414 
3.4700000000028983, 0.8643362181726512 
3.4800000000029194, 0.8619110531014174 
3.4900000000029405, 0.8598246267117964 
3.5000000000029616, 0.8580598904392398 
3.5100000000029827, 0.856574482264207 
3.520000000003004, 0.8553074399827266 
3.530000000003025, 0.8541849938173313 
3.540000000003046, 0.8531241101785035 
3.550000000003067, 0.8520329938953428 
3.5600000000030882, 0.8508079610281487 
3.5700000000031094, 0.8493258385669399 
3.5800000000031305, 0.8474302088257315 
3.5900000000031516, 0.844908117016296 
3.6000000000031727, 0.84145063504084 
3.6100000000031938, 0.8365844481835333 
3.620000000003215, 0.8295492398555556 
3.630000000003236, 0.8190704318578429 
3.640000000003257, 0.8029254998342944 
3.650000000003278, 0.7771028315894889 
3.6600000000032993, 0.7341973633387909 
3.6700000000033204, 0.660654902035938 
3.6800000000033415, 0.5336560028714943 
3.6900000000033626, 0.3238259803723809 
3.7000000000033837, 0.01642990881586654 
3.710000000003405, -0.36128537227034957 
3.720000000003426, -0.7656721129351326 
3.730000000003447, -1.1768015632162516 
3.740000000003468, -1.578213672553932 
3.750000000003489, -1.9200160461661848 
3.7600000000035103, -2.157069092215106 
3.7700000000035314, -2.2963191881390115 
3.7800000000035525, -2.3719491925182576 
3.7900000000035736, -2.412474157247706 
3.8000000000035947, -2.434499781419312 
3.810000000003616, -2.446660804087509 
3.820000000003637, -2.453361238501862 
3.830000000003658, -2.4568850466653442 
3.840000000003679, -2.4584529331422127 
3.8500000000037002, -2.4587449864348527 
3.8600000000037213, -2.458166952965599 
3.8700000000037424, -2.456988080613042 
3.8800000000037635, -2.455401830657411 
3.8900000000037847, -2.453532507649501 
3.9000000000038058, -2.451421765485039 
3.910000000003827, -2.4490497713582 
3.920000000003848, -2.4464257731678294 
3.930000000003869, -2.4437126775804168 
3.94000000000389, -2.4412773842071154 
3.9500000000039113, -2.439553635758281 
3.9600000000039324, -2.438756645857351 
3.9700000000039535, -2.4387086053605493 
3.9800000000039746, -2.4389560291555568 
3.9900000000039957, -2.439014664682249 
4.000000000004016, -2.438492331168839 
4.010000000003993, -2.437045614370926 
4.02000000000397, -2.4342495622607627 
4.030000000003946, -2.429433089000363 
4.040000000003923, -2.42150558266143 
4.0500000000039, -2.4089142382819397 
4.0600000000038765, -2.390355357552106 
4.070000000003853, -2.36784788525031 
4.08000000000383, -2.3529518107023 
4.090000000003807, -2.367124945272389 
4.100000000003783, -2.420516376573863 
4.11000000000376, -2.493274841719059 
4.120000000003737, -2.5578941120942154 
4.130000000003713, -2.6038450714392884 
4.14000000000369, -2.6335517989483437 
4.150000000003667, -2.652230021647018 
4.1600000000036434, -2.6639403257970815 
4.17000000000362, -2.671234834224024 
4.180000000003597, -2.6756134328169447 
4.1900000000035735, -2.6779354083288895 
4.20000000000355, -2.678673213189362 
4.210000000003527, -2.6780485541696777 
4.220000000003504, -2.6760941044427784 
4.23000000000348, -2.6726638915291048 
4.240000000003457, -2.6673971267935155 
4.250000000003434, -2.6596284822100693 
4.26000000000341, -2.648245221862766 
4.270000000003387, -2.631566037397417 
4.280000000003364, -2.607584361565023 
4.2900000000033405, -2.5754996804817267 
4.300000000003317, -2.5393952104921467 
4.310000000003294, -2.510480086448708 
4.320000000003271, -2.499095389593588 
4.330000000003247, -2.5033390448782065 
4.340000000003224, -2.5134874114963135 
4.350000000003201, -2.5227122054304623 
4.360000000003177, -2.529038522572861 
4.370000000003154, -2.532725346900337 
4.380000000003131, -2.534461189717214 
4.390000000003107, -2.5347981545128486 
4.400000000003084, -2.5341102199962475 
4.410000000003061, -2.532708744553985 
4.4200000000030375, -2.531003195199481 
4.430000000003014, -2.529614484424777 
4.440000000002991, -2.529261328344562 
4.450000000002968, -2.530348417080406 
4.460000000002944, -2.532632376617853 
4.470000000002921, -2.535417719436916 
4.480000000002898, -2.5380594118986646 
4.490000000002874, -2.5402390774418375 
4.500000000002851, -2.5419089112154016 
4.510000000002828, -2.5431126398481663 
4.520000000002804, -2.5438535139303977 
4.530000000002781, -2.544050717051735 
4.540000000002758, -2.543541407428903 
4.5500000000027345, -2.5420678953176807 
4.560000000002711, -2.5392115447909576 
4.570000000002688, -2.534244454544338 
4.580000000002665, -2.5258375119582754 
4.590000000002641, -2.5114754858339023 
4.600000000002618, -2.4862513903408687 
4.610000000002595, -2.4404135548017383 
4.620000000002571, -2.3549695019593084 
4.630000000002548, -2.1973159256414028 
4.640000000002525, -1.9307062583098238 
4.6500000000025015, -1.5566354287811852 
4.660000000002478, -1.1378036290236428 
4.670000000002455, -0.7347102385227537 
4.6800000000024315, -0.3683760557497054 
4.690000000002408, -0.05259479133496194 
4.700000000002385, 0.19291876250590997 
4.710000000002362, 0.3635889447133611 
4.720000000002338, 0.47319755450897766 
4.730000000002315, 0.5412154282523534 
4.740000000002292, 0.5833712858833948 
4.750000000002268, 0.6099089639876584 
4.760000000002245, 0.6269692021847324 
4.770000000002222, 0.6381556485558607 
4.7800000000021985, 0.6455995310774508 
4.790000000002175, 0.6505879751260847 
4.800000000002152, 0.6539194380175951 
4.810000000002129, 0.656104249660335 
4.820000000002105, 0.6574795910401714 
4.830000000002082, 0.6582772336760443 
4.840000000002059, 0.6586649954914515 
4.850000000002035, 0.6587735167259555 
4.860000000002012, 0.6587149434244473 
4.870000000001989, 0.6585973523812757 
4.880000000001965, 0.6585371130600204 
4.890000000001942, 0.6586701755063482 
4.900000000001919, 0.6591620254792702 
4.9100000000018955, 0.6602144107066192 
4.920000000001872, 0.6620647991751368 
4.930000000001849, 0.6649723629716686 
4.940000000001826, 0.6691837270544707 
4.950000000001802, 0.6748757410945131 
