t, s[1].omega / s[0].omega 
0, -0.6699977042809646 
0.009999999999999995, -0.6697728321363392 
0.019999999999999934, -0.6695482354197656 
0.029999999999999874, -0.6693014731548563 
0.04000000000000012, -0.6690074733625997 
0.050000000000000405, -0.6686493547730498 
0.06000000000000069, -0.6682244659095875 
0.07000000000000098, -0.6677454675302842 
0.08000000000000126, -0.6672398958350606 
0.09000000000000155, -0.6667518582392918 
0.10000000000000184, -0.6663476638223437 
0.11000000000000212, -0.6661252853265582 
0.12000000000000241, -0.6662262111124888 
0.130000000000002, -0.666847262771058 
0.1400000000000009, -0.6682492199874777 
0.1499999999999998, -0.6707585461681085 
0.1599999999999987, -0.6747572923438563 
0.1699999999999976, -0.6806521813533083 
0.1799999999999965, -0.6888049287421749 
0.1899999999999954, -0.6993965404684134 
0.1999999999999943, -0.7122127696987436 
0.2099999999999932, -0.7264237129716183 
0.2199999999999921, -0.740584086956543 
0.229999999999991, -0.7530810269085001 
0.2399999999999899, -0.762838086167765 
0.2499999999999888, -0.7696760809188297 
0.2599999999999877, -0.7740786885673904 
0.2699999999999866, -0.7767325311146539 
0.2799999999999855, -0.7782277477473439 
0.2899999999999844, -0.7789720316706104 
0.2999999999999833, -0.7792114659716437 
0.3099999999999822, -0.779073247622885 
0.3199999999999811, -0.7785966256980459 
0.32999999999998, -0.777744461948656 
0.3399999999999789, -0.7763941279864635 
0.3499999999999778, -0.7743044316701646 
0.35999999999997667, -0.7710509599492053 
0.36999999999997557, -0.7659211153521939 
0.37999999999997447, -0.7577792883843972 
0.38999999999997337, -0.7450042044378947 
0.39999999999997227, -0.7258386246679367 
0.40999999999997117, -0.6996638039479797 
0.41999999999997006, -0.6687899330528152 
0.42999999999996896, -0.6383651656725755 
0.43999999999996786, -0.6132763460320623 
0.44999999999996676, -0.5954421156585749 
0.45999999999996566, -0.5840945987566231 
0.46999999999996456, -0.5774399941986254 
0.47999999999996346, -0.5737912778230586 
0.48999999999996235, -0.5719254421364058 
0.49999999999996125, -0.5710574435830325 
0.5099999999999602, -0.5707157260299779 
0.519999999999959, -0.5706280457528329 
0.529999999999958, -0.5706406524804318 
0.5399999999999568, -0.5706667782715821 
0.5499999999999557, -0.5706557768297118 
0.5599999999999546, -0.5705759942549862 
0.5699999999999535, -0.5704070803558081 
0.5799999999999524, -0.570139191064929 
0.5899999999999513, -0.5697765490817586 
0.5999999999999502, -0.5693411615128111 
0.6099999999999491, -0.5688712376543236 
0.619999999999948, -0.5684113411374088 
0.6299999999999469, -0.5679974614087626 
0.6399999999999458, -0.5676446172643625 
0.6499999999999447, -0.5673432251412418 
0.6599999999999436, -0.5670653701139534 
0.6699999999999425, -0.5667772224358388 
0.6799999999999414, -0.5664513282414124 
0.6899999999999403, -0.5660737634689446 
0.6999999999999392, -0.5656454916398005 
0.7099999999999381, -0.5651811480247704 
0.719999999999937, -0.5647093757486298 
0.7299999999999359, -0.5642777607172643 
0.7399999999999348, -0.5639645196476386 
0.7499999999999337, -0.5638993318709375 
0.7599999999999326, -0.56429680009938 
0.7699999999999315, -0.5655071051939322 
0.7799999999999304, -0.568087488052882 
0.7899999999999293, -0.5728895668097114 
0.7999999999999282, -0.5811264886237216 
0.8099999999999271, -0.5943037792659418 
0.819999999999926, -0.613765449315596 
0.8299999999999249, -0.639609972415266 
0.8399999999999238, -0.6694099694278812 
0.8499999999999227, -0.6984193540755876 
0.8599999999999216, -0.7221861482198458 
0.8699999999999205, -0.7390341672371362 
0.8799999999999194, -0.7498517879138735 
0.8899999999999183, -0.7564216176503932 
0.8999999999999172, -0.7603012443857463 
0.9099999999999161, -0.762544298853158 
0.919999999999915, -0.7637885789821083 
0.9299999999999139, -0.7643983719571633 
0.9399999999999128, -0.7645683488498447 
0.9499999999999117, -0.7643831186631663 
0.9599999999999106, -0.7638432785120423 
0.9699999999999095, -0.7628657075639584 
0.9799999999999084, -0.7612604645973324 
0.9899999999999073, -0.7586855478271182 
0.9999999999999062, -0.7545933815978121 
1.0099999999999052, -0.7482260296406779 
1.019999999999904, -0.738787609245923 
1.029999999999903, -0.7259099275312072 
1.039999999999902, -0.7102157956991885 
1.0499999999999008, -0.6933739467274466 
1.0599999999998997, -0.6773710717599506 
1.0699999999998986, -0.6636422424878493 
1.0799999999998975, -0.6527603287503789 
1.0899999999998964, -0.6446410456835631 
1.0999999999998953, -0.6388739882775277 
1.1099999999998942, -0.6349588433597391 
1.119999999999893, -0.632424614066927 
1.129999999999892, -0.6308750199251263 
1.1399999999998909, -0.629997827970622 
1.1499999999998898, -0.6295586304120706 
1.1599999999998887, -0.6293884562600403 
1.1699999999998876, -0.6293696355532168 
1.1799999999998865, -0.6294224367749811 
1.1899999999998854, -0.6294941430556311 
1.1999999999998843, -0.6295515965206737 
1.2099999999998832, -0.6295774660882317 
1.219999999999882, -0.6295692684340463 
1.229999999999881, -0.6295385631041499 
1.2399999999998799, -0.6295069103208988 
1.2499999999998788, -0.6294968398994991 
1.2599999999998777, -0.6295200874204444 
1.2699999999998766, -0.6295687250164115 
1.2799999999998755, -0.629614606126447 
1.2899999999998744, -0.6296184229802185 
1.2999999999998733, -0.629543818761637 
1.3099999999998722, -0.6293687792168429 
1.319999999999871, -0.6290894087847959 
1.32999999999987, -0.6287175644193421 
1.3399999999998689, -0.6282776283953279 
1.3499999999998678, -0.6278071418828776 
1.3599999999998666, -0.6273639498314191 
1.3699999999998655, -0.6270414533676469 
1.3799999999998644, -0.6269936944590173 
1.3899999999998633, -0.6274722303021677 
1.3999999999998622, -0.628875668454505 
1.4099999999998611, -0.6318080718002763 
1.41999999999986, -0.6371293059355232 
1.429999999999859, -0.6459490429944748 
1.4399999999998578, -0.6594570239540916 
1.4499999999998567, -0.6784261591966562 
1.4599999999998556, -0.7023445935484895 
1.4699999999998545, -0.728700749929236 
1.4799999999998534, -0.7535552161119949 
1.4899999999998523, -0.7735876473945672 
1.4999999999998512, -0.7877049775023021 
1.5099999999998501, -0.7967361404248553 
1.519999999999849, -0.8021748246635141 
1.529999999999848, -0.8053278832314547 
1.5399999999998468, -0.807086074498668 
1.5499999999998457, -0.8079877571259827 
1.5599999999998446, -0.8083341239511176 
1.5699999999998435, -0.8082751438873492 
1.5799999999998424, -0.8078569074525372 
1.5899999999998413, -0.8070368138914317 
1.5999999999998402, -0.805670033384256 
1.6099999999998391, -0.8034636382234364 
1.619999999999838, -0.7998898556899131 
1.629999999999837, -0.79405943797804 
1.6399999999998358, -0.7846162116244855 
1.6499999999998347, -0.7698793342848369 
1.6599999999998336, -0.7486413869351459 
1.6699999999998325, -0.7216376079400466 
1.6799999999998314, -0.6923147437021245 
1.6899999999998303, -0.6652890929000473 
1.6999999999998292, -0.6437354271456851 
1.709999999999828, -0.6283893857266251 
1.719999999999827, -0.618351170440717 
1.729999999999826, -0.6122046762784158 
1.7399999999998248, -0.6086561745821577 
1.7499999999998237, -0.6067333476802738 
1.7599999999998226, -0.605774684488216 
1.7699999999998215, -0.6053564325060801 
1.7799999999998204, -0.6052179322345366 
1.7899999999998193, -0.6052029672868924 
1.7999999999998182, -0.6052185868973216 
1.809999999999817, -0.6052083049703635 
1.819999999999816, -0.605136266778668 
1.8299999999998149, -0.604979860738254 
1.8399999999998138, -0.604728822798201 
1.8499999999998127, -0.6043881605902381 
1.8599999999998116, -0.6039803881300211 
1.8699999999998105, -0.6035419556594943 
1.8799999999998094, -0.6031121826057056 
1.8899999999998083, -0.6027190734419922 
1.8999999999998072, -0.6023695461200094 
1.909999999999806, -0.6020490522252135 
1.919999999999805, -0.6017301108270503 
1.9299999999998039, -0.601384759397621 
1.9399999999998028, -0.6009947486164319 
1.9499999999998017, -0.6005561726446625 
1.9599999999998006, -0.6000797661610417 
1.9699999999997995, -0.5995906670685369 
1.9799999999997984, -0.5991311275200617 
1.9899999999997973, -0.5987682527727812 
1.9999999999997962, -0.5986079512573725 
2.0099999999998173, -0.598816072384973 
2.0199999999998384, -0.5996475837769747 
2.0299999999998595, -0.6014836785642366 
2.0399999999998806, -0.6048731429543511 
2.0499999999999017, -0.610563944279311 
2.059999999999923, -0.6194854555259555 
2.069999999999944, -0.6325932902146265 
2.079999999999965, -0.6504441439319779 
2.089999999999986, -0.6724713427408148 
2.100000000000007, -0.6964072423096332 
2.1100000000000283, -0.7188035113276726 
2.1200000000000494, -0.7367956206581971 
2.1300000000000705, -0.7494742940284136 
2.1400000000000916, -0.7576029058567133 
2.1500000000001127, -0.7625156005660908 
2.160000000000134, -0.7653742386993506 
2.170000000000155, -0.7669702941613767 
2.180000000000176, -0.7677822545010616 
2.190000000000197, -0.7680770960759484 
2.2000000000002182, -0.7679852650478897 
2.2100000000002393, -0.7675409811545173 
2.2200000000002604, -0.766693121924598 
2.2300000000002815, -0.7652890908245765 
2.2400000000003026, -0.7630283676108182 
2.2500000000003237, -0.7593814223905258 
2.260000000000345, -0.753489787895014 
2.270000000000366, -0.7441404998996949 
2.280000000000387, -0.7300565563870811 
2.290000000000408, -0.7107527039394146 
2.3000000000004293, -0.6875694499097679 
2.3100000000004504, -0.6636089123878226 
2.3200000000004715, -0.6421342412800837 
2.3300000000004926, -0.6250115555128307 
2.3400000000005137, -0.6125004264641747 
2.3500000000005348, -0.6039234013245094 
2.360000000000556, -0.5983281215142109 
2.370000000000577, -0.5948369003398608 
2.380000000000598, -0.592759611939643 
2.390000000000619, -0.5915955738357901 
2.4000000000006403, -0.5909988315045155 
2.4100000000006614, -0.5907383723039008 
2.4200000000006825, -0.5906638041676675 
2.4300000000007036, -0.5906788883032269 
2.4400000000007247, -0.5907226640160862 
2.450000000000746, -0.5907572699623214 
2.460000000000767, -0.5907614856757495 
2.470000000000788, -0.5907286885718029 
2.480000000000809, -0.5906669035227772 
2.49000000000083, -0.5905973904361599 
2.5000000000008513, -0.5905484727895204 
2.5100000000008724, -0.5905443439360438 
2.5200000000008935, -0.5905928519566033 
2.5300000000009146, -0.5906784123421545 
2.5400000000009357, -0.5907645781923071 
2.550000000000957, -0.5908059846073145 
2.560000000000978, -0.5907636331588171 
2.570000000000999, -0.5906153610344849 
2.58000000000102, -0.5903576533048513 
2.5900000000010412, -0.5900016248716238 
2.6000000000010624, -0.5895689373163491 
2.6100000000010835, -0.5890921437737726 
2.6200000000011046, -0.5886220229318391 
2.6300000000011257, -0.5882442248249936 
2.6400000000011468, -0.5881090401906485 
2.650000000001168, -0.5884803699423191 
2.660000000001189, -0.5898113172764753 
2.67000000000121, -0.592849692247352 
2.680000000001231, -0.598754157549568 
2.6900000000012523, -0.6091316413402965 
2.7000000000012734, -0.6257582292064032 
2.7100000000012945, -0.6496213303830212 
2.7200000000013156, -0.679349688309693 
2.7300000000013367, -0.7105381060034832 
2.740000000001358, -0.7378371917034916 
2.750000000001379, -0.7582216992224876 
2.7600000000014, -0.7718005227237545 
2.770000000001421, -0.7802537311872989 
2.780000000001442, -0.7853359763351786 
2.7900000000014633, -0.7883295655200422 
2.8000000000014844, -0.7900462649560868 
2.8100000000015055, -0.7909662546877105 
2.8200000000015266, -0.7913593163577339 
2.8300000000015477, -0.7913616836697954 
2.840000000001569, -0.7910158460228688 
2.85000000000159, -0.7902822831546927 
2.860000000001611, -0.7890269391892948 
2.870000000001632, -0.7869841079137172 
2.8800000000016532, -0.7836976420190829 
2.8900000000016743, -0.7784681129800987 
2.9000000000016954, -0.7703983139984689 
2.9100000000017165, -0.7587013364923549 
2.9200000000017377, -0.7433206367425863 
2.9300000000017588, -0.7254392559232403 
2.94000000000178, -0.7071930109312402 
2.950000000001801, -0.6906670286140134 
2.960000000001822, -0.6770957342228063 
2.970000000001843, -0.6667735443122815 
2.9800000000018643, -0.6593904138138931 
2.9900000000018854, -0.6543859497964819 
3.0000000000019065, -0.6511694764187536 
3.0100000000019276, -0.6492217073116461 
3.0200000000019487, -0.6481279123598427 
3.03000000000197, -0.6475778409338651 
3.040000000001991, -0.6473511107367917 
3.050000000002012, -0.6472975681931847 
3.060000000002033, -0.6473178154742794 
3.070000000002054, -0.647346852482033 
3.0800000000020753, -0.6473423823491281 
3.0900000000020964, -0.6472783483475053 
3.1000000000021175, -0.6471432213495628 
3.1100000000021386, -0.6469409143354785 
3.1200000000021597, -0.6466903883946146 
3.130000000002181, -0.6464200797914763 
3.140000000002202, -0.6461568664134655 
3.150000000002223, -0.6459142771902509 
3.160000000002244, -0.64568645089601 
3.1700000000022652, -0.645451308927816 
3.1800000000022863, -0.6451809944562032 
3.1900000000023074, -0.6448536292732985 
3.2000000000023285, -0.6444607813746476 
3.2100000000023496, -0.6440093576814896 
3.2200000000023707, -0.6435209078823567 
3.230000000002392, -0.6430323918064895 
3.240000000002413, -0.6426010308339628 
3.250000000002434, -0.6423141165465392 
3.260000000002455, -0.6423035116601106 
3.2700000000024763, -0.6427637432823934 
3.2800000000024974, -0.6439715464865203 
3.2900000000025185, -0.6463030367918285 
3.3000000000025396, -0.6502413733607723 
3.3100000000025607, -0.6563602714440557 
3.3200000000025818, -0.6652535204782161 
3.330000000002603, -0.6773607196696123 
3.340000000002624, -0.6926468920139781 
3.350000000002645, -0.7102123321496238 
3.360000000002666, -0.7281760080430011 
3.3700000000026873, -0.7442594215020423 
3.3800000000027084, -0.7568604127088521 
3.3900000000027295, -0.7656578273394283 
3.4000000000027506, -0.7712908106968058 
3.4100000000027717, -0.7746850017961944 
3.420000000002793, -0.7766265314462155 
3.430000000002814, -0.7776512422531294 
3.440000000002835, -0.7780819527523296 
3.450000000002856, -0.7780917239609548 
3.460000000002877, -0.7777493880735812 
3.4700000000028983, -0.7770399761345026 
3.4800000000029194, -0.7758605146259709 
3.4900000000029405, -0.773988569889037 
3.5000000000029616, -0.7710150931322002 
3.5100000000029827, -0.7662315889560996 
3.520000000003004, -0.7584856414182937 
3.530000000003025, -0.7461250315871978 
3.540000000003046, -0.7273906730271891 
3.550000000003067, -0.7017065931523203 
3.5600000000030882, -0.671315131895827 
3.5700000000031094, -0.6410448699872536 
3.5800000000031305, -0.6154860787951157 
3.5900000000031516, -0.596619172823688 
3.6000000000031727, -0.583993154995613 
3.6100000000031938, -0.576112724498728 
3.620000000003215, -0.5714518053840335 
3.630000000003236, -0.5688294122814799 
3.640000000003257, -0.5674374973673537 
3.650000000003278, -0.566758024789261 
3.6600000000032993, -0.5664714413852262 
3.6700000000033204, -0.5663852851896233 
3.6800000000033415, -0.5663849650998017 
3.6900000000033626, -0.566401998549574 
3.7000000000033837, -0.5663948058966961 
3.710000000003405, -0.5663385252459986 
3.720000000003426, -0.5662214421699484 
3.730000000003447, -0.5660456972889186 
3.740000000003468, -0.5658288244199154 
3.750000000003489, -0.5656017169175678 
3.7600000000035103, -0.5654002065556841 
3.7700000000035314, -0.5652519788381948 
3.7800000000035525, -0.5651646618095144 
3.7900000000035736, -0.5651211929020161 
3.8000000000035947, -0.565085201273053 
3.810000000003616, -0.5650140889558797 
3.820000000003637, -0.5648731328407621 
3.830000000003658, -0.5646437792000131 
3.840000000003679, -0.5643242323341369 
3.8500000000037002, -0.5639258812137622 
3.8600000000037213, -0.5634707145416825 
3.8700000000037424, -0.562993446399363 
3.8800000000037635, -0.5625507454487529 
3.8900000000037847, -0.5622403331711243 
3.9000000000038058, -0.5622346559368464 
3.910000000003827, -0.5628364915529861 
3.920000000003848, -0.564565166204934 
3.930000000003869, -0.5682753289674303 
3.94000000000389, -0.5752758805706666 
3.9500000000039113, -0.5873136132261141 
3.9600000000039324, -0.606093222508344 
3.9700000000039535, -0.6319651405991618 
3.9800000000039746, -0.6623128266233029 
3.9900000000039957, -0.6918594531100609 
4.000000000004016, -0.7158818040804173 
4.010000000003993, -0.732857619894422 
4.02000000000397, -0.7438604425446635 
4.030000000003946, -0.7506932170573883 
4.040000000003923, -0.7548561019295856 
4.0500000000039, -0.7573571391486487 
4.0600000000038765, -0.7588191924685437 
4.070000000003853, -0.7596117675575895 
4.08000000000383, -0.7599441584102952 
4.090000000003807, -0.7599205831549602 
4.100000000003783, -0.7595673536948834 
4.11000000000376, -0.7588391049515721 
4.120000000003737, -0.75760750636463 
4.130000000003713, -0.7556359173234042 
4.14000000000369, -0.7525529217081071 
4.150000000003667, -0.7478643148663001 
4.1600000000036434, -0.7410776149680849 
4.17000000000362, -0.7319859043864037 
4.180000000003597, -0.720976705212791 
4.1900000000035735, -0.7090465583663169 
4.20000000000355, -0.6974059428227487 
4.210000000003527, -0.6870040396192751 
4.220000000003504, -0.6783258877507748 
4.23000000000348, -0.6714628013199615 
4.240000000003457, -0.6662731608963802 
4.250000000003434, -0.6625127652969307 
4.26000000000341, -0.6599107090533642 
4.270000000003387, -0.6582070120421614 
4.280000000003364, -0.6571702820346561 
4.2900000000033405, -0.6566056712316517 
4.300000000003317, -0.6563571507834406 
4.310000000003294, -0.6563055826383778 
4.320000000003271, -0.6563638459660985 
4.330000000003247, -0.6564707134254437 
4.340000000003224, -0.6565853041637095 
4.350000000003201, -0.6566834456598832 
4.360000000003177, -0.6567560839189668 
4.370000000003154, -0.656808164596771 
4.380000000003131, -0.6568551275129676 
4.390000000003107, -0.6569149720428462 
4.400000000003084, -0.6569972344471823 
4.410000000003061, -0.6570938718112888 
4.4200000000030375, -0.6571777029884365 
4.430000000003014, -0.6572104735093108 
4.440000000002991, -0.6571565892714003 
4.450000000002968, -0.6569947462817383 
4.460000000002944, -0.656722106593904 
4.470000000002921, -0.6563521273665041 
4.480000000002898, -0.6559113303751456 
4.490000000002874, -0.6554398789005542 
4.500000000002851, -0.6549985356844081 
4.510000000002828, -0.6546830569704296 
4.520000000002804, -0.6546465143778728 
4.530000000002781, -0.6551293217418069 
4.540000000002758, -0.6564947465709373 
4.5500000000027345, -0.6592633009457006 
4.560000000002711, -0.6641305885035667 
4.570000000002688, -0.6719357733882922 
4.580000000002665, -0.6835185730472648 
4.590000000002641, -0.6993794024986211 
4.600000000002618, -0.719126029083044 
4.610000000002595, -0.7409913370020611 
4.620000000002571, -0.7620869446834614 
4.630000000002548, -0.7796874045111445 
4.640000000002525, -0.7925467754451899 
4.6500000000025015, -0.8010158253254479 
4.660000000002478, -0.8062098929109709 
4.670000000002455, -0.8092435085715953 
4.6800000000024315, -0.8109301147577306 
4.690000000002408, -0.8117800314171143 
4.700000000002385, -0.8120841074974475 
4.710000000002362, -0.81198812007791 
4.720000000002338, -0.8115367655436041 
4.730000000002315, -0.8106887785058856 
4.740000000002292, -0.8093054887732197 
4.750000000002268, -0.8071096530958932 
4.760000000002245, -0.8036059309432277 
4.770000000002222, -0.7979573773453527 
4.7800000000021985, -0.7888506610039463 
4.790000000002175, -0.7745175311069543 
4.800000000002152, -0.7533279511765231 
4.810000000002129, -0.7253061367158455 
4.820000000002105, -0.693605326635196 
4.830000000002082, -0.6635766464156252 
4.840000000002059, -0.6395266880068714 
4.850000000002035, -0.6227365072000466 
4.860000000002012, -0.6121737526631218 
4.870000000001989, -0.6060447145079981 
4.880000000001965, -0.6027364183848244 
4.890000000001942, -0.6010904840417577 
4.900000000001919, -0.6003636048965753 
4.9100000000018955, -0.6001093643172434 
4.920000000001872, -0.6000708420989332 
