t, s[1].omega / s[0].omega 
0, -1.5601539590085358 
0.009999999999999995, -1.573336981249702 
0.019999999999999934, -1.5817178888900947 
0.029999999999999874, -1.586358842272335 
0.04000000000000012, -1.588689300998634 
0.050000000000000405, -1.5897017517313754 
0.06000000000000069, -1.5899655540291155 
0.07000000000000098, -1.5897899643271804 
0.08000000000000126, -1.5893624154279884 
0.09000000000000155, -1.5888448906310437 
0.10000000000000184, -1.5884106128628217 
0.11000000000000212, -1.5881944173707683 
0.12000000000000241, -1.5882208342807722 
0.130000000000002, -1.588418539380312 
0.1400000000000009, -1.5886820388338947 
0.1499999999999998, -1.5888987084839883 
0.1599999999999987, -1.588957778830522 
0.1699999999999976, -1.588755255640711 
0.1799999999999965, -1.58818019127686 
0.1899999999999954, -1.587087606177233 
0.1999999999999943, -1.585274161389787 
0.2099999999999932, -1.5824687831583657 
0.2199999999999921, -1.5783606843457316 
0.229999999999991, -1.5727331103316848 
0.2399999999999899, -1.5658334098809452 
0.2499999999999888, -1.5589248931026627 
0.2599999999999877, -1.5540858788530385 
0.2699999999999866, -1.552356120688279 
0.2799999999999855, -1.5526720581523985 
0.2899999999999844, -1.553476903291512 
0.2999999999999833, -1.5540170631052272 
0.3099999999999822, -1.5541448118795749 
0.3199999999999811, -1.5538764028908472 
0.32999999999998, -1.553199599244594 
0.3399999999999789, -1.5520505655608416 
0.3499999999999778, -1.5504534949088913 
0.35999999999997667, -1.5489809123451386 
0.36999999999997557, -1.5493266388656146 
0.37999999999997447, -1.5534148545292896 
0.38999999999997337, -1.5608266465377487 
0.39999999999997227, -1.5689229450892737 
0.40999999999997117, -1.5756162546006038 
0.41999999999997006, -1.5803303414779557 
0.42999999999996896, -1.5833136066370745 
0.43999999999996786, -1.58500932893538 
0.44999999999996676, -1.5858081159495023 
0.45999999999996566, -1.58599502130718 
0.46999999999996456, -1.5857633728934482 
0.47999999999996346, -1.585249443392747 
0.48999999999996235, -1.584569945748592 
0.49999999999996125, -1.583843316557879 
0.5099999999999602, -1.58318162717126 
0.519999999999959, -1.5826729680855542 
0.529999999999958, -1.5823700890150767 
0.5399999999999568, -1.5822591391696579 
0.5499999999999557, -1.5822363767927703 
0.5599999999999546, -1.5821491800728926 
0.5699999999999535, -1.5818459585510922 
0.5799999999999524, -1.5811626451306855 
0.5899999999999513, -1.579853726809288 
0.5999999999999502, -1.5774931388310023 
0.6099999999999491, -1.5733620604352594 
0.619999999999948, -1.5664066201485523 
0.6299999999999469, -1.5555871283911393 
0.6399999999999458, -1.5412710831138374 
0.6499999999999447, -1.5273299706877232 
0.6599999999999436, -1.5195972447714405 
0.6699999999999425, -1.519190082886897 
0.6799999999999414, -1.5219767627271468 
0.6899999999999403, -1.524589532659358 
0.6999999999999392, -1.5261575988754472 
0.7099999999999381, -1.5268576759995764 
0.719999999999937, -1.5269733858542414 
0.7299999999999359, -1.5266764136071784 
0.7399999999999348, -1.5260510849522897 
0.7499999999999337, -1.5252018192003942 
0.7599999999999326, -1.5244495456416507 
0.7699999999999315, -1.5244938106584676 
0.7799999999999304, -1.5260735111942954 
0.7899999999999293, -1.529154394403049 
0.7999999999999282, -1.5328657721170666 
0.8099999999999271, -1.5363192235255974 
0.819999999999926, -1.53907732850671 
0.8299999999999249, -1.5410563306256182 
0.8399999999999238, -1.54232522789779 
0.8499999999999227, -1.5429931699906874 
0.8599999999999216, -1.5431664152401179 
0.8699999999999205, -1.542935711464345 
0.8799999999999194, -1.5423768184942186 
0.8899999999999183, -1.5415598250837719 
0.8999999999999172, -1.5405635445090151 
0.9099999999999161, -1.539487745970403 
0.919999999999915, -1.5384600888944437 
0.9299999999999139, -1.5376306172601522 
0.9399999999999128, -1.5371165231435713 
0.9499999999999117, -1.536905132336902 
0.9599999999999106, -1.536841297137546 
0.9699999999999095, -1.5367290193624161 
0.9799999999999084, -1.536401010522615 
0.9899999999999073, -1.535686742339425 
0.9999999999999062, -1.5343190438580732 
1.0099999999999052, -1.53180161221309 
1.019999999999904, -1.5272397463173477 
1.029999999999903, -1.5192472846532046 
1.039999999999902, -1.506452065898222 
1.0499999999999008, -1.4896193756481355 
1.0599999999998997, -1.4744149484582283 
1.0699999999998986, -1.4680568221645087 
1.0799999999998975, -1.4704444881557166 
1.0899999999998964, -1.475645765651143 
1.0999999999998953, -1.4797783519826362 
1.1099999999998942, -1.4821924400157191 
1.119999999999893, -1.4833572562075479 
1.129999999999892, -1.4837513064070247 
1.1399999999998909, -1.4836588323089213 
1.1499999999998898, -1.483223032890994 
1.1599999999998887, -1.482544720580925 
1.1699999999998876, -1.4818201062730814 
1.1799999999998865, -1.4814907602405358 
1.1899999999998854, -1.4821689870628154 
1.1999999999998843, -1.4841399928092933 
1.2099999999998832, -1.4870036908313917 
1.219999999999882, -1.4900384458120068 
1.229999999999881, -1.4927151344439105 
1.2399999999998799, -1.4948113115904804 
1.2499999999998788, -1.4962947586846242 
1.2599999999998777, -1.4972126368440557 
1.2699999999998766, -1.4976355416859968 
1.2799999999998755, -1.4976353326603626 
1.2899999999998744, -1.4972779319544762 
1.2999999999998733, -1.4966242808906798 
1.3099999999998722, -1.4957382340795768 
1.319999999999871, -1.4946982184037148 
1.32999999999987, -1.4936063375691784 
1.3399999999998689, -1.4925916837830904 
1.3499999999998678, -1.4917972954424348 
1.3599999999998666, -1.4913204000774005 
1.3699999999998655, -1.491130330275104 
1.3799999999998644, -1.4910727602202156 
1.3899999999998633, -1.4909636441131089 
1.3999999999998622, -1.4906461109513234 
1.4099999999998611, -1.489960734124697 
1.41999999999986, -1.4886660271008347 
1.429999999999859, -1.4863315098005074 
1.4399999999998578, -1.4822099672272853 
1.4499999999998567, -1.4751651302059667 
1.4599999999998556, -1.463967983726016 
1.4699999999998545, -1.4485992149511595 
1.4799999999998534, -1.432430000902531 
1.4899999999998523, -1.4216651811265044 
1.4999999999998512, -1.4192249919998345 
1.5099999999998501, -1.4218511112897125 
1.519999999999849, -1.4252677608778157 
1.529999999999848, -1.4276925475836761 
1.5399999999998468, -1.429024814666677 
1.5499999999998457, -1.4295798533204034 
1.5599999999998446, -1.4296165294256382 
1.5699999999998435, -1.4292722676507494 
1.5799999999998424, -1.4286072121346411 
1.5899999999998413, -1.4276978176631963 
1.5999999999998402, -1.426816294377332 
1.6099999999998391, -1.4266442618858806 
1.619999999999838, -1.428126949868966 
1.629999999999837, -1.4316610529328515 
1.6399999999998358, -1.4365431001749516 
1.6499999999998347, -1.4415837823852167 
1.6599999999998336, -1.4459404503665645 
1.6699999999998325, -1.4492934024101216 
1.6799999999998314, -1.45164669217919 
1.6899999999998303, -1.4531375194041165 
1.6999999999998292, -1.4539359250773785 
1.709999999999828, -1.4542012646504832 
1.719999999999827, -1.4540664814822066 
1.729999999999826, -1.4536394336694725 
1.7399999999998248, -1.4530163229237811 
1.7499999999998237, -1.452297557170386 
1.7599999999998226, -1.4515903676854012 
1.7699999999998215, -1.4509925578253788 
1.7799999999998204, -1.4505733245719594 
1.7899999999998193, -1.4503586504012773 
1.7999999999998182, -1.4503126826334143 
1.809999999999817, -1.4503363404494158 
1.819999999999816, -1.4503019288046237 
1.8299999999998149, -1.4500860980103099 
1.8399999999998138, -1.4495654120937356 
1.8499999999998127, -1.448584175782619 
1.8599999999998116, -1.4469181226795487 
1.8699999999998105, -1.4442515060154657 
1.8799999999998094, -1.4401889387858424 
1.8899999999998083, -1.4343440741609566 
1.8999999999998072, -1.4265824305997525 
1.909999999999806, -1.4174801621162523 
1.919999999999805, -1.4087355915809454 
1.9299999999998039, -1.402602352742145 
1.9399999999998028, -1.4000652738799335 
1.9499999999998017, -1.400052996301768 
1.9599999999998006, -1.4009021070455447 
1.9699999999997995, -1.4016542105922771 
1.9799999999997984, -1.4020325925253763 
1.9899999999997973, -1.4020274983526464 
1.9999999999997962, -1.4016543874799114 
2.0099999999998173, -1.4008690963724282 
2.0199999999998384, -1.3995551758405003 
2.0299999999998595, -1.3976031505400783 
2.0399999999998806, -1.3952485286271301 
2.0499999999999017, -1.3938207088803187 
2.059999999999923, -1.3960990317960411 
2.069999999999944, -1.404234542806091 
2.079999999999965, -1.4166723319273162 
2.089999999999986, -1.4293509642633024 
2.100000000000007, -1.4393992645203728 
2.1100000000000283, -1.4461910688819883 
2.1200000000000494, -1.4503122046107593 
2.1300000000000705, -1.452590633158446 
2.1400000000000916, -1.4536970189659406 
2.1500000000001127, -1.4540784602661976 
2.160000000000134, -1.4540084867737324 
2.170000000000155, -1.4536593585561257 
2.180000000000176, -1.45316888461217 
2.190000000000197, -1.4526860139824314 
2.2000000000002182, -1.4523655505440423 
2.2100000000002393, -1.4523057942330126 
2.2200000000002604, -1.4524995143374828 
2.2300000000002815, -1.452859356647007 
2.2400000000003026, -1.4532721405895295 
2.2500000000003237, -1.4536284134446777 
2.260000000000345, -1.4538332043591837 
2.270000000000366, -1.4538082923922417 
2.280000000000387, -1.4534855525960313 
2.290000000000408, -1.4527973526934779 
2.3000000000004293, -1.4516717558252406 
2.3100000000004504, -1.4500349989546129 
2.3200000000004715, -1.4478220096089847 
2.3300000000004926, -1.4450015005487353 
2.3400000000005137, -1.4416320401093767 
2.3500000000005348, -1.437961700939503 
2.360000000000556, -1.4345144852143459 
2.370000000000577, -1.4319605449487225 
2.380000000000598, -1.4306614068189938 
2.390000000000619, -1.430363013083662 
2.4000000000006403, -1.4304981484519712 
2.4100000000006614, -1.4306317911609023 
2.4200000000006825, -1.4305558316549336 
2.4300000000007036, -1.4301663276682575 
2.4400000000007247, -1.4293347917604982 
2.450000000000746, -1.4278075651770583 
2.460000000000767, -1.4251135170067226 
2.470000000000788, -1.420557498265811 
2.480000000000809, -1.4137011262637909 
2.49000000000083, -1.4060655261139035 
2.5000000000008513, -1.4029852684796065 
2.5100000000008724, -1.4099737875252003 
2.5200000000008935, -1.4248218367137475 
2.5300000000009146, -1.439844933159359 
2.5400000000009357, -1.4505249186308187 
2.550000000000957, -1.4567956443111347 
2.560000000000978, -1.4600934637810088 
2.570000000000999, -1.461664894700798 
2.58000000000102, -1.4622705088321073 
2.5900000000010412, -1.4623186980244665 
2.6000000000010624, -1.4620262633833512 
2.6100000000010835, -1.4615407563199323 
2.6200000000011046, -1.4610374477943693 
2.6300000000011257, -1.460765973566138 
2.6400000000011468, -1.4609683026106774 
2.650000000001168, -1.461700840638294 
2.660000000001189, -1.4627876473919819 
2.67000000000121, -1.4639690047558342 
2.680000000001231, -1.4650408245396627 
2.6900000000012523, -1.4658829591598876 
2.7000000000012734, -1.4664343982632313 
2.7100000000012945, -1.4666667820609605 
2.7200000000013156, -1.4665671753722094 
2.7300000000013367, -1.4661290029448015 
2.740000000001358, -1.465349061606671 
2.750000000001379, -1.4642294897908301 
2.7600000000014, -1.4627857201830263 
2.770000000001421, -1.4610634030942413 
2.780000000001442, -1.45916757332821 
2.7900000000014633, -1.4572977515843994 
2.8000000000014844, -1.4557416873427904 
2.8100000000015055, -1.45474701567004 
2.8200000000015266, -1.4543279302025776 
2.8300000000015477, -1.4542524780541928 
2.840000000001569, -1.4542349593578425 
2.85000000000159, -1.454071261217798 
2.860000000001611, -1.453617553630181 
2.870000000001632, -1.4526979547163958 
2.8800000000016532, -1.4509914639307906 
2.8900000000016743, -1.4478864570029228 
2.9000000000016954, -1.4423230406592709 
2.9100000000017165, -1.4328812493174201 
2.9200000000017377, -1.4189307697555995 
2.9300000000017588, -1.4034501213837187 
2.94000000000178, -1.3938355104127722 
2.950000000001801, -1.394727541025484 
2.960000000001822, -1.4021472325642665 
2.970000000001843, -1.4097679279363873 
2.9800000000018643, -1.4149595887984352 
2.9900000000018854, -1.4178776440519292 
3.0000000000019065, -1.4193122669257296 
3.0100000000019276, -1.4198694624157777 
3.0200000000019487, -1.4198941500847062 
3.03000000000197, -1.4195610797594427 
3.040000000001991, -1.4189741834248049 
3.050000000002012, -1.4182777893602703 
3.060000000002033, -1.417788059800356 
3.070000000002054, -1.4180244071585026 
3.0800000000020753, -1.4194232313277015 
3.0900000000020964, -1.421911764939346 
3.1000000000021175, -1.4249348750375668 
3.1100000000021386, -1.4278929282276205 
3.1200000000021597, -1.430420765679732 
3.130000000002181, -1.432379385736986 
3.140000000002202, -1.4337579449867623 
3.150000000002223, -1.434601937030922 
3.160000000002244, -1.4349774060965852 
3.1700000000022652, -1.434954951060994 
3.1800000000022863, -1.434603041453138 
3.1900000000023074, -1.433988225833009 
3.2000000000023285, -1.4331819226566664 
3.2100000000023496, -1.432269085489027 
3.2200000000023707, -1.4313501319536415 
3.230000000002392, -1.4305333049577877 
3.240000000002413, -1.4299181619728507 
3.250000000002434, -1.4295597965487443 
3.260000000002455, -1.4294245323938135 
3.2700000000024763, -1.4293925883450531 
3.2800000000024974, -1.4293153606739235 
3.2900000000025185, -1.429057395648511 
3.3000000000025396, -1.428484244990082 
3.3100000000025607, -1.4274161678926283 
3.3200000000025818, -1.4255728596063348 
3.330000000002603, -1.422525940417936 
3.340000000002624, -1.4176927358111828 
3.350000000002645, -1.4104533227271219 
3.360000000002666, -1.4005352860598974 
3.3700000000026873, -1.3887489410891907 
3.3800000000027084, -1.3775613427699989 
3.3900000000027295, -1.3700607853117623 
3.4000000000027506, -1.3673153559788147 
3.4100000000027717, -1.367668933445223 
3.420000000002793, -1.3689496870556561 
3.430000000002814, -1.3700234568339058 
3.440000000002835, -1.37061638193504 
3.450000000002856, -1.3707653955697692 
3.460000000002877, -1.370534091651344 
3.4700000000028983, -1.3699267330995322 
3.4800000000029194, -1.36887991865899 
3.4900000000029405, -1.3673184561146103 
3.5000000000029616, -1.3653776994941844 
3.5100000000029827, -1.3639291624915562 
3.520000000003004, -1.3650384659325288 
3.530000000003025, -1.3709201890797538 
3.540000000003046, -1.3813609769367097 
3.550000000003067, -1.3933691488120912 
3.5600000000030882, -1.4038968584860587 
3.5700000000031094, -1.4116333233639191 
3.5800000000031305, -1.4166776537554273 
3.5900000000031516, -1.4196715471084715 
3.6000000000031727, -1.4212751461376982 
3.6100000000031938, -1.421987413616384 
3.620000000003215, -1.4221364835448886 
3.630000000003236, -1.42192798463464 
3.640000000003257, -1.421504670887242 
3.650000000003278, -1.4210001131195147 
3.6600000000032993, -1.4205655107579989 
3.6700000000033204, -1.420341602344008 
3.6800000000033415, -1.4203928156564354 
3.6900000000033626, -1.4206810799354979 
3.7000000000033837, -1.4211059654515548 
3.710000000003405, -1.4215532569052844 
3.720000000003426, -1.4219181989365914 
3.730000000003447, -1.4221138480653779 
3.740000000003468, -1.4220709022672835 
3.750000000003489, -1.421730731641971 
3.7600000000035103, -1.4210382624669105 
3.7700000000035314, -1.4199398510950427 
3.7800000000035525, -1.4183866737958288 
3.7900000000035736, -1.4163440428234089 
3.8000000000035947, -1.4138119776870053 
3.810000000003616, -1.410867915483024 
3.820000000003637, -1.407735811585749 
3.830000000003658, -1.4048352288248984 
3.840000000003679, -1.4026733738242423 
3.8500000000037002, -1.401521077061088 
3.8600000000037213, -1.401192821614854 
3.8700000000037424, -1.4012477409053403 
3.8800000000037635, -1.4013189303423512 
3.8900000000037847, -1.4012074363652394 
3.9000000000038058, -1.400797636640452 
3.910000000003827, -1.3999469814378789 
3.920000000003848, -1.3983838904543533 
3.930000000003869, -1.3955911129661096 
3.94000000000389, -1.3907019223118529 
3.9500000000039113, -1.382669498184295 
3.9600000000039324, -1.3714332747942493 
3.9700000000039535, -1.3603583175843978 
3.9800000000039746, -1.3562468937003762 
3.9900000000039957, -1.3623603791123766 
4.000000000004016, -1.3738437892894795 
4.010000000003993, -1.384243164486496 
4.02000000000397, -1.3911471132314688 
4.030000000003946, -1.3950444081369027 
4.040000000003923, -1.397022137846455 
4.0500000000039, -1.3978877199021886 
4.0600000000038765, -1.3981053823536018 
4.070000000003853, -1.397915763524229 
4.08000000000383, -1.3974497508742534 
4.090000000003807, -1.3968301600763557 
4.100000000003783, -1.3962809979232127 
4.11000000000376, -1.3961907208030686 
4.120000000003737, -1.396972508602505 
4.130000000003713, -1.3987321159651334 
4.14000000000369, -1.4011421660956445 
4.150000000003667, -1.4037047659464947 
4.1600000000036434, -1.4060392486556537 
4.17000000000362, -1.4079519557736466 
4.180000000003597, -1.409380045165318 
4.1900000000035735, -1.4103284377839855 
4.20000000000355, -1.4108327168979475 
4.210000000003527, -1.4109414181478521 
4.220000000003504, -1.4107078714576997 
4.23000000000348, -1.410187368820396 
4.240000000003457, -1.4094397002051458 
4.250000000003434, -1.4085362153520393 
4.26000000000341, -1.4075657301769597 
4.270000000003387, -1.4066327764545687 
4.280000000003364, -1.4058471556055507 
4.2900000000033405, -1.4052996341324062 
4.300000000003317, -1.4050168031980168 
4.310000000003294, -1.4049287816326284 
4.320000000003271, -1.404898175345963 
4.330000000003247, -1.4047803931177247 
4.340000000003224, -1.4044470433051814 
4.350000000003201, -1.4037604943933748 
4.360000000003177, -1.4025264083288933 
4.370000000003154, -1.4004450572431137 
4.380000000003131, -1.3970792113796529 
4.390000000003107, -1.3918773057165332 
4.400000000003084, -1.3843312970593913 
4.410000000003061, -1.3743805490684122 
4.4200000000030375, -1.3630533642997147 
4.430000000003014, -1.352765657500961 
4.440000000002991, -1.346128513222285 
4.450000000002968, -1.3437600199412336 
4.460000000002944, -1.344060482372112 
4.470000000002921, -1.345152962633201 
4.480000000002898, -1.3460697725446136 
4.490000000002874, -1.3465641658842697 
4.500000000002851, -1.3466532445745112 
4.510000000002828, -1.3463769606483207 
4.520000000002804, -1.3457177319977502 
4.530000000002781, -1.3445835287194143 
4.540000000002758, -1.3428454612283043 
4.5500000000027345, -1.3405343463564101 
4.560000000002711, -1.3383871548222364 
4.570000000002688, -1.338547232154735 
4.580000000002665, -1.3439159177716449 
4.590000000002641, -1.3551614019201168 
4.600000000002618, -1.3691771537580675 
4.610000000002595, -1.3819291130128186 
4.620000000002571, -1.3913746569104652 
4.630000000002548, -1.3974836680212253 
4.640000000002525, -1.4010679457404769 
4.6500000000025015, -1.4029849816380033 
4.660000000002478, -1.4038679413491877 
4.670000000002455, -1.4041179393934449 
4.6800000000024315, -1.4039740024336564 
4.690000000002408, -1.4035898641091444 
4.700000000002385, -1.4031012926166584 
4.710000000002362, -1.4026703285174476 
4.720000000002338, -1.4024719000388384 
4.730000000002315, -1.4026136167018741 
4.740000000002292, -1.4030713536196784 
4.750000000002268, -1.4037208897070834 
4.760000000002245, -1.4044158735119894 
4.770000000002222, -1.4050333480736032 
4.7800000000021985, -1.4054828385901081 
4.790000000002175, -1.4057016807089222 
4.800000000002152, -1.4056464608123251 
4.810000000002129, -1.4052850042194776 
4.820000000002105, -1.4045919599737506 
4.830000000002082, -1.4035483868502436 
4.840000000002059, -1.4021451889943006 
4.850000000002035, -1.4003922620507883 
4.860000000002012, -1.3983374114937708 
4.870000000001989, -1.396098387411768 
4.880000000001965, -1.3938981182145327 
4.890000000001942, -1.3920521988185945 
4.900000000001919, -1.3908343147898639 
4.9100000000018955, -1.3902792861231856 
4.920000000001872, -1.3901583334430376 
4.930000000001849, -1.3901673898740572 
4.940000000001826, -1.3900827280707981 
