t, s[1].omega / s[0].omega 
0, -1.380168138114794 
0.009999999999999995, -1.3965093894331277 
0.019999999999999934, -1.4091427325828216 
0.029999999999999874, -1.4171036769599206 
0.04000000000000012, -1.421550343635503 
0.050000000000000405, -1.4238243110838813 
0.06000000000000069, -1.4248497084132867 
0.07000000000000098, -1.4251583323195256 
0.08000000000000126, -1.4250362069608777 
0.09000000000000155, -1.4246486574776365 
0.10000000000000184, -1.4241383017068023 
0.11000000000000212, -1.4236996737188587 
0.12000000000000241, -1.4235832980493437 
0.130000000000002, -1.4239749603575453 
0.1400000000000009, -1.4248522907743277 
0.1499999999999998, -1.426008743618569 
0.1599999999999987, -1.42720419082583 
0.1699999999999976, -1.4282631246374033 
0.1799999999999965, -1.4290836197804317 
0.1899999999999954, -1.429614004667044 
0.1999999999999943, -1.4298311131673178 
0.2099999999999932, -1.4297263342398747 
0.2199999999999921, -1.4292985025207114 
0.229999999999991, -1.4285518670903552 
0.2399999999999899, -1.4274982921243098 
0.2499999999999888, -1.4261644514945053 
0.2599999999999877, -1.424605424611666 
0.2699999999999866, -1.42292499441796 
0.2799999999999855, -1.4212959317258906 
0.2899999999999844, -1.4199476873366952 
0.2999999999999833, -1.4190702138733244 
0.3099999999999822, -1.4186747578379952 
0.3199999999999811, -1.4185785107396256 
0.32999999999998, -1.418541488412273 
0.3399999999999789, -1.4183766956669168 
0.3499999999999778, -1.4179432782977826 
0.35999999999997667, -1.4170741868984575 
0.36999999999997557, -1.4154814389773205 
0.37999999999997447, -1.4126363500801244 
0.38999999999997337, -1.4076336731587384 
0.39999999999997227, -1.3991765977560335 
0.40999999999997117, -1.3861374211022086 
0.41999999999997006, -1.369314771796488 
0.42999999999996896, -1.35334711634188 
0.43999999999996786, -1.3444155021912867 
0.44999999999996676, -1.3438837369448948 
0.45999999999996566, -1.34766202469583 
0.46999999999996456, -1.351697195623779 
0.47999999999996346, -1.354492864923468 
0.48999999999996235, -1.3560678883869002 
0.49999999999996125, -1.3567903562667696 
0.5099999999999602, -1.3569537392755224 
0.519999999999959, -1.3567198327973637 
0.529999999999958, -1.3561562185333829 
0.5399999999999568, -1.3553013750156093 
0.5499999999999557, -1.3542872787659292 
0.5599999999999546, -1.3535558097702283 
0.5699999999999535, -1.3540155089488226 
0.5799999999999524, -1.3566636084870425 
0.5899999999999513, -1.361650336017233 
0.5999999999999502, -1.3679625379743516 
0.6099999999999491, -1.3742377933612535 
0.619999999999948, -1.3795679825543075 
0.6299999999999469, -1.383624724859676 
0.6399999999999458, -1.3864450115091722 
0.6499999999999447, -1.3882253979260617 
0.6599999999999436, -1.3892009663420053 
0.6699999999999425, -1.3895853692670554 
0.6799999999999414, -1.389548664425773 
0.6899999999999403, -1.3892206237496159 
0.6999999999999392, -1.388710074131871 
0.7099999999999381, -1.3881273995720456 
0.719999999999937, -1.3875906115758094 
0.7299999999999359, -1.3872019101423256 
0.7399999999999348, -1.387014069942593 
0.7499999999999337, -1.3870205158565363 
0.7599999999999326, -1.387167297087314 
0.7699999999999315, -1.3873678009546828 
0.7799999999999304, -1.38752099890552 
0.7899999999999293, -1.3875304615364905 
0.7999999999999282, -1.387310226355439 
0.8099999999999271, -1.3867769883661316 
0.819999999999926, -1.385840903506359 
0.8299999999999249, -1.384404404658964 
0.8399999999999238, -1.382371006690673 
0.8499999999999227, -1.3796638109954509 
0.8599999999999216, -1.3762590444758738 
0.8699999999999205, -1.3722489787570997 
0.8799999999999194, -1.3679396095246539 
0.8899999999999183, -1.3639163176247928 
0.8999999999999172, -1.3608902094570001 
0.9099999999999161, -1.3592526566971554 
0.919999999999915, -1.3587735324371468 
0.9299999999999139, -1.3588695404459794 
0.9399999999999128, -1.3590546416032008 
0.9499999999999117, -1.3590803567070098 
0.9599999999999106, -1.3588372417034233 
0.9699999999999095, -1.35822982570978 
0.9799999999999084, -1.3570820762220184 
0.9899999999999073, -1.3550478601237848 
0.9999999999999062, -1.35151914430995 
1.0099999999999052, -1.345651003941178 
1.019999999999904, -1.336940796384312 
1.029999999999903, -1.3269480751112428 
1.039999999999902, -1.3208230491181274 
1.0499999999999008, -1.3239161510101698 
1.0599999999998997, -1.3350296163544708 
1.0699999999998986, -1.3476961626496564 
1.0799999999998975, -1.3573529846813093 
1.0899999999998964, -1.3633075103805679 
1.0999999999998953, -1.3665609360989988 
1.1099999999998942, -1.3681725956562107 
1.119999999999893, -1.3688373837815913 
1.129999999999892, -1.3689398523912408 
1.1399999999998909, -1.3686784092330284 
1.1499999999998898, -1.3681686024026385 
1.1599999999998887, -1.3675397160550349 
1.1699999999998876, -1.3670387480133783 
1.1799999999998865, -1.3670730397945714 
1.1899999999998854, -1.3680413068361519 
1.1999999999998843, -1.3700083557683351 
1.2099999999998832, -1.3726184904359857 
1.219999999999882, -1.3753675347403989 
1.229999999999881, -1.3778737881448357 
1.2399999999998799, -1.3799403268651171 
1.2499999999998788, -1.3815010988389607 
1.2599999999998777, -1.3825604930562876 
1.2699999999998766, -1.3831570126346087 
1.2799999999998755, -1.3833449933165292 
1.2899999999998744, -1.3831850146095839 
1.2999999999998733, -1.3827393995333979 
1.3099999999998722, -1.3820734786873714 
1.319999999999871, -1.3812619698253255 
1.32999999999987, -1.3803940818917018 
1.3399999999998689, -1.3795691801610286 
1.3499999999998678, -1.3788830936792604 
1.3599999999998666, -1.3784086218623839 
1.3699999999998655, -1.3781668129383717 
1.3799999999998644, -1.3781031169998916 
1.3899999999998633, -1.3781025652270817 
1.3999999999998622, -1.3780352848215984 
1.4099999999998611, -1.3777829062980749 
1.41999999999986, -1.377226890284596 
1.429999999999859, -1.376217444764531 
1.4399999999998578, -1.3745445516683203 
1.4499999999998567, -1.3719264153750634 
1.4599999999998556, -1.3680327953694067 
1.4699999999998545, -1.3625687613553088 
1.4799999999998534, -1.3554543642366907 
1.4899999999998523, -1.3471193482639785 
1.4999999999998512, -1.3387741815234218 
1.5099999999998501, -1.3321697907562515 
1.519999999999849, -1.3284997157571274 
1.529999999999848, -1.3274612882953993 
1.5399999999998468, -1.327793978516556 
1.5499999999998457, -1.3284283006603315 
1.5599999999998446, -1.3288741282742522 
1.5699999999998435, -1.3290038160608415 
1.5799999999998424, -1.3288002265459664 
1.5899999999998413, -1.3282261929724397 
1.5999999999998402, -1.327164716595929 
1.6099999999998391, -1.3253874662559897 
1.619999999999838, -1.3225877014905891 
1.629999999999837, -1.3186665832134854 
1.6399999999998358, -1.3145998864462798 
1.6499999999998347, -1.313542854901451 
1.6599999999998336, -1.3196824486932215 
1.6699999999998325, -1.3335459646024255 
1.6799999999998314, -1.3502482951419654 
1.6899999999998303, -1.3644136216712615 
1.6999999999998292, -1.3740568163238378 
1.709999999999828, -1.3797883984987094 
1.719999999999827, -1.3828982717324498 
1.729999999999826, -1.3844352970316351 
1.7399999999998248, -1.3850589149062162 
1.7499999999998237, -1.3851401058130652 
1.7599999999998226, -1.3848834813572337 
1.7699999999998215, -1.3844255303590578 
1.7799999999998204, -1.3839165790681416 
1.7899999999998193, -1.3835741163776238 
1.7999999999998182, -1.3836472785656726 
1.809999999999817, -1.3842723602410179 
1.819999999999816, -1.3853655701974033 
1.8299999999998149, -1.386693247033562 
1.8399999999998138, -1.3880191426045942 
1.8499999999998127, -1.3891797365531307 
1.8599999999998116, -1.390083385400771 
1.8699999999998105, -1.3906864714950342 
1.8799999999998094, -1.3909729711310193 
1.8899999999998083, -1.3909418739333446 
1.8999999999998072, -1.3906010195992484 
1.909999999999806, -1.3899653391606774 
1.919999999999805, -1.3890585879359971 
1.9299999999998039, -1.387918896149095 
1.9399999999998028, -1.386607994598701 
1.9499999999998017, -1.3852219327511537 
1.9599999999998006, -1.38389802751389 
1.9699999999997995, -1.3828019456685101 
1.9799999999997984, -1.382067994424372 
1.9899999999997973, -1.3817105615877503 
1.9999999999997962, -1.381602215501754 
2.0099999999998173, -1.3815547350217456 
2.0199999999998384, -1.3814029035453514 
2.0299999999998595, -1.3810129528471742 
2.0399999999998806, -1.3802348912358409 
2.0499999999999017, -1.3788345315195687 
2.059999999999923, -1.3764165557100732 
2.069999999999944, -1.372352753377397 
2.079999999999965, -1.3657835235888451 
2.089999999999986, -1.3558704180509147 
2.100000000000007, -1.3425510968511214 
2.1100000000000283, -1.327672336283702 
2.1200000000000494, -1.3151076400562665 
2.1300000000000705, -1.30818301159251 
2.1400000000000916, -1.3067337858041568 
2.1500000000001127, -1.308062101915896 
2.160000000000134, -1.3098575504182863 
2.170000000000155, -1.3111813098024834 
2.180000000000176, -1.3119072574848896 
2.190000000000197, -1.3121432125813093 
2.2000000000002182, -1.3119885965245062 
2.2100000000002393, -1.311473781973771 
2.2200000000002604, -1.3105593599092917 
2.2300000000002815, -1.3091748503659524 
2.2400000000003026, -1.3073639090991362 
2.2500000000003237, -1.3056627692696448 
2.260000000000345, -1.3056209014094886 
2.270000000000366, -1.3095510036933808 
2.280000000000387, -1.3185659292172056 
2.290000000000408, -1.3308817870886727 
2.3000000000004293, -1.34318228475589 
2.3100000000004504, -1.353125410610331 
2.3200000000004715, -1.360078488947956 
2.3300000000004926, -1.3644561948726832 
2.3400000000005137, -1.366975422262181 
2.3500000000005348, -1.3682725955206216 
2.360000000000556, -1.3687984351491278 
2.370000000000577, -1.368838492006408 
2.380000000000598, -1.3685705579573493 
2.390000000000619, -1.368125679287394 
2.4000000000006403, -1.367641192079628 
2.4100000000006614, -1.3672838443301611 
2.4200000000006825, -1.3672108882071252 
2.4300000000007036, -1.3674880079577678 
2.4400000000007247, -1.3680548692514698 
2.450000000000746, -1.3687764256996788 
2.460000000000767, -1.3695119821518342 
2.470000000000788, -1.3701482728593026 
2.480000000000809, -1.3706043031459727 
2.49000000000083, -1.3708258860945526 
2.5000000000008513, -1.370777500513858 
2.5100000000008724, -1.3704355065949825 
2.5200000000008935, -1.3697846858844112 
2.5300000000009146, -1.3688180173937885 
2.5400000000009357, -1.3675396969265647 
2.550000000000957, -1.3659727811598517 
2.560000000000978, -1.364173439054818 
2.570000000000999, -1.3622520438126566 
2.58000000000102, -1.3603923848203978 
2.5900000000010412, -1.3588359957856704 
2.6000000000010624, -1.3577867907471741 
2.6100000000010835, -1.3572747340018307 
2.6200000000011046, -1.357129823299121 
2.6300000000011257, -1.3571075084322302 
2.6400000000011468, -1.357009516569496 
2.650000000001168, -1.3566972837703566 
2.660000000001189, -1.356035425431692 
2.67000000000121, -1.3548151214935136 
2.680000000001231, -1.3526645675804745 
2.6900000000012523, -1.3489441518056573 
2.7000000000012734, -1.342676751489827 
2.7100000000012945, -1.332712532453607 
2.7200000000013156, -1.3185211482698724 
2.7300000000013367, -1.3017161824048658 
2.740000000001358, -1.2867535393773655 
2.750000000001379, -1.278169750711965 
2.7600000000014, -1.2764405920505972 
2.770000000001421, -1.2784271132859535 
2.780000000001442, -1.2810872599613121 
2.7900000000014633, -1.2831064244218262 
2.8000000000014844, -1.2843061528604314 
2.8100000000015055, -1.2848600167302622 
2.8200000000015266, -1.2849458856350169 
2.8300000000015477, -1.284661437792424 
2.840000000001569, -1.2840245908011725 
2.85000000000159, -1.2830005128493123 
2.860000000001611, -1.2815782032234622 
2.870000000001632, -1.2799813273272906 
2.8800000000016532, -1.279067415083277 
2.8900000000016743, -1.280570440583881 
2.9000000000016954, -1.2862643738073123 
2.9100000000017165, -1.2961398713963814 
2.9200000000017377, -1.3079429773023616 
2.9300000000017588, -1.3189398096471137 
2.94000000000178, -1.3275523121740644 
2.950000000001801, -1.333508658771599 
2.960000000001822, -1.3372486958069039 
2.970000000001843, -1.3393928230280454 
2.9800000000018643, -1.3404774203164775 
2.9900000000018854, -1.3408831457232595 
3.0000000000019065, -1.3408544529355155 
3.0100000000019276, -1.3405486255627896 
3.0200000000019487, -1.3400895666174641 
3.03000000000197, -1.3396146167184508 
3.040000000001991, -1.3392906370662063 
3.050000000002012, -1.3392699490637112 
3.060000000002033, -1.3396102505863972 
3.070000000002054, -1.3402453861790262 
3.0800000000020753, -1.3410373779818732 
3.0900000000020964, -1.3418439747377835 
3.1000000000021175, -1.3425516650750358 
3.1100000000021386, -1.343080694947556 
3.1200000000021597, -1.343379412730174 
3.130000000002181, -1.343416132309406 
3.140000000002202, -1.3431724087096424 
3.150000000002223, -1.3426393442631985 
3.160000000002244, -1.3418168192689202 
3.1700000000022652, -1.3407155494375398 
3.1800000000022863, -1.339362709907528 
3.1900000000023074, -1.3378118578124722 
3.2000000000023285, -1.3361562623105665 
3.2100000000023496, -1.3345401753552 
3.2200000000023707, -1.3331501081319441 
3.230000000002392, -1.332156534440074 
3.240000000002413, -1.3316151747996359 
3.250000000002434, -1.3314207953357313 
3.260000000002455, -1.3313768327613136 
3.2700000000024763, -1.3312981405862048 
3.2800000000024974, -1.331045616847312 
3.2900000000025185, -1.3304933946429316 
3.3000000000025396, -1.3294701157087139 
3.3100000000025607, -1.327693007548436 
3.3200000000025818, -1.3247004017485933 
3.330000000002603, -1.3198124792191614 
3.340000000002624, -1.3122148764791728 
3.350000000002645, -1.3013374000631006 
3.360000000002666, -1.287638696268881 
3.3700000000026873, -1.2733763364498267 
3.3800000000027084, -1.2620648859798873 
3.3900000000027295, -1.2560401769434981 
3.4000000000027506, -1.25467733766923 
3.4100000000027717, -1.2556468801042264 
3.420000000002793, -1.2570752641384473 
3.430000000002814, -1.2581668873485579 
3.440000000002835, -1.2587739277233854 
3.450000000002856, -1.2589549152610044 
3.460000000002877, -1.2587731434320217 
3.4700000000028983, -1.2582333485272157 
3.4800000000029194, -1.2572645528291087 
3.4900000000029405, -1.2557247137237 
3.5000000000029616, -1.2534723771268927 
3.5100000000029827, -1.2506453748031805 
3.520000000003004, -1.2483004877104802 
3.530000000003025, -1.2490106663468388 
3.540000000003046, -1.2558318270978017 
3.550000000003067, -1.2691473691786253 
3.5600000000030882, -1.285343626552124 
3.5700000000031094, -1.299886219592619 
3.5800000000031305, -1.310498972901297 
3.5900000000031516, -1.317239933854107 
3.6000000000031727, -1.321130990821268 
3.6100000000031938, -1.3231979655230797 
3.620000000003215, -1.3241660907914468 
3.630000000003236, -1.3244754183530474 
3.640000000003257, -1.3243750767736988 
3.650000000003278, -1.3240125628849149 
3.6600000000032993, -1.3235099864292519 
3.6700000000033204, -1.3230317551617867 
3.6800000000033415, -1.3228165136674652 
3.6900000000033626, -1.3231119724366858 
3.7000000000033837, -1.324022758902932 
3.710000000003405, -1.3254288141841468 
3.720000000003426, -1.3270740840233992 
3.730000000003447, -1.3287096894237636 
3.740000000003468, -1.3301638531073108 
3.750000000003489, -1.3313406266075034 
3.7600000000035103, -1.3321959883140961 
3.7700000000035314, -1.332717089870404 
3.7800000000035525, -1.3329097070608273 
3.7900000000035736, -1.3327919801134693 
3.8000000000035947, -1.332391663789499 
3.810000000003616, -1.331745687271693 
3.820000000003637, -1.3309025297151085 
3.830000000003658, -1.3299269902340762 
3.840000000003679, -1.328903438052619 
3.8500000000037002, -1.3279324921611084 
3.8600000000037213, -1.3271187891562952 
3.8700000000037424, -1.326546088596375 
3.8800000000037635, -1.3262389705062374 
3.8900000000037847, -1.326137779094204 
3.9000000000038058, -1.3261210028220076 
3.910000000003827, -1.3260557290930324 
3.920000000003848, -1.3258247756715695 
3.930000000003869, -1.3253155269735244 
3.94000000000389, -1.3243903553131964 
3.9500000000039113, -1.3228594056508363 
3.9600000000039324, -1.3204700344969067 
3.9700000000039535, -1.3169277729752156 
3.9800000000039746, -1.3119659157602181 
3.9900000000039957, -1.3054802247881463 
4.000000000004016, -1.2977349153514768 
4.010000000003993, -1.2895765204171545 
4.02000000000397, -1.2823985621450789 
4.030000000003946, -1.2775191262487346 
4.040000000003923, -1.2752739776711328 
4.0500000000039, -1.2748885673175046 
4.0600000000038765, -1.275287048310176 
4.070000000003853, -1.275762421504222 
4.08000000000383, -1.2760264949899998 
4.090000000003807, -1.2760017915594308 
4.100000000003783, -1.275655393446312 
4.11000000000376, -1.2749104410483856 
4.120000000003737, -1.273589216660627 
4.130000000003713, -1.2713599108614326 
4.14000000000369, -1.2677191046884173 
4.150000000003667, -1.262182631679556 
4.1600000000036434, -1.2550576988447921 
4.17000000000362, -1.248827114857447 
4.180000000003597, -1.2482038960417046 
4.1900000000035735, -1.256159961994442 
4.20000000000355, -1.2698687964621915 
4.210000000003527, -1.28351249248543 
4.220000000003504, -1.2936086665096063 
4.23000000000348, -1.299879958133124 
4.240000000003457, -1.3033824762946349 
4.250000000003434, -1.3051772583688441 
4.26000000000341, -1.3059727562174046 
4.270000000003387, -1.3061716877817962 
4.280000000003364, -1.3059850957526948 
4.2900000000033405, -1.3055265464442507 
4.300000000003317, -1.3048948963566593 
4.310000000003294, -1.3042706823947008 
4.320000000003271, -1.3040079196750871 
4.330000000003247, -1.3045984784314384 
4.340000000003224, -1.3063923352871503 
4.350000000003201, -1.3092876002331049 
4.360000000003177, -1.3127802574557823 
4.370000000003154, -1.3162988875571908 
4.380000000003131, -1.3194429312193228 
4.390000000003107, -1.3220130240124457 
4.400000000003084, -1.3239501209394162 
4.410000000003061, -1.325276256152978 
4.4200000000030375, -1.3260572356746745 
4.430000000003014, -1.326379278269443 
4.440000000002991, -1.3263327766773896 
4.450000000002968, -1.3260034668815148 
4.460000000002944, -1.3254733494783497 
4.470000000002921, -1.3248291423408296 
4.480000000002898, -1.3241682371011019 
4.490000000002874, -1.32358977358693 
4.500000000002851, -1.323171728959646 
4.510000000002828, -1.3229512994198929 
4.520000000002804, -1.3229181015915783 
4.530000000002781, -1.3230157043749133 
4.540000000002758, -1.3231538925126594 
4.5500000000027345, -1.3232321231819832 
4.560000000002711, -1.3231578718687402 
4.570000000002688, -1.3228480444280881 
4.580000000002665, -1.32222040761125 
4.590000000002641, -1.3211878869971139 
4.600000000002618, -1.3196622625676309 
4.610000000002595, -1.3175666541530895 
4.620000000002571, -1.3148542007004238 
4.630000000002548, -1.3115350227298892 
4.640000000002525, -1.3077199203949044 
4.6500000000025015, -1.303681753181415 
4.660000000002478, -1.2998905655338162 
4.670000000002455, -1.2969101979575874 
4.6800000000024315, -1.295102173956129 
4.690000000002408, -1.2943747341783198 
4.700000000002385, -1.2942944745694374 
4.710000000002362, -1.2944172796910072 
4.720000000002338, -1.294467679957679 
4.730000000002315, -1.2943090047459047 
4.740000000002292, -1.2938466200311733 
4.750000000002268, -1.2929413811902593 
4.760000000002245, -1.2913279721294413 
4.770000000002222, -1.288513943738362 
4.7800000000021985, -1.2836692274780162 
4.790000000002175, -1.2756420036495533 
4.800000000002152, -1.2635034336658462 
4.810000000002129, -1.248071314700925 
4.820000000002105, -1.2334175239707015 
4.830000000002082, -1.2250324104309986 
4.840000000002059, -1.2247224697412944 
4.850000000002035, -1.2292876550053269 
4.860000000002012, -1.234621786282021 
4.870000000001989, -1.2386954412158333 
4.880000000001965, -1.2412477472928989 
4.890000000001942, -1.2426458465247678 
4.900000000001919, -1.2432798573853248 
4.9100000000018955, -1.2434081687854008 
4.920000000001872, -1.2431644211768986 
4.930000000001849, -1.2425946802030245 
4.940000000001826, -1.241701144341185 
