t, s[1].omega / s[0].omega 
0, -0.6999976930926519 
0.009999999999999995, -0.699766235423632 
0.019999999999999934, -0.6995244972767362 
0.029999999999999874, -0.699250963901211 
0.04000000000000012, -0.6989223771883716 
0.050000000000000405, -0.6985246542596504 
0.06000000000000069, -0.6980589122702268 
0.07000000000000098, -0.697542689268889 
0.08000000000000126, -0.6970099366937907 
0.09000000000000155, -0.6965131667389775 
0.10000000000000184, -0.6961288197567334 
0.11000000000000212, -0.6959645973303542 
0.12000000000000241, -0.696166003959362 
0.130000000000002, -0.696918860348904 
0.1400000000000009, -0.6984453319012205 
0.1499999999999998, -0.7009927512441614 
0.1599999999999987, -0.7048155431074579 
0.1699999999999976, -0.7101483569493586 
0.1799999999999965, -0.7171619692996145 
0.1899999999999954, -0.7258866505825389 
0.1999999999999943, -0.7360947877604869 
0.2099999999999932, -0.7471804349138064 
0.2199999999999921, -0.7581581997554828 
0.229999999999991, -0.7679190853159229 
0.2399999999999899, -0.7756686139784258 
0.2499999999999888, -0.7812050015323359 
0.2599999999999877, -0.7848215941474509 
0.2699999999999866, -0.7870071196030228 
0.2799999999999855, -0.7882121961519448 
0.2899999999999844, -0.788761118207941 
0.2999999999999833, -0.7888526413795303 
0.3099999999999822, -0.7885866900742513 
0.3199999999999811, -0.7879867107996221 
0.32999999999998, -0.7870094228989043 
0.3399999999999789, -0.7855421667511348 
0.3499999999999778, -0.7833911468878446 
0.35999999999997667, -0.780267349300181 
0.36999999999997557, -0.7757815868311588 
0.37999999999997447, -0.7694571541212754 
0.38999999999997337, -0.7607417028429099 
0.39999999999997227, -0.7489970300008719 
0.40999999999997117, -0.7336958404267435 
0.41999999999997006, -0.7153843951174439 
0.42999999999996896, -0.6967611308822023 
0.43999999999996786, -0.6815063203832753 
0.44999999999996676, -0.6715575398484086 
0.45999999999996566, -0.6663946678681277 
0.46999999999996456, -0.6643918816392727 
0.47999999999996346, -0.6640556492168923 
0.48999999999996235, -0.6644192845828462 
0.49999999999996125, -0.6649687354319351 
0.5099999999999602, -0.6654686855243421 
0.519999999999959, -0.6658265327862193 
0.529999999999958, -0.666010801482549 
0.5399999999999568, -0.6660076790011208 
0.5499999999999557, -0.6657990363185746 
0.5599999999999546, -0.665352016449876 
0.5699999999999535, -0.6646169388796578 
0.5799999999999524, -0.6635354862842927 
0.5899999999999513, -0.6620626895474552 
0.5999999999999502, -0.6601994259370374 
0.6099999999999491, -0.6580172576299088 
0.619999999999948, -0.6556512820840305 
0.6299999999999469, -0.6532580928400884 
0.6399999999999458, -0.6509671477501454 
0.6499999999999447, -0.6488559562586058 
0.6599999999999436, -0.6469541985525363 
0.6699999999999425, -0.6452626791418458 
0.6799999999999414, -0.6437725897728608 
0.6899999999999403, -0.642478332696357 
0.6999999999999392, -0.6413833676739882 
0.7099999999999381, -0.640501084260855 
0.719999999999937, -0.6398528719171092 
0.7299999999999359, -0.6394649593871952 
0.7399999999999348, -0.6393651216248765 
0.7499999999999337, -0.6395801538236131 
0.7599999999999326, -0.6401348466363604 
0.7699999999999315, -0.6410528274123954 
0.7799999999999304, -0.6423589838282289 
0.7899999999999293, -0.6440822680331677 
0.7999999999999282, -0.6462564556499165 
0.8099999999999271, -0.6489148987942139 
0.819999999999926, -0.6520740310791627 
0.8299999999999249, -0.65570165229437 
0.8399999999999238, -0.6596747939872565 
0.8499999999999227, -0.6637517463213654 
0.8599999999999216, -0.6675998117312304 
0.8699999999999205, -0.6708958229399091 
0.8799999999999194, -0.6734435863877363 
0.8899999999999183, -0.6752188449839412 
0.8999999999999172, -0.6763214481975379 
0.9099999999999161, -0.6768937718210084 
0.919999999999915, -0.6770617593108915 
0.9299999999999139, -0.676910096475352 
0.9399999999999128, -0.6764776680633051 
0.9499999999999117, -0.6757586559417159 
0.9599999999999106, -0.6747010280334838 
0.9699999999999095, -0.6731984020413758 
0.9799999999999084, -0.6710715975145217 
0.9899999999999073, -0.6680311050542346 
0.9999999999999062, -0.6635955492415869 
1.0099999999999052, -0.656910739051375 
1.019999999999904, -0.6464297582620495 
1.029999999999903, -0.6297604962707865 
1.039999999999902, -0.6048587283619021 
1.0499999999999008, -0.5731574349643096 
1.0599999999998997, -0.5407495594537619 
1.0699999999998986, -0.5140224457562721 
1.0799999999998975, -0.49534435222453366 
1.0899999999998964, -0.4836279449021007 
1.0999999999998953, -0.4767418004871953 
1.1099999999998942, -0.4728602982421979 
1.119999999999893, -0.4707479120575888 
1.129999999999892, -0.46964651676560293 
1.1399999999998909, -0.4691105017713431 
1.1499999999998898, -0.4688826606231352 
1.1599999999998887, -0.46881546876896324 
1.1699999999998876, -0.46882443019694736 
1.1799999999998865, -0.468861562564783 
1.1899999999998854, -0.46890130992114554 
1.1999999999998843, -0.4689343293568572 
1.2099999999998832, -0.4689660987159535 
1.219999999999882, -0.4690173158682782 
1.229999999999881, -0.46912248154898306 
1.2399999999998799, -0.46932347916656364 
1.2499999999998788, -0.4696573484637052 
1.2599999999998777, -0.4701407167926561 
1.2699999999998766, -0.4707559791223228 
1.2799999999998755, -0.4714462613434275 
1.2899999999998744, -0.472125795318617 
1.2999999999998733, -0.4727049050839273 
1.3099999999998722, -0.4731166591375623 
1.319999999999871, -0.4733292484159799 
1.32999999999987, -0.4733400426051785 
1.3399999999998689, -0.4731600345674859 
1.3499999999998678, -0.4727986546131954 
1.3599999999998666, -0.4722526304360639 
1.3699999999998655, -0.47149690301103053 
1.3799999999998644, -0.47047245699752205 
1.3899999999998633, -0.46906224369818383 
1.3999999999998622, -0.4670372120901661 
1.4099999999998611, -0.4639337576334824 
1.41999999999986, -0.4587955702468469 
1.429999999999859, -0.44975901862091155 
1.4399999999998578, -0.43390346602889907 
1.4499999999998567, -0.4088009464858202 
1.4599999999998556, -0.3762831847802898 
1.4699999999998545, -0.3433281201347078 
1.4799999999998534, -0.31645222397785705 
1.4899999999998523, -0.2974854396687005 
1.4999999999998512, -0.2850343470575312 
1.5099999999998501, -0.2770500828788589 
1.519999999999849, -0.2719201142276877 
1.529999999999848, -0.2685875802985747 
1.5399999999998468, -0.2664038447179005 
1.5499999999998457, -0.2649799198662317 
1.5599999999998446, -0.26408611041170593 
1.5699999999998435, -0.26359216383623185 
1.5799999999998424, -0.2634340876103086 
1.5899999999998413, -0.2635980105426884 
1.5999999999998402, -0.2641159758388598 
1.6099999999998391, -0.26507194094066805 
1.619999999999838, -0.2666188447146606 
1.629999999999837, -0.26900952247564824 
1.6399999999998358, -0.2726440874651853 
1.6499999999998347, -0.2781277730279835 
1.6599999999998336, -0.28629732460233426 
1.6699999999998325, -0.29807819978865635 
1.6799999999998314, -0.31391098926059247 
1.6899999999998303, -0.33271034466758304 
1.6999999999998292, -0.35143431673994324 
1.709999999999828, -0.36674536488775905 
1.719999999999827, -0.37729602895049946 
1.729999999999826, -0.38379849679102906 
1.7399999999998248, -0.3876085505194081 
1.7499999999998237, -0.3898152653271734 
1.7599999999998226, -0.3910895421074426 
1.7699999999998215, -0.39180379648504526 
1.7799999999998204, -0.39215648487007654 
1.7899999999998193, -0.3922494185478095 
1.7999999999998182, -0.39212943809082923 
1.809999999999817, -0.3918111071198882 
1.819999999999816, -0.39129202420901 
1.8299999999998149, -0.3905679903570517 
1.8399999999998138, -0.3896507036124607 
1.8499999999998127, -0.3885837394314899 
1.8599999999998116, -0.3874462226561446 
1.8699999999998105, -0.38633669591763226 
1.8799999999998094, -0.3853441358991957 
1.8899999999998083, -0.38452354209462275 
1.8999999999998072, -0.3838874135894334 
1.909999999999806, -0.38341161755275677 
1.919999999999805, -0.3830488567921189 
1.9299999999998039, -0.38274428032694 
1.9399999999998028, -0.3824490285601316 
1.9499999999998017, -0.3821281587547231 
1.9599999999998006, -0.3817618918071969 
1.9699999999997995, -0.381342396503631 
1.9799999999997984, -0.3808696100591429 
1.9899999999997973, -0.38034861507424805 
1.9999999999997962, -0.3797894909717851 
2.0099999999998173, -0.3792091299788055 
2.0199999999998384, -0.37863183134021294 
2.0299999999998595, -0.3780762660795886 
2.0399999999998806, -0.3774860316338481 
2.0499999999999017, -0.37647934309176845 
2.059999999999923, -0.37366494695396874 
2.069999999999944, -0.3654908120170309 
2.079999999999965, -0.3464682617677953 
2.089999999999986, -0.31464992627451993 
2.100000000000007, -0.2776131013391339 
2.1100000000000283, -0.24602404036980308 
2.1200000000000494, -0.22403070448051077 
2.1300000000000705, -0.2101415757907854 
2.1400000000000916, -0.20161590410799 
2.1500000000001127, -0.19635103959663477 
2.160000000000134, -0.1930414354673284 
2.170000000000155, -0.19092905323811662 
2.180000000000176, -0.18958199346384713 
2.190000000000197, -0.18875756895119103 
2.2000000000002182, -0.1883264893056269 
2.2100000000002393, -0.18823391446134827 
2.2200000000002604, -0.18848300703132742 
2.2300000000002815, -0.1891345467040156 
2.2400000000003026, -0.19032190986380165 
2.2500000000003237, -0.19228577469116642 
2.260000000000345, -0.1954381226098212 
2.270000000000366, -0.20046769869066128 
2.280000000000387, -0.20848176315738556 
2.290000000000408, -0.2210795510345677 
2.3000000000004293, -0.2399484549069247 
2.3100000000004504, -0.2652333148216587 
2.3200000000004715, -0.2931856360880704 
2.3300000000004926, -0.31718561415305124 
2.3400000000005137, -0.3332724621846945 
2.3500000000005348, -0.34233622030688143 
2.360000000000556, -0.3470842963998061 
2.370000000000577, -0.34959410167387184 
2.380000000000598, -0.3509876319898625 
2.390000000000619, -0.3517989788117345 
2.4000000000006403, -0.3522770993998718 
2.4100000000006614, -0.3525410231735578 
2.4200000000006825, -0.35264925877042363 
2.4300000000007036, -0.35263050457188805 
2.4400000000007247, -0.35249880181713644 
2.450000000000746, -0.35226349494117887 
2.460000000000767, -0.3519382972040782 
2.470000000000788, -0.35154983102963044 
2.480000000000809, -0.3511426636477818 
2.49000000000083, -0.3507766598260606 
2.5000000000008513, -0.3505155616236674 
2.5100000000008724, -0.35041095594703514 
2.5200000000008935, -0.35048770242073596 
2.5300000000009146, -0.3507346881887606 
2.5400000000009357, -0.35110343834161106 
2.550000000000957, -0.3515176935937777 
2.560000000000978, -0.3518937500876207 
2.570000000000999, -0.35216290309203224 
2.58000000000102, -0.3522836662255172 
2.5900000000010412, -0.35223901198509544 
2.6000000000010624, -0.35202390671972245 
2.6100000000010835, -0.35163054901803326 
2.6200000000011046, -0.35103405839992347 
2.6300000000011257, -0.3501757343806869 
2.6400000000011468, -0.34893632982672573 
2.650000000001168, -0.34708669382517454 
2.660000000001189, -0.344199152078954 
2.67000000000121, -0.3395190860277434 
2.680000000001231, -0.3318976268103052 
2.6900000000012523, -0.3201396245289495 
2.7000000000012734, -0.30414826556979746 
2.7100000000012945, -0.28601298169075423 
2.7200000000013156, -0.26904323188553625 
2.7300000000013367, -0.2554544079040434 
2.740000000001358, -0.24558930010931027 
2.750000000001379, -0.23875171899934391 
2.7600000000014, -0.23406760053846573 
2.770000000001421, -0.23083600225627485 
2.780000000001442, -0.2285746709002383 
2.7900000000014633, -0.22697308799199206 
2.8000000000014844, -0.22583957133062302 
2.8100000000015055, -0.22506322848609078 
2.8200000000015266, -0.2245912650907705 
2.8300000000015477, -0.22441884825368286 
2.840000000001569, -0.2245901574731819 
2.85000000000159, -0.22521206986603678 
2.860000000001611, -0.22648599474653733 
2.870000000001632, -0.22876961580207147 
2.8800000000016532, -0.23268905130207554 
2.8900000000016743, -0.23932654532537198 
2.9000000000016954, -0.2504686467474343 
2.9100000000017165, -0.268662325176071 
2.9200000000017377, -0.29611516985553366 
2.9300000000017588, -0.33105056471073346 
2.94000000000178, -0.36444006454597905 
2.950000000001801, -0.38623253822992615 
2.960000000001822, -0.39544293189239427 
2.970000000001843, -0.39765724029251837 
2.9800000000018643, -0.39756665754027765 
2.9900000000018854, -0.39715564319728297 
3.0000000000019065, -0.39692086704135593 
3.0100000000019276, -0.3968732797011148 
3.0200000000019487, -0.39693172549371747 
3.03000000000197, -0.3970271552598553 
3.040000000001991, -0.3971158904495455 
3.050000000002012, -0.397172830985149 
3.060000000002033, -0.39718405676067847 
3.070000000002054, -0.397142832931742 
3.0800000000020753, -0.39704930324873583 
3.0900000000020964, -0.3969131910941069 
3.1000000000021175, -0.3967577570784402 
3.1100000000021386, -0.3966218138343575 
3.1200000000021597, -0.39655625573395903 
3.130000000002181, -0.3966137969890303 
3.140000000002202, -0.39683417883387057 
3.150000000002223, -0.3972290756284179 
3.160000000002244, -0.3977713756393345 
3.1700000000022652, -0.3983946554686167 
3.1800000000022863, -0.3990078876439066 
3.1900000000023074, -0.3995220641770273 
3.2000000000023285, -0.3998743295295278 
3.2100000000023496, -0.40003580473210054 
3.2200000000023707, -0.4000025154657771 
3.230000000002392, -0.3997789306522328 
3.240000000002413, -0.3993621992663668 
3.250000000002434, -0.3987283286722646 
3.260000000002455, -0.3978158917016777 
3.2700000000024763, -0.39649855001627676 
3.2800000000024974, -0.3945319002962465 
3.2900000000025185, -0.39145308918305904 
3.3000000000025396, -0.3864213296181803 
3.3100000000025607, -0.37808839199153954 
3.3200000000025818, -0.3648977870299907 
3.330000000002603, -0.34639725242752145 
3.340000000002624, -0.3248117352127555 
3.350000000002645, -0.3042219092194813 
3.360000000002666, -0.28760551869085427 
3.3700000000026873, -0.27556007432946117 
3.3800000000027084, -0.26727175043067203 
3.3900000000027295, -0.2616539120886903 
3.4000000000027506, -0.2578281333302181 
3.4100000000027717, -0.25519162499051956 
3.420000000002793, -0.2533577159109337 
3.430000000002814, -0.25208726908520207 
3.440000000002835, -0.2512390596095623 
3.450000000002856, -0.25073939141841706 
3.460000000002877, -0.25056649188497193 
3.4700000000028983, -0.25074658391138865 
3.4800000000029194, -0.25136114485423355 
3.4900000000029405, -0.2525680028004626 
3.5000000000029616, -0.2546430322957939 
3.5100000000029827, -0.25805453723763827 
3.520000000003004, -0.2635859883821939 
3.530000000003025, -0.27250709874096274 
3.540000000003046, -0.2866930704632375 
3.550000000003067, -0.30826263733111003 
3.5600000000030882, -0.3378387560501856 
3.5700000000031094, -0.3716130540210899 
3.5800000000031305, -0.4016888539020588 
3.5900000000031516, -0.4224750187487601 
3.6000000000031727, -0.43442209601215714 
3.6100000000031938, -0.4407734837011216 
3.620000000003215, -0.44419597975984726 
3.630000000003236, -0.44615064156992623 
3.640000000003257, -0.44733096732001965 
3.650000000003278, -0.44806047068539423 
3.6600000000032993, -0.4484963521850317 
3.6700000000033204, -0.4487180792389994 
3.6800000000033415, -0.4487646937183486 
3.6900000000033626, -0.44865146710913695 
3.7000000000033837, -0.44837929382852604 
3.710000000003405, -0.4479432800193708 
3.720000000003426, -0.4473437194798044 
3.730000000003447, -0.4465989678150513 
3.740000000003468, -0.4457546141364473 
3.750000000003489, -0.4448807701764707 
3.7600000000035103, -0.444054977751401 
3.7700000000035314, -0.44333916089723713 
3.7800000000035525, -0.4427632325424084 
3.7900000000035736, -0.4423215574934883 
3.8000000000035947, -0.44198057153031256 
3.810000000003616, -0.4416927534075635 
3.820000000003637, -0.44141157496299605 
3.830000000003658, -0.44110225722857804 
3.840000000003679, -0.440745645918486 
3.8500000000037002, -0.44033661896416465 
3.8600000000037213, -0.4398809156795118 
3.8700000000037424, -0.43939401759651703 
3.8800000000037635, -0.4389045079323707 
3.8900000000037847, -0.43846402254528744 
3.9000000000038058, -0.4381668525508354 
3.910000000003827, -0.43818333307402424 
3.920000000003848, -0.4388078467211621 
3.930000000003869, -0.44049863889135626 
3.94000000000389, -0.44379755092760415 
3.9500000000039113, -0.448799551925256 
3.9600000000039324, -0.4537100070267859 
3.9700000000039535, -0.45334684843307205 
3.9800000000039746, -0.441825156350789 
3.9900000000039957, -0.420070687731754 
4.000000000004016, -0.396302550744807 
4.010000000003993, -0.3773288050790678 
4.02000000000397, -0.36462996532202985 
4.030000000003946, -0.35684314238384884 
4.040000000003923, -0.3522473035857334 
4.0500000000039, -0.34957793735192827 
4.0600000000038765, -0.3480452075170003 
4.070000000003853, -0.3471839256407163 
4.08000000000383, -0.34672551052138306 
4.090000000003807, -0.34651626712448846 
4.100000000003783, -0.3464700013674815 
4.11000000000376, -0.3465418936100778 
4.120000000003737, -0.3467150514947951 
4.130000000003713, -0.34699472110266294 
4.14000000000369, -0.34740702210742475 
4.150000000003667, -0.3479996428315592 
4.1600000000036434, -0.3488416904106633 
4.17000000000362, -0.3500191840791832 
4.180000000003597, -0.35162137818113504 
4.1900000000035735, -0.3537116690432257 
4.20000000000355, -0.3562801331571097 
4.210000000003527, -0.35919289694312645 
4.220000000003504, -0.3621836567701422 
4.23000000000348, -0.3649298895745327 
4.240000000003457, -0.36718075033776265 
4.250000000003434, -0.3688362628764009 
4.26000000000341, -0.36992841381448976 
4.270000000003387, -0.3705504727713861 
4.280000000003364, -0.37079631199902496 
4.2900000000033405, -0.37072933060255653 
4.300000000003317, -0.3703711551503477 
4.310000000003294, -0.369696528907625 
4.320000000003271, -0.36862716731645856 
4.330000000003247, -0.3670257837481741 
4.340000000003224, -0.3647034758471178 
4.350000000003201, -0.361469031438902 
4.360000000003177, -0.3572460975399593 
4.370000000003154, -0.3522180394986013 
4.380000000003131, -0.3468565148313972 
4.390000000003107, -0.341736920901138 
4.400000000003084, -0.3372821654423351 
4.410000000003061, -0.33365337060081524 
4.4200000000030375, -0.3308090643500294 
4.430000000003014, -0.3286143734367776 
4.440000000002991, -0.32691911149186387 
4.450000000002968, -0.32559438132588997 
4.460000000002944, -0.324543692978537 
4.470000000002921, -0.3237029417652392 
4.480000000002898, -0.32303721561357657 
4.490000000002874, -0.3225385104074913 
4.500000000002851, -0.32222683812854735 
4.510000000002828, -0.3221569986334263 
4.520000000002804, -0.3224342531421665 
4.530000000002781, -0.32324457981117194 
4.540000000002758, -0.32490957272060716 
4.5500000000027345, -0.32798197734669116 
4.560000000002711, -0.3333991371288634 
4.570000000002688, -0.34267740724336976 
4.580000000002665, -0.3579569531640632 
4.590000000002641, -0.3812175297233501 
4.600000000002618, -0.4116220457444104 
4.610000000002595, -0.4425069077196304 
4.620000000002571, -0.46471768412937403 
4.630000000002548, -0.47538706190740243 
4.640000000002525, -0.47861958086002165 
4.6500000000025015, -0.47908092876318253 
4.660000000002478, -0.47905021301649253 
4.670000000002455, -0.47914711852455427 
4.6800000000024315, -0.4793932100907039 
4.690000000002408, -0.47969460679681164 
4.700000000002385, -0.47997542777508295 
4.710000000002362, -0.480192484566051 
4.720000000002338, -0.48032387856155756 
4.730000000002315, -0.48035741702412055 
4.740000000002292, -0.48028364716846383 
4.750000000002268, -0.48009362885448015 
4.760000000002245, -0.47978124608186434 
4.770000000002222, -0.4793495808801433 
4.7800000000021985, -0.4788189439890935 
4.790000000002175, -0.47823115855978715 
4.800000000002152, -0.4776442832720636 
4.810000000002129, -0.4771173393599829 
4.820000000002105, -0.47669209637843224 
4.830000000002082, -0.47638089422390795 
4.840000000002059, -0.47616505556178285 
4.850000000002035, -0.4760033572383936 
4.860000000002012, -0.4758467070308813 
4.870000000001989, -0.47565281577937873 
