t, s[1].omega / s[0].omega 
0, -1.4099935691248475 
0.009999999999999995, -1.409127534518108 
0.019999999999999934, -1.4078204034775688 
0.029999999999999874, -1.406072911214036 
0.04000000000000012, -1.4038861279132056 
0.050000000000000405, -1.4012616706974252 
0.06000000000000069, -1.3982019897824585 
0.07000000000000098, -1.3947107216818853 
0.08000000000000126, -1.3907930995121214 
0.09000000000000155, -1.3864564086146742 
0.10000000000000184, -1.3817104775878482 
0.11000000000000212, -1.3765682046203602 
0.12000000000000241, -1.3710461409292276 
0.130000000000002, -1.3651651880098234 
0.1400000000000009, -1.3589515064540016 
0.1499999999999998, -1.352437763133979 
0.1599999999999987, -1.345664831627796 
0.1699999999999976, -1.3386839754254822 
0.1799999999999965, -1.3315593632051514 
0.1899999999999954, -1.3243704978792965 
0.1999999999999943, -1.317213838022589 
0.2099999999999932, -1.3102026521354755 
0.2199999999999921, -1.3034641074984727 
0.229999999999991, -1.29713288474406 
0.2399999999999899, -1.291341283897559 
0.2499999999999888, -1.2862067603147396 
0.2599999999999877, -1.2818188317876742 
0.2699999999999866, -1.2782279373838565 
0.2799999999999855, -1.2754387487569017 
0.2899999999999844, -1.2734095262037053 
0.2999999999999833, -1.2720576281976892 
0.3099999999999822, -1.2712697583371935 
0.3199999999999811, -1.270914522502944 
0.32999999999998, -1.2708546722415917 
0.3399999999999789, -1.2709569590867542 
0.3499999999999778, -1.2710984770614517 
0.35999999999997667, -1.2711693259113375 
0.36999999999997557, -1.2710721076584834 
0.37999999999997447, -1.270719084848274 
0.38999999999997337, -1.2700278404200673 
0.39999999999997227, -1.268916112391226 
0.40999999999997117, -1.2672962536442347 
0.41999999999997006, -1.2650695728649581 
0.42999999999996896, -1.2621206918305445 
0.43999999999996786, -1.2583120237779573 
0.44999999999996676, -1.2534785409128217 
0.45999999999996566, -1.247423155017012 
0.46999999999996456, -1.2399132790830651 
0.47999999999996346, -1.2306794558174439 
0.48999999999996235, -1.2194172936516094 
0.49999999999996125, -1.2057942646067876 
0.5099999999999602, -1.1894630554724175 
0.519999999999959, -1.1700829285478023 
0.529999999999958, -1.1473497157989236 
0.5399999999999568, -1.1210334728661282 
0.5499999999999557, -1.0910204921094588 
0.5599999999999546, -1.0573537201247543 
0.5699999999999535, -1.0202634928432206 
0.5799999999999524, -0.980180021950309 
0.5899999999999513, -0.9377211758452061 
0.5999999999999502, -0.8936538826946675 
0.6099999999999491, -0.848833760947569 
0.619999999999948, -0.8041331729316942 
0.6299999999999469, -0.7603706216693571 
0.6399999999999458, -0.7182532666734149 
0.6499999999999447, -0.6783400189374993 
0.6599999999999436, -0.6410271003856979 
0.6699999999999425, -0.6065531502185662 
0.6799999999999414, -0.5750181569638289 
0.6899999999999403, -0.5464098463772393 
0.6999999999999392, -0.5206320652068916 
0.7099999999999381, -0.4975313383623709 
0.719999999999937, -0.4769194623147365 
0.7299999999999359, -0.45859134749803665 
0.7399999999999348, -0.4423382187994693 
0.7499999999999337, -0.4279567701132429 
0.7599999999999326, -0.4152550563572989 
0.7699999999999315, -0.4040559082112547 
0.7799999999999304, -0.3941985610473351 
0.7899999999999293, -0.3855390601165224 
0.7999999999999282, -0.3779498736770604 
0.8099999999999271, -0.37131903121640575 
0.819999999999926, -0.3655490110446084 
0.8299999999999249, -0.36055553022022196 
0.8399999999999238, -0.3562663372119609 
0.8499999999999227, -0.3526200702701324 
0.8599999999999216, -0.3495652186604828 
0.8699999999999205, -0.34705920668507273 
0.8799999999999194, -0.345067609374795 
0.8899999999999183, -0.34356350205181396 
0.8999999999999172, -0.3425269422710924 
0.9099999999999161, -0.34194458097590086 
0.919999999999915, -0.34180939933896143 
0.9299999999999139, -0.34212056820302494 
0.9399999999999128, -0.342883427909336 
0.9499999999999117, -0.344109587316067 
0.9599999999999106, -0.3458171417022305 
0.9699999999999095, -0.3480310097597386 
0.9799999999999084, -0.35078338968281086 
0.9899999999999073, -0.3541143330607693 
0.9999999999999062, -0.3580724323084363 
1.0099999999999052, -0.36271561195055474 
1.019999999999904, -0.36811200513445386 
1.029999999999903, -0.3743408828038303 
1.039999999999902, -0.38149358206110506 
1.0499999999999008, -0.38967434986129873 
1.0599999999998997, -0.39900097529426903 
1.0699999999998986, -0.409605025068183 
1.0799999999998975, -0.4216314196364567 
1.0899999999998964, -0.43523699093455354 
1.0999999999998953, -0.45058755085436036 
1.1099999999998942, -0.46785288546854575 
1.119999999999893, -0.48719900214436496 
1.129999999999892, -0.508776946359972 
1.1399999999998909, -0.532707651774496 
1.1499999999998898, -0.5590626954377077 
1.1599999999998887, -0.5878416064863036 
1.1699999999998876, -0.6189475740696396 
1.1799999999998865, -0.6521649251004382 
1.1899999999998854, -0.6871432502132955 
1.1999999999998843, -0.7233939080817355 
1.2099999999998832, -0.7603040315139695 
1.219999999999882, -0.7971705074497404 
1.229999999999881, -0.8332518663229491 
1.2399999999998799, -0.8678308285222872 
1.2499999999998788, -0.9002764367330112 
1.2599999999998777, -0.9300940773638259 
1.2699999999998766, -0.956954770952458 
1.2799999999998755, -0.980700673682228 
1.2899999999998744, -1.001329516448512 
1.2999999999998733, -1.018964673051395 
1.3099999999998722, -1.0338188177412422 
1.319999999999871, -1.0461580844323415 
1.32999999999987, -1.0562713468226943 
1.3399999999998689, -1.064446780958687 
1.3499999999998678, -1.070955936060107 
1.3599999999998666, -1.076044359231162 
1.3699999999998655, -1.0799273174210333 
1.3799999999998644, -1.0827891262194123 
1.3899999999998633, -1.0847848156916708 
1.3999999999998622, -1.0860431784101763 
1.4099999999998611, -1.0866705580456844 
1.41999999999986, -1.0867550029367876 
1.429999999999859, -1.0863706142353455 
1.4399999999998578, -1.0855820642727965 
1.4499999999998567, -1.0844493537381072 
1.4599999999998556, -1.083032919828299 
1.4699999999998545, -1.0813992000186716 
1.4799999999998534, -1.0796266900213343 
1.4899999999998523, -1.0778123990847523 
1.4999999999998512, -1.076078392774296 
1.5099999999998501, -1.074577826433625 
1.519999999999849, -1.0734995392389053 
1.529999999999848, -1.0730699616459707 
1.5399999999998468, -1.0735508893323913 
1.5499999999998457, -1.0752317233816018 
1.5599999999998446, -1.0784151953041141 
1.5699999999998435, -1.0833964609048916 
1.5799999999998424, -1.0904367268559894 
1.5899999999998413, -1.099734085892902 
1.5999999999998402, -1.111395637400382 
1.6099999999998391, -1.1254157992074496 
1.619999999999838, -1.1416655155699191 
1.629999999999837, -1.159895574173591 
1.6399999999998358, -1.1797546066344766 
1.6499999999998347, -1.2008192080521938 
1.6599999999998336, -1.222630959694681 
1.6699999999998325, -1.2447338924707956 
1.6799999999998314, -1.2667064778934563 
1.6899999999998303, -1.288184243688363 
1.6999999999998292, -1.3088717298990051 
1.709999999999828, -1.328544813046083 
1.719999999999827, -1.3470458529337392 
1.729999999999826, -1.3642745516179562 
1.7399999999998248, -1.380177098393429 
1.7499999999998237, -1.3947354773263594 
1.7599999999998226, -1.4079580535107128 
1.7699999999998215, -1.4198719218909386 
1.7799999999998204, -1.430517066455557 
1.7899999999998193, -1.439942126285627 
1.7999999999998182, -1.448201452319201 
1.809999999999817, -1.4553531154506179 
1.819999999999816, -1.46145755464036 
1.8299999999998149, -1.4665766087131253 
1.8399999999998138, -1.470772743288675 
1.8499999999998127, -1.4741083559324208 
1.8599999999998116, -1.4766451109825416 
1.8699999999998105, -1.4784433138098994 
1.8799999999998094, -1.4795613763560358 
1.8899999999998083, -1.4800554471636425 
1.8999999999998072, -1.4799792775630471 
1.909999999999806, -1.4793843713368702 
1.919999999999805, -1.4783204202462663 
1.9299999999998039, -1.4768359668435527 
1.9399999999998028, -1.4749791676163255 
1.9499999999998017, -1.4727984690130866 
1.9599999999998006, -1.4703429799925847 
1.9699999999997995, -1.4676623563933424 
1.9799999999997984, -1.4648061271997406 
1.9899999999997973, -1.4618225870908066 
1.9999999999997962, -1.458757605073966 
2.0099999999998173, -1.4556538616157828 
2.0199999999998384, -1.4525510182041745 
2.0299999999998595, -1.4494870781988836 
2.0399999999998806, -1.4465007459581718 
2.0499999999999017, -1.4436340689999807 
2.059999999999923, -1.4409342561723624 
2.069999999999944, -1.4384534949419343 
2.079999999999965, -1.4362459529017626 
2.089999999999986, -1.434361916601512 
2.100000000000007, -1.432840002323393 
2.1100000000000283, -1.4316992258554049 
2.1200000000000494, -1.4309330541351144 
2.1300000000000705, -1.4305071416257031 
2.1400000000000916, -1.4303613679520795 
2.1500000000001127, -1.430415471293853 
2.160000000000134, -1.4305765699816337 
2.170000000000155, -1.4307465510772752 
2.180000000000176, -1.4308276799816402 
2.190000000000197, -1.4307255483560843 
2.2000000000002182, -1.430349250801435 
2.2100000000002393, -1.4296092088940697 
2.2200000000002604, -1.428413279128017 
2.2300000000002815, -1.4266617628268374 
2.2400000000003026, -1.4242418047695102 
2.2500000000003237, -1.42102153106127 
2.260000000000345, -1.4168442032150828 
2.270000000000366, -1.4115226849356899 
2.280000000000387, -1.4048346365680917 
2.290000000000408, -1.3965190601937718 
2.3000000000004293, -1.3862750930444758 
2.3100000000004504, -1.3737642466190214 
2.3200000000004715, -1.3586175440421695 
2.3300000000004926, -1.3404491127485467 
2.3400000000005137, -1.318877599800701 
2.3500000000005348, -1.293556126959188 
2.360000000000556, -1.2642102466672644 
2.370000000000577, -1.2306814546003015 
2.380000000000598, -1.1929714326735017 
2.390000000000619, -1.1512798434479197 
2.4000000000006403, -1.106027036173238 
2.4100000000006614, -1.0578534936612554 
2.4200000000006825, -1.007590993562668 
2.4300000000007036, -0.9562061156037424 
2.4400000000007247, -0.9047234603086228 
2.450000000000746, -0.8541413770317414 
2.460000000000767, -0.8053549102418529 
2.470000000000788, -0.7590982521972096 
2.480000000000809, -0.715913332138203 
2.49000000000083, -0.6761446208245351 
2.5000000000008513, -0.6399550722471543 
2.5100000000008724, -0.6073555672130732 
2.5200000000008935, -0.578240188994475 
2.5300000000009146, -0.5524212660274425 
2.5400000000009357, -0.5296603205473386 
2.550000000000957, -0.5096930991288038 
2.560000000000978, -0.49224836038835723 
2.570000000000999, -0.4770609980008265 
2.58000000000102, -0.4638804934862958 
2.5900000000010412, -0.4524757831480796 
2.6000000000010624, -0.44263753109943976 
2.6100000000010835, -0.4341786291514676 
2.6200000000011046, -0.4269335577893843 
2.6300000000011257, -0.4207570732202409 
2.6400000000011468, -0.41552254642000674 
2.650000000001168, -0.4111201730198074 
2.660000000001189, -0.4074551942395174 
2.67000000000121, -0.4044462135401334 
2.680000000001231, -0.4020236557969528 
2.6900000000012523, -0.40012839088142055 
2.7000000000012734, -0.39871052781332894 
2.7100000000012945, -0.3977283762473987 
2.7200000000013156, -0.39714756689419034 
2.7300000000013367, -0.39694032004761004 
2.740000000001358, -0.3970848506475656 
2.750000000001379, -0.3975648985130339 
2.7600000000014, -0.39836937302582925 
2.770000000001421, -0.3994921022659554 
2.780000000001442, -0.40093167713054384 
2.7900000000014633, -0.40269138110647157 
2.8000000000014844, -0.4047791959442176 
2.8100000000015055, -0.40720787234661465 
2.8200000000015266, -0.40999505278936993 
2.8300000000015477, -0.4131634305585833 
2.840000000001569, -0.41674092480626207 
2.85000000000159, -0.4207608455938344 
2.860000000001611, -0.4252620151149834 
2.870000000001632, -0.4302888010401435 
2.8800000000016532, -0.43589100459200597 
2.8900000000016743, -0.44212352896063706 
2.9000000000016954, -0.4490457327218907 
2.9100000000017165, -0.4567203485728073 
2.9200000000017377, -0.4652118221085964 
2.9300000000017588, -0.47458390346862606 
2.94000000000178, -0.4848963155328573 
2.950000000001801, -0.49620034036415406 
2.960000000001822, -0.5085332307813223 
2.970000000001843, -0.5219114897881931 
2.9800000000018643, -0.536323287488271 
2.9900000000018854, -0.5517206077879585 
3.0000000000019065, -0.5680121062461251 
3.0100000000019276, -0.5850580337311315 
3.0200000000019487, -0.6026687972758785 
3.03000000000197, -0.6206086152130348 
3.040000000001991, -0.6386051385996231 
3.050000000002012, -0.6563648489982291 
3.060000000002033, -0.6735927098808246 
3.070000000002054, -0.6900133494572044 
3.0800000000020753, -0.7053904442542087 
3.0900000000020964, -0.7195412424232207 
3.1000000000021175, -0.7323442608622115 
3.1100000000021386, -0.7437397262938553 
3.1200000000021597, -0.7537237813488825 
3.130000000002181, -0.7623384234902973 
3.140000000002202, -0.7696594307454091 
3.150000000002223, -0.7757842557643387 
3.160000000002244, -0.780821282326583 
3.1700000000022652, -0.7848811858477684 
3.1800000000022863, -0.788070592769473 
3.1900000000023074, -0.7904878657258279 
3.2000000000023285, -0.7922206498267242 
3.2100000000023496, -0.7933447592245628 
3.2200000000023707, -0.7939240121459495 
3.230000000002392, -0.7940106942411684 
3.240000000002413, -0.793646415372982 
3.250000000002434, -0.7928632075582441 
3.260000000002455, -0.7916847849342795 
3.2700000000024763, -0.790127949606635 
3.2800000000024974, -0.7882041825891984 
3.2900000000025185, -0.7859215108315464 
3.3000000000025396, -0.7832867941572161 
3.3100000000025607, -0.7803086345958163 
3.3200000000025818, -0.777001180038792 
3.330000000002603, -0.7733891798160981 
3.340000000002624, -0.7695147582098862 
3.350000000002645, -0.7654465117863171 
3.360000000002666, -0.761291720323804 
3.3700000000026873, -0.7572127081767485 
3.3800000000027084, -0.7534487325803801 
3.3900000000027295, -0.7503452520493926 
3.4000000000027506, -0.7483931048059299 
3.4100000000027717, -0.74828108359075 
3.420000000002793, -0.7509667001541619 
3.430000000002814, -0.7577715593883613 
3.440000000002835, -0.7705092911214179 
3.450000000002856, -0.7916538045355009 
3.460000000002877, -0.8245487976255504 
3.4700000000028983, -0.8736325724952122 
3.4800000000029194, -0.9445732267371285 
3.4900000000029405, -1.0440173793384309 
3.5000000000029616, -1.1782996287646734 
3.5100000000029827, -1.3501624641168628 
3.520000000003004, -1.5534396484647162 
3.530000000003025, -1.7693935044833873 
3.540000000003046, -1.9716519109658133 
3.550000000003067, -2.1392954520402947 
3.5600000000030882, -2.265519241044551 
3.5700000000031094, -2.354947570371832 
3.5800000000031305, -2.4164268255797867 
3.5900000000031516, -2.4582798520944182 
3.6000000000031727, -2.4867868673496565 
3.6100000000031938, -2.5062654749120683 
3.620000000003215, -2.5195737592452394 
3.630000000003236, -2.528582380789871 
3.640000000003257, -2.5345164186942983 
3.650000000003278, -2.5381810283582333 
3.6600000000032993, -2.5401052066388314 
3.6700000000033204, -2.5406323704427214 
3.6800000000033415, -2.5399771913245606 
3.6900000000033626, -2.538260587620974 
3.7000000000033837, -2.53552949871911 
3.710000000003405, -2.53176486337852 
3.720000000003426, -2.526880511359326 
3.730000000003447, -2.5207185847779017 
3.740000000003468, -2.513054576030282 
3.750000000003489, -2.5036363645847692 
3.7600000000035103, -2.49229228390186 
3.7700000000035314, -2.4791390188077425 
3.7800000000035525, -2.4648658129070466 
3.7900000000035736, -2.4509275407085083 
3.8000000000035947, -2.439322707176113 
3.810000000003616, -2.431784356310293 
3.820000000003637, -2.428843690165871 
3.830000000003658, -2.429611156718039 
3.840000000003679, -2.4324534427209588 
3.8500000000037002, -2.435856367124829 
3.8600000000037213, -2.438844922007817 
3.8700000000037424, -2.4409540209834297 
3.8800000000037635, -2.442028046560389 
3.8900000000037847, -2.442040889474613 
3.9000000000038058, -2.440989273224105 
3.910000000003827, -2.438851193543769 
3.920000000003848, -2.435598736568731 
3.930000000003869, -2.431272715685138 
3.94000000000389, -2.4261400593803777 
3.9500000000039113, -2.4209298103582526 
3.9600000000039324, -2.417030030151307 
3.9700000000039535, -2.4163467114551898 
3.9800000000039746, -2.4205508860662164 
3.9900000000039957, -2.4300179891514446 
4.000000000004016, -2.4434125930579245 
4.010000000003993, -2.458418320265572 
4.02000000000397, -2.4729078419182473 
4.030000000003946, -2.4856041194293463 
4.040000000003923, -2.4960644598225206 
4.0500000000039, -2.5043596685648977 
4.0600000000038765, -2.5107693137870237 
4.070000000003853, -2.515597039253023 
4.08000000000383, -2.5190893075059946 
4.090000000003807, -2.521413784328611 
4.100000000003783, -2.5226623197333025 
4.11000000000376, -2.5228579722958684 
4.120000000003737, -2.521956578887275 
4.130000000003713, -2.5198393422216183 
4.14000000000369, -2.5162946061383735 
4.150000000003667, -2.510985885311763 
4.1600000000036434, -2.5034003830304066 
4.17000000000362, -2.4927680221580886 
4.180000000003597, -2.4779355371774265 
4.1900000000035735, -2.457174738631309 
4.20000000000355, -2.427905016769897 
4.210000000003527, -2.3863387278534085 
4.220000000003504, -2.327170282631162 
4.23000000000348, -2.243729010877896 
4.240000000003457, -2.12953221827146 
4.250000000003434, -1.9822996157349597 
4.26000000000341, -1.809397047569788 
4.270000000003387, -1.629278747407454 
4.280000000003364, -1.46427309477896 
4.2900000000033405, -1.330133130541111 
4.300000000003317, -1.2318319066690389 
4.310000000003294, -1.1663348273451768 
4.320000000003271, -1.1271146181524476 
4.330000000003247, -1.107200318191965 
4.340000000003224, -1.1005365470619344 
4.350000000003201, -1.1023582692270923 
4.360000000003177, -1.1091409301278006 
4.370000000003154, -1.1184072389815525 
4.380000000003131, -1.1285057334654214 
4.390000000003107, -1.1384038458491992 
4.400000000003084, -1.147510853571656 
4.410000000003061, -1.1555354295113869 
4.4200000000030375, -1.1623771689409321 
4.430000000003014, -1.168048254370299 
4.440000000002991, -1.1726197360484074 
4.450000000002968, -1.1761865199425674 
4.460000000002944, -1.1788456743323616 
4.470000000002921, -1.1806836382705217 
4.480000000002898, -1.1817689795893165 
4.490000000002874, -1.1821482937892953 
4.500000000002851, -1.1818435712712179 
4.510000000002828, -1.1808498814580692 
4.520000000002804, -1.179132558461152 
4.530000000002781, -1.1766232651487372 
4.540000000002758, -1.1732144000357008 
4.5500000000027345, -1.1687513280188977 
4.560000000002711, -1.163021890912221 
4.570000000002688, -1.1557426147708747 
4.580000000002665, -1.1465410061107038 
4.590000000002641, -1.1349333422817842 
4.600000000002618, -1.1202974136034471 
4.610000000002595, -1.1018396968415918 
4.620000000002571, -1.078556196489456 
4.630000000002548, -1.0491851423002523 
4.640000000002525, -1.0121469362495998 
4.6500000000025015, -0.9654611436277056 
4.660000000002478, -0.9066223701556841 
4.670000000002455, -0.8324135766173224 
4.6800000000024315, -0.7386627014042799 
4.690000000002408, -0.6200744432020241 
4.700000000002385, -0.47062016727879497 
4.710000000002362, -0.2856036771012962 
4.720000000002338, -0.06673615968267504 
4.730000000002315, 0.17034429703815118 
4.740000000002292, 0.39837993482829687 
4.750000000002268, 0.5902781788635169 
4.760000000002245, 0.7339860169226357 
4.770000000002222, 0.8335324604696327 
4.7800000000021985, 0.8998412650307931 
4.790000000002175, 0.9435024400351917 
4.800000000002152, 0.9723539809433349 
4.810000000002129, 0.9915948735558338 
4.820000000002105, 1.004529696711932 
4.830000000002082, 1.0132356950997525 
4.840000000002059, 1.0190226792812194 
4.850000000002035, 1.0227228868695322 
4.860000000002012, 1.024868132126922 
4.870000000001989, 1.025797588702662 
4.880000000001965, 1.025724024783438 
4.890000000001942, 1.024775417851711 
4.900000000001919, 1.0230221648871958 
4.9100000000018955, 1.020496164995505 
4.920000000001872, 1.0172057569191393 
4.930000000001849, 1.0131490862196002 
