t, s[1].omega / s[0].omega 
0, -1.3398805920001968 
0.009999999999999995, -1.3267009540758274 
0.019999999999999934, -1.3128617167767234 
0.029999999999999874, -1.3019285711636486 
0.04000000000000012, -1.296320135792516 
0.050000000000000405, -1.2953240944612623 
0.06000000000000069, -1.2964898626124892 
0.07000000000000098, -1.2979560705283888 
0.08000000000000126, -1.2990051349662084 
0.09000000000000155, -1.2995450301539302 
0.10000000000000184, -1.2996549489752298 
0.11000000000000212, -1.2993984386342041 
0.12000000000000241, -1.2987725440192741 
0.130000000000002, -1.29770265542793 
0.1400000000000009, -1.2960781292068047 
0.1499999999999998, -1.2939128352112677 
0.1599999999999987, -1.2917887436613131 
0.1699999999999976, -1.2914961336228894 
0.1799999999999965, -1.2957873200375725 
0.1899999999999954, -1.3060278323436376 
0.1999999999999943, -1.3200686807918252 
0.2099999999999932, -1.3339030522983273 
0.2199999999999921, -1.3448059370026482 
0.229999999999991, -1.3521922444390087 
0.2399999999999899, -1.3566931611759583 
0.2499999999999888, -1.3592060772499315 
0.2599999999999877, -1.3604633747588388 
0.2699999999999866, -1.360951860635124 
0.2799999999999855, -1.3609646929215924 
0.2899999999999844, -1.360678065089276 
0.2999999999999833, -1.360222505245654 
0.3099999999999822, -1.3597431784149676 
0.3199999999999811, -1.3594272003534662 
0.32999999999998, -1.3594574299529971 
0.3399999999999789, -1.3599093918237553 
0.3499999999999778, -1.3607037096601846 
0.35999999999997667, -1.3616703047638088 
0.36999999999997557, -1.3626396888988341 
0.37999999999997447, -1.3634855010911164 
0.38999999999997337, -1.3641261895357701 
0.39999999999997227, -1.364513748175182 
0.40999999999997117, -1.3646220455525861 
0.41999999999997006, -1.3644384179245312 
0.42999999999996896, -1.3639592630906525 
0.43999999999996786, -1.3631890740648083 
0.44999999999996676, -1.3621426311177602 
0.45999999999996566, -1.3608509540612286 
0.46999999999996456, -1.3593714687168474 
0.47999999999996346, -1.3578010959991482 
0.48999999999996235, -1.3562863675306684 
0.49999999999996125, -1.3550113135310289 
0.5099999999999602, -1.354133218210488 
0.519999999999959, -1.3536840426159062 
0.529999999999958, -1.3535389188139728 
0.5399999999999568, -1.3534988630606783 
0.5499999999999557, -1.353387131004288 
0.5599999999999546, -1.3530688015108634 
0.5699999999999535, -1.3524082292116293 
0.5799999999999524, -1.3512045427605741 
0.5899999999999513, -1.3491187358531262 
0.5999999999999502, -1.3455998250741708 
0.6099999999999491, -1.3398564143621052 
0.619999999999948, -1.3310100686442217 
0.6299999999999469, -1.3186573047976027 
0.6399999999999458, -1.3038870875548911 
0.6499999999999447, -1.2898911756206999 
0.6599999999999436, -1.2804460066200103 
0.6699999999999425, -1.2768190102363488 
0.6799999999999414, -1.277115147176123 
0.6899999999999403, -1.278746798470622 
0.6999999999999392, -1.2802509993059836 
0.7099999999999381, -1.2812132680113884 
0.719999999999937, -1.2816575776606833 
0.7299999999999359, -1.2816856882046566 
0.7399999999999348, -1.2813543793014257 
0.7499999999999337, -1.2806484687545376 
0.7599999999999326, -1.2794853615644586 
0.7699999999999315, -1.277765700773007 
0.7799999999999304, -1.2755681973583424 
0.7899999999999293, -1.2736314984606767 
0.7999999999999282, -1.273926943452499 
0.8099999999999271, -1.2791394916452605 
0.819999999999926, -1.2902012067226212 
0.8299999999999249, -1.3046019511899396 
0.8399999999999238, -1.318385790330225 
0.8499999999999227, -1.3290677056443145 
0.8599999999999216, -1.3362304982863782 
0.8699999999999205, -1.3405651107837462 
0.8799999999999194, -1.3429711036999517 
0.8899999999999183, -1.3441651054968284 
0.8999999999999172, -1.3446177578169385 
0.9099999999999161, -1.3446105519203901 
0.919999999999915, -1.3443125928721673 
0.9299999999999139, -1.3438511767873416 
0.9399999999999128, -1.3433723858243851 
0.9499999999999117, -1.3430699864781457 
0.9599999999999106, -1.34313921552512 
0.9699999999999095, -1.3436669329415751 
0.9799999999999084, -1.344573712507759 
0.9899999999999073, -1.3456769234405097 
0.9999999999999062, -1.3467914281975584 
1.0099999999999052, -1.347780170064425 
1.019999999999904, -1.3485571677566175 
1.029999999999903, -1.3490743468856168 
1.039999999999902, -1.349308114465051 
1.0499999999999008, -1.3492499389231802 
1.0599999999998997, -1.348901323451961 
1.0699999999998986, -1.348272285136725 
1.0799999999998975, -1.3473827149880824 
1.0899999999998964, -1.3462668391477992 
1.0999999999998953, -1.3449807322356306 
1.1099999999998942, -1.3436109404090901 
1.119999999999893, -1.342279766037218 
1.129999999999892, -1.3411366942642178 
1.1399999999998909, -1.3403163355343188 
1.1499999999998898, -1.339864780311774 
1.1599999999998887, -1.3396987886579355 
1.1699999999998876, -1.3396534016490558 
1.1799999999998865, -1.3395637383445795 
1.1899999999998854, -1.3392970330473386 
1.1999999999998843, -1.3387269615938222 
1.2099999999998832, -1.337683216754789 
1.219999999999882, -1.3358966037146047 
1.229999999999881, -1.3329513124810677 
1.2399999999998799, -1.3282751273259286 
1.2499999999998788, -1.3212400836514697 
1.2599999999998777, -1.3114821139058142 
1.2699999999998766, -1.2994858287329134 
1.2799999999998755, -1.287122245401888 
1.2899999999998744, -1.2772269010849315 
1.2999999999998733, -1.2717434389974769 
1.3099999999998722, -1.2702504375234385 
1.319999999999871, -1.2708505031749966 
1.32999999999987, -1.2719377786151949 
1.3399999999998689, -1.2727875910995012 
1.3499999999998678, -1.2732351220445417 
1.3599999999998666, -1.2733037185828056 
1.3699999999998655, -1.2730236229369942 
1.3799999999998644, -1.2723673439480534 
1.3899999999998633, -1.27122515522684 
1.3999999999998622, -1.2694051078465942 
1.4099999999998611, -1.2667212209044272 
1.41999999999986, -1.2633523002319085 
1.429999999999859, -1.2606399237980876 
1.4399999999998578, -1.2616811658776546 
1.4499999999998567, -1.2696916693882037 
1.4599999999998556, -1.2842623654126224 
1.4699999999998545, -1.3008192280842663 
1.4799999999998534, -1.3147736125300156 
1.4899999999998523, -1.324420931506621 
1.4999999999998512, -1.330285724561889 
1.5099999999998501, -1.3335472935452093 
1.519999999999849, -1.335209122162278 
1.529999999999848, -1.3359259069044098 
1.5399999999998468, -1.3360761476554748 
1.5499999999998457, -1.33586981985346 
1.5599999999998446, -1.3354387617019172 
1.5699999999998435, -1.3349146759935502 
1.5799999999998424, -1.3344943520171522 
1.5899999999998413, -1.3344456472528252 
1.5999999999998402, -1.334994302835634 
1.6099999999998391, -1.336162469324594 
1.619999999999838, -1.3377486378334413 
1.629999999999837, -1.3394690676905272 
1.6399999999998358, -1.341091152983107 
1.6499999999998347, -1.342471794746651 
1.6599999999998336, -1.3435392950471976 
1.6699999999998325, -1.3442664436011618 
1.6799999999998314, -1.3446515941075288 
1.6899999999998303, -1.3447083720144941 
1.6999999999998292, -1.3444608484179037 
1.709999999999828, -1.343941707226871 
1.719999999999827, -1.3431930776107683 
1.729999999999826, -1.3422705242179975 
1.7399999999998248, -1.3412482057941013 
1.7499999999998237, -1.3402200963055657 
1.7599999999998226, -1.339293343710699 
1.7699999999998215, -1.3385707781584233 
1.7799999999998204, -1.3381164039030884 
1.7899999999998193, -1.337914877756842 
1.7999999999998182, -1.337867081611535 
1.809999999999817, -1.3378356351802183 
1.819999999999816, -1.3376913771762402 
1.8299999999998149, -1.3373194545583418 
1.8399999999998138, -1.3365929936923386 
1.8499999999998127, -1.3353387455816403 
1.8599999999998116, -1.3333117998779636 
1.8699999999998105, -1.330194855198742 
1.8799999999998094, -1.3256438256838234 
1.8899999999998083, -1.3194069768231345 
1.8999999999998072, -1.3115414295932881 
1.909999999999806, -1.3027017811315458 
1.919999999999805, -1.294285215003064 
1.9299999999998039, -1.2879757282417619 
1.9399999999998028, -1.2846492011412591 
1.9499999999998017, -1.2837733557957036 
1.9599999999998006, -1.2841132295419764 
1.9699999999997995, -1.284707226577233 
1.9799999999997984, -1.2851213473937384 
1.9899999999997973, -1.2852375441346426 
1.9999999999997962, -1.2850340419915125 
2.0099999999998173, -1.2844690196637045 
2.0199999999998384, -1.2834213208846028 
2.0299999999998595, -1.2816464307851214 
2.0399999999998806, -1.2787602662109967 
2.0499999999999017, -1.274378695307752 
2.059999999999923, -1.2687287083304908 
2.069999999999944, -1.2638870810983724 
2.079999999999965, -1.2641927012416512 
2.089999999999986, -1.2729659759781904 
2.100000000000007, -1.2880131067953293 
2.1100000000000283, -1.3034019159185042 
2.1200000000000494, -1.3150763226863669 
2.1300000000000705, -1.3224560156929641 
2.1400000000000916, -1.3266294431313015 
2.1500000000001127, -1.3288010771264833 
2.160000000000134, -1.3298045738447937 
2.170000000000155, -1.3301240793699691 
2.180000000000176, -1.3300189201372974 
2.190000000000197, -1.3296307929839453 
2.2000000000002182, -1.3290713724427932 
2.2100000000002393, -1.3285102474892818 
2.2200000000002604, -1.3282444444184651 
2.2300000000002815, -1.3286520635591281 
2.2400000000003026, -1.3299673037320863 
2.2500000000003237, -1.332075858292248 
2.260000000000345, -1.3345929785404922 
2.270000000000366, -1.3371124953997366 
2.280000000000387, -1.3393580252478934 
2.290000000000408, -1.341190431902315 
2.3000000000004293, -1.3425619660109949 
2.3100000000004504, -1.3434762762654253 
2.3200000000004715, -1.343965260113502 
2.3300000000004926, -1.3440766281382968 
2.3400000000005137, -1.3438662423149246 
2.3500000000005348, -1.3433940829368318 
2.360000000000556, -1.342725465512014 
2.370000000000577, -1.3419365547174416 
2.380000000000598, -1.3411172579549933 
2.390000000000619, -1.3403637125040473 
2.4000000000006403, -1.3397618258322255 
2.4100000000006614, -1.3393683379506265 
2.4200000000006825, -1.3391897290264612 
2.4300000000007036, -1.339168664425577 
2.4400000000007247, -1.3391995516605795 
2.450000000000746, -1.3391651088445284 
2.460000000000767, -1.338958238702634 
2.470000000000788, -1.3384754083225348 
2.480000000000809, -1.3375964781199037 
2.49000000000083, -1.3361693980866682 
2.5000000000008513, -1.3340111834589778 
2.5100000000008724, -1.3309314783228121 
2.5200000000008935, -1.326782770716415 
2.5300000000009146, -1.3215445652684326 
2.5400000000009357, -1.31545166279539 
2.550000000000957, -1.309135331816367 
2.560000000000978, -1.3036062343315746 
2.570000000000999, -1.2998271900226528 
2.58000000000102, -1.298054471255665 
2.5900000000010412, -1.2977134933566208 
2.6000000000010624, -1.29798100211533 
2.6100000000010835, -1.2982987092356597 
2.6200000000011046, -1.2984246494619254 
2.6300000000011257, -1.298275313456357 
2.6400000000011468, -1.29778931689537 
2.650000000001168, -1.2968432891552932 
2.660000000001189, -1.2951833576791445 
2.67000000000121, -1.2923538287120249 
2.680000000001231, -1.287682881573507 
2.6900000000012523, -1.2805827214374086 
2.7000000000012734, -1.2716380643241756 
2.7100000000012945, -1.2642010746188792 
2.7200000000013156, -1.2635602116340439 
2.7300000000013367, -1.2716720529198966 
2.740000000001358, -1.2843250516173326 
2.750000000001379, -1.2959054302161355 
2.7600000000014, -1.3039592744438682 
2.770000000001421, -1.3087514239341775 
2.780000000001442, -1.311335289648568 
2.7900000000014633, -1.3125927652327625 
2.8000000000014844, -1.3130709492140438 
2.8100000000015055, -1.313067355591954 
2.8200000000015266, -1.312733769225813 
2.8300000000015477, -1.3121612915567804 
2.840000000001569, -1.311469581525716 
2.85000000000159, -1.310918197034734 
2.860000000001611, -1.3109761788681682 
2.870000000001632, -1.3121730588028007 
2.8800000000016532, -1.3147089460270793 
2.8900000000016743, -1.318236597047548 
2.9000000000016954, -1.3221088541819201 
2.9100000000017165, -1.325758609253566 
2.9200000000017377, -1.3288555711079804 
2.9300000000017588, -1.3312714623344255 
2.94000000000178, -1.333001596398012 
2.950000000001801, -1.3341075170526753 
2.960000000001822, -1.3346822485594452 
2.970000000001843, -1.3348276731016224 
2.9800000000018643, -1.3346405576443785 
2.9900000000018854, -1.334209044413056 
3.0000000000019065, -1.3336195343328143 
3.0100000000019276, -1.3329667651082562 
3.0200000000019487, -1.3323533516287305 
3.03000000000197, -1.3318710592793865 
3.040000000001991, -1.3315763916783427 
3.050000000002012, -1.3314785900371293 
3.060000000002033, -1.3315393786501284 
3.070000000002054, -1.3316803573740357 
3.0800000000020753, -1.3318023633858493 
3.0900000000020964, -1.3318081146671372 
3.1000000000021175, -1.3316110620569543 
3.1100000000021386, -1.3311294216281342 
3.1200000000021597, -1.3302777614472636 
3.130000000002181, -1.3289661552913503 
3.140000000002202, -1.3271090615990269 
3.150000000002223, -1.3246416121126712 
3.160000000002244, -1.3215432169413366 
3.1700000000022652, -1.3178754911823134 
3.1800000000022863, -1.3138421362769477 
3.1900000000023074, -1.309848824168705 
3.2000000000023285, -1.3064679318423427 
3.2100000000023496, -1.3041942910572915 
3.2200000000023707, -1.303114368669902 
3.230000000002392, -1.3028700050527628 
3.240000000002413, -1.3029727618329647 
3.250000000002434, -1.3030757691008814 
3.260000000002455, -1.303002911443827 
3.2700000000024763, -1.3026563134259517 
3.2800000000024974, -1.3019211288421135 
3.2900000000025185, -1.300583490356344 
3.3000000000025396, -1.2982365434605163 
3.3100000000025607, -1.2941669414024146 
3.3200000000025818, -1.287308895336783 
3.330000000002603, -1.2765965527231613 
3.340000000002624, -1.262262335038989 
3.350000000002645, -1.247667764755104 
3.360000000002666, -1.2385272426546958 
3.3700000000026873, -1.2378119619968213 
3.3800000000027084, -1.2428644359844563 
3.3900000000027295, -1.2491107202347869 
3.4000000000027506, -1.2539912014437224 
3.4100000000027717, -1.2570828806946088 
3.420000000002793, -1.2588008346136665 
3.430000000002814, -1.2596201002564658 
3.440000000002835, -1.2598634992612516 
3.450000000002856, -1.2597062879835748 
3.460000000002877, -1.25922259194372 
3.4700000000028983, -1.2584356719449068 
3.4800000000029194, -1.2573954758902492 
3.4900000000029405, -1.256334525915137 
3.5000000000029616, -1.2559040027422161 
3.5100000000029827, -1.2572460393111744 
3.520000000003004, -1.2614362076030738 
3.530000000003025, -1.2684837144722443 
3.540000000003046, -1.2770974976209983 
3.550000000003067, -1.2855837678015563 
3.5600000000030882, -1.2927576315705829 
3.5700000000031094, -1.2981658957761977 
3.5800000000031305, -1.3018752068174775 
3.5900000000031516, -1.3041977205593407 
3.6000000000031727, -1.3054967602813488 
3.6100000000031938, -1.3060853587193522 
3.620000000003215, -1.3061948792618074 
3.630000000003236, -1.305985588156838 
3.640000000003257, -1.305577347677227 
3.650000000003278, -1.3050860455194118 
3.6600000000032993, -1.3046485563073216 
3.6700000000033204, -1.3044108133524408 
3.6800000000033415, -1.3044731216741619 
3.6900000000033626, -1.3048403051736412 
3.7000000000033837, -1.3054298017366326 
3.710000000003405, -1.306121214833886 
3.720000000003426, -1.3067980436266708 
3.730000000003447, -1.3073659925288388 
3.740000000003468, -1.3077565945691814 
3.750000000003489, -1.3079237852923442 
3.7600000000035103, -1.3078381598089583 
3.7700000000035314, -1.3074823897202992 
3.7800000000035525, -1.3068490130707175 
3.7900000000035736, -1.305940465466511 
3.8000000000035947, -1.3047715744275552 
3.810000000003616, -1.303375310749709 
3.820000000003637, -1.30181201959936 
3.830000000003658, -1.300180277570879 
3.840000000003679, -1.2986229354925227 
3.8500000000037002, -1.2973119561423512 
3.8600000000037213, -1.2963911489222437 
3.8700000000037424, -1.2958939336051016 
3.8800000000037635, -1.2957141179931486 
3.8900000000037847, -1.2956705024148127 
3.9000000000038058, -1.2955929352322928 
3.910000000003827, -1.2953507751276963 
3.920000000003848, -1.2948255635990058 
3.930000000003869, -1.2938625625634157 
3.94000000000389, -1.2922199430011745 
3.9500000000039113, -1.2895251537678023 
3.9600000000039324, -1.285263626229917 
3.9700000000039535, -1.2788576195737427 
3.9800000000039746, -1.2699159191005809 
3.9900000000039957, -1.2586874004428763 
4.000000000004016, -1.2465294710124692 
4.010000000003993, -1.235804834078897 
4.02000000000397, -1.2286685628276026 
4.030000000003946, -1.2255617024435779 
4.040000000003923, -1.2252004531071123 
4.0500000000039, -1.2259496861355403 
4.0600000000038765, -1.2267961563953618 
4.070000000003853, -1.2273618971877813 
4.08000000000383, -1.2275810455189249 
4.090000000003807, -1.227467986269103 
4.100000000003783, -1.2270128919832086 
4.11000000000376, -1.226135767280064 
4.120000000003737, -1.2246536988993033 
4.130000000003713, -1.222259343828288 
4.14000000000369, -1.2185796224360175 
4.150000000003667, -1.2135146732252715 
4.1600000000036434, -1.2081000759498792 
4.17000000000362, -1.2054157232235445 
4.180000000003597, -1.2094544902501592 
4.1900000000035735, -1.2211405016181436 
4.20000000000355, -1.2364702080939824 
4.210000000003527, -1.250266911905359 
4.220000000003504, -1.2600792584509857 
4.23000000000348, -1.2661056136136808 
4.240000000003457, -1.2694755356869054 
4.250000000003434, -1.271212217992118 
4.26000000000341, -1.271986761772613 
4.270000000003387, -1.2721814543744518 
4.280000000003364, -1.2719979865175635 
4.2900000000033405, -1.2715446201676612 
4.300000000003317, -1.2709123485000946 
4.310000000003294, -1.2702650931016588 
4.320000000003271, -1.2699357619631193 
4.330000000003247, -1.270424950434248 
4.340000000003224, -1.272164298724615 
4.350000000003201, -1.2751715369764949 
4.360000000003177, -1.2789945947578176 
4.370000000003154, -1.2830099869342595 
4.380000000003131, -1.2867193250025475 
4.390000000003107, -1.2898393334129632 
4.400000000003084, -1.2922607076265145 
4.410000000003061, -1.2939852753047931 
4.4200000000030375, -1.2950797489424555 
4.430000000003014, -1.2956436107395164 
4.440000000002991, -1.2957848848007838 
4.450000000002968, -1.2956046723569352 
4.460000000002944, -1.2951938203948623 
4.470000000002921, -1.2946409674299082 
4.480000000002898, -1.294043613864809 
4.490000000002874, -1.2935074530632267 
4.500000000002851, -1.293125088585549 
4.510000000002828, -1.292947567640425 
4.520000000002804, -1.2929724420738722 
4.530000000002781, -1.2931512296443546 
4.540000000002758, -1.2934043849907595 
4.5500000000027345, -1.293639581307891 
4.560000000002711, -1.2937693729332371 
4.570000000002688, -1.2937196696134359 
4.580000000002665, -1.2934281216313952 
4.590000000002641, -1.292840081400651 
4.600000000002618, -1.2919083623442624 
4.610000000002595, -1.2905971910978262 
4.620000000002571, -1.2888880946873937 
4.630000000002548, -1.2867876019118092 
4.640000000002525, -1.2843403244587581 
4.6500000000025015, -1.2816514268179786 
4.660000000002478, -1.278914487430138 
4.670000000002455, -1.2764178846555203 
4.6800000000024315, -1.274476914328289 
4.690000000002408, -1.2732775437453001 
4.700000000002385, -1.2727527778639536 
4.710000000002362, -1.2726401068481985 
4.720000000002338, -1.272655085720253 
4.730000000002315, -1.272597151839526 
4.740000000002292, -1.272340051163479 
4.750000000002268, -1.2717707245013374 
4.760000000002245, -1.2707216456489263 
4.770000000002222, -1.2688990403504048 
4.7800000000021985, -1.2658009147597842 
4.790000000002175, -1.260651427486266 
4.800000000002152, -1.2524650601987344 
4.810000000002129, -1.2404731952989716 
4.820000000002105, -1.225077991005574 
4.830000000002082, -1.2087945357998549 
4.840000000002059, -1.1956213747531572 
4.850000000002035, -1.1883117819653657 
4.860000000002012, -1.1863933726073017 
4.870000000001989, -1.187385289716532 
4.880000000001965, -1.189114075688584 
4.890000000001942, -1.1905532509469108 
4.900000000001919, -1.191459579364186 
4.9100000000018955, -1.1918840713102032 
4.920000000001872, -1.1919188720153615 
4.930000000001849, -1.1916107865523795 
4.940000000001826, -1.1909372714815438 
