t, s[1].omega / s[0].omega 
0, -1.0600835907270463 
0.009999999999999995, -1.0676443343094117 
0.019999999999999934, -1.0734281607985894 
0.029999999999999874, -1.0774601594536242 
0.04000000000000012, -1.0800374896916836 
0.050000000000000405, -1.0815379205755993 
0.06000000000000069, -1.0822943938467082 
0.07000000000000098, -1.0825501009375373 
0.08000000000000126, -1.0824642758390213 
0.09000000000000155, -1.0821387409574597 
0.10000000000000184, -1.0816521460665984 
0.11000000000000212, -1.0811017551543567 
0.12000000000000241, -1.0806526329507062 
0.130000000000002, -1.0805753306781543 
0.1400000000000009, -1.0812241997064567 
0.1499999999999998, -1.0829175977824959 
0.1599999999999987, -1.0857711011066693 
0.1699999999999976, -1.0896165411778813 
0.1799999999999965, -1.0940718504235016 
0.1899999999999954, -1.0986858009096339 
0.1999999999999943, -1.103053556649127 
0.2099999999999932, -1.1068725220298243 
0.2199999999999921, -1.1099609700795556 
0.229999999999991, -1.1122589416523554 
0.2399999999999899, -1.1138113076660259 
0.2499999999999888, -1.1147312078530942 
0.2599999999999877, -1.1151558209424026 
0.2699999999999866, -1.1152127558522735 
0.2799999999999855, -1.115006780111784 
0.2899999999999844, -1.114625419126302 
0.2999999999999833, -1.1141569688598596 
0.3099999999999822, -1.113711847544048 
0.3199999999999811, -1.11343215270039 
0.32999999999998, -1.1134708830519031 
0.3399999999999789, -1.1139395932074596 
0.3499999999999778, -1.1148583892685822 
0.35999999999997667, -1.1161497488138985 
0.36999999999997557, -1.117677104768743 
0.37999999999997447, -1.1192931740984728 
0.38999999999997337, -1.1208704506541318 
0.39999999999997227, -1.1223107916270896 
0.40999999999997117, -1.1235431959638862 
0.41999999999997006, -1.1245188736260232 
0.42999999999996896, -1.1252087614911122 
0.43999999999996786, -1.1256040367718068 
0.44999999999996676, -1.125716627587605 
0.45999999999996566, -1.125576724423626 
0.46999999999996456, -1.1252279256072848 
0.47999999999996346, -1.1247238075733363 
0.48999999999996235, -1.124128556188696 
0.49999999999996125, -1.1235193058211128 
0.5099999999999602, -1.1229830776637393 
0.519999999999959, -1.1226024922848126 
0.529999999999958, -1.1224341474769397 
0.5399999999999568, -1.1224925952415996 
0.5499999999999557, -1.1227490380230363 
0.5599999999999546, -1.1231425277417157 
0.5699999999999535, -1.1235964959919378 
0.5799999999999524, -1.1240346484416504 
0.5899999999999513, -1.124391896676258 
0.5999999999999502, -1.1246187572664603 
0.6099999999999491, -1.1246810972641244 
0.619999999999948, -1.1245581086806906 
0.6299999999999469, -1.1242401133645035 
0.6399999999999458, -1.1237268081159542 
0.6499999999999447, -1.1230265883705566 
0.6599999999999436, -1.1221574942394892 
0.6699999999999425, -1.1211496427480507 
0.6799999999999414, -1.1200482301000059 
0.6899999999999403, -1.1189153195332657 
0.6999999999999392, -1.1178277310617308 
0.7099999999999381, -1.1168685775443261 
0.719999999999937, -1.1161119207019194 
0.7299999999999359, -1.1156028905589968 
0.7399999999999348, -1.115340132912415 
0.7499999999999337, -1.1152719117868175 
0.7599999999999326, -1.115311910059491 
0.7699999999999315, -1.1153649533149796 
0.7799999999999304, -1.1153454594191865 
0.7899999999999293, -1.1151815789314639 
0.7999999999999282, -1.1148110547461498 
0.8099999999999271, -1.1141782334688937 
0.819999999999926, -1.1132372817134615 
0.8299999999999249, -1.1119602851769184 
0.8399999999999238, -1.1103447410027645 
0.8499999999999227, -1.108416078171029 
0.8599999999999216, -1.1062262167816137 
0.8699999999999205, -1.1038528925625388 
0.8799999999999194, -1.1014024641855136 
0.8899999999999183, -1.0990129530888426 
0.8999999999999172, -1.0968478963958013 
0.9099999999999161, -1.0950693623320702 
0.919999999999915, -1.0937881960732059 
0.9299999999999139, -1.0930149668045392 
0.9399999999999128, -1.0926518629935453 
0.9499999999999117, -1.0925381324651737 
0.9599999999999106, -1.0925122753821639 
0.9699999999999095, -1.092446883048906 
0.9799999999999084, -1.0922471002720786 
0.9899999999999073, -1.0918300037924564 
0.9999999999999062, -1.0911027308558618 
1.0099999999999052, -1.0899496976438308 
1.019999999999904, -1.0882359713532823 
1.029999999999903, -1.0858318273002778 
1.039999999999902, -1.0826551197537504 
1.0499999999999008, -1.0787148466505534 
1.0599999999998997, -1.074135923548336 
1.0699999999998986, -1.069159219382509 
1.0799999999998975, -1.064124196935136 
1.0899999999998964, -1.059434017890521 
1.0999999999998953, -1.0554863510795354 
1.1099999999998942, -1.0525634267299986 
1.119999999999893, -1.0507271063031118 
1.129999999999892, -1.0498027902055391 
1.1399999999998909, -1.0494794428026797 
1.1499999999998898, -1.0494476775208257 
1.1599999999998887, -1.0494809011720225 
1.1699999999998876, -1.0494398045967754 
1.1799999999998865, -1.0492368358367865 
1.1899999999998854, -1.0487952940767618 
1.1999999999998843, -1.048015863291979 
1.2099999999998832, -1.0467521077185438 
1.219999999999882, -1.0447989574641325 
1.229999999999881, -1.041907590488566 
1.2399999999998799, -1.0378440812902854 
1.2499999999998788, -1.0324911757607158 
1.2599999999998777, -1.0259532848129476 
1.2699999999998766, -1.0186033442744802 
1.2799999999998755, -1.0110395949639115 
1.2899999999998744, -1.0039661906079593 
1.2999999999998733, -0.998027073120995 
1.3099999999998722, -0.9936305488372318 
1.319999999999871, -0.9908349075261761 
1.32999999999987, -0.9893723546182029 
1.3399999999998689, -0.988806080162064 
1.3499999999998678, -0.9887126086750954 
1.3599999999998666, -0.9887845250071194 
1.3699999999998655, -0.9888382037520715 
1.3799999999998644, -0.9887724267786764 
1.3899999999998633, -0.9885206816752913 
1.3999999999998622, -0.9880137341369271 
1.4099999999998611, -0.9871528774773468 
1.41999999999986, -0.9857924834290707 
1.429999999999859, -0.9837374595917401 
1.4399999999998578, -0.9807698300613851 
1.4499999999998567, -0.9767164225166158 
1.4599999999998556, -0.9715434647943354 
1.4699999999998545, -0.965427339547996 
1.4799999999998534, -0.9587509435425714 
1.4899999999998523, -0.9520260579541313 
1.4999999999998512, -0.9457850639986269 
1.5099999999998501, -0.9404778750045036 
1.519999999999849, -0.9363869777198366 
1.529999999999848, -0.9335755281126806 
1.5399999999998468, -0.9318946810502433 
1.5499999999998457, -0.9310579584191782 
1.5599999999998446, -0.9307470067404102 
1.5699999999998435, -0.9306938554308472 
1.5799999999998424, -0.9307115139931668 
1.5899999999998413, -0.9306829131271914 
1.5999999999998402, -0.9305327999106595 
1.6099999999998391, -0.9302002330727401 
1.619999999999838, -0.9296187570359716 
1.629999999999837, -0.9287067312898282 
1.6399999999998358, -0.9273709266925524 
1.6499999999998347, -0.9255267446115643 
1.6599999999998336, -0.9231318209645274 
1.6699999999998325, -0.9202168216879351 
1.6799999999998314, -0.9168921432096413 
1.6899999999998303, -0.9133248962646425 
1.6999999999998292, -0.9097031636064503 
1.709999999999828, -0.9062083961084888 
1.719999999999827, -0.9030018587410193 
1.729999999999826, -0.9002174036720524 
1.7399999999998248, -0.8979514822545964 
1.7499999999998237, -0.8962488977641877 
1.7599999999998226, -0.8950917516279867 
1.7699999999998215, -0.8944020571858614 
1.7799999999998204, -0.894061653745006 
1.7899999999998193, -0.8939412260766589 
1.7999999999998182, -0.8939245929679419 
1.809999999999817, -0.8939197132129593 
1.819999999999816, -0.8938573969913799 
1.8299999999998149, -0.8936842830157412 
1.8399999999998138, -0.8933567722527804 
1.8499999999998127, -0.8928400194181414 
1.8599999999998116, -0.892112526628515 
1.8699999999998105, -0.891172818037607 
1.8799999999998094, -0.8900421420231218 
1.8899999999998083, -0.888759482875499 
1.8999999999998072, -0.8873715271858627 
1.909999999999806, -0.8859241967722445 
1.919999999999805, -0.8844600154220347 
1.9299999999998039, -0.8830204370728489 
1.9399999999998028, -0.8816493927205993 
1.9499999999998017, -0.8803946308855706 
1.9599999999998006, -0.879305126946076 
1.9699999999997995, -0.8784246338709283 
1.9799999999997984, -0.8777831075463949 
1.9899999999997973, -0.8773890363437257 
1.9999999999997962, -0.877225976510498 
2.0099999999998173, -0.8772552287919113 
2.0199999999998384, -0.8774238620926068 
2.0299999999998595, -0.8776748038591735 
2.0399999999998806, -0.8779553287339011 
2.0499999999999017, -0.8782220910314044 
2.059999999999923, -0.8784430026111266 
2.069999999999944, -0.8785969949004331 
2.079999999999965, -0.8786720967383352 
2.089999999999986, -0.8786618817172581 
2.100000000000007, -0.878561317442087 
2.1100000000000283, -0.8783643800070061 
2.1200000000000494, -0.8780653040525823 
2.1300000000000705, -0.8776627739758073 
2.1400000000000916, -0.8771643092161716 
2.1500000000001127, -0.8765887615212307 
2.160000000000134, -0.8759670918878675 
2.170000000000155, -0.875342614216615 
2.180000000000176, -0.8747707447222325 
2.190000000000197, -0.8743165094615225 
2.2000000000002182, -0.8740477513133491 
2.2100000000002393, -0.8740241018273978 
2.2200000000002604, -0.8742851161382259 
2.2300000000002815, -0.8748426004705777 
2.2400000000003026, -0.8756802776965728 
2.2500000000003237, -0.8767599875742368 
2.260000000000345, -0.8780306516098209 
2.270000000000366, -0.8794357609161668 
2.280000000000387, -0.8809166346529371 
2.290000000000408, -0.8824111601006621 
2.3000000000004293, -0.8838506263331458 
2.3100000000004504, -0.8851597291231817 
2.3200000000004715, -0.8862644957880346 
2.3300000000004926, -0.8871074800623399 
2.3400000000005137, -0.8876619598643872 
2.3500000000005348, -0.8879354834930744 
2.360000000000556, -0.8879612553311546 
2.370000000000577, -0.8877849627790175 
2.380000000000598, -0.8874559692049571 
2.390000000000619, -0.8870271566213235 
2.4000000000006403, -0.8865631696887484 
2.4100000000006614, -0.8861540910716957 
2.4200000000006825, -0.8859287166227527 
2.4300000000007036, -0.8860579540923137 
2.4400000000007247, -0.8867381839540919 
2.450000000000746, -0.8881522894040861 
2.460000000000767, -0.8904209061680449 
2.470000000000788, -0.8935652099347731 
2.480000000000809, -0.897494476565854 
2.49000000000083, -0.9020147223302943 
2.5000000000008513, -0.9068474551515239 
2.5100000000008724, -0.911656461713295 
2.5200000000008935, -0.9160928707348569 
2.5300000000009146, -0.9198636338455476 
2.5400000000009357, -0.9228006989792978 
2.550000000000957, -0.9248882276259133 
2.560000000000978, -0.9262292115766891 
2.570000000000999, -0.9269792241646689 
2.58000000000102, -0.9272895022093903 
2.5900000000010412, -0.9272789416598659 
2.6000000000010624, -0.9270308916303257 
2.6100000000010835, -0.9266045445017458 
2.6200000000011046, -0.9260558823474726 
2.6300000000011257, -0.9254694610738545 
2.6400000000011468, -0.925003700009918 
2.650000000001168, -0.9249434593879389 
2.660000000001189, -0.9257314496813619 
2.67000000000121, -0.927926942711586 
2.680000000001231, -0.9320527997926271 
2.6900000000012523, -0.9383638073887328 
2.7000000000012734, -0.9466517129575566 
2.7100000000012945, -0.956208370914231 
2.7200000000013156, -0.9659900917685293 
2.7300000000013367, -0.9749294821866457 
2.740000000001358, -0.9822619511406018 
2.750000000001379, -0.987702508904093 
2.7600000000014, -0.9913922517703126 
2.770000000001421, -0.9936966866998216 
2.780000000001442, -0.9950103471585365 
2.7900000000014633, -0.995651802694181 
2.8000000000014844, -0.9958397536086039 
2.8100000000015055, -0.995708956255658 
2.8200000000015266, -0.9953373373393791 
2.8300000000015477, -0.9947757391728056 
2.840000000001569, -0.9940853740118483 
2.85000000000159, -0.9933942349857195 
2.860000000001611, -0.9929774792165478 
2.870000000001632, -0.9933347829003534 
2.8800000000016532, -0.9951806113380348 
2.8900000000016743, -0.999244829464882 
2.9000000000016954, -1.005901595468508 
2.9100000000017165, -1.0148509374756947 
2.9200000000017377, -1.0251127506721405 
2.9300000000017588, -1.0353656662305946 
2.94000000000178, -1.044421794342651 
2.950000000001801, -1.0515786148981316 
2.960000000001822, -1.056700387157032 
2.970000000001843, -1.0600574007838288 
2.9800000000018643, -1.0620806471963826 
2.9900000000018854, -1.063178575188944 
3.0000000000019065, -1.0636593781679546 
3.0100000000019276, -1.063726480464357 
3.0200000000019487, -1.06350441160592 
3.03000000000197, -1.0630725097072784 
3.040000000001991, -1.0625034503261062 
3.050000000002012, -1.0619127090410778 
3.060000000002033, -1.0615188962442001 
3.070000000002054, -1.0616859834461938 
3.0800000000020753, -1.0628806350172433 
3.0900000000020964, -1.0654989022043386 
3.1000000000021175, -1.0696428195483927 
3.1100000000021386, -1.075024865603078 
3.1200000000021597, -1.0810747364431978 
3.130000000002181, -1.0871432385422284 
3.140000000002202, -1.0926712575710178 
3.150000000002223, -1.0972820276954383 
3.160000000002244, -1.1008108190043822 
3.1700000000022652, -1.1032836019994772 
3.1800000000022863, -1.1048538879250935 
3.1900000000023074, -1.1057240792531764 
3.2000000000023285, -1.1060842844045926 
3.2100000000023496, -1.1060842378617248 
3.2200000000023707, -1.1058337862302747 
3.230000000002392, -1.1054210949138006 
3.240000000002413, -1.104940631321175 
3.250000000002434, -1.1045227801440323 
3.260000000002455, -1.1043473636671972 
3.2700000000024763, -1.1046152663238142 
3.2800000000024974, -1.1054740894860975 
3.2900000000025185, -1.1069450767321487 
3.3000000000025396, -1.1089129216388003 
3.3100000000025607, -1.1111813838760678 
3.3200000000025818, -1.1135426536103756 
3.330000000002603, -1.1158192756949499 
3.340000000002624, -1.1178758244312474 
3.350000000002645, -1.1196162712536986 
3.360000000002666, -1.1209806269223694 
3.3700000000026873, -1.1219449272332755 
3.3800000000027084, -1.1225206757025394 
3.3900000000027295, -1.122748538880556 
3.4000000000027506, -1.1226866681055412 
3.4100000000027717, -1.122399897865733 
3.420000000002793, -1.1219560406799225 
3.430000000002814, -1.1214302384456027 
3.440000000002835, -1.1209115864266601 
3.450000000002856, -1.1205012882860124 
3.460000000002877, -1.120294171671248 
3.4700000000028983, -1.1203496347644504 
3.4800000000029194, -1.1206719383272172 
3.4900000000029405, -1.1212134875871764 
3.5000000000029616, -1.121895041921708 
3.5100000000029827, -1.1226284119227588 
3.520000000003004, -1.1233329996710437 
3.530000000003025, -1.1239442659384253 
3.540000000003046, -1.1244154355116853 
3.550000000003067, -1.124715230493791 
3.5600000000030882, -1.1248245298247814 
3.5700000000031094, -1.1247339628925919 
3.5800000000031305, -1.124443309740722 
3.5900000000031516, -1.1239624462448692 
3.6000000000031727, -1.1233129310057197 
3.6100000000031938, -1.1225296820947746 
3.620000000003215, -1.1216625482733205 
3.630000000003236, -1.1207764302641148 
3.640000000003257, -1.1199468926696041 
3.650000000003278, -1.1192491251055703 
3.6600000000032993, -1.1187422124679804 
3.6700000000033204, -1.1184538264343833 
3.6800000000033415, -1.1183707597923136 
3.6900000000033626, -1.1184404452723458 
3.7000000000033837, -1.1185851071155928 
3.710000000003405, -1.1187215244349265 
3.720000000003426, -1.11877530285287 
3.730000000003447, -1.1186853124067535 
3.740000000003468, -1.11840263693306 
3.750000000003489, -1.1178901009621254 
3.7600000000035103, -1.1171244326947503 
3.7700000000035314, -1.1160989458678852 
3.7800000000035525, -1.1148241071874871 
3.7900000000035736, -1.1133262204365564 
3.8000000000035947, -1.1116469429862605 
3.810000000003616, -1.109845626730292 
3.820000000003637, -1.1080034498867906 
3.830000000003658, -1.1062252200279548 
3.840000000003679, -1.1046325695275803 
3.8500000000037002, -1.1033422393026104 
3.8600000000037213, -1.1024298652199325 
3.8700000000037424, -1.1018959485111368 
3.8800000000037635, -1.1016611638169669 
3.8900000000037847, -1.1015990886444862 
3.9000000000038058, -1.1015806123305214 
3.910000000003827, -1.1014989215296596 
3.920000000003848, -1.1012683706737467 
3.930000000003869, -1.1008100483245256 
3.94000000000389, -1.1000385537496982 
3.9500000000039113, -1.0988592339502112 
3.9600000000039324, -1.0971801177206753 
3.9700000000039535, -1.0949362123177555 
3.9800000000039746, -1.092115675637387 
3.9900000000039957, -1.0887753985716966 
4.000000000004016, -1.085042746038452 
4.010000000003993, -1.0811106325524669 
4.02000000000397, -1.077230634746473 
4.030000000003946, -1.0736943229723912 
4.040000000003923, -1.070783109854028 
4.0500000000039, -1.068683499153487 
4.0600000000038765, -1.0674101149350892 
4.070000000003853, -1.0668029296424841 
4.08000000000383, -1.0666110943224802 
4.090000000003807, -1.0665959457979886 
4.100000000003783, -1.0665841953575534 
4.11000000000376, -1.0664636813671642 
4.120000000003737, -1.0661518303975122 
4.130000000003713, -1.065561817222408 
4.14000000000369, -1.0645759393908212 
4.150000000003667, -1.0630304336250906 
4.1600000000036434, -1.0607203948604684 
4.17000000000362, -1.0574376351471015 
4.180000000003597, -1.0530445932602517 
4.1900000000035735, -1.047560396289449 
4.20000000000355, -1.0412152032835091 
4.210000000003527, -1.034444012792642 
4.220000000003504, -1.0278227341918307 
4.23000000000348, -1.0219575845503428 
4.240000000003457, -1.0173358949978284 
4.250000000003434, -1.0141776915052434 
4.26000000000341, -1.012374874265154 
4.270000000003387, -1.0115769714616902 
4.280000000003364, -1.0113668731122423 
4.2900000000033405, -1.0114033198221928 
4.300000000003317, -1.0114667125702854 
4.310000000003294, -1.011433347907184 
4.320000000003271, -1.0112277253219015 
4.330000000003247, -1.010780457176128 
4.340000000003224, -1.0099968825714662 
4.350000000003201, -1.0087346416504668 
4.360000000003177, -1.0067935851935925 
4.370000000003154, -1.0039316191756522 
4.380000000003131, -0.9999241437911843 
4.390000000003107, -0.9946656909959304 
4.400000000003084, -0.988270475420199 
4.410000000003061, -0.9811069195993818 
4.4200000000030375, -0.973738853198997 
4.430000000003014, -0.9668035634815475 
4.440000000002991, -0.9608713185132081 
4.450000000002968, -0.956316601147198 
4.460000000002944, -0.9532350654797112 
4.470000000002921, -0.951449009204263 
4.480000000002898, -0.9506093312638473 
4.490000000002874, -0.9503367349685528 
4.500000000002851, -0.9503240994971934 
4.510000000002828, -0.9503675403271208 
4.520000000002804, -0.9503463396554162 
4.530000000002781, -0.9501858844264914 
4.540000000002758, -0.949824156557898 
4.5500000000027345, -0.9491876711684537 
4.560000000002711, -0.9481776476931401 
4.570000000002688, -0.9466696208612266 
4.580000000002665, -0.9445333202208296 
4.590000000002641, -0.9416756680223752 
4.600000000002618, -0.938092820164141 
4.610000000002595, -0.9339000791843233 
4.620000000002571, -0.9293173947311402 
4.630000000002548, -0.9246215937447438 
4.640000000002525, -0.9200960769739976 
4.6500000000025015, -0.915995578535961 
4.660000000002478, -0.9125217431261856 
4.670000000002455, -0.909799947891219 
4.6800000000024315, -0.9078589254948302 
4.690000000002408, -0.9066267408227825 
4.700000000002385, -0.905954241055684 
4.710000000002362, -0.9056595257486746 
4.720000000002338, -0.9055718289913299 
4.730000000002315, -0.9055562211047562 
4.740000000002292, -0.905516088295875 
4.750000000002268, -0.9053821700396469 
4.760000000002245, -0.9050987510402531 
4.770000000002222, -0.904614218436732 
4.7800000000021985, -0.9038798321491581 
4.790000000002175, -0.9028576447513155 
4.800000000002152, -0.9015340165696639 
4.810000000002129, -0.8999300303110802 
4.820000000002105, -0.8981002225497721 
4.830000000002082, -0.8961195466313668 
4.840000000002059, -0.894067624424801 
4.850000000002035, -0.8920193716506166 
4.860000000002012, -0.8900437130483493 
4.870000000001989, -0.8882059931137372 
4.880000000001965, -0.8865687290770218 
4.890000000001942, -0.8851877071563254 
4.900000000001919, -0.8841035992837579 
4.9100000000018955, -0.883332167823714 
4.920000000001872, -0.8828579155366706 
4.930000000001849, -0.8826353813102135 
