t, s[1].omega / s[0].omega 
0, -1.7599969960078088 
0.009999999999999995, -1.7594761012744768 
0.019999999999999934, -1.7585051552048232 
0.029999999999999874, -1.7570506508102581 
0.04000000000000012, -1.7550883347742379 
0.050000000000000405, -1.7526898001712117 
0.06000000000000069, -1.7501942129234584 
0.07000000000000098, -1.748268436798686 
0.08000000000000126, -1.7474091970028849 
0.09000000000000155, -1.74736389635414 
0.10000000000000184, -1.7475199133820005 
0.11000000000000212, -1.7474968098475885 
0.12000000000000241, -1.7471490407300245 
0.130000000000002, -1.7463661512063666 
0.1400000000000009, -1.7449709207465205 
0.1499999999999998, -1.7428486371985674 
0.1599999999999987, -1.7406842470552815 
0.1699999999999976, -1.7410222880011912 
0.1799999999999965, -1.746238862247543 
0.1899999999999954, -1.7543549512328298 
0.1999999999999943, -1.7616328231407379 
0.2099999999999932, -1.7666043419207664 
0.2199999999999921, -1.7695324032115622 
0.229999999999991, -1.77104664051249 
0.2399999999999899, -1.7716477907587493 
0.2499999999999888, -1.771656048293733 
0.2599999999999877, -1.7712641816622103 
0.2699999999999866, -1.7705995945541542 
0.2799999999999855, -1.7697729791103645 
0.2899999999999844, -1.7689014065791966 
0.2999999999999833, -1.7681168372729197 
0.3099999999999822, -1.767559606610283 
0.3199999999999811, -1.7672896824647044 
0.32999999999998, -1.7671921807716124 
0.3399999999999789, -1.7670551881293144 
0.3499999999999778, -1.7666847495598084 
0.35999999999997667, -1.7658772958813593 
0.36999999999997557, -1.7642814107110627 
0.37999999999997447, -1.7611944637034658 
0.38999999999997337, -1.7554179833502956 
0.39999999999997227, -1.7460593836797602 
0.40999999999997117, -1.7362546266845222 
0.41999999999997006, -1.7350010192548804 
0.42999999999996896, -1.7442529981044643 
0.43999999999996786, -1.75497775473367 
0.44999999999996676, -1.7619264495900233 
0.45999999999996566, -1.7654652028296354 
0.46999999999996456, -1.7670178338523492 
0.47999999999996346, -1.7675233168688909 
0.48999999999996235, -1.7674626932103208 
0.49999999999996125, -1.7670853307307914 
0.5099999999999602, -1.7665744056136934 
0.519999999999959, -1.7661251742876438 
0.529999999999958, -1.7658943011315091 
0.5399999999999568, -1.7659006918439786 
0.5499999999999557, -1.7660529759413037 
0.5599999999999546, -1.7662348605055496 
0.5699999999999535, -1.7663268125013576 
0.5799999999999524, -1.766208521712953 
0.5899999999999513, -1.7657525174523567 
0.5999999999999502, -1.7647824108841417 
0.6099999999999491, -1.7630032417477381 
0.619999999999948, -1.7599225570745491 
0.6299999999999469, -1.7548229847197603 
0.6399999999999458, -1.7470539429229759 
0.6499999999999447, -1.7372554563110978 
0.6599999999999436, -1.7289825593188304 
0.6699999999999425, -1.7261184135882772 
0.6799999999999414, -1.7274822809343626 
0.6899999999999403, -1.7295708657612892 
0.6999999999999392, -1.7308948286957944 
0.7099999999999381, -1.7314315058460512 
0.719999999999937, -1.7314244023846037 
0.7299999999999359, -1.7310393475309547 
0.7399999999999348, -1.7303944060025347 
0.7499999999999337, -1.7297153866619386 
0.7599999999999326, -1.7294769271667398 
0.7699999999999315, -1.7301540969760332 
0.7799999999999304, -1.7316517449119957 
0.7899999999999293, -1.7333865211187423 
0.7999999999999282, -1.7348774698689695 
0.8099999999999271, -1.7359347805082053 
0.819999999999926, -1.736530985187589 
0.8299999999999249, -1.7366849595966969 
0.8399999999999238, -1.736411918502665 
0.8499999999999227, -1.7357065607416164 
0.8599999999999216, -1.7345409187364786 
0.8699999999999205, -1.7328758824319972 
0.8799999999999194, -1.7307034391122844 
0.8899999999999183, -1.728159152354363 
0.8999999999999172, -1.7256943523545611 
0.9099999999999161, -1.7240044031912916 
0.919999999999915, -1.7234002710543792 
0.9299999999999139, -1.723459495641023 
0.9399999999999128, -1.7235994023087078 
0.9499999999999117, -1.7235166704932126 
0.9599999999999106, -1.7230920863978614 
0.9699999999999095, -1.7222055290276814 
0.9799999999999084, -1.72066418486461 
0.9899999999999073, -1.7183871557127077 
0.9999999999999062, -1.7162490741724377 
1.0099999999999052, -1.7170434718593306 
1.019999999999904, -1.7229425552472832 
1.029999999999903, -1.7315351671823798 
1.039999999999902, -1.7390407253580022 
1.0499999999999008, -1.744110246143175 
1.0599999999998997, -1.7470786059854657 
1.0699999999998986, -1.748608876444191 
1.0799999999998975, -1.7492189502961484 
1.0899999999998964, -1.749238348952631 
1.0999999999998953, -1.7488656193317489 
1.1099999999998942, -1.7482332090060826 
1.119999999999893, -1.7474568332750704 
1.129999999999892, -1.7466546818455488 
1.1399999999998909, -1.7459468381083159 
1.1499999999998898, -1.7454481265103083 
1.1599999999998887, -1.745203728829321 
1.1699999999998876, -1.7451123322929198 
1.1799999999998865, -1.7449824911807479 
1.1899999999998854, -1.7446300948822373 
1.1999999999998843, -1.7438596548967205 
1.2099999999998832, -1.7423422739033712 
1.219999999999882, -1.7394244529105307 
1.229999999999881, -1.7339313358098747 
1.2399999999998799, -1.7245440211757934 
1.2499999999998788, -1.7125657650007995 
1.2599999999998777, -1.7057340167228374 
1.2699999999998766, -1.7101648252715802 
1.2799999999998755, -1.7196656069230307 
1.2899999999998744, -1.727005914700077 
1.2999999999998733, -1.7310350904366214 
1.3099999999998722, -1.7328954346695529 
1.319999999999871, -1.7335777536097687 
1.32999999999987, -1.7336238584271082 
1.3399999999998689, -1.7333086885818374 
1.3499999999998678, -1.7328156632080272 
1.3599999999998666, -1.7323490270944262 
1.3699999999998655, -1.7321225620987923 
1.3799999999998644, -1.7322178385771743 
1.3899999999998633, -1.732532738071665 
1.3999999999998622, -1.7329037628668362 
1.4099999999998611, -1.7331938193634002 
1.41999999999986, -1.7332936317593521 
1.429999999999859, -1.7331065568801054 
1.4399999999998578, -1.7325240458108717 
1.4499999999998567, -1.7313886565001346 
1.4599999999998556, -1.7294558931293165 
1.4699999999998545, -1.726372158831473 
1.4799999999998534, -1.7217295791440506 
1.4899999999998523, -1.715389584402414 
1.4999999999998512, -1.708304728564665 
1.5099999999998501, -1.7029757139413213 
1.519999999999849, -1.701239437826604 
1.529999999999848, -1.7019369792631018 
1.5399999999998468, -1.7030425239231466 
1.5499999999998457, -1.7037053478542243 
1.5599999999998446, -1.7038622077562091 
1.5699999999998435, -1.7036073054883847 
1.5799999999998424, -1.7029997667817156 
1.5899999999998413, -1.7021137381048348 
1.5999999999998402, -1.7012608286369084 
1.6099999999998391, -1.7012126724781598 
1.619999999999838, -1.7027253986836732 
1.629999999999837, -1.705520702044885 
1.6399999999998358, -1.7085445125650562 
1.6499999999998347, -1.7110398589694147 
1.6599999999998336, -1.7127912722732486 
1.6699999999998325, -1.7138487802153501 
1.6799999999998314, -1.7143229552254478 
1.6899999999998303, -1.7143110113789775 
1.6999999999998292, -1.7138810524722026 
1.709999999999828, -1.7130764685646411 
1.719999999999827, -1.7119312856469109 
1.729999999999826, -1.7104985615213217 
1.7399999999998248, -1.70890108256816 
1.7499999999998237, -1.7073963621229118 
1.7599999999998226, -1.7063336051594042 
1.7699999999998215, -1.7058728279601776 
1.7799999999998204, -1.7058011870333076 
1.7899999999998193, -1.7057722105063307 
1.7999999999998182, -1.705548463349444 
1.809999999999817, -1.7049716369541614 
1.819999999999816, -1.7038243314973696 
1.8299999999998149, -1.7017035665272253 
1.8399999999998138, -1.6980424933302747 
1.8499999999998127, -1.692922660223973 
1.8599999999998116, -1.6894828959605988 
1.8699999999998105, -1.6936339324535203 
1.8799999999998094, -1.7051803915798136 
1.8899999999998083, -1.717019914983513 
1.8999999999998072, -1.72507719177237 
1.909999999999806, -1.7295694977933838 
1.919999999999805, -1.7317856388468686 
1.9299999999998039, -1.7327073323058255 
1.9399999999998028, -1.7328991311778938 
1.9499999999998017, -1.732663739239264 
1.9599999999998006, -1.732183350198929 
1.9699999999997995, -1.73161114581336 
1.9799999999997984, -1.7310936232213803 
1.9899999999997973, -1.7307281206179401 
1.9999999999997962, -1.7305387441416695 
2.0099999999998173, -1.73049491264745 
2.0199999999998384, -1.7305098774350764 
2.0299999999998595, -1.7304504121232065 
2.0399999999998806, -1.7301725016676623 
2.0499999999999017, -1.7295138194643418 
2.059999999999923, -1.7282235234066963 
2.069999999999944, -1.7258492093121252 
2.079999999999965, -1.7216053105787978 
2.089999999999986, -1.7143768204806331 
2.100000000000007, -1.7034879568644776 
2.1100000000000283, -1.6911257205464814 
2.1200000000000494, -1.6834176206687963 
2.1300000000000705, -1.6834060431277038 
2.1400000000000916, -1.6869221995405368 
2.1500000000001127, -1.6899418182270733 
2.160000000000134, -1.6916123992837473 
2.170000000000155, -1.6922915976916761 
2.180000000000176, -1.6923629059150973 
2.190000000000197, -1.6920476291127564 
2.2000000000002182, -1.6914885007394944 
2.2100000000002393, -1.6908908720396816 
2.2200000000002604, -1.6906226752565885 
2.2300000000002815, -1.6910392166052113 
2.2400000000003026, -1.6921024357279684 
2.2500000000003237, -1.6934126576135244 
2.260000000000345, -1.6945967788938225 
2.270000000000366, -1.695470160071539 
2.280000000000387, -1.6959720720611628 
2.290000000000408, -1.696087138661324 
2.3000000000004293, -1.6958042502445132 
2.3100000000004504, -1.695098484876049 
2.3200000000004715, -1.6939255918730443 
2.3300000000004926, -1.692228576485472 
2.3400000000005137, -1.6899700943998437 
2.3500000000005348, -1.6872271637480363 
2.360000000000556, -1.6843691934594822 
2.370000000000577, -1.68211543581523 
2.380000000000598, -1.6810338800979239 
2.390000000000619, -1.680916606132147 
2.4000000000006403, -1.6811139856030366 
2.4100000000006614, -1.6811840218759841 
2.4200000000006825, -1.6809598845997376 
2.4300000000007036, -1.6803519168373064 
2.4400000000007247, -1.67921692873675 
2.450000000000746, -1.677369611363045 
2.460000000000767, -1.6749577155546145 
2.470000000000788, -1.6735051561126604 
2.480000000000809, -1.6760707514129263 
2.49000000000083, -1.6834803164519918 
2.5000000000008513, -1.6923481175483661 
2.5100000000008724, -1.6994819468015474 
2.5200000000008935, -1.70414116314765 
2.5300000000009146, -1.7068225459956363 
2.5400000000009357, -1.7081758829014029 
2.550000000000957, -1.708682549987675 
2.560000000000978, -1.7086462211055617 
2.570000000000999, -1.708252706383859 
2.58000000000102, -1.7076324826309872 
2.5900000000010412, -1.706905073633252 
2.6000000000010624, -1.706188895330276 
2.6100000000010835, -1.7055896239801782 
2.6200000000011046, -1.705189762963349 
2.6300000000011257, -1.705004884976485 
2.6400000000011468, -1.70493513576446 
2.650000000001168, -1.7048112192753517 
2.660000000001189, -1.7044657435989454 
2.67000000000121, -1.703714724963111 
2.680000000001231, -1.7022556304058152 
2.6900000000012523, -1.6995070579435623 
2.7000000000012734, -1.6944219258175885 
2.7100000000012945, -1.68559361756522 
2.7200000000013156, -1.6728530033283726 
2.7300000000013367, -1.6609693465931206 
2.740000000001358, -1.6578236930093464 
2.750000000001379, -1.6629749343546312 
2.7600000000014, -1.6693735120404642 
2.770000000001421, -1.673576880405135 
2.780000000001442, -1.6757165658715063 
2.7900000000014633, -1.6766000084693005 
2.8000000000014844, -1.6767785995114175 
2.8100000000015055, -1.6765431265900372 
2.8200000000015266, -1.6760658024551525 
2.8300000000015477, -1.6755352053307728 
2.840000000001569, -1.6752265665058428 
2.85000000000159, -1.675381716074364 
2.860000000001611, -1.6759841719553101 
2.870000000001632, -1.6767882422521385 
2.8800000000016532, -1.6775456170834153 
2.8900000000016743, -1.6781049510571506 
2.9000000000016954, -1.678384990598675 
2.9100000000017165, -1.6783337486652687 
2.9200000000017377, -1.677900167139052 
2.9300000000017588, -1.6770153475514724 
2.94000000000178, -1.675583215014677 
2.950000000001801, -1.6734847915823985 
2.960000000001822, -1.6706165319387534 
2.970000000001843, -1.6670184477140573 
2.9800000000018643, -1.6631391519061818 
2.9900000000018854, -1.6599779472086915 
3.0000000000019065, -1.6584229774637826 
3.0100000000019276, -1.6582720124705612 
3.0200000000019487, -1.6586284940872964 
3.03000000000197, -1.6588766026248287 
3.040000000001991, -1.6588173510397977 
3.050000000002012, -1.658400344012999 
3.060000000002033, -1.6575560856376377 
3.070000000002054, -1.65618329029317 
3.0800000000020753, -1.6543818565832122 
3.0900000000020964, -1.6531218185900198 
3.1000000000021175, -1.6545581195373724 
3.1100000000021386, -1.6598483597250482 
3.1200000000021597, -1.66704036095501 
3.130000000002181, -1.6734631187736422 
3.140000000002202, -1.6780428650141381 
3.150000000002223, -1.6808992743832534 
3.160000000002244, -1.6824784918282867 
3.1700000000022652, -1.6831822228527247 
3.1800000000022863, -1.6832939253981003 
3.1900000000023074, -1.6829980089362535 
3.2000000000023285, -1.68242024775233 
3.2100000000023496, -1.6816676240780644 
3.2200000000023707, -1.6808512396458681 
3.230000000002392, -1.680087175273065 
3.240000000002413, -1.6794903918512198 
3.250000000002434, -1.6791401944718427 
3.260000000002455, -1.6790032217999151 
3.2700000000024763, -1.6789269636968236 
3.2800000000024974, -1.6787309550006864 
3.2900000000025185, -1.678249327856633 
3.3000000000025396, -1.6772698597485298 
3.3100000000025607, -1.6754072393393389 
3.3200000000025818, -1.6719255955753813 
3.330000000002603, -1.6656011708439071 
3.340000000002624, -1.6552178281383494 
3.350000000002645, -1.6421175609672847 
3.360000000002666, -1.6331660620103192 
3.3700000000026873, -1.6342392891240878 
3.3800000000027084, -1.6411242294912238 
3.3900000000027295, -1.6473182037298482 
3.4000000000027506, -1.6509992458164557 
3.4100000000027717, -1.6527896191030422 
3.420000000002793, -1.6534822214788687 
3.430000000002814, -1.6535565118148252 
3.440000000002835, -1.6532619589792716 
3.450000000002856, -1.6527605281535034 
3.460000000002877, -1.6522508382257861 
3.4700000000028983, -1.6520115466803353 
3.4800000000029194, -1.6522524452915035 
3.4900000000029405, -1.6529154265844075 
3.5000000000029616, -1.6537465851945048 
3.5100000000029827, -1.654510705793023 
3.520000000003004, -1.6550673757613694 
3.530000000003025, -1.6553411742960766 
3.540000000003046, -1.6552840279108665 
3.550000000003067, -1.6548494593148662 
3.5600000000030882, -1.6539764442914655 
3.5700000000031094, -1.6525826601534352 
3.5800000000031305, -1.6505705744005819 
3.5900000000031516, -1.6478636257933896 
3.6000000000031727, -1.6445170599592445 
3.6100000000031938, -1.6409359250544722 
3.620000000003215, -1.6379859074543863 
3.630000000003236, -1.6364534206572077 
3.640000000003257, -1.6362129558253042 
3.650000000003278, -1.6364906007687243 
3.6600000000032993, -1.6367033927366994 
3.6700000000033204, -1.6366364641568194 
3.6800000000033415, -1.6362218879388102 
3.6900000000033626, -1.635373529201063 
3.7000000000033837, -1.6339491248744615 
3.710000000003405, -1.631924132435882 
3.720000000003426, -1.6300495210633605 
3.730000000003447, -1.6305984763047228 
3.740000000003468, -1.63568176763542 
3.750000000003489, -1.6438870035453497 
3.7600000000035103, -1.6518218582086281 
3.7700000000035314, -1.6576709071013984 
3.7800000000035525, -1.6613700121682418 
3.7900000000035736, -1.6634579299373597 
3.8000000000035947, -1.664465830949404 
3.810000000003616, -1.664771977246831 
3.820000000003637, -1.6646174834247922 
3.830000000003658, -1.6641576245331535 
3.840000000003679, -1.6635131098936218 
3.8500000000037002, -1.6628021309639291 
3.8600000000037213, -1.6621387926282138 
3.8700000000037424, -1.6616167579872916 
3.8800000000037635, -1.6612960764367375 
3.8900000000037847, -1.6611650459766807 
3.9000000000038058, -1.6611138879802438 
3.910000000003827, -1.6609844807913423 
3.920000000003848, -1.660622422878132 
3.930000000003869, -1.6598514139977045 
3.94000000000389, -1.6583836535614604 
3.9500000000039113, -1.655688125698377 
3.9600000000039324, -1.6508458828883914 
3.9700000000039535, -1.6426144077390894 
3.9800000000039746, -1.6304895777287078 
3.9900000000039957, -1.6174652124925646 
4.000000000004016, -1.6103018036144228 
4.010000000003993, -1.6114539946626496 
4.02000000000397, -1.616050711381368 
4.030000000003946, -1.619852501380461 
4.040000000003923, -1.622018163474511 
4.0500000000039, -1.6229964269438057 
4.0600000000038765, -1.6232583775381344 
4.070000000003853, -1.6230798808521432 
4.08000000000383, -1.6226139099697943 
4.090000000003807, -1.6220116316785216 
4.100000000003783, -1.6215463936176218 
4.11000000000376, -1.6216025746534057 
4.120000000003737, -1.6223828859924811 
4.130000000003713, -1.623674218920808 
4.14000000000369, -1.6250671683871658 
4.150000000003667, -1.626262575138292 
4.1600000000036434, -1.6271258183138642 
4.17000000000362, -1.6276161232402095 
4.180000000003597, -1.6277274052751949 
4.1900000000035735, -1.6274586316938078 
4.20000000000355, -1.6268017839437867 
4.210000000003527, -1.625740124891309 
4.220000000003504, -1.624256329833753 
4.23000000000348, -1.62235808059378 
4.240000000003457, -1.6201380022747967 
4.250000000003434, -1.6178705615405342 
4.26000000000341, -1.6160326505220048 
4.270000000003387, -1.6150214030116075 
4.280000000003364, -1.6147629811072786 
4.2900000000033405, -1.6148261272527893 
4.300000000003317, -1.6148386195467566 
4.310000000003294, -1.6146117763324017 
4.320000000003271, -1.6140246781562975 
4.330000000003247, -1.6128935779557025 
4.340000000003224, -1.6108888648561581 
4.350000000003201, -1.6076136904181002 
4.360000000003177, -1.6033335917078066 
4.370000000003154, -1.6007582271968765 
4.380000000003131, -1.6046972195765883 
4.390000000003107, -1.6155536560720367 
4.400000000003084, -1.6276511750280753 
4.410000000003061, -1.6366647362837212 
4.4200000000030375, -1.6421060916548957 
4.430000000003014, -1.6450088067230049 
4.440000000002991, -1.6463771436797028 
4.450000000002968, -1.6468578469219253 
4.460000000002944, -1.6468165472223675 
4.470000000002921, -1.646462372940957 
4.480000000002898, -1.6459466721598843 
4.490000000002874, -1.6454192277683024 
4.500000000002851, -1.645016674722935 
4.510000000002828, -1.6448065469363329 
4.520000000002804, -1.6447741815398829 
4.530000000002781, -1.644854140602074 
4.540000000002758, -1.6449464021451174 
4.5500000000027345, -1.6449317143642261 
4.560000000002711, -1.6446904860862095 
4.570000000002688, -1.6440913663162917 
4.580000000002665, -1.6429483228378885 
4.590000000002641, -1.6409665519359318 
4.600000000002618, -1.6376985711425995 
4.610000000002595, -1.6325691204952828 
4.620000000002571, -1.6251525469660344 
4.630000000002548, -1.616013138678872 
4.640000000002525, -1.6077059675230392 
4.6500000000025015, -1.6034281554847385 
4.660000000002478, -1.6033108501845608 
4.670000000002455, -1.6048176066745488 
4.6800000000024315, -1.6061355368180394 
4.690000000002408, -1.6068308139132284 
4.700000000002385, -1.6069939618091442 
4.710000000002362, -1.606753717970865 
4.720000000002338, -1.6061784482563604 
4.730000000002315, -1.6053366359142114 
4.740000000002292, -1.604478343753979 
4.750000000002268, -1.6042511086401858 
4.760000000002245, -1.6054556090113365 
4.770000000002222, -1.608160038852852 
4.7800000000021985, -1.6115014239045622 
4.790000000002175, -1.614568919601923 
4.800000000002152, -1.6169397836366852 
4.810000000002129, -1.6185593955045188 
4.820000000002105, -1.6195156262825985 
4.830000000002082, -1.6199218399202344 
4.840000000002059, -1.6198772680549258 
4.850000000002035, -1.6194593580241545 
4.860000000002012, -1.6187297296186038 
4.870000000001989, -1.617748828409401 
4.880000000001965, -1.616595771905311 
4.890000000001942, -1.6153904500232943 
4.900000000001919, -1.614310113460355 
4.9100000000018955, -1.613549661570796 
4.920000000001872, -1.6131830802530296 
4.930000000001849, -1.6130764534232003 
