t, s[1].omega / s[0].omega 
0, -0.6599977066062436 
0.009999999999999995, -0.6597621837869843 
0.019999999999999934, -0.6595100589579613 
0.029999999999999874, -0.6592306640661465 
0.04000000000000012, -0.65891256374304 
0.050000000000000405, -0.6585489923288864 
0.06000000000000069, -0.6581408190243425 
0.07000000000000098, -0.6576970766831008 
0.08000000000000126, -0.6572347690249454 
0.09000000000000155, -0.6567797395278929 
0.10000000000000184, -0.6563695408117947 
0.11000000000000212, -0.6560583792487096 
0.12000000000000241, -0.6559235874609783 
0.130000000000002, -0.656072528535362 
0.1400000000000009, -0.6566481444890073 
0.1499999999999998, -0.6578303416910725 
0.1599999999999987, -0.6598287667856926 
0.1699999999999976, -0.6628599667009223 
0.1799999999999965, -0.6670992618126741 
0.1899999999999954, -0.672599783912968 
0.1999999999999943, -0.6791896806070629 
0.2099999999999932, -0.6864023643686818 
0.2199999999999921, -0.6935334445394805 
0.229999999999991, -0.6998644780952674 
0.2399999999999899, -0.7049308813099757 
0.2499999999999888, -0.7086337166157194 
0.2599999999999877, -0.7111468680926458 
0.2699999999999866, -0.7127483606749693 
0.2799999999999855, -0.7136996356594264 
0.2899999999999844, -0.714198165445674 
0.2999999999999833, -0.7143743871111612 
0.3099999999999822, -0.7143033867845358 
0.3199999999999811, -0.7140161490680055 
0.32999999999998, -0.7135050510163705 
0.3399999999999789, -0.7127221969993247 
0.3499999999999778, -0.7115702702006476 
0.35999999999997667, -0.7098868468457291 
0.36999999999997557, -0.7074280502729074 
0.37999999999997447, -0.7038704795008995 
0.38999999999997337, -0.6988709811654212 
0.39999999999997227, -0.692226271007569 
0.40999999999997117, -0.6840997671186722 
0.41999999999997006, -0.6751381796928484 
0.42999999999996896, -0.6662933885639692 
0.43999999999996786, -0.658436681718054 
0.44999999999996676, -0.652069727020882 
0.45999999999996566, -0.6472912496089236 
0.46999999999996456, -0.6439301835578389 
0.47999999999996346, -0.6416997923558758 
0.48999999999996235, -0.6403025043899897 
0.49999999999996125, -0.6394813286557377 
0.5099999999999602, -0.6390359192515883 
0.519999999999959, -0.6388202922424002 
0.529999999999958, -0.6387330139434596 
0.5399999999999568, -0.6387057212702734 
0.5499999999999557, -0.638692828997563 
0.5599999999999546, -0.6386636566725861 
0.5699999999999535, -0.6385974062815375 
0.5799999999999524, -0.6384809711731804 
0.5899999999999513, -0.6383090099750461 
0.5999999999999502, -0.6380848422971004 
0.6099999999999491, -0.6378199539143441 
0.619999999999948, -0.6375303629502242 
0.6299999999999469, -0.6372303314892005 
0.6399999999999458, -0.6369264425086087 
0.6499999999999447, -0.6366154838707143 
0.6599999999999436, -0.6362872829824772 
0.6699999999999425, -0.6359305374859419 
0.6799999999999414, -0.6355382951771282 
0.6899999999999403, -0.6351109167184117 
0.6999999999999392, -0.6346567136358156 
0.7099999999999381, -0.634191959147886 
0.719999999999937, -0.6337419672138297 
0.7299999999999359, -0.6333441607109896 
0.7399999999999348, -0.6330533093304267 
0.7499999999999337, -0.6329486078436839 
0.7599999999999326, -0.6331417762539147 
0.7699999999999315, -0.6337845941265257 
0.7799999999999304, -0.6350728779926961 
0.7899999999999293, -0.6372413592221521 
0.7999999999999282, -0.6405397942348627 
0.8099999999999271, -0.6451762670494061 
0.819999999999926, -0.6512163852924631 
0.8299999999999249, -0.6584538816311666 
0.8399999999999238, -0.6663296268113917 
0.8499999999999227, -0.6740214581100185 
0.8599999999999216, -0.6807349749838025 
0.8699999999999205, -0.6860096462303439 
0.8799999999999194, -0.6898037878386246 
0.8899999999999183, -0.6923513423110021 
0.8999999999999172, -0.6939678612045115 
0.9099999999999161, -0.6949312810616887 
0.919999999999915, -0.6954440871350628 
0.9299999999999139, -0.6956373085464347 
0.9399999999999128, -0.6955855463962719 
0.9499999999999117, -0.6953194183931555 
0.9599999999999106, -0.6948314515551212 
0.9699999999999095, -0.6940748585018957 
0.9799999999999084, -0.6929557026869247 
0.9899999999999073, -0.6913208770295698 
0.9999999999999062, -0.6889502996808365 
1.0099999999999052, -0.6855740872303747 
1.019999999999904, -0.6809472987251256 
1.029999999999903, -0.6749962933856309 
1.039999999999902, -0.6679703059333713 
1.0499999999999008, -0.6604526727096479 
1.0599999999998997, -0.653164972383563 
1.0699999999998986, -0.6467005006511202 
1.0799999999998975, -0.6413772148046054 
1.0899999999998964, -0.6372520091472624 
1.0999999999998953, -0.6342143277752511 
1.1099999999998942, -0.6320786851027759 
1.119999999999893, -0.6306457669986327 
1.129999999999892, -0.629734050973218 
1.1399999999998909, -0.6291923799004109 
1.1499999999998898, -0.628902125872496 
1.1599999999998887, -0.6287742312657031 
1.1699999999998876, -0.628744112808494 
1.1799999999998865, -0.6287661713099854 
1.1899999999998854, -0.6288089870202922 
1.1999999999998843, -0.6288518450136856 
1.2099999999998832, -0.6288827941977104 
1.219999999999882, -0.628897827704954 
1.229999999999881, -0.6289000216594913 
1.2399999999998799, -0.6288970890697221 
1.2499999999998788, -0.6288965697744998 
1.2599999999998777, -0.628899851862059 
1.2699999999998766, -0.6288980522108086 
1.2799999999998755, -0.6288726332470381 
1.2899999999998744, -0.6288010259855603 
1.2999999999998733, -0.628664233181068 
1.3099999999998722, -0.6284522611522232 
1.319999999999871, -0.6281653522240089 
1.32999999999987, -0.6278122103911012 
1.3399999999998689, -0.6274079607127335 
1.3499999999998678, -0.6269740932053575 
1.3599999999998666, -0.6265415504048363 
1.3699999999998655, -0.6261574957426487 
1.3799999999998644, -0.6258961594772703 
1.3899999999998633, -0.625873934595292 
1.3999999999998622, -0.6262678046500503 
1.4099999999998611, -0.6273331377482144 
1.41999999999986, -0.6294103061167909 
1.429999999999859, -0.6328982759380761 
1.4399999999998578, -0.6381610928145809 
1.4499999999998567, -0.6453407405644179 
1.4599999999998556, -0.6541204301734596 
1.4699999999998545, -0.6636215066533754 
1.4799999999998534, -0.6726531435434413 
1.4899999999998523, -0.6802367187649384 
1.4999999999998512, -0.6859727475278398 
1.5099999999998501, -0.6899880490153374 
1.519999999999849, -0.6926537778307444 
1.529999999999848, -0.6943552945754685 
1.5399999999998468, -0.6953955942841079 
1.5499999999998457, -0.6959836427254544 
1.5599999999998446, -0.6962522150613301 
1.5699999999998435, -0.6962780066721921 
1.5799999999998424, -0.6960956749011131 
1.5899999999998413, -0.6957047855351639 
1.5999999999998402, -0.6950705830447101 
1.6099999999998391, -0.6941202876292359 
1.619999999999838, -0.6927386701770242 
1.629999999999837, -0.6907715504130192 
1.6399999999998358, -0.6880524515594789 
1.6499999999998347, -0.6844665176187209 
1.6599999999998336, -0.6800399555499161 
1.6699999999998325, -0.6749973259349229 
1.6799999999998314, -0.6697217120928645 
1.6899999999998303, -0.6646281480912332 
1.6999999999998292, -0.6600391597229114 
1.709999999999828, -0.6561326304813596 
1.719999999999827, -0.6529581469638206 
1.729999999999826, -0.6504807760992477 
1.7399999999998248, -0.648621402379547 
1.7499999999998237, -0.6472837505283179 
1.7599999999998226, -0.6463698461786087 
1.7699999999998215, -0.6457882676792491 
1.7799999999998204, -0.6454584149158604 
1.7899999999998193, -0.6453124591880741 
1.7999999999998182, -0.6452957213756267 
1.809999999999817, -0.6453659482246384 
1.819999999999816, -0.6454919858475264 
1.8299999999998149, -0.6456523656307706 
1.8399999999998138, -0.6458341123554739 
1.8499999999998127, -0.6460315897181469 
1.8599999999998116, -0.6462445934351281 
1.8699999999998105, -0.6464747239778363 
1.8799999999998094, -0.6467199463765287 
1.8899999999998083, -0.6469690914788667 
1.8999999999998072, -0.647199544581268 
1.909999999999806, -0.6473806671228093 
1.919999999999805, -0.6474821332732947 
1.9299999999998039, -0.6474826971204621 
1.9399999999998028, -0.6473745925679717 
1.9499999999998017, -0.6471623553907115 
1.9599999999998006, -0.6468586979873902 
1.9699999999997995, -0.6464810352805711 
1.9799999999997984, -0.6460509590901604 
1.9899999999997973, -0.6455975688712533 
1.9999999999997962, -0.6451651119658983 
2.0099999999998173, -0.6448255433635885 
2.0199999999998384, -0.6446965485292802 
2.0299999999998595, -0.6449642327574965 
2.0399999999998806, -0.6459055563496984 
2.0499999999999017, -0.6478966285235526 
2.059999999999923, -0.65137824175905 
2.069999999999944, -0.6567369978329639 
2.079999999999965, -0.6640796969401557 
2.089999999999986, -0.6729804252855539 
2.100000000000007, -0.6824343630090293 
2.1100000000000283, -0.6912144006252102 
2.1200000000000494, -0.6984285472279931 
2.1300000000000705, -0.7038012142148781 
2.1400000000000916, -0.7075317824659154 
2.1500000000001127, -0.7100021301615803 
2.160000000000134, -0.7115782982764493 
2.170000000000155, -0.7125396538491297 
2.180000000000176, -0.7130768162140314 
2.190000000000197, -0.713310217694259 
2.2000000000002182, -0.7133083472608083 
2.2100000000002393, -0.7130998198122972 
2.2200000000002604, -0.7126787548909521 
2.2300000000002815, -0.7120043162392578 
2.2400000000003026, -0.7109960914441963 
2.2500000000003237, -0.7095294126718467 
2.260000000000345, -0.7074401916531492 
2.270000000000366, -0.7045556266115476 
2.280000000000387, -0.7007643668804759 
2.290000000000408, -0.6961099434885218 
2.3000000000004293, -0.690843925855877 
2.3100000000004504, -0.6853750491315983 
2.3200000000004715, -0.680134012360065 
2.3300000000004926, -0.6754483521721667 
2.3400000000005137, -0.6714940323464448 
2.3500000000005348, -0.6683148804960386 
2.360000000000556, -0.6658676904605685 
2.370000000000577, -0.6640632175123772 
2.380000000000598, -0.662794088987368 
2.390000000000619, -0.6619514947614905 
2.4000000000006403, -0.6614346650456907 
2.4100000000006614, -0.6611559559201312 
2.4200000000006825, -0.661042992254664 
2.4300000000007036, -0.6610386688297314 
2.4400000000007247, -0.6610997293665564 
2.450000000000746, -0.6611947285883626 
2.460000000000767, -0.6613021337870132 
2.470000000000788, -0.6614089863702259 
2.480000000000809, -0.6615098998665198 
2.49000000000083, -0.6616054543698768 
2.5000000000008513, -0.6616988810303799 
2.5100000000008724, -0.6617909505470715 
2.5200000000008935, -0.6618748960996674 
2.5300000000009146, -0.6619344389322032 
2.5400000000009357, -0.6619469114008801 
2.550000000000957, -0.6618902801368095 
2.560000000000978, -0.6617501058355171 
2.570000000000999, -0.6615228477327072 
2.58000000000102, -0.6612150710633892 
2.5900000000010412, -0.6608409280254741 
2.6000000000010624, -0.6604207537760468 
2.6100000000010835, -0.6599825290741345 
2.6200000000011046, -0.6595668828710447 
2.6300000000011257, -0.6592358008122925 
2.6400000000011468, -0.6590848848713429 
2.650000000001168, -0.6592582123175681 
2.660000000001189, -0.6599629140985599 
2.67000000000121, -0.6614768551243843 
2.680000000001231, -0.6641366717562777 
2.6900000000012523, -0.6682857715693196 
2.7000000000012734, -0.6741596987209842 
2.7100000000012945, -0.6817098587534919 
2.7200000000013156, -0.6904408566346661 
2.7300000000013367, -0.6994266978588801 
2.740000000001358, -0.7076182805080221 
2.750000000001379, -0.7142771064301889 
2.7600000000014, -0.7191908545367867 
2.770000000001421, -0.7225581518427477 
2.780000000001442, -0.724741297978822 
2.7900000000014633, -0.7260880105396404 
2.8000000000014844, -0.7268628804842988 
2.8100000000015055, -0.7272436040206928 
2.8200000000015266, -0.7273382981934743 
2.8300000000015477, -0.7272027764397926 
2.840000000001569, -0.7268511830629967 
2.85000000000159, -0.7262589333537515 
2.860000000001611, -0.7253582855146398 
2.870000000001632, -0.724027704342539 
2.8800000000016532, -0.7220794099969302 
2.8900000000016743, -0.7192583197878346 
2.9000000000016954, -0.715279991123791 
2.9100000000017165, -0.7099396133754058 
2.9200000000017377, -0.7032804604689653 
2.9300000000017588, -0.6957121684832669 
2.94000000000178, -0.6879360493664703 
2.950000000001801, -0.680688433899977 
2.960000000001822, -0.6744925090208287 
2.970000000001843, -0.6695698942439583 
2.9800000000018643, -0.665895637925646 
2.9900000000018854, -0.6633024995504784 
3.0000000000019065, -0.6615695772675412 
3.0100000000019276, -0.6604775595997076 
3.0200000000019487, -0.659836143146262 
3.03000000000197, -0.659493524057565 
3.040000000001991, -0.6593357408411089 
3.050000000002012, -0.6592810044583594 
3.060000000002033, -0.6592723025324615 
3.070000000002054, -0.6592703488534928 
3.0800000000020753, -0.6592481179567714 
3.0900000000020964, -0.6591875892930364 
3.1000000000021175, -0.6590787035425427 
3.1100000000021386, -0.6589196785992645 
3.1200000000021597, -0.6587169033259677 
3.130000000002181, -0.6584824795108218 
3.140000000002202, -0.6582289845217753 
3.150000000002223, -0.6579635401530528 
3.160000000002244, -0.6576845752896338 
3.1700000000022652, -0.6573832789237303 
3.1800000000022863, -0.6570487107070508 
3.1900000000023074, -0.6566734449413204 
3.2000000000023285, -0.6562570974871911 
3.2100000000023496, -0.6558073330977383 
3.2200000000023707, -0.6553398211561916 
3.230000000002392, -0.6548789320406263 
3.240000000002413, -0.6544602299424533 
3.250000000002434, -0.6541349386165043 
3.260000000002455, -0.6539759071359722 
3.2700000000024763, -0.654084078161753 
3.2800000000024974, -0.6545938590379621 
3.2900000000025185, -0.6556749348392457 
3.3000000000025396, -0.6575266614454203 
3.3100000000025607, -0.6603588768770229 
3.3200000000025818, -0.6643502076000571 
3.330000000002603, -0.6695755131636558 
3.340000000002624, -0.6759082105639479 
3.350000000002645, -0.6829416787576801 
3.360000000002666, -0.6900172757946891 
3.3700000000026873, -0.6964165839466367 
3.3800000000027084, -0.7016287538480973 
3.3900000000027295, -0.7054960115089586 
3.4000000000027506, -0.7081529008859707 
3.4100000000027717, -0.7098640924874564 
3.420000000002793, -0.710893723341838 
3.430000000002814, -0.7114475241678353 
3.440000000002835, -0.7116643382067825 
3.450000000002856, -0.711626289528404 
3.460000000002877, -0.7113703051992102 
3.4700000000028983, -0.7108944949141511 
3.4800000000029194, -0.7101575691407087 
3.4900000000029405, -0.7090708230499156 
3.5000000000029616, -0.7074832711286461 
3.5100000000029827, -0.7051646007744816 
3.520000000003004, -0.7018021699040411 
3.530000000003025, -0.69704850655256 
3.540000000003046, -0.6906644558073727 
3.550000000003067, -0.6827436938022375 
3.5600000000030882, -0.6738615051678316 
3.5700000000031094, -0.664944797357691 
3.5800000000031305, -0.6568997659311381 
3.5900000000031516, -0.6502913014071022 
3.6000000000031727, -0.6452727179019427 
3.6100000000031938, -0.6417041888884109 
3.620000000003215, -0.6393100400666756 
3.630000000003236, -0.637791795247975 
3.640000000003257, -0.6368862025313102 
3.650000000003278, -0.6363852033849926 
3.6600000000032993, -0.6361355983700421 
3.6700000000033204, -0.6360300480313856 
3.6800000000033415, -0.6359957904832507 
3.6900000000033626, -0.6359842199014262 
3.7000000000033837, -0.6359627128549141 
3.710000000003405, -0.6359092142487599 
3.720000000003426, -0.6358096257574307 
3.730000000003447, -0.6356575346643054 
3.740000000003468, -0.6354550014068172 
3.750000000003489, -0.635212302106419 
3.7600000000035103, -0.6349447418698897 
3.7700000000035314, -0.6346666328755259 
3.7800000000035525, -0.6343851376032935 
3.7900000000035736, -0.6340975157244406 
3.8000000000035947, -0.633793374325662 
3.810000000003616, -0.6334603683516978 
3.820000000003637, -0.6330900002768763 
3.830000000003658, -0.6326809941582691 
3.840000000003679, -0.6322400902793024 
3.8500000000037002, -0.6317818831971296 
3.8600000000037213, -0.6313295427575996 
3.8700000000037424, -0.6309175306993938 
3.8800000000037635, -0.6305966545307358 
3.8900000000037847, -0.6304412807620513 
3.9000000000038058, -0.6305580656119306 
3.910000000003827, -0.631094817594203 
3.920000000003848, -0.6322466961580406 
3.930000000003869, -0.6342543281787789 
3.94000000000389, -0.6373840334089487 
3.9500000000039113, -0.6418750811007123 
3.9600000000039324, -0.6478393747570751 
3.9700000000039535, -0.655122568433981 
3.9800000000039746, -0.6631984855717348 
3.9900000000039957, -0.671229474760464 
4.000000000004016, -0.6783530899183211 
4.010000000003993, -0.68402458210439 
4.02000000000397, -0.6881461670345244 
4.030000000003946, -0.6909369288563625 
4.040000000003923, -0.6927240070916199 
4.0500000000039, -0.6938050792399146 
4.0600000000038765, -0.6944007080170458 
4.070000000003853, -0.6946557566255105 
4.08000000000383, -0.6946550668782236 
4.090000000003807, -0.6944374239794774 
4.100000000003783, -0.6940030428499554 
4.11000000000376, -0.6933139184313813 
4.120000000003737, -0.6922875791006192 
4.130000000003713, -0.6907863720729304 
4.14000000000369, -0.688609423335482 
4.150000000003667, -0.6855052092619884 
4.1600000000036434, -0.6812342726934165 
4.17000000000362, -0.6756990988015602 
4.180000000003597, -0.6690902652159632 
4.1900000000035735, -0.6619190273088117 
4.20000000000355, -0.6548576689119487 
4.210000000003527, -0.6484916927141079 
4.220000000003504, -0.6431633578539706 
4.23000000000348, -0.6389657915850826 
4.240000000003457, -0.6358221233125884 
4.250000000003434, -0.6335722033755566 
4.26000000000341, -0.632033128498764 
4.270000000003387, -0.6310323254884527 
4.280000000003364, -0.6304220933683584 
4.2900000000033405, -0.6300836750124988 
4.300000000003317, -0.6299259217491884 
4.310000000003294, -0.6298814222907698 
4.320000000003271, -0.6299017972257217 
4.330000000003247, -0.6299532672110051 
4.340000000003224, -0.6300132210133573 
4.350000000003201, -0.6300681109181835 
4.360000000003177, -0.6301124307134075 
4.370000000003154, -0.6301477965593797 
4.380000000003131, -0.6301806761641597 
4.390000000003107, -0.6302178484866874 
4.400000000003084, -0.630260469113029 
4.410000000003061, -0.6302995659221355 
4.4200000000030375, -0.6303160361545717 
4.430000000003014, -0.6302859119374132 
4.440000000002991, -0.6301882014197023 
4.450000000002968, -0.6300109526180703 
4.460000000002944, -0.6297529706958502 
4.470000000002921, -0.6294220335701184 
4.480000000002898, -0.62903240524518 
4.490000000002874, -0.6286041376632674 
4.500000000002851, -0.6281654896724793 
4.510000000002828, -0.627759061915787 
4.520000000002804, -0.6274521004585877 
4.530000000002781, -0.6273513159899433 
4.540000000002758, -0.6276217061631141 
4.5500000000027345, -0.6285061615093038 
4.560000000002711, -0.6303364625486304 
4.570000000002688, -0.633515077184083 
4.580000000002665, -0.6384334863553855 
4.590000000002641, -0.6452946581150096 
4.600000000002618, -0.6538680317702729 
4.610000000002595, -0.6633453419655797 
4.620000000002571, -0.6725371795460077 
4.630000000002548, -0.680391196843747 
4.640000000002525, -0.6864145411815026 
4.6500000000025015, -0.6906748508779541 
4.660000000002478, -0.6935262948094673 
4.670000000002455, -0.6953608842368777 
4.6800000000024315, -0.696495098397403 
4.690000000002408, -0.6971505616957258 
4.700000000002385, -0.6974700174504787 
4.710000000002362, -0.6975378167077382 
4.720000000002338, -0.6973949233248755 
4.730000000002315, -0.6970468849873306 
4.740000000002292, -0.6964655594451851 
4.750000000002268, -0.6955861438341009 
4.760000000002245, -0.6943027514306189 
4.770000000002222, -0.6924700689155405 
4.7800000000021985, -0.689925012049319 
4.790000000002175, -0.6865431731912149 
4.800000000002152, -0.6823241220258051 
4.810000000002129, -0.6774560564899982 
4.820000000002105, -0.672293420735722 
4.830000000002082, -0.6672432922949055 
4.840000000002059, -0.6626391629240558 
4.850000000002035, -0.6586781280007177 
4.860000000002012, -0.6554281798777803 
4.870000000001989, -0.6528682936564759 
4.880000000001965, -0.6509286436409547 
4.890000000001942, -0.6495186484461521 
4.900000000001919, -0.6485434082838866 
4.9100000000018955, -0.6479126536523473 
4.920000000001872, -0.6475455400067804 
