t, s[1].omega / s[0].omega 
0, -0.6999976920629492 
0.009999999999999995, -0.6997561067938325 
0.019999999999999934, -0.6994885333915648 
0.029999999999999874, -0.6991838793818382 
0.04000000000000012, -0.6988309265446081 
0.050000000000000405, -0.698424481447529 
0.06000000000000069, -0.6979686958510929 
0.07000000000000098, -0.6974777796368248 
0.08000000000000126, -0.6969761470097573 
0.09000000000000155, -0.6964998465757545 
0.10000000000000184, -0.6960998604738636 
0.11000000000000212, -0.6958466094760375 
0.12000000000000241, -0.6958341618678872 
0.130000000000002, -0.6961822531457357 
0.1400000000000009, -0.6970343172732346 
0.1499999999999998, -0.6985501700692983 
0.1599999999999987, -0.7008921462536111 
0.1699999999999976, -0.7042025021261018 
0.1799999999999965, -0.708567877070535 
0.1899999999999954, -0.7139667624352233 
0.1999999999999943, -0.7202059311274812 
0.2099999999999932, -0.7268784588633377 
0.2199999999999921, -0.7334040972298136 
0.229999999999991, -0.7391880043130552 
0.2399999999999899, -0.7438275623932251 
0.2499999999999888, -0.7472195901114382 
0.2599999999999877, -0.7495041516646317 
0.2699999999999866, -0.750926820101069 
0.2799999999999855, -0.7517269612034203 
0.2899999999999844, -0.7520876179502511 
0.2999999999999833, -0.7521280706813499 
0.3099999999999822, -0.7519125071587942 
0.3199999999999811, -0.7514593040501141 
0.32999999999998, -0.7507448743735754 
0.3399999999999789, -0.749700251824148 
0.3499999999999778, -0.7481997630893551 
0.35999999999997667, -0.7460417818035947 
0.36999999999997557, -0.7429243607186143 
0.37999999999997447, -0.7384287346321441 
0.38999999999997337, -0.7320511467844848 
0.39999999999997227, -0.7233688506387023 
0.40999999999997117, -0.7124149131930342 
0.41999999999997006, -0.7000893931108327 
0.42999999999996896, -0.6880747063338 
0.43999999999996786, -0.6780322736048114 
0.44999999999996676, -0.6707855875706739 
0.45999999999996566, -0.6662131419024171 
0.46999999999996456, -0.6636786857823375 
0.47999999999996346, -0.6624707374163546 
0.48999999999996235, -0.6620221360273882 
0.49999999999996125, -0.6619529603933487 
0.5099999999999602, -0.6620355190208145 
0.519999999999959, -0.6621435354987855 
0.529999999999958, -0.6622098779617296 
0.5399999999999568, -0.6621975316672891 
0.5499999999999557, -0.662081630596046 
0.5599999999999546, -0.6618394592470914 
0.5699999999999535, -0.6614465722499789 
0.5799999999999524, -0.6608786593762884 
0.5899999999999513, -0.6601190833805646 
0.5999999999999502, -0.6591698535959524 
0.6099999999999491, -0.6580598081651265 
0.619999999999948, -0.6568425075573188 
0.6299999999999469, -0.655582323143199 
0.6399999999999458, -0.6543365064098328 
0.6499999999999447, -0.6531436793309295 
0.6599999999999436, -0.6520229830823935 
0.6699999999999425, -0.650980746291278 
0.6799999999999414, -0.6500190756909359 
0.6899999999999403, -0.6491425683386147 
0.6999999999999392, -0.6483621024442963 
0.7099999999999381, -0.6476963140162371 
0.719999999999937, -0.6471716706792436 
0.7299999999999359, -0.6468217119534088 
0.7399999999999348, -0.6466857157536161 
0.7499999999999337, -0.6468070159139395 
0.7599999999999326, -0.6472313111171201 
0.7699999999999315, -0.6480053026822966 
0.7799999999999304, -0.6491756374804203 
0.7899999999999293, -0.6507872926424183 
0.7999999999999282, -0.652879271390093 
0.8099999999999271, -0.6554741764127987 
0.819999999999926, -0.6585581408612521 
0.8299999999999249, -0.6620515106741676 
0.8399999999999238, -0.6657817545051687 
0.8499999999999227, -0.6694848230068169 
0.8599999999999216, -0.672859821702813 
0.8699999999999205, -0.675663655140353 
0.8799999999999194, -0.6777851284322124 
0.8899999999999183, -0.6792482254999637 
0.8999999999999172, -0.6801578701114301 
0.9099999999999161, -0.6806379011187687 
0.919999999999915, -0.6807925359973941 
0.9299999999999139, -0.6806921592763963 
0.9399999999999128, -0.6803719173527918 
0.9499999999999117, -0.6798332039086608 
0.9599999999999106, -0.6790425536134891 
0.9699999999999095, -0.6779250569268975 
0.9799999999999084, -0.6763499922039966 
0.9899999999999073, -0.6741061596080983 
0.9999999999999062, -0.6708663030456647 
1.0099999999999052, -0.6661529394250452 
1.019999999999904, -0.6593610768144 
1.029999999999903, -0.6499666415981047 
1.039999999999902, -0.6380148430844268 
1.0499999999999008, -0.6245884332205052 
1.0599999999998997, -0.6115667521009185 
1.0699999999998986, -0.6006380634140293 
1.0799999999998975, -0.5925398869676469 
1.0899999999998964, -0.5871084110722973 
1.0999999999998953, -0.5837459305860563 
1.1099999999998942, -0.5818064067807085 
1.119999999999893, -0.5807676082775476 
1.129999999999892, -0.5802620016235867 
1.1399999999998909, -0.5800506426945746 
1.1499999999998898, -0.5799855926020111 
1.1599999999998887, -0.5799777045389183 
1.1699999999998876, -0.5799733705421636 
1.1799999999998865, -0.5799393088586671 
1.1899999999998854, -0.5798536577141371 
1.1999999999998843, -0.5797020040827519 
1.2099999999998832, -0.579477292028815 
1.219999999999882, -0.5791821381055293 
1.229999999999881, -0.5788309219478258 
1.2399999999998799, -0.5784483466047108 
1.2499999999998788, -0.5780627952690282 
1.2599999999998777, -0.5776966110626319 
1.2699999999998766, -0.5773582821892073 
1.2799999999998755, -0.5770407183243776 
1.2899999999998744, -0.5767261563000871 
1.2999999999998733, -0.5763945873933436 
1.3099999999998722, -0.5760312891959 
1.319999999999871, -0.5756307025624597 
1.32999999999987, -0.5751969413401297 
1.3399999999998689, -0.5747432262197959 
1.3499999999998678, -0.5742926439914755 
1.3599999999998666, -0.5738818229252256 
1.3699999999998655, -0.5735685053725905 
1.3799999999998644, -0.5734438793420028 
1.3899999999998633, -0.5736505375307286 
1.3999999999998622, -0.5744063132564016 
1.4099999999998611, -0.5760315852543864 
1.41999999999986, -0.5789701050728218 
1.429999999999859, -0.5837764617923396 
1.4399999999998578, -0.5910156618578435 
1.4499999999998567, -0.6010054215491568 
1.4599999999998556, -0.6134136035792155 
1.4699999999998545, -0.6269852509136715 
1.4799999999998534, -0.6398661407356345 
1.4899999999998523, -0.6505094718688367 
1.4999999999998512, -0.6583485634930581 
1.5099999999998501, -0.6636768108658075 
1.519999999999849, -0.667127306519356 
1.529999999999848, -0.66929699535656 
1.5399999999998468, -0.6706231248756084 
1.5499999999998457, -0.6713915852081584 
1.5599999999998446, -0.6717777494167443 
1.5699999999998435, -0.671881724368803 
1.5799999999998424, -0.6717507696453662 
1.5899999999998413, -0.6713905521592901 
1.5999999999998402, -0.6707681067070951 
1.6099999999998391, -0.6698095999903335 
1.619999999999838, -0.6683981281577449 
1.629999999999837, -0.666382069883902 
1.6399999999998358, -0.6636101639845596 
1.6499999999998347, -0.6600030588434171 
1.6599999999998336, -0.6556371745671239 
1.6699999999998325, -0.6507749004983658 
1.6799999999998314, -0.6457935552977496 
1.6899999999998303, -0.6410552545194106 
1.6999999999998292, -0.6368104544787887 
1.709999999999828, -0.6331782281119266 
1.719999999999827, -0.630178220439459 
1.729999999999826, -0.6277734572749197 
1.7399999999998248, -0.6259022776449217 
1.7499999999998237, -0.6244961826037472 
1.7599999999998226, -0.6234878915131359 
1.7699999999998215, -0.6228144230513105 
1.7799999999998204, -0.6224183358301137 
1.7899999999998193, -0.6222485871809162 
1.7999999999998182, -0.6222614012961037 
1.809999999999817, -0.6224210687552231 
1.819999999999816, -0.6227005248859877 
1.8299999999998149, -0.6230816076023611 
1.8399999999998138, -0.6235548168608627 
1.8499999999998127, -0.6241180461526145 
1.8599999999998116, -0.6247732857030823 
1.8699999999998105, -0.6255202873255268 
1.8799999999998094, -0.6263474185862118 
1.8899999999998083, -0.6272226537877207 
1.8999999999998072, -0.6280904935733906 
1.909999999999806, -0.6288802204175354 
1.919999999999805, -0.6295244752506273 
1.9299999999998039, -0.6299782776941915 
1.9399999999998028, -0.6302270603379247 
1.9499999999998017, -0.6302810988379068 
1.9599999999998006, -0.630163137855741 
1.9699999999997995, -0.6298973530321877 
1.9799999999997984, -0.6295034788130511 
1.9899999999997973, -0.6289962125857788 
1.9999999999997962, -0.6283891618235796 
2.0099999999998173, -0.6277036432240445 
2.0199999999998384, -0.6269841256058037 
2.0299999999998595, -0.6263226626278283 
2.0399999999998806, -0.6258916635976053 
2.0499999999999017, -0.6259721726534313 
2.059999999999923, -0.6269367909992065 
2.069999999999944, -0.6291141452702115 
2.079999999999965, -0.6325030724449934 
2.089999999999986, -0.636535856919194 
2.100000000000007, -0.6403067847762968 
2.1100000000000283, -0.6432294975984235 
2.1200000000000494, -0.6453455230672904 
2.1300000000000705, -0.6469812516207775 
2.1400000000000916, -0.6483605887657634 
2.1500000000001127, -0.6495420434701111 
2.160000000000134, -0.6505138838674906 
2.170000000000155, -0.651264913791215 
2.180000000000176, -0.6518023983679602 
2.190000000000197, -0.6521452289703891 
2.2000000000002182, -0.6523131192210467 
2.2100000000002393, -0.6523186143524804 
2.2200000000002604, -0.6521621859569509 
2.2300000000002815, -0.6518294185108934 
2.2400000000003026, -0.651290257270311 
2.2500000000003237, -0.6505020870748426 
2.260000000000345, -0.6494199106709839 
2.270000000000366, -0.6480156626583694 
2.280000000000387, -0.6463019075786793 
2.290000000000408, -0.644345604223609 
2.3000000000004293, -0.6422575978223438 
2.3100000000004504, -0.6401604649290719 
2.3200000000004715, -0.638155241899993 
2.3300000000004926, -0.6363054404039807 
2.3400000000005137, -0.6346401410158038 
2.3500000000005348, -0.6331666379930688 
2.360000000000556, -0.6318832330909498 
2.370000000000577, -0.6307878232731519 
2.380000000000598, -0.6298819614276925 
2.390000000000619, -0.6291717165338562 
2.4000000000006403, -0.6286667926320615 
2.4100000000006614, -0.6283790068981518 
2.4200000000006825, -0.6283208824846367 
2.4300000000007036, -0.6285048558113383 
2.4400000000007247, -0.6289433380495908 
2.450000000000746, -0.62964952391087 
2.460000000000767, -0.6306383705496565 
2.470000000000788, -0.6319265539619432 
2.480000000000809, -0.633529479321769 
2.49000000000083, -0.6354528859426726 
2.5000000000008513, -0.637677268003753 
2.5100000000008724, -0.6401371362266148 
2.5200000000008935, -0.6427052559244514 
2.5300000000009146, -0.6451997611546403 
2.5400000000009357, -0.6474258050596162 
2.550000000000957, -0.6492359855766401 
2.560000000000978, -0.6505702712158359 
2.570000000000999, -0.6514510400121842 
2.58000000000102, -0.6519469193427226 
2.5900000000010412, -0.6521349511966064 
2.6000000000010624, -0.6520773351384617 
2.6100000000010835, -0.6518121777586973 
2.6200000000011046, -0.6513513765593066 
2.6300000000011257, -0.6506797614089892 
2.6400000000011468, -0.6497519737189342 
2.650000000001168, -0.6484847590303358 
2.660000000001189, -0.6467420715456546 
2.67000000000121, -0.6443092216579707 
2.680000000001231, -0.6408535561930571 
2.6900000000012523, -0.6358863680466245 
2.7000000000012734, -0.6288023109465188 
2.7100000000012945, -0.6191612471761269 
2.7200000000013156, -0.6072587101760035 
2.7300000000013367, -0.5944768307242002 
2.740000000001358, -0.5827244278929047 
2.750000000001379, -0.5733664369346255 
2.7600000000014, -0.5667435321173697 
2.770000000001421, -0.5624665955475509 
2.780000000001442, -0.5599007803889172 
2.7900000000014633, -0.5584619748951822 
2.8000000000014844, -0.5577138970850133 
2.8100000000015055, -0.5573636866690529 
2.8200000000015266, -0.5572265285649365 
2.8300000000015477, -0.5571899438205119 
2.840000000001569, -0.557186513099455 
2.85000000000159, -0.5571754245912622 
2.860000000001611, -0.5571310904807063 
2.870000000001632, -0.557037135485867 
2.8800000000016532, -0.5568845321825806 
2.8900000000016743, -0.5566726768170706 
2.9000000000016954, -0.5564114386363781 
2.9100000000017165, -0.5561212539983634 
2.9200000000017377, -0.5558287437956821 
2.9300000000017588, -0.555558082739144 
2.94000000000178, -0.5553218092063202 
2.950000000001801, -0.5551159012061501 
2.960000000001822, -0.5549217691168429 
2.970000000001843, -0.5547139889031928 
2.9800000000018643, -0.5544695685824077 
2.9900000000018854, -0.5541743157267993 
3.0000000000019065, -0.5538245916389332 
3.0100000000019276, -0.5534259902569297 
3.0200000000019487, -0.552991831178874 
3.03000000000197, -0.5525438139719664 
3.040000000001991, -0.552116258572982 
3.050000000002012, -0.5517650624399987 
3.060000000002033, -0.5515828395905044 
3.070000000002054, -0.5517220573256781 
3.0800000000020753, -0.552427093287745 
3.0900000000020964, -0.5540711439455505 
3.1000000000021175, -0.5571788667517719 
3.1100000000021386, -0.5623828384394514 
3.1200000000021597, -0.5702201166622262 
3.130000000002181, -0.5807046261015831 
3.140000000002202, -0.5928758216999706 
3.150000000002223, -0.6049123760803491 
3.160000000002244, -0.615082022533401 
3.1700000000022652, -0.6226554375557941 
3.1800000000022863, -0.6278742580396297 
3.1900000000023074, -0.6313517304418103 
3.2000000000023285, -0.6336468169965965 
3.2100000000023496, -0.6351519556283123 
3.2200000000023707, -0.6361202038503543 
3.230000000002392, -0.6367114581675803 
3.240000000002413, -0.6370251162097105 
3.250000000002434, -0.6371191602262816 
3.260000000002455, -0.6370204171930075 
3.2700000000024763, -0.6367294296595267 
3.2800000000024974, -0.6362223856759216 
3.2900000000025185, -0.6354529716546907 
3.3000000000025396, -0.6343586840465033 
3.3100000000025607, -0.632877519789431 
3.3200000000025818, -0.6309777708194554 
3.330000000002603, -0.6286915828548292 
3.340000000002624, -0.6261288104693172 
3.350000000002645, -0.6234527615466523 
3.360000000002666, -0.6208294206128326 
3.3700000000026873, -0.6183839000436703 
3.3800000000027084, -0.6161858589392049 
3.3900000000027295, -0.6142595450958128 
3.4000000000027506, -0.612602661929058 
3.4100000000027717, -0.6112025603739408 
3.420000000002793, -0.6100460187734844 
3.430000000002814, -0.6091234418138483 
3.440000000002835, -0.6084296029676063 
3.450000000002856, -0.6079627932230406 
3.460000000002877, -0.6077236237389745 
3.4700000000028983, -0.6077142126052162 
3.4800000000029194, -0.6079381072535919 
3.4900000000029405, -0.6084009780123456 
3.5000000000029616, -0.6091117917635992 
3.5100000000029827, -0.6100837684245735 
3.520000000003004, -0.6113338621208751 
3.530000000003025, -0.6128788111965174 
3.540000000003046, -0.6147253662313316 
3.550000000003067, -0.6168533315188036 
3.5600000000030882, -0.6191945185879348 
3.5700000000031094, -0.6216192193603178 
3.5800000000031305, -0.623948142562684 
3.5900000000031516, -0.6259977950836992 
3.6000000000031727, -0.6276384222996774 
3.6100000000031938, -0.62882586174249 
3.620000000003215, -0.6295900166689032 
3.630000000003236, -0.6299982534147949 
3.640000000003257, -0.6301211238524573 
3.650000000003278, -0.6300126124652218 
3.6600000000032993, -0.6297025051264937 
3.6700000000033204, -0.6291940937669155 
3.6800000000033415, -0.6284617530254893 
3.6900000000033626, -0.6274447550832918 
3.7000000000033837, -0.6260341312335304 
3.710000000003405, -0.6240485359074622 
3.720000000003426, -0.6211949156747297 
3.730000000003447, -0.6170185391271761 
3.740000000003468, -0.6108868185911812 
3.750000000003489, -0.602139961395076 
3.7600000000035103, -0.5905663074705301 
3.7700000000035314, -0.5770006990216096 
3.7800000000035525, -0.5632854405783396 
3.7900000000035736, -0.5513048707338244 
3.8000000000035947, -0.542052909417144 
3.810000000003616, -0.5355447919261118 
3.820000000003637, -0.5312668287205131 
3.830000000003658, -0.5285953912406869 
3.840000000003679, -0.5269996135906412 
3.8500000000037002, -0.5260901778065656 
3.8600000000037213, -0.5256027585132571 
3.8700000000037424, -0.5253655699741435 
3.8800000000037635, -0.5252698191976537 
3.8900000000037847, -0.5252476233550918 
3.9000000000038058, -0.5252570235734562 
3.910000000003827, -0.5252726358726454 
3.920000000003848, -0.5252805920586997 
3.930000000003869, -0.5252766128539867 
3.94000000000389, -0.5252658390493934 
3.9500000000039113, -0.525262444768585 
3.9600000000039324, -0.5252867650843619 
3.9700000000039535, -0.5253586940958904 
3.9800000000039746, -0.5254885615573678 
3.9900000000039957, -0.5256691924446685 
4.000000000004016, -0.5258736298445577 
4.010000000003993, -0.5260610439379274 
4.02000000000397, -0.5261888563127937 
4.030000000003946, -0.5262247813394294 
4.040000000003923, -0.5261525935950686 
4.0500000000039, -0.5259703418315061 
4.0600000000038765, -0.5256844816234513 
4.070000000003853, -0.5253042029109009 
4.08000000000383, -0.524838284560714 
4.090000000003807, -0.5242949522793212 
4.100000000003783, -0.5236845688786353 
4.11000000000376, -0.5230250282959554 
4.120000000003737, -0.5223492401250405 
4.130000000003713, -0.5217109956671871 
4.14000000000369, -0.5211759608685723 
4.150000000003667, -0.5207651002773183 
4.1600000000036434, -0.5203038240700675 
4.17000000000362, -0.5192032061481303 
4.180000000003597, -0.5164703688882253 
4.1900000000035735, -0.5113929832536255 
4.20000000000355, -0.5044847497571135 
4.210000000003527, -0.49732784252182344 
4.220000000003504, -0.4913480368089795 
4.23000000000348, -0.48707589656725486 
4.240000000003457, -0.484342334861255 
4.250000000003434, -0.48273012222151046 
4.26000000000341, -0.4818441637833152 
4.270000000003387, -0.48139404459907453 
4.280000000003364, -0.48118952883237964 
4.2900000000033405, -0.4811132275201032 
4.300000000003317, -0.4810948797866808 
4.310000000003294, -0.48109289296695606 
4.320000000003271, -0.48108267495354384 
4.330000000003247, -0.4810501613015269 
4.340000000003224, -0.48098918484246045 
4.350000000003201, -0.48090153534673147 
4.360000000003177, -0.4807982031323834 
4.370000000003154, -0.48069957918827183 
4.380000000003131, -0.48063225878108995 
4.390000000003107, -0.480621587477471 
4.400000000003084, -0.4806818309347548 
4.410000000003061, -0.48080804017872325 
4.4200000000030375, -0.4809739109405987 
4.430000000003014, -0.4811378491516588 
4.440000000002991, -0.481255260312211 
4.450000000002968, -0.48129092995156697 
4.460000000002944, -0.4812252760752476 
4.470000000002921, -0.4810529165786689 
4.480000000002898, -0.48077674209372406 
4.490000000002874, -0.4804016183271694 
4.500000000002851, -0.47992990121064805 
4.510000000002828, -0.4793588572159425 
4.520000000002804, -0.47867892866230044 
4.530000000002781, -0.4778709279523766 
4.540000000002758, -0.47689823019578403 
4.5500000000027345, -0.47568483211992146 
4.560000000002711, -0.47406040071596917 
4.570000000002688, -0.47164799196246643 
4.580000000002665, -0.46771756133527587 
4.590000000002641, -0.4612212373587715 
4.600000000002618, -0.45142553484933917 
4.610000000002595, -0.43897726867892206 
4.620000000002571, -0.4260050270279757 
4.630000000002548, -0.4146952264882017 
4.640000000002525, -0.4060640412079164 
4.6500000000025015, -0.40002085513316415 
4.660000000002478, -0.3959976303226603 
4.670000000002455, -0.3933942863023311 
4.6800000000024315, -0.3917404217787439 
4.690000000002408, -0.3907092237692026 
4.700000000002385, -0.3900861546479505 
4.710000000002362, -0.3897346157745615 
4.720000000002338, -0.3895698234029362 
4.730000000002315, -0.3895413931774397 
4.740000000002292, -0.38962263854204904 
4.750000000002268, -0.3898046056125002 
4.760000000002245, -0.39009329956349426 
4.770000000002222, -0.39050873766717 
4.7800000000021985, -0.3910842273868631 
4.790000000002175, -0.39186369917657793 
4.800000000002152, -0.39289431153571697 
4.810000000002129, -0.39421150140099576 
4.820000000002105, -0.39581571190875486 
4.830000000002082, -0.397646857689565 
4.840000000002059, -0.3995737200129404 
4.850000000002035, -0.40141849198854385 
4.860000000002012, -0.40301432310293245 
4.870000000001989, -0.40425970130516103 
4.880000000001965, -0.4051330513301875 
4.890000000001942, -0.40566847437625786 
4.900000000001919, -0.40592012584062986 
4.9100000000018955, -0.40593603089973185 
