t, s[1].omega / s[0].omega 
0, -0.7499976724711854 
0.009999999999999995, -0.7497459301072603 
0.019999999999999934, -0.7494522895196258 
0.029999999999999874, -0.749106806075287 
0.04000000000000012, -0.7487006218609686 
0.050000000000000405, -0.7482323964190976 
0.06000000000000069, -0.7477117649567392 
0.07000000000000098, -0.7471602687532896 
0.08000000000000126, -0.7466118583890708 
0.09000000000000155, -0.7461143879968761 
0.10000000000000184, -0.7457317576016304 
0.11000000000000212, -0.7455449391893729 
0.12000000000000241, -0.7456497789861476 
0.130000000000002, -0.74615044266892 
0.1400000000000009, -0.7471492872764588 
0.1499999999999998, -0.7487355667767761 
0.1599999999999987, -0.7509752027939685 
0.1699999999999976, -0.7539014466225257 
0.1799999999999965, -0.757503057110753 
0.1899999999999954, -0.761705612590671 
0.1999999999999943, -0.7663465936981982 
0.2099999999999932, -0.7711583252842662 
0.2199999999999921, -0.7757878805473981 
0.229999999999991, -0.7798756271316866 
0.2399999999999899, -0.7831661579916096 
0.2499999999999888, -0.7855783576933929 
0.2599999999999877, -0.7871874071612687 
0.2699999999999866, -0.7881483123270662 
0.2799999999999855, -0.7886223179516113 
0.2899999999999844, -0.7887372441775952 
0.2999999999999833, -0.7885773226754853 
0.3099999999999822, -0.7881875740529001 
0.3199999999999811, -0.7875828660862599 
0.32999999999998, -0.7867594624306278 
0.3399999999999789, -0.7857132440679482 
0.3499999999999778, -0.7844746204745113 
0.35999999999997667, -0.7831748673431906 
0.36999999999997557, -0.7821546276003022 
0.37999999999997447, -0.7820921958158262 
0.38999999999997337, -0.7840423922335205 
0.39999999999997227, -0.7891714151326071 
0.40999999999997117, -0.7980589317462006 
0.41999999999997006, -0.809959481302764 
0.42999999999996896, -0.8228895519439737 
0.43999999999996786, -0.8347110532928147 
0.44999999999996676, -0.8441589384243613 
0.45999999999996566, -0.851002442113281 
0.46999999999996456, -0.8556268777242491 
0.47999999999996346, -0.8585973193992601 
0.48999999999996235, -0.8604208881537909 
0.49999999999996125, -0.8614725257794618 
0.5099999999999602, -0.8619995066079831 
0.519999999999959, -0.8621482093911552 
0.529999999999958, -0.8619878208715714 
0.5399999999999568, -0.8615224367288784 
0.5499999999999557, -0.8606888116343983 
0.5599999999999546, -0.8593375383138204 
0.5699999999999535, -0.857195460021226 
0.5799999999999524, -0.8538131445891171 
0.5899999999999513, -0.8485257550943686 
0.5999999999999502, -0.8405118138846663 
0.6099999999999491, -0.8290899349527298 
0.619999999999948, -0.8142908210591445 
0.6299999999999469, -0.7973401693514841 
0.6399999999999458, -0.7804206440069102 
0.6499999999999447, -0.7656864873317617 
0.6599999999999436, -0.7543670586446081 
0.6699999999999425, -0.7465965831294523 
0.6799999999999414, -0.7417943743639415 
0.6899999999999403, -0.7391320371867789 
0.6999999999999392, -0.7378396368661619 
0.7099999999999381, -0.7373313069566746 
0.719999999999937, -0.7372154354832482 
0.7299999999999359, -0.7372540234672544 
0.7399999999999348, -0.7373116466992867 
0.7499999999999337, -0.7373123377648948 
0.7599999999999326, -0.7372090864006828 
0.7699999999999315, -0.736964784003695 
0.7799999999999304, -0.7365425280104094 
0.7899999999999293, -0.735904487817777 
0.7999999999999282, -0.7350194245213997 
0.8099999999999271, -0.7338768784218221 
0.819999999999926, -0.7325005600745802 
0.8299999999999249, -0.7309500037862826 
0.8399999999999238, -0.729305794206706 
0.8499999999999227, -0.7276467457328842 
0.8599999999999216, -0.7260331708250194 
0.8699999999999205, -0.7245032463250174 
0.8799999999999194, -0.7230793274751721 
0.8899999999999183, -0.7217771750287583 
0.8999999999999172, -0.7206130331083258 
0.9099999999999161, -0.7196068359146185 
0.919999999999915, -0.7187819142730255 
0.9299999999999139, -0.7181623033363512 
0.9399999999999128, -0.7177689072170805 
0.9499999999999117, -0.7176158274333664 
0.9599999999999106, -0.7177080602930672 
0.9699999999999095, -0.7180413261028458 
0.9799999999999084, -0.718604039831802 
0.9899999999999073, -0.7193806328861313 
0.9999999999999062, -0.7203548537517409 
1.0099999999999052, -0.7215113828864761 
1.019999999999904, -0.7228340719854984 
1.029999999999903, -0.7242996221868169 
1.039999999999902, -0.7258673235030928 
1.0499999999999008, -0.727469201518413 
1.0599999999998997, -0.7290090212684511 
1.0699999999998986, -0.7303777909789667 
1.0799999999998975, -0.7314828753954538 
1.0899999999998964, -0.7322741095735704 
1.0999999999998953, -0.7327500817344265 
1.1099999999998942, -0.7329439780170668 
1.119999999999893, -0.7329024153662751 
1.129999999999892, -0.7326698838163305 
1.1399999999998909, -0.7322831203313948 
1.1499999999998898, -0.7317745749072053 
1.1599999999998887, -0.7311842339138824 
1.1699999999998876, -0.7305817718456573 
1.1799999999998865, -0.7301036820448458 
1.1899999999998854, -0.7300102030308363 
1.1999999999998843, -0.7307601889090629 
1.2099999999998832, -0.7330812298901299 
1.219999999999882, -0.7379700108222261 
1.229999999999881, -0.7465028435480234 
1.2399999999998799, -0.7593357180406431 
1.2499999999998788, -0.7759856164314388 
1.2599999999998777, -0.7944579975099899 
1.2699999999998766, -0.8119237208752045 
1.2799999999998755, -0.8261615567501543 
1.2899999999998744, -0.8364409093804761 
1.2999999999998733, -0.8432382644382862 
1.3099999999998722, -0.8474771514022787 
1.319999999999871, -0.8500108396489164 
1.32999999999987, -0.8514553956235638 
1.3399999999998689, -0.8522041168787604 
1.3499999999998678, -0.8524879084742212 
1.3599999999998666, -0.852427104381778 
1.3699999999998655, -0.8520626797215556 
1.3799999999998644, -0.8513676191107205 
1.3899999999998633, -0.850239964170205 
1.3999999999998622, -0.8484767728705309 
1.4099999999998611, -0.8457277266843665 
1.41999999999986, -0.8414355856838542 
1.429999999999859, -0.8348032146795923 
1.4399999999998578, -0.8248992784033454 
1.4499999999998567, -0.8110803624379006 
1.4599999999998556, -0.793741048997523 
1.4699999999998545, -0.7748169911443126 
1.4799999999998534, -0.757177494568577 
1.4899999999998523, -0.7431369666991869 
1.4999999999998512, -0.7334845654132203 
1.5099999999998501, -0.7276910239101194 
1.519999999999849, -0.7246652106672318 
1.529999999999848, -0.723345796945576 
1.5399999999998468, -0.7229453733466942 
1.5499999999998457, -0.7229656172795584 
1.5599999999998446, -0.7231248185384548 
1.5699999999998435, -0.7232767352830665 
1.5799999999998424, -0.7233485819321497 
1.5899999999998413, -0.72330078348014 
1.5999999999998402, -0.7231031071630842 
1.6099999999998391, -0.7227217331915469 
1.619999999999838, -0.722114595933381 
1.629999999999837, -0.7212353492259523 
1.6399999999998358, -0.7200472307528313 
1.6499999999998347, -0.7185440689099394 
1.6599999999998336, -0.7167672631680767 
1.6699999999998325, -0.7148040691336758 
1.6799999999998314, -0.7127639602357039 
1.6899999999998303, -0.7107478130032787 
1.6999999999998292, -0.7088285674410068 
1.709999999999828, -0.7070494296057654 
1.719999999999827, -0.7054331444610812 
1.729999999999826, -0.7039932273148415 
1.7399999999998248, -0.7027417939870251 
1.7499999999998237, -0.7016927584194175 
1.7599999999998226, -0.7008613427306998 
1.7699999999998215, -0.7002614626866535 
1.7799999999998204, -0.6999025277498921 
1.7899999999998193, -0.6997869744313743 
1.7999999999998182, -0.699909451681676 
1.809999999999817, -0.7002579651247867 
1.819999999999816, -0.7008165924954439 
1.8299999999998149, -0.7015688202003949 
1.8399999999998138, -0.7025002211775628 
1.8499999999998127, -0.7035990228976137 
1.8599999999998116, -0.7048530826205618 
1.8699999999998105, -0.7062423176149769 
1.8799999999998094, -0.707727641387581 
1.8899999999998083, -0.7092413871175463 
1.8999999999998072, -0.7106879718098622 
1.909999999999806, -0.7119614888526441 
1.919999999999805, -0.7129752408452779 
1.9299999999998039, -0.7136856202163826 
1.9399999999998028, -0.7140953458095837 
1.9499999999998017, -0.7142380163594176 
1.9599999999998006, -0.7141577928014503 
1.9699999999997995, -0.7138954344609817 
1.9799999999997984, -0.7134838287017662 
1.9899999999997973, -0.712951919333794 
1.9999999999997962, -0.7123365719503818 
2.0099999999998173, -0.7117047795480078 
2.0199999999998384, -0.7111914753083103 
2.0299999999998595, -0.7110587872248199 
2.0399999999998806, -0.7117760874517984 
2.0499999999999017, -0.7140973816733559 
2.059999999999923, -0.719062358955297 
2.069999999999944, -0.7277787966682233 
2.079999999999965, -0.7408487181984498 
2.089999999999986, -0.7575888585162506 
2.100000000000007, -0.7757619000602737 
2.1100000000000283, -0.7925086490339344 
2.1200000000000494, -0.8058573170606076 
2.1300000000000705, -0.8153657207955465 
2.1400000000000916, -0.8216352234194764 
2.1500000000001127, -0.8255677462060905 
2.160000000000134, -0.8279453151545365 
2.170000000000155, -0.8293210759550049 
2.180000000000176, -0.8300475106785139 
2.190000000000197, -0.8303325773836848 
2.2000000000002182, -0.8302846226694364 
2.2100000000002393, -0.8299384389919817 
2.2200000000002604, -0.8292633348338434 
2.2300000000002815, -0.8281539304016994 
2.2400000000003026, -0.8264024429917516 
2.2500000000003237, -0.8236522549387356 
2.260000000000345, -0.8193452581518583 
2.270000000000366, -0.8127152628576274 
2.280000000000387, -0.8029483505119958 
2.290000000000408, -0.7896386005907585 
2.3000000000004293, -0.7734032146391583 
2.3100000000004504, -0.7560612266484498 
2.3200000000004715, -0.7399227204744615 
2.3300000000004926, -0.7267127556943385 
2.3400000000005137, -0.7170478511912008 
2.3500000000005348, -0.7106364578143377 
2.360000000000556, -0.7067530913362592 
2.370000000000577, -0.7046145748248771 
2.380000000000598, -0.7035683661759914 
2.390000000000619, -0.7031433755200795 
2.4000000000006403, -0.7030311687889259 
2.4100000000006614, -0.7030436800418899 
2.4200000000006825, -0.7030710596757348 
2.4300000000007036, -0.7030485816306932 
2.4400000000007247, -0.7029339985858274 
2.450000000000746, -0.702694085100356 
2.460000000000767, -0.702299116139465 
2.470000000000788, -0.701724673907325 
2.480000000000809, -0.7009594914775974 
2.49000000000083, -0.700014971135466 
2.5000000000008513, -0.6989287970207143 
2.5100000000008724, -0.6977570737653839 
2.5200000000008935, -0.6965579284760006 
2.5300000000009146, -0.6953765314672787 
2.5400000000009357, -0.6942394539341841 
2.550000000000957, -0.6931585742175892 
2.560000000000978, -0.6921394980955587 
2.570000000000999, -0.6911894290680418 
2.58000000000102, -0.690322111010475 
2.5900000000010412, -0.6895598253010086 
2.6000000000010624, -0.6889332688653365 
2.6100000000010835, -0.688479946366431 
2.6200000000011046, -0.6882414166333534 
2.6300000000011257, -0.6882598185853139 
2.6400000000011468, -0.6885744343608099 
2.650000000001168, -0.6892192057218014 
2.660000000001189, -0.6902217729738148 
2.67000000000121, -0.6916037177340566 
2.680000000001231, -0.6933804785842028 
2.6900000000012523, -0.6955582166394776 
2.7000000000012734, -0.6981243324025665 
2.7100000000012945, -0.7010297218906242 
2.7200000000013156, -0.7041664604448405 
2.7300000000013367, -0.7073550955812912 
2.740000000001358, -0.7103633920644193 
2.750000000001379, -0.7129654353466865 
2.7600000000014, -0.7150132721167325 
2.770000000001421, -0.7164718630311957 
2.780000000001442, -0.7173979713722972 
2.7900000000014633, -0.7178899522662188 
2.8000000000014844, -0.7180445186778227 
2.8100000000015055, -0.7179345567799019 
2.8200000000015266, -0.7176033864004061 
2.8300000000015477, -0.7170668522078129 
2.840000000001569, -0.7163181687808177 
2.85000000000159, -0.7153349406636591 
2.860000000001611, -0.7140915094661632 
2.870000000001632, -0.7125825860983335 
2.8800000000016532, -0.710863566640249 
2.8900000000016743, -0.709100668374708 
2.9000000000016954, -0.7075879963302913 
2.9100000000017165, -0.7066446184132763 
2.9200000000017377, -0.7063653656508653 
2.9300000000017588, -0.7064792593581682 
2.94000000000178, -0.7066649590168732 
2.950000000001801, -0.7069790317400505 
2.960000000001822, -0.7076998178730463 
2.970000000001843, -0.7088885531594973 
2.9800000000018643, -0.7103275199185075 
2.9900000000018854, -0.711738610591268 
3.0000000000019065, -0.7129381138289506 
3.0100000000019276, -0.7138551909927079 
3.0200000000019487, -0.7144902241029775 
3.03000000000197, -0.7148718694007766 
3.040000000001991, -0.7150296731874376 
3.050000000002012, -0.7149796224230028 
3.060000000002033, -0.7147164676822024 
3.070000000002054, -0.7142086600796528 
3.0800000000020753, -0.7133951002575895 
3.0900000000020964, -0.712187071211706 
3.1000000000021175, -0.7104830999310189 
3.1100000000021386, -0.7082045184559167 
3.1200000000021597, -0.7053466350918303 
3.130000000002181, -0.7020161058326526 
3.140000000002202, -0.6984179921536345 
3.150000000002223, -0.6947920684021349 
3.160000000002244, -0.6913425858973168 
3.1700000000022652, -0.6882031255231384 
3.1800000000022863, -0.6854401871704432 
3.1900000000023074, -0.6830748481467449 
3.2000000000023285, -0.681103857457615 
3.2100000000023496, -0.6795127785548669 
3.2200000000023707, -0.6782815578980438 
3.230000000002392, -0.6773856024026006 
3.240000000002413, -0.6767953846953148 
3.250000000002434, -0.676476571989871 
3.260000000002455, -0.6763915040611888 
3.2700000000024763, -0.6765018779405619 
3.2800000000024974, -0.6767719424826509 
3.2900000000025185, -0.6771714222103199 
3.3000000000025396, -0.6776775907042489 
3.3100000000025607, -0.6782760413365733 
3.3200000000025818, -0.6789595083115791 
3.330000000002603, -0.679723790359225 
3.340000000002624, -0.6805602185030938 
3.350000000002645, -0.6814460260936057 
3.360000000002666, -0.6823371245664143 
3.3700000000026873, -0.6831696893887046 
3.3800000000027084, -0.6838737852867678 
3.3900000000027295, -0.6843935419395688 
3.4000000000027506, -0.6847017209898684 
3.4100000000027717, -0.6848005535081818 
3.420000000002793, -0.6847117177341767 
3.430000000002814, -0.6844644385299723 
3.440000000002835, -0.6840884999928849 
3.450000000002856, -0.6836144357891623 
3.460000000002877, -0.6830812007837244 
3.4700000000028983, -0.6825524317619753 
3.4800000000029194, -0.6821442177419741 
3.4900000000029405, -0.6820682255887845 
3.5000000000029616, -0.6826914257429216 
3.5100000000029827, -0.6846026040887068 
3.520000000003004, -0.6886483552507784 
3.530000000003025, -0.6958517957254886 
3.540000000003046, -0.7070810482088407 
3.550000000003067, -0.7224099923781552 
3.5600000000030882, -0.7404906405757096 
3.5700000000031094, -0.7587091612814978 
3.5800000000031305, -0.7744396115313547 
3.5900000000031516, -0.7863356770548668 
3.6000000000031727, -0.794487377302306 
3.6100000000031938, -0.799721857156995 
3.620000000003215, -0.802945507213761 
3.630000000003236, -0.8048623341594634 
3.640000000003257, -0.8059424430571722 
3.650000000003278, -0.8064743176134586 
3.6600000000032993, -0.8066213409299028 
3.6700000000033204, -0.8064604718634975 
3.6800000000033415, -0.8060015223724859 
3.6900000000033626, -0.8051890444223074 
3.7000000000033837, -0.8038872628493505 
3.710000000003405, -0.8018472435477261 
3.720000000003426, -0.7986601609640628 
3.730000000003447, -0.7937220485510903 
3.740000000003468, -0.7862856874852276 
3.750000000003489, -0.7757253404246616 
3.7600000000035103, -0.7620466514498008 
3.7700000000035314, -0.7463129196955653 
3.7800000000035525, -0.7304315646999139 
3.7900000000035736, -0.716299649346333 
3.8000000000035947, -0.7050454228074398 
3.810000000003616, -0.6968868127337047 
3.820000000003637, -0.6914341289281094 
3.830000000003658, -0.6880563877616342 
3.840000000003679, -0.6861243274150471 
3.8500000000037002, -0.6851211167775254 
3.8600000000037213, -0.6846682846937957 
3.8700000000037424, -0.6845101500322266 
3.8800000000037635, -0.6844838554975345 
3.8900000000037847, -0.6844891462867744 
3.9000000000038058, -0.684463863249382 
3.910000000003827, -0.6843667274076218 
3.920000000003848, -0.6841672337179399 
3.930000000003869, -0.6838421326932167 
3.94000000000389, -0.6833776579674755 
3.9500000000039113, -0.6827751169145484 
3.9600000000039324, -0.6820549781979515 
3.9700000000039535, -0.6812540981293229 
3.9800000000039746, -0.6804150767726787 
3.9900000000039957, -0.6795732619893884 
4.000000000004016, -0.6787489628389637 
4.010000000003993, -0.6779481519748178 
4.02000000000397, -0.677169251240288 
4.030000000003946, -0.6764112309874213 
4.040000000003923, -0.675679608819309 
4.0500000000039, -0.6749896410871166 
4.0600000000038765, -0.6743677286674279 
4.070000000003853, -0.6738521328639286 
4.08000000000383, -0.6734932946632451 
4.090000000003807, -0.6733533739964119 
4.100000000003783, -0.6735045452143099 
4.11000000000376, -0.6740260245755567 
4.120000000003737, -0.6750003425666937 
4.130000000003713, -0.6765094348368998 
4.14000000000369, -0.6786302405668365 
4.150000000003667, -0.6814275745085667 
4.1600000000036434, -0.6849396541426169 
4.17000000000362, -0.6891506940233246 
4.180000000003597, -0.6939496971188341 
4.1900000000035735, -0.6990906090144892 
4.20000000000355, -0.704192873311739 
4.210000000003527, -0.7088227047701592 
4.220000000003504, -0.7126366664227528 
4.23000000000348, -0.7154918331480922 
4.240000000003457, -0.7174437425107043 
4.250000000003434, -0.7186583626894454 
4.26000000000341, -0.7193192252667936 
4.270000000003387, -0.7195750777956387 
4.280000000003364, -0.719524535855768 
4.2900000000033405, -0.7192182005882446 
4.300000000003317, -0.7186638044794263 
4.310000000003294, -0.7178276269253525 
4.320000000003271, -0.7166295888421568 
4.330000000003247, -0.7149306653277454 
4.340000000003224, -0.712511043793261 
4.350000000003201, -0.7090371997427103 
4.360000000003177, -0.704020695345934 
4.370000000003154, -0.6968011525901253 
4.380000000003131, -0.6866782748308602 
4.390000000003107, -0.6734080967021798 
4.400000000003084, -0.6579592439125939 
4.410000000003061, -0.6426055171797549 
4.4200000000030375, -0.6297204026216632 
4.430000000003014, -0.620454057000538 
4.440000000002991, -0.6146040493828318 
4.450000000002968, -0.6113055289134429 
4.460000000002944, -0.6096483503146317 
4.470000000002921, -0.6089373908526267 
4.480000000002898, -0.6087187458706338 
4.490000000002874, -0.6087224322376806 
4.500000000002851, -0.6087972489890946 
4.510000000002828, -0.6088610792786435 
4.520000000002804, -0.6088683052771799 
4.530000000002781, -0.6087902544369285 
4.540000000002758, -0.6086047184988721 
4.5500000000027345, -0.6082922225878394 
4.560000000002711, -0.6078380287370806 
4.570000000002688, -0.6072386405420189 
4.580000000002665, -0.6065092969221899 
4.590000000002641, -0.6056863877104749 
4.600000000002618, -0.6048201301205716 
4.610000000002595, -0.6039596553935129 
4.620000000002571, -0.603138932032562 
4.630000000002548, -0.602371038993916 
4.640000000002525, -0.601651936824074 
4.6500000000025015, -0.6009695872456964 
4.660000000002478, -0.600313181549403 
4.670000000002455, -0.5996793485359373 
4.6800000000024315, -0.5990751691828133 
4.690000000002408, -0.5985196673353204 
4.700000000002385, -0.5980456119506269 
4.710000000002362, -0.5977026836966189 
4.720000000002338, -0.5975622332917663 
4.730000000002315, -0.597723364239247 
4.740000000002292, -0.5983198314146323 
4.750000000002268, -0.599526968279555 
4.760000000002245, -0.6015670070108637 
4.770000000002222, -0.6047087459010367 
4.7800000000021985, -0.609252081561176 
4.790000000002175, -0.6154787946644025 
4.800000000002152, -0.6235435096022044 
4.810000000002129, -0.6332953043289784 
4.820000000002105, -0.6440995869592114 
4.830000000002082, -0.6548525750289256 
4.840000000002059, -0.6643480926979187 
4.850000000002035, -0.6718044521628442 
4.860000000002012, -0.677099825793209 
4.870000000001989, -0.6805817857492753 
4.880000000001965, -0.6827399610405798 
4.890000000001942, -0.6839993298735813 
4.900000000001919, -0.6846595384527151 
4.9100000000018955, -0.6849066851399016 
4.920000000001872, -0.6848410376650106 
