t, s[1].omega / s[0].omega 
0, -1.3001221842981558 
0.009999999999999995, -1.3107352157496879 
0.019999999999999934, -1.3180586502195184 
0.029999999999999874, -1.322611986890864 
0.04000000000000012, -1.3252072069736576 
0.050000000000000405, -1.326539647208003 
0.06000000000000069, -1.3270876560648788 
0.07000000000000098, -1.3271461050402404 
0.08000000000000126, -1.3268928709648076 
0.09000000000000155, -1.326454756083657 
0.10000000000000184, -1.3259668976919552 
0.11000000000000212, -1.325609825503988 
0.12000000000000241, -1.325583858805206 
0.130000000000002, -1.3260108304149667 
0.1400000000000009, -1.3268541361065445 
0.1499999999999998, -1.3279514025009367 
0.1599999999999987, -1.32911265051105 
0.1699999999999976, -1.3301860402286707 
0.1799999999999965, -1.3310716375751372 
0.1899999999999954, -1.331711420954927 
0.1999999999999943, -1.3320757184421246 
0.2099999999999932, -1.3321527333780812 
0.2199999999999921, -1.3319423975059146 
0.229999999999991, -1.331453871788139 
0.2399999999999899, -1.3307057844674475 
0.2499999999999888, -1.3297290925312206 
0.2599999999999877, -1.3285726865494187 
0.2699999999999866, -1.327310268661265 
0.2799999999999855, -1.3260448219554692 
0.2899999999999844, -1.3249047935228335 
0.2999999999999833, -1.324020119827149 
0.3099999999999822, -1.3234684774935936 
0.3199999999999811, -1.3232217263273158 
0.32999999999998, -1.3231534147774433 
0.3399999999999789, -1.323105189413978 
0.3499999999999778, -1.3229391472420367 
0.35999999999997667, -1.3225366739174471 
0.36999999999997557, -1.3217625794415786 
0.37999999999997447, -1.3204209342291444 
0.38999999999997337, -1.3182172800572252 
0.39999999999997227, -1.3147450638034905 
0.40999999999997117, -1.3095322482673624 
0.41999999999997006, -1.3022012624997348 
0.42999999999996896, -1.2927849882796534 
0.43999999999996786, -1.2821389892498902 
0.44999999999996676, -1.27209654387122 
0.45999999999996566, -1.264761379984642 
0.46999999999996456, -1.2610793851112603 
0.47999999999996346, -1.2602583486468364 
0.48999999999996235, -1.2607812373545741 
0.49999999999996125, -1.2615467249078005 
0.5099999999999602, -1.2620892247614532 
0.519999999999959, -1.2623013293411567 
0.529999999999958, -1.2621826072971776 
0.5399999999999568, -1.261717066540209 
0.5499999999999557, -1.2608187492990461 
0.5599999999999546, -1.2592964508247269 
0.5699999999999535, -1.2568388793733436 
0.5799999999999524, -1.2531108856902724 
0.5899999999999513, -1.2482048173215468 
0.5999999999999502, -1.243658401164995 
0.6099999999999491, -1.2431597802930043 
0.619999999999948, -1.2504183309437789 
0.6299999999999469, -1.2647423480867317 
0.6399999999999458, -1.2808854751368406 
0.6499999999999447, -1.2940681768679787 
0.6599999999999436, -1.3028534756208372 
0.6699999999999425, -1.3080163015648545 
0.6799999999999414, -1.3108020511212766 
0.6899999999999403, -1.3121718474306303 
0.6999999999999392, -1.3127150885277945 
0.7099999999999381, -1.3127567635825748 
0.719999999999937, -1.3124700810550889 
0.7299999999999359, -1.3119652829950077 
0.7399999999999348, -1.311373036758359 
0.7499999999999337, -1.310928295950221 
0.7599999999999326, -1.31099418561586 
0.7699999999999315, -1.3119180957528416 
0.7799999999999304, -1.3137743782601414 
0.7899999999999293, -1.3162837055626622 
0.7999999999999282, -1.3190102411769051 
0.8099999999999271, -1.321588195653506 
0.819999999999926, -1.3237996709443434 
0.8299999999999249, -1.3255477554844515 
0.8399999999999238, -1.3268101382995359 
0.8499999999999227, -1.3276069341652048 
0.8599999999999216, -1.327982679568773 
0.8699999999999205, -1.3279952450788286 
0.8799999999999194, -1.3277081735570966 
0.8899999999999183, -1.3271877154223852 
0.8999999999999172, -1.3265060894056524 
0.9099999999999161, -1.325747250735811 
0.919999999999915, -1.3250057757384326 
0.9299999999999139, -1.3243731962410212 
0.9399999999999128, -1.3239186395468008 
0.9499999999999117, -1.3236721907370539 
0.9599999999999106, -1.323611592199717 
0.9699999999999095, -1.3236613785815732 
0.9799999999999084, -1.323715487878983 
0.9899999999999073, -1.3236670960388357 
0.9999999999999062, -1.3234198026920763 
1.0099999999999052, -1.3228783392540635 
1.019999999999904, -1.3219345790276957 
1.029999999999903, -1.320462593815273 
1.039999999999902, -1.3183286025229182 
1.0499999999999008, -1.3154157649178175 
1.0599999999998997, -1.311662977074228 
1.0699999999998986, -1.3071231323735013 
1.0799999999998975, -1.302048333699123 
1.0899999999998964, -1.2969719106712296 
1.0999999999998953, -1.2926580221234982 
1.1099999999998942, -1.2897674090708475 
1.119999999999893, -1.2884151263916332 
1.129999999999892, -1.2881351198588649 
1.1399999999998909, -1.2883051996322883 
1.1499999999998898, -1.288498700377857 
1.1599999999998887, -1.2885157592794498 
1.1699999999998876, -1.288266870032985 
1.1799999999998865, -1.2876644193716582 
1.1899999999998854, -1.2865427731476609 
1.1999999999998843, -1.2845776064241663 
1.2099999999998832, -1.2811885615564527 
1.219999999999882, -1.2754839741197852 
1.229999999999881, -1.2665100697014755 
1.2399999999998799, -1.2543184390716013 
1.2499999999998788, -1.2417391669006983 
1.2599999999998777, -1.2342048022758587 
1.2699999999998766, -1.235112119842218 
1.2799999999998755, -1.2421109655609142 
1.2899999999998744, -1.2502627509700301 
1.2999999999998733, -1.2565905826065955 
1.3099999999998722, -1.2606065008289564 
1.319999999999871, -1.262864123822548 
1.32999999999987, -1.2639924784462944 
1.3399999999998689, -1.2644229468336015 
1.3499999999998678, -1.264398139583681 
1.3599999999998666, -1.2640344591629473 
1.3699999999998655, -1.2633817079938008 
1.3799999999998644, -1.2624947927717558 
1.3899999999998633, -1.261558859411142 
1.3999999999998622, -1.261076042172745 
1.4099999999998611, -1.2619442824279505 
1.41999999999986, -1.265072067787979 
1.429999999999859, -1.2706033203113303 
1.4399999999998578, -1.2776381985026872 
1.4499999999998567, -1.2848467491681328 
1.4599999999998556, -1.291198734515365 
1.4699999999998545, -1.296204481298815 
1.4799999999998534, -1.299800933091854 
1.4899999999998523, -1.30216290284277 
1.4999999999998512, -1.3035544440473577 
1.5099999999998501, -1.3042357557434792 
1.519999999999849, -1.3044188516528803 
1.529999999999848, -1.3042606205550746 
1.5399999999998468, -1.3038798377396135 
1.5499999999998457, -1.3033853561688704 
1.5599999999998446, -1.3028999142980422 
1.5699999999998435, -1.3025572643471712 
1.5799999999998424, -1.3024618761078144 
1.5899999999998413, -1.302642637281776 
1.5999999999998402, -1.3030479954493708 
1.6099999999998391, -1.3035806104397696 
1.619999999999838, -1.3041336750588457 
1.629999999999837, -1.3046116643459742 
1.6399999999998358, -1.3049390034234043 
1.6499999999998347, -1.3050605571600502 
1.6599999999998336, -1.3049375659878595 
1.6699999999998325, -1.30454351617951 
1.6799999999998314, -1.3038621804631423 
1.6899999999998303, -1.3028877256648255 
1.6999999999998292, -1.3016268741802197 
1.709999999999828, -1.3001042722135239 
1.719999999999827, -1.2983723620211827 
1.729999999999826, -1.2965252655029162 
1.7399999999998248, -1.2947110155361279 
1.7499999999998237, -1.2931242532354301 
1.7599999999998226, -1.291950901531812 
1.7699999999998215, -1.2912697944347367 
1.7799999999998204, -1.2909952783953513 
1.7899999999998193, -1.290933289480667 
1.7999999999998182, -1.2908879401010886 
1.809999999999817, -1.2907124638272633 
1.819999999999816, -1.2902893197108516 
1.8299999999998149, -1.2894794101156952 
1.8399999999998138, -1.288065171254297 
1.8499999999998127, -1.285693750819712 
1.8599999999998116, -1.281836365510494 
1.8699999999998105, -1.2758187742288312 
1.8799999999998094, -1.2670280609784292 
1.8899999999998083, -1.255394842884061 
1.8999999999998072, -1.2420383902992174 
1.909999999999806, -1.2294545520165505 
1.919999999999805, -1.2204057106096222 
1.9299999999998039, -1.216000442789348 
1.9399999999998028, -1.2151355435285485 
1.9499999999998017, -1.21589884547327 
1.9599999999998006, -1.216947116178942 
1.9699999999997995, -1.2177271088147115 
1.9799999999997984, -1.2181257071832132 
1.9899999999997973, -1.21816762625178 
1.9999999999997962, -1.2178739771588245 
2.0099999999998173, -1.2172081337383123 
2.0199999999998384, -1.2160471921119735 
2.0299999999998595, -1.2141607758135613 
2.0399999999998806, -1.2112328482941095 
2.0499999999999017, -1.2070612176674964 
2.059999999999923, -1.2021726829053438 
2.069999999999944, -1.198780357422072 
2.079999999999965, -1.200690975743768 
2.089999999999986, -1.2103389160644735 
2.100000000000007, -1.2254846483361057 
2.1100000000000283, -1.2408764650246122 
2.1200000000000494, -1.2527898071584347 
2.1300000000000705, -1.260531019269139 
2.1400000000000916, -1.265036038896286 
2.1500000000001127, -1.267456831028232 
2.160000000000134, -1.2686351180588098 
2.170000000000155, -1.2690779821124447 
2.180000000000176, -1.2690624569712614 
2.190000000000197, -1.2687339715479227 
2.2000000000002182, -1.2681843958424341 
2.2100000000002393, -1.2675317436691165 
2.2200000000002604, -1.267014757927724 
2.2300000000002815, -1.267050631013483 
2.2400000000003026, -1.2681196143333675 
2.2500000000003237, -1.270449338160217 
2.260000000000345, -1.2738003707153969 
2.270000000000366, -1.2776197127722237 
2.280000000000387, -1.2813596701980847 
2.290000000000408, -1.2846542628583761 
2.3000000000004293, -1.2873242478730957 
2.3100000000004504, -1.2893210024881747 
2.3200000000004715, -1.290676232906502 
2.3300000000004926, -1.2914677487988302 
2.3400000000005137, -1.2917941440897178 
2.3500000000005348, -1.291755682385699 
2.360000000000556, -1.2914445717037033 
2.370000000000577, -1.2909470649120447 
2.380000000000598, -1.2903536785840461 
2.390000000000619, -1.289765902657772 
2.4000000000006403, -1.289285623199809 
2.4100000000006614, -1.2889880627584358 
2.4200000000006825, -1.2888995568770352 
2.4300000000007036, -1.288995583081593 
2.4400000000007247, -1.289212025916334 
2.450000000000746, -1.289461394552258 
2.460000000000767, -1.2896519421836217 
2.470000000000788, -1.2897020811393776 
2.480000000000809, -1.2895435968969424 
2.49000000000083, -1.289117858417563 
2.5000000000008513, -1.288373216433376 
2.5100000000008724, -1.2872670627873455 
2.5200000000008935, -1.2857710166889313 
2.5300000000009146, -1.2838773956734835 
2.5400000000009357, -1.2816085649417495 
2.550000000000957, -1.2790335592012247 
2.560000000000978, -1.2762937636429441 
2.570000000000999, -1.2736256419178815 
2.58000000000102, -1.271340861805489 
2.5900000000010412, -1.2697162242394728 
2.6000000000010624, -1.2688323229458194 
2.6100000000010835, -1.2685208185068038 
2.6200000000011046, -1.2684919253704572 
2.6300000000011257, -1.268493950563559 
2.6400000000011468, -1.2683647503618816 
2.650000000001168, -1.2679923759473306 
2.660000000001189, -1.267249808068382 
2.67000000000121, -1.2659278466726316 
2.680000000001231, -1.2636608256657733 
2.6900000000012523, -1.2598478645066278 
2.7000000000012734, -1.2536240235540015 
2.7100000000012945, -1.2440389497790991 
2.7200000000013156, -1.2306773334975187 
2.7300000000013367, -1.2146887309520236 
2.740000000001358, -1.1992803446831157 
2.750000000001379, -1.1882231297803567 
2.7600000000014, -1.1830796733578681 
2.770000000001421, -1.1824165047783601 
2.780000000001442, -1.183741400637932 
2.7900000000014633, -1.1853381331479713 
2.8000000000014844, -1.1865331532878904 
2.8100000000015055, -1.187223076566449 
2.8200000000015266, -1.187480345602363 
2.8300000000015477, -1.1873780651693087 
2.840000000001569, -1.1869340466997294 
2.85000000000159, -1.1860924183319477 
2.860000000001611, -1.1847120993185647 
2.870000000001632, -1.1825736244574379 
2.8800000000016532, -1.1794764710491417 
2.8900000000016743, -1.1755889802045862 
2.9000000000016954, -1.1721674963753874 
2.9100000000017165, -1.1720901283561156 
2.9200000000017377, -1.1785838008039042 
2.9300000000017588, -1.1919567696043694 
2.94000000000178, -1.2083660383266723 
2.950000000001801, -1.2230420459158906 
2.960000000001822, -1.233634499319065 
2.970000000001843, -1.2402749381385634 
2.9800000000018643, -1.244069833607314 
2.9900000000018854, -1.2460790853512294 
3.0000000000019065, -1.2470255600488607 
3.0100000000019276, -1.2473339171805997 
3.0200000000019487, -1.2472340628286331 
3.03000000000197, -1.2468484631407724 
3.040000000001991, -1.246264023220417 
3.050000000002012, -1.2456111858774634 
3.060000000002033, -1.2451563903445066 
3.070000000002054, -1.2453434928946385 
3.0800000000020753, -1.2466498350571547 
3.0900000000020964, -1.2492646955763496 
3.1000000000021175, -1.2529061014368783 
3.1100000000021386, -1.2569977085798842 
3.1200000000021597, -1.2609813171380377 
3.130000000002181, -1.2644828661067025 
3.140000000002202, -1.2673168511816562 
3.150000000002223, -1.2694336286433268 
3.160000000002244, -1.27087055723517 
3.1700000000022652, -1.2717158141623073 
3.1800000000022863, -1.272079283861594 
3.1900000000023074, -1.272070323387668 
3.2000000000023285, -1.2717869327547349 
3.2100000000023496, -1.2713184610693808 
3.2200000000023707, -1.270757382986274 
3.230000000002392, -1.270207946939487 
3.240000000002413, -1.269776523270447 
3.250000000002434, -1.2695423043745497 
3.260000000002455, -1.2695310381230913 
3.2700000000024763, -1.2697130406023052 
3.2800000000024974, -1.2700195214319425 
3.2900000000025185, -1.2703623974653202 
3.3000000000025396, -1.2706524872093887 
3.3100000000025607, -1.2708124047498581 
3.3200000000025818, -1.2707804369111773 
3.330000000002603, -1.27050820647099 
3.340000000002624, -1.269958181680896 
3.350000000002645, -1.2691038185810488 
3.360000000002666, -1.267931474996631 
3.3700000000026873, -1.2664432021758958 
3.3800000000027084, -1.2646617292506996 
3.3900000000027295, -1.262640112134142 
3.4000000000027506, -1.260476720420646 
3.4100000000027717, -1.258330023993045 
3.420000000002793, -1.2564143496077915 
3.430000000002814, -1.2549461055897466 
3.440000000002835, -1.2540396085533696 
3.450000000002856, -1.2536322534695756 
3.460000000002877, -1.2535265135758125 
3.4700000000028983, -1.2535050324694381 
3.4800000000029194, -1.2534028902721428 
3.4900000000029405, -1.2531020400345776 
3.5000000000029616, -1.2524859156225454 
3.5100000000029827, -1.2513863036623945 
3.520000000003004, -1.2495305986874632 
3.530000000003025, -1.246496556100658 
3.540000000003046, -1.2417069658958422 
3.550000000003067, -1.2345372867380773 
3.5600000000030882, -1.2246258142530508 
3.5700000000031094, -1.2123829176133418 
3.5800000000031305, -1.1994089218443214 
3.5900000000031516, -1.188195090548671 
3.6000000000031727, -1.1807950452512415 
3.6100000000031938, -1.1774952580835119 
3.620000000003215, -1.1769843066881651 
3.630000000003236, -1.1776578846090768 
3.640000000003257, -1.1784986088647205 
3.650000000003278, -1.1790997861424493 
3.6600000000032993, -1.1793733488992753 
3.6700000000033204, -1.1793266902379695 
3.6800000000033415, -1.178955738722011 
3.6900000000033626, -1.1781963149256038 
3.7000000000033837, -1.1768875163831456 
3.710000000003405, -1.174729543117418 
3.720000000003426, -1.1712571624222317 
3.730000000003447, -1.1659342493650393 
3.740000000003468, -1.1586084953231885 
3.750000000003489, -1.1504848610550744 
3.7600000000035103, -1.1448231804844313 
3.7700000000035314, -1.1453647290454352 
3.7800000000035525, -1.1527414158316198 
3.7900000000035736, -1.163537173164616 
3.8000000000035947, -1.1736149840004886 
3.810000000003616, -1.1809747348497925 
3.820000000003637, -1.185613120464662 
3.830000000003658, -1.1882699524165818 
3.840000000003679, -1.189661345026566 
3.8500000000037002, -1.1902735093469832 
3.8600000000037213, -1.190387140996735 
3.8700000000037424, -1.190143630644385 
3.8800000000037635, -1.1896003887519135 
3.8900000000037847, -1.1887811595020095 
3.9000000000038058, -1.1877530936541913 
3.910000000003827, -1.1867729024515845 
3.920000000003848, -1.1864917184003474 
3.930000000003869, -1.188009967533175 
3.94000000000389, -1.192409979016027 
3.9500000000039113, -1.1998693730699432 
3.9600000000039324, -1.2092885611162079 
3.9700000000039535, -1.2189399719747267 
3.9800000000039746, -1.2273968015731604 
3.9900000000039957, -1.233958220950061 
4.000000000004016, -1.2385645064171207 
4.010000000003993, -1.2415206873269606 
4.02000000000397, -1.2432449471197127 
4.030000000003946, -1.2441167326924996 
4.040000000003923, -1.2444200547530553 
4.0500000000039, -1.24434671759584 
4.0600000000038765, -1.2440267934148006 
4.070000000003853, -1.2435688515435988 
4.08000000000383, -1.2431001470966971 
4.090000000003807, -1.2427876117360843 
4.100000000003783, -1.242808918320466 
4.11000000000376, -1.2432730125103402 
4.120000000003737, -1.2441574598517375 
4.130000000003713, -1.2453278734110635 
4.14000000000369, -1.2466118382864935 
4.150000000003667, -1.247858367605669 
4.1600000000036434, -1.2489589456872827 
4.17000000000362, -1.2498447998698132 
4.180000000003597, -1.250476952270538 
4.1900000000035735, -1.2508370944330662 
4.20000000000355, -1.2509218676466456 
4.210000000003527, -1.2507402834336694 
4.220000000003504, -1.2503128884435502 
4.23000000000348, -1.249671905445032 
4.240000000003457, -1.2488628009813172 
4.250000000003434, -1.2479471153644883 
4.26000000000341, -1.2470034036852848 
4.270000000003387, -1.2461216033080524 
4.280000000003364, -1.2453894151765685 
4.2900000000033405, -1.2448726246453328 
4.300000000003317, -1.2445920912093547 
4.310000000003294, -1.244508283406803 
4.320000000003271, -1.244530806025512 
4.330000000003247, -1.2445501014522669 
4.340000000003224, -1.244464244049758 
4.350000000003201, -1.2441834162707364 
4.360000000003177, -1.2436191142197288 
4.370000000003154, -1.2426736492385555 
4.380000000003131, -1.2412404446397818 
4.390000000003107, -1.2392179989259495 
4.400000000003084, -1.236533745259163 
4.410000000003061, -1.2331716323492694 
4.4200000000030375, -1.2292022147088137 
4.430000000003014, -1.2248194342502114 
4.440000000002991, -1.2203762588882918 
4.450000000002968, -1.2163712104739794 
4.460000000002944, -1.2133086893092495 
4.470000000002921, -1.2114470537292557 
4.480000000002898, -1.2106458369265882 
4.490000000002874, -1.2104959703292293 
4.500000000002851, -1.2105867867587112 
4.510000000002828, -1.2106508843759172 
4.520000000002804, -1.2105479008858384 
4.530000000002781, -1.2101885496787221 
4.540000000002758, -1.2094630700276467 
4.5500000000027345, -1.2081778004071717 
4.560000000002711, -1.2059837263213549 
4.570000000002688, -1.2022934384813477 
4.580000000002665, -1.196232863468035 
4.590000000002641, -1.1867807065939096 
4.600000000002618, -1.1733487507064244 
4.610000000002595, -1.156828484176299 
4.620000000002571, -1.1402312870181424 
4.630000000002548, -1.1274612689977637 
4.640000000002525, -1.1206326186297928 
4.6500000000025015, -1.1188727781528565 
4.660000000002478, -1.119801652397874 
4.670000000002455, -1.1214521789228054 
4.6800000000024315, -1.1228737157565365 
4.690000000002408, -1.123811572223905 
4.700000000002385, -1.1242921963524506 
4.710000000002362, -1.1243954631391513 
4.720000000002338, -1.1241685345977528 
4.730000000002315, -1.1235973233429224 
4.740000000002292, -1.122588826659228 
4.750000000002268, -1.120948020712166 
4.760000000002245, -1.1183584647702065 
4.770000000002222, -1.1144218788018612 
4.7800000000021985, -1.1088961392889165 
4.790000000002175, -1.1023017781024431 
4.800000000002152, -1.0966781380025923 
4.810000000002129, -1.095298641390458 
4.820000000002105, -1.1003116887000808 
4.830000000002082, -1.1103782549271293 
4.840000000002059, -1.1216959861186628 
4.850000000002035, -1.131141455056412 
4.860000000002012, -1.137694991707692 
4.870000000001989, -1.1417412535885738 
4.880000000001965, -1.1440424504610467 
4.890000000001942, -1.1452376417918009 
4.900000000001919, -1.145743090788729 
4.9100000000018955, -1.1457944919764647 
4.920000000001872, -1.1455059091521416 
4.930000000001849, -1.1449149224970128 
4.940000000001826, -1.144022865586923 
