t, s[1].omega / s[0].omega 
0, -0.3599977965503433 
0.009999999999999995, -0.3598778534684224 
0.019999999999999934, -0.3599363273459449 
0.029999999999999874, -0.3601169063748018 
0.04000000000000012, -0.36034130156149274 
0.050000000000000405, -0.3605301105912586 
0.06000000000000069, -0.36062178062074446 
0.07000000000000098, -0.36058016628354633 
0.08000000000000126, -0.36038922071844515 
0.09000000000000155, -0.360040691678853 
0.10000000000000184, -0.3595205278046524 
0.11000000000000212, -0.3587947027885384 
0.12000000000000241, -0.35778939904897133 
0.130000000000002, -0.3563532041793548 
0.1400000000000009, -0.3541749982513113 
0.1499999999999998, -0.3506055450954908 
0.1599999999999987, -0.3443165745009247 
0.1699999999999976, -0.3328997255434905 
0.1799999999999965, -0.3133011080085811 
0.1899999999999954, -0.2847845849943622 
0.1999999999999943, -0.2524133944208028 
0.2099999999999932, -0.22393916383301266 
0.2199999999999921, -0.20319833328775744 
0.229999999999991, -0.1895335061124838 
0.2399999999999899, -0.18082325980253794 
0.2499999999999888, -0.17524561077911413 
0.2599999999999877, -0.17159931108315124 
0.2699999999999866, -0.16915892560977994 
0.2799999999999855, -0.16749879040670362 
0.2899999999999844, -0.1663739631765112 
0.2999999999999833, -0.16565150213958002 
0.3099999999999822, -0.16527485179956677 
0.3199999999999811, -0.1652503006651081 
0.32999999999998, -0.1656516576032922 
0.3399999999999789, -0.16664631616468004 
0.3499999999999778, -0.16855517051942975 
0.35999999999997667, -0.17197433122700062 
0.36999999999997557, -0.17801106709725945 
0.37999999999997447, -0.18870052939345577 
0.38999999999997337, -0.20752113217670853 
0.39999999999997227, -0.238988847535488 
0.40999999999997117, -0.2839071016064023 
0.41999999999997006, -0.32960098982624514 
0.42999999999996896, -0.35477884369913226 
0.43999999999996786, -0.35551516503272584 
0.44999999999996676, -0.3455693351281367 
0.45999999999996566, -0.33579463640877205 
0.46999999999996456, -0.32916302353968946 
0.47999999999996346, -0.3252300986548997 
0.48999999999996235, -0.323028008775596 
0.49999999999996125, -0.3218354699653736 
0.5099999999999602, -0.32121356862718836 
0.519999999999959, -0.32091244166811356 
0.529999999999958, -0.320793534983265 
0.5399999999999568, -0.3207820580762703 
0.5499999999999557, -0.32084101837210793 
0.5599999999999546, -0.32095853974772476 
0.5699999999999535, -0.321143205402705 
0.5799999999999524, -0.32142400872353055 
0.5899999999999513, -0.3218520147423277 
0.5999999999999502, -0.32250075799020506 
0.6099999999999491, -0.3234623256134386 
0.619999999999948, -0.32483545781704565 
0.6299999999999469, -0.32670000404602734 
0.6399999999999458, -0.3290723435494126 
0.6499999999999447, -0.33185045873568375 
0.6599999999999436, -0.3347896290042619 
0.6699999999999425, -0.33756150778778676 
0.6799999999999414, -0.33988353740353316 
0.6899999999999403, -0.34161881210094736 
0.6999999999999392, -0.3427748051087335 
0.7099999999999381, -0.3434347758426709 
0.719999999999937, -0.3436902675075236 
0.7299999999999359, -0.34360311207944516 
0.7399999999999348, -0.343189569852878 
0.7499999999999337, -0.3424119343979667 
0.7599999999999326, -0.3411693968668501 
0.7699999999999315, -0.33929069628986763 
0.7799999999999304, -0.3365477476086228 
0.7899999999999293, -0.3327293759669003 
0.7999999999999282, -0.3278014577378696 
0.8099999999999271, -0.3220735700515885 
0.819999999999926, -0.31617095082100144 
0.8299999999999249, -0.31074925622889926 
0.8399999999999238, -0.30620649799683775 
0.8499999999999227, -0.302626767083438 
0.8599999999999216, -0.29989691723810713 
0.8699999999999205, -0.29783594143243575 
0.8799999999999194, -0.296269127875749 
0.8899999999999183, -0.29505589070631744 
0.8999999999999172, -0.29409472139086457 
0.9099999999999161, -0.293319950868737 
0.919999999999915, -0.292697093973325 
0.9299999999999139, -0.2922201498154234 
0.9399999999999128, -0.29191335421846637 
0.9499999999999117, -0.291840304626289 
0.9599999999999106, -0.2921252486134426 
0.9699999999999095, -0.29299550591114903 
0.9799999999999084, -0.29486151480319434 
0.9899999999999073, -0.2984605051419117 
0.9999999999999062, -0.30508338203793683 
1.0099999999999052, -0.3167893796410523 
1.019999999999904, -0.3359803016555462 
1.029999999999903, -0.36247491194798576 
1.039999999999902, -0.3873016862944557 
1.0499999999999008, -0.3937683954570586 
1.0599999999998997, -0.3767374378752607 
1.0699999999998986, -0.3501575600299911 
1.0799999999998975, -0.3277309306804515 
1.0899999999998964, -0.31297740366135474 
1.0999999999998953, -0.3042155391760169 
1.1099999999998942, -0.29918845267171046 
1.119999999999893, -0.29632550567657095 
1.129999999999892, -0.2946996530702347 
1.1399999999998909, -0.2937904117555811 
1.1499999999998898, -0.2933090495873937 
1.1599999999998887, -0.2930965218034586 
1.1699999999998876, -0.2930681977985903 
1.1799999999998865, -0.2931852896401509 
1.1899999999998854, -0.29344143664935246 
1.1999999999998843, -0.2938582757453738 
1.2099999999998832, -0.2944864962568937 
1.219999999999882, -0.2954098296744576 
1.229999999999881, -0.2967492025515802 
1.2399999999998799, -0.29866237552261204 
1.2499999999998788, -0.30132887544439924 
1.2599999999998777, -0.3049006491838528 
1.2699999999998766, -0.3093984140403127 
1.2799999999998755, -0.31457823562002807 
1.2899999999998744, -0.31989211774163356 
1.2999999999998733, -0.32467745445288954 
1.3099999999998722, -0.3284741998082663 
1.319999999999871, -0.3311765260878503 
1.32999999999987, -0.3329330032509605 
1.3399999999998689, -0.3339703643839963 
1.3499999999998678, -0.3344834697207532 
1.3599999999998666, -0.33460057211951383 
1.3699999999998655, -0.3343843877929846 
1.3799999999998644, -0.333841237998272 
1.3899999999998633, -0.33292959263159266 
1.3999999999998622, -0.3315720307089572 
1.4099999999998611, -0.32968284851904095 
1.41999999999986, -0.327223098729897 
1.429999999999859, -0.32427124744536784 
1.4399999999998578, -0.3210546914049633 
1.4499999999998567, -0.31788710333994263 
1.4599999999998556, -0.3150431783994504 
1.4699999999998545, -0.3126711407082885 
1.4799999999998534, -0.31079082519889717 
1.4899999999998523, -0.309341201084702 
1.4999999999998512, -0.3082286697900266 
1.5099999999998501, -0.30735791023220127 
1.519999999999849, -0.30664768902148964 
1.529999999999848, -0.306037404096566 
1.5399999999998468, -0.3054880516014712 
1.5499999999998457, -0.3049803455171335 
1.5599999999998446, -0.3045127736713328 
1.5699999999998435, -0.304102230748332 
1.5799999999998424, -0.30378963324338304 
1.5899999999998413, -0.303653150802013 
1.5999999999998402, -0.30383184725434287 
1.6099999999998391, -0.30455810893507973 
1.619999999999838, -0.30616906035763025 
1.629999999999837, -0.30894743892053583 
1.6399999999998358, -0.31226989903786695 
1.6499999999998347, -0.3120264020261876 
1.6599999999998336, -0.29742920608228446 
1.6699999999998325, -0.2578859812334997 
1.6799999999998314, -0.20277615904999688 
1.6899999999998303, -0.1549510099417904 
1.6999999999998292, -0.12376611564187882 
1.709999999999828, -0.10569253706155002 
1.719999999999827, -0.09540480650591378 
1.729999999999826, -0.0894044654719645 
1.7399999999998248, -0.08578009556701352 
1.7499999999998237, -0.08352774865155971 
1.7599999999998226, -0.0821191957548667 
1.7699999999998215, -0.08127860496417387 
1.7799999999998204, -0.08087417430973846 
1.7899999999998193, -0.08087006572181742 
1.7999999999998182, -0.0813140967593349 
1.809999999999817, -0.08235509158234186 
1.819999999999816, -0.08429886513402293 
1.8299999999998149, -0.08773200292324627 
1.8399999999998138, -0.0937760983741944 
1.8499999999998127, -0.10457252096214678 
1.8599999999998116, -0.12398874485261016 
1.8699999999998105, -0.1575018015173209 
1.8799999999998094, -0.20692402404951338 
1.8899999999998083, -0.2581196857377553 
1.8999999999998072, -0.2869302514887514 
1.909999999999806, -0.29013792997399845 
1.919999999999805, -0.28263980962935226 
1.9299999999998039, -0.2748661369476133 
1.9399999999998028, -0.2695039722044402 
1.9499999999998017, -0.26625296251509367 
1.9599999999998006, -0.2643741398502201 
1.9699999999997995, -0.26331412681537864 
1.9799999999997984, -0.262734275219963 
1.9899999999997973, -0.2624408461836169 
1.9999999999997962, -0.2623272344290145 
2.0099999999998173, -0.2623390596713425 
2.0199999999998384, -0.2624558010642109 
2.0299999999998595, -0.2626829269774863 
2.0399999999998806, -0.2630506502629078 
2.0499999999999017, -0.26361675578694743 
2.059999999999923, -0.2644713657983083 
2.069999999999944, -0.26574118622334686 
2.079999999999965, -0.2675887601105575 
2.089999999999986, -0.27019609905075226 
2.100000000000007, -0.2737118875582674 
2.1100000000000283, -0.2781426720416485 
2.1200000000000494, -0.28322002141336816 
2.1300000000000705, -0.2883782445547534 
2.1400000000000916, -0.29296685828327124 
2.1500000000001127, -0.2965639057672097 
2.160000000000134, -0.29909797374932034 
2.170000000000155, -0.30073019323411276 
2.180000000000176, -0.30168268021105116 
2.190000000000197, -0.30213973984728265 
2.2000000000002182, -0.3022200803687274 
2.2100000000002393, -0.3019806198258803 
2.2200000000002604, -0.3014272634072768 
2.2300000000002815, -0.30052637133625665 
2.2400000000003026, -0.2992217833977151 
2.2500000000003237, -0.2974670036694875 
2.260000000000345, -0.2952752913996399 
2.270000000000366, -0.2927652804863624 
2.280000000000387, -0.2901564282899222 
2.290000000000408, -0.2876960286011527 
2.3000000000004293, -0.285568258749794 
2.3100000000004504, -0.2838517331569955 
2.3200000000004715, -0.2825346200543076 
2.3300000000004926, -0.2815523306535252 
2.3400000000005137, -0.28081980369184856 
2.3500000000005348, -0.280252176002178 
2.360000000000556, -0.2797768774184379 
2.370000000000577, -0.2793394297050616 
2.380000000000598, -0.27890379732046255 
2.390000000000619, -0.27844885541511594 
2.4000000000006403, -0.27796333422966224 
2.4100000000006614, -0.2774408825709204 
2.4200000000006825, -0.27687481834419053 
2.4300000000007036, -0.2762482448667861 
2.4400000000007247, -0.27550530769833875 
2.450000000000746, -0.274460186110231 
2.460000000000767, -0.27252148748245253 
2.470000000000788, -0.26796659693913066 
2.480000000000809, -0.25664753520619654 
2.49000000000083, -0.232111863873146 
2.5000000000008513, -0.19253390969475975 
2.5100000000008724, -0.14875346309145152 
2.5200000000008935, -0.11410720003029115 
2.5300000000009146, -0.0917809853833737 
2.5400000000009357, -0.07850706390306322 
2.550000000000957, -0.07066092527852971 
2.560000000000978, -0.06589794372864441 
2.570000000000999, -0.06290234472385067 
2.58000000000102, -0.06095861471768192 
2.5900000000010412, -0.059677761200853385 
2.6000000000010624, -0.058851451851360904 
2.6100000000010835, -0.05837944956427964 
2.6200000000011046, -0.058237722289360215 
2.6300000000011257, -0.058472852147047186 
2.6400000000011468, -0.05922063445797974 
2.650000000001168, -0.06075738453621991 
2.660000000001189, -0.06360370992206386 
2.67000000000121, -0.06869965104997451 
2.680000000001231, -0.07756188002634029 
2.6900000000012523, -0.09168380794337563 
2.7000000000012734, -0.10839351181677304 
2.7100000000012945, -0.11150928973532652 
2.7200000000013156, -0.07945144273541731 
2.7300000000013367, -0.025480581203228398 
2.740000000001358, 0.017967085890115742 
2.750000000001379, 0.043089315764649826 
2.7600000000014, 0.05632630969984369 
2.770000000001421, 0.0633106041358046 
2.780000000001442, 0.06709380230589326 
2.7900000000014633, 0.0691724860754544 
2.8000000000014844, 0.07028115225052865 
2.8100000000015055, 0.07078508849425548 
2.8200000000015266, 0.07085863100638286 
2.8300000000015477, 0.07056197242059122 
2.840000000001569, 0.06986618045235618 
2.85000000000159, 0.06864340067913041 
2.860000000001611, 0.06662233267640791 
2.870000000001632, 0.06330676640375664 
2.8800000000016532, 0.057916540280059645 
2.8900000000016743, 0.04978930823007034 
2.9000000000016954, 0.04105916833983008 
2.9100000000017165, 0.04380263094681411 
2.9200000000017377, 0.07617614462503536 
2.9300000000017588, 0.12668945106107066 
2.94000000000178, 0.16537728458620832 
2.950000000001801, 0.1865904303902582 
2.960000000001822, 0.19721508150576642 
2.970000000001843, 0.2025923735628008 
2.9800000000018643, 0.20539824642670818 
2.9900000000018854, 0.2068846431731365 
3.0000000000019065, 0.2076539643155822 
3.0100000000019276, 0.20801243427393962 
3.0200000000019487, 0.20812628617281917 
3.03000000000197, 0.2080958527684603 
3.040000000001991, 0.2079998315721141 
3.050000000002012, 0.2079397866367818 
3.060000000002033, 0.20811584644567308 
3.070000000002054, 0.20897527226024065 
3.0800000000020753, 0.2114379783437404 
3.0900000000020964, 0.21691515414073562 
3.1000000000021175, 0.22629314669209818 
3.1100000000021386, 0.23807195728408598 
3.1200000000021597, 0.24891357197798164 
3.130000000002181, 0.25673868105179876 
3.140000000002202, 0.2615929713050197 
3.150000000002223, 0.26434656993776884 
3.160000000002244, 0.2657798393862792 
3.1700000000022652, 0.26639915421169136 
3.1800000000022863, 0.26650823090583065 
3.1900000000023074, 0.2662982676872588 
3.2000000000023285, 0.26590584259095085 
3.2100000000023496, 0.2654401985174232 
3.2200000000023707, 0.26499129649403697 
3.230000000002392, 0.26463074303915446 
3.240000000002413, 0.2644136610279601 
3.250000000002434, 0.2643826862466966 
3.260000000002455, 0.2645698940040802 
3.2700000000024763, 0.2649911815487104 
3.2800000000024974, 0.26563119795130474 
3.2900000000025185, 0.2664258432914357 
3.3000000000025396, 0.2672588008089278 
3.3100000000025607, 0.2679840236551406 
3.3200000000025818, 0.2684621176455025 
3.330000000002603, 0.2685807767265942 
3.340000000002624, 0.2682424950179983 
3.350000000002645, 0.26732913327073193 
3.360000000002666, 0.2656672292795454 
3.3700000000026873, 0.26302949363960304 
3.3800000000027084, 0.25923239153053207 
3.3900000000027295, 0.25437328280670457 
3.4000000000027506, 0.24905247079495077 
3.4100000000027717, 0.2441905921502753 
3.420000000002793, 0.24044819940350273 
3.430000000002814, 0.23791172128720098 
3.440000000002835, 0.23630071816057482 
3.450000000002856, 0.23527805341634825 
3.460000000002877, 0.23458802829061387 
3.4700000000028983, 0.234062975161268 
3.4800000000029194, 0.23358963106034047 
3.4900000000029405, 0.2330749394081908 
3.5000000000029616, 0.23241654705486559 
3.5100000000029827, 0.23147038439936707 
3.520000000003004, 0.22999950475379247 
3.530000000003025, 0.2275729101182097 
3.540000000003046, 0.22335038330675117 
3.550000000003067, 0.21564542433133402 
3.5600000000030882, 0.20128046335476993 
3.5700000000031094, 0.17604262810166443 
3.5800000000031305, 0.14092826086413382 
3.5900000000031516, 0.11039726595768898 
3.6000000000031727, 0.09671937213652164 
3.6100000000031938, 0.09482274579009994 
3.620000000003215, 0.09650954793167166 
3.630000000003236, 0.09834355038346579 
3.640000000003257, 0.09959602908594618 
3.650000000003278, 0.10029344263552516 
3.6600000000032993, 0.1005686533386991 
3.6700000000033204, 0.10051605510479104 
3.6800000000033415, 0.10017183179044813 
3.6900000000033626, 0.09951139863309226 
3.7000000000033837, 0.09843521840654751 
3.710000000003405, 0.09672711212543636 
3.720000000003426, 0.093957191296243 
3.730000000003447, 0.08926557646986506 
3.740000000003468, 0.08089081468252052 
3.750000000003489, 0.06525850512268061 
3.7600000000035103, 0.036125175495532416 
3.7700000000035314, -0.011373585769684658 
3.7800000000035525, -0.06398425568217399 
3.7900000000035736, -0.09203023008011003 
3.8000000000035947, -0.09203348947214066 
3.810000000003616, -0.08259371478816055 
3.820000000003637, -0.07421897417060927 
3.830000000003658, -0.06866975246819525 
3.840000000003679, -0.0652546166135607 
3.8500000000037002, -0.06317797062479893 
3.8600000000037213, -0.06191946460080581 
3.8700000000037424, -0.06118168321113486 
3.8800000000037635, -0.06080762586411833 
3.8900000000037847, -0.060728818914532814 
3.9000000000038058, -0.06094107376621992 
3.910000000003827, -0.06150087812434811 
3.920000000003848, -0.06254108889159386 
3.930000000003869, -0.0643123172892588 
3.94000000000389, -0.06726732805032343 
3.9500000000039113, -0.07222077579659471 
3.9600000000039324, -0.08062001008058299 
3.9700000000039535, -0.09485451441553915 
3.9800000000039746, -0.11796483205132575 
3.9900000000039957, -0.15091572391402383 
4.000000000004016, -0.1875056126684384 
4.010000000003993, -0.21648108856821174 
4.02000000000397, -0.2330824423903918 
4.030000000003946, -0.24074568544409206 
4.040000000003923, -0.24400121027325522 
4.0500000000039, -0.24542291079501272 
4.0600000000038765, -0.24610702678663854 
4.070000000003853, -0.24647527354432305 
4.08000000000383, -0.24668843487479827 
4.090000000003807, -0.24681096608281874 
4.100000000003783, -0.24687203529232304 
4.11000000000376, -0.2468890588715918 
4.120000000003737, -0.24687878952718703 
4.130000000003713, -0.24686486976781916 
4.14000000000369, -0.24688432273677546 
4.150000000003667, -0.2469923844601019 
4.1600000000036434, -0.24726387197074087 
4.17000000000362, -0.247789748776164 
4.180000000003597, -0.248668063354441 
4.1900000000035735, -0.24998633549436716 
4.20000000000355, -0.25178926561641957 
4.210000000003527, -0.2540314651880299 
4.220000000003504, -0.25654002028348666 
4.23000000000348, -0.25903655312387674 
4.240000000003457, -0.26123647999958377 
4.250000000003434, -0.2629584127444621 
4.26000000000341, -0.2641578990894153 
4.270000000003387, -0.26488291820936183 
4.280000000003364, -0.26520962855363595 
4.2900000000033405, -0.2651986588501757 
4.300000000003317, -0.26487500069500186 
4.310000000003294, -0.2642204654372825 
4.320000000003271, -0.26317146736672486 
4.330000000003247, -0.2616247072525127 
4.340000000003224, -0.2594643827942057 
4.350000000003201, -0.25662784438114383 
4.360000000003177, -0.2531990478613561 
4.370000000003154, -0.2494571953627847 
4.380000000003131, -0.2457972591277024 
4.390000000003107, -0.24256052424806024 
4.400000000003084, -0.23991923175515956 
4.410000000003061, -0.23788198309979425 
4.4200000000030375, -0.23636253944578103 
4.430000000003014, -0.2352422681262806 
4.440000000002991, -0.23440495792831037 
4.450000000002968, -0.23375175582872693 
4.460000000002944, -0.2332062845434491 
4.470000000002921, -0.2327146373471257 
4.480000000002898, -0.23224205465313658 
4.490000000002874, -0.231767833439033 
4.500000000002851, -0.2312798487231656 
4.510000000002828, -0.23076871716829897 
4.520000000002804, -0.2302185330450782 
4.530000000002781, -0.22958351476454628 
4.540000000002758, -0.228718433355876 
4.5500000000027345, -0.22717235600043884 
4.560000000002711, -0.2236382175293235 
4.570000000002688, -0.21487360684183282 
4.580000000002665, -0.19527674941961978 
4.590000000002641, -0.1616644873490795 
4.600000000002618, -0.12168156745280763 
4.610000000002595, -0.08814963824045396 
4.620000000002571, -0.06584407449101037 
4.630000000002548, -0.0524353351194219 
4.640000000002525, -0.04450776245866677 
4.6500000000025015, -0.039712541355998006 
4.660000000002478, -0.03670599532007281 
4.670000000002455, -0.03475302095363661 
4.6800000000024315, -0.033451919652796924 
4.690000000002408, -0.032584058787460214 
4.700000000002385, -0.032037607340681847 
4.710000000002362, -0.031771738370201925 
4.720000000002338, -0.031804996997298066 
4.730000000002315, -0.03222225250501704 
4.740000000002292, -0.03320079066315289 
4.750000000002268, -0.03505493916425219 
4.760000000002245, -0.03826445178778134 
4.770000000002222, -0.04326861520440452 
4.7800000000021985, -0.04913540193419161 
4.790000000002175, -0.04929182919021592 
4.800000000002152, -0.028446013622937315 
4.810000000002129, 0.018012839069494017 
4.820000000002105, 0.06577680758834398 
4.830000000002082, 0.09697542655787954 
4.840000000002059, 0.11376487086510467 
4.850000000002035, 0.12246986832427871 
4.860000000002012, 0.1270750893817061 
