t, s[1].omega / s[0].omega 
0, -1.2800243695080857 
0.009999999999999995, -1.282086045149733 
0.019999999999999934, -1.2834536759129591 
0.029999999999999874, -1.2842297014919928 
0.04000000000000012, -1.2845320590656784 
0.050000000000000405, -1.2844730715039359 
0.06000000000000069, -1.2841513887153082 
0.07000000000000098, -1.2836575849199416 
0.08000000000000126, -1.2830871333476408 
0.09000000000000155, -1.2825469029299446 
0.10000000000000184, -1.2821408425609135 
0.11000000000000212, -1.2819388113422687 
0.12000000000000241, -1.281954661778601 
0.130000000000002, -1.282149542634234 
0.1400000000000009, -1.2824493476323036 
0.1499999999999998, -1.2827638646835982 
0.1599999999999987, -1.2830044891173722 
0.1699999999999976, -1.28309561851385 
0.1799999999999965, -1.2829764696167536 
0.1899999999999954, -1.2825978160200082 
0.1999999999999943, -1.281919992717401 
0.2099999999999932, -1.2809141408970919 
0.2199999999999921, -1.279565274204402 
0.229999999999991, -1.277876476625805 
0.2399999999999899, -1.2758762411395277 
0.2499999999999888, -1.2736320106793213 
0.2599999999999877, -1.271269916800089 
0.2699999999999866, -1.268990233219308 
0.2799999999999855, -1.2670482855878764 
0.2899999999999844, -1.265666050545669 
0.2999999999999833, -1.264905494835661 
0.3099999999999822, -1.2646260488260939 
0.3199999999999811, -1.2645835066573219 
0.32999999999998, -1.2645584223331112 
0.3399999999999789, -1.2644006344419327 
0.3499999999999778, -1.2639975479841692 
0.35999999999997667, -1.263217025942096 
0.36999999999997557, -1.2618470220776277 
0.37999999999997447, -1.2595323413796171 
0.38999999999997337, -1.2557193089925094 
0.39999999999997227, -1.2496634291499311 
0.40999999999997117, -1.240622792403702 
0.41999999999997006, -1.2283748835748514 
0.42999999999996896, -1.2139651399673181 
0.43999999999996786, -1.2000091275659845 
0.44999999999996676, -1.1895908502880597 
0.45999999999996566, -1.1841781485005125 
0.46999999999996456, -1.1828233108678776 
0.47999999999996346, -1.183502008407514 
0.48999999999996235, -1.1846615184152742 
0.49999999999996125, -1.1856014231142602 
0.5099999999999602, -1.1861495918528369 
0.519999999999959, -1.1863243015438933 
0.529999999999958, -1.186163237626563 
0.5399999999999568, -1.1856581059080147 
0.5499999999999557, -1.1847249353700648 
0.5599999999999546, -1.183178343613941 
0.5699999999999535, -1.1807158557252388 
0.5799999999999524, -1.1769801883802986 
0.5899999999999513, -1.1718769346897104 
0.5999999999999502, -1.1663442146259173 
0.6099999999999491, -1.1631565993108386 
0.619999999999948, -1.1660318919245998 
0.6299999999999469, -1.1762286903431147 
0.6399999999999458, -1.1905226134691698 
0.6499999999999447, -1.2040514573154408 
0.6599999999999436, -1.2140773503580156 
0.6699999999999425, -1.2204414500119347 
0.6799999999999414, -1.2241025542228363 
0.6899999999999403, -1.2260501874793073 
0.6999999999999392, -1.2269711811480266 
0.7099999999999381, -1.2272697796431822 
0.719999999999937, -1.2271616433548358 
0.7299999999999359, -1.226754258083597 
0.7399999999999348, -1.226112610516077 
0.7499999999999337, -1.2253369160706937 
0.7599999999999326, -1.2246765222815124 
0.7699999999999315, -1.224641439172841 
0.7799999999999304, -1.2259394642109913 
0.7899999999999293, -1.2290842307590701 
0.7999999999999282, -1.233945993560842 
0.8099999999999271, -1.2397718566703781 
0.819999999999926, -1.2456428390812446 
0.8299999999999249, -1.2508669121650988 
0.8399999999999238, -1.2550858814000752 
0.8499999999999227, -1.2582125866977882 
0.8599999999999216, -1.2603328234121354 
0.8699999999999205, -1.2616193629617594 
0.8799999999999194, -1.262265971308206 
0.8899999999999183, -1.2624458401906784 
0.8999999999999172, -1.2622965098807704 
0.9099999999999161, -1.261926972094836 
0.919999999999915, -1.2614381641552825 
0.9299999999999139, -1.2609437386291509 
0.9399999999999128, -1.2605716047777784 
0.9499999999999117, -1.2604324985282482 
0.9599999999999106, -1.2605744871040405 
0.9699999999999095, -1.260966347679333 
0.9799999999999084, -1.261521877167761 
0.9899999999999073, -1.2621362641009455 
0.9999999999999062, -1.2627111842020928 
1.0099999999999052, -1.2631668515235415 
1.019999999999904, -1.2634449302065198 
1.029999999999903, -1.263505874044767 
1.039999999999902, -1.263324749628135 
1.0499999999999008, -1.262888219225769 
1.0599999999998997, -1.2621932420212936 
1.0699999999998986, -1.261247477490468 
1.0799999999998975, -1.2600718568983 
1.0899999999998964, -1.2587058252916152 
1.0999999999998953, -1.2572146344764996 
1.1099999999998942, -1.2556959237884158 
1.119999999999893, -1.254279527661473 
1.129999999999892, -1.253109042286965 
1.1399999999998909, -1.2522942630429936 
1.1499999999998898, -1.2518517040722652 
1.1599999999998887, -1.2516873129234238 
1.1699999999998876, -1.2516461877587128 
1.1799999999998865, -1.2515784281486317 
1.1899999999998854, -1.2513641431817004 
1.1999999999998843, -1.2508957490484582 
1.2099999999998832, -1.250043570299732 
1.219999999999882, -1.2486236570965814 
1.229999999999881, -1.2463798137456856 
1.2399999999998799, -1.2429962034749318 
1.2499999999998788, -1.2381618524472031 
1.2599999999998777, -1.2317004461530983 
1.2699999999998766, -1.2237547954707608 
1.2799999999998755, -1.214970590753969 
1.2899999999998744, -1.2065317629612675 
1.2999999999998733, -1.1998170594467443 
1.3099999999998722, -1.1956797028890453 
1.319999999999871, -1.1939466160998928 
1.32999999999987, -1.19371809041311 
1.3399999999998689, -1.1940784502896784 
1.3499999999998678, -1.1944769719729453 
1.3599999999998666, -1.194686890361198 
1.3699999999998655, -1.1946371562435032 
1.3799999999998644, -1.194287351074467 
1.3899999999998633, -1.1935555701107123 
1.3999999999998622, -1.1922635008287652 
1.4099999999998611, -1.190070598424795 
1.41999999999986, -1.1863953828025153 
1.429999999999859, -1.1803899621325642 
1.4399999999998578, -1.1711877525850332 
1.4499999999998567, -1.1587724184554973 
1.4599999999998556, -1.145291202349356 
1.4699999999998545, -1.135041086778242 
1.4799999999998534, -1.1314737077915786 
1.4899999999998523, -1.134105957967992 
1.4999999999998512, -1.1395666391879549 
1.5099999999998501, -1.1448554324773883 
1.519999999999849, -1.1487367814418177 
1.529999999999848, -1.1511836067163799 
1.5399999999998468, -1.1525601552523352 
1.5499999999998457, -1.1532168366911157 
1.5599999999998446, -1.1533866505872654 
1.5699999999998435, -1.1531914397047252 
1.5799999999998424, -1.1526672376505256 
1.5899999999998413, -1.1517867146735745 
1.5999999999998402, -1.1504915798531963 
1.6099999999998391, -1.1487799481888392 
1.619999999999838, -1.1469284038953487 
1.629999999999837, -1.1458828034843735 
1.6399999999998358, -1.1475208985632874 
1.6499999999998347, -1.1539938532794762 
1.6599999999998336, -1.165912932199499 
1.6699999999998325, -1.1811700367380085 
1.6799999999998314, -1.1962089182804931 
1.6899999999998303, -1.2083706799797285 
1.6999999999998292, -1.2168635674873554 
1.709999999999828, -1.2221942463322024 
1.719999999999827, -1.225276037816149 
1.729999999999826, -1.2269139408956002 
1.7399999999998248, -1.2276633373012051 
1.7499999999998237, -1.2278621435137498 
1.7599999999998226, -1.2277035559088219 
1.7699999999998215, -1.2273039498362557 
1.7799999999998204, -1.226765377777044 
1.7899999999998193, -1.2262410492251874 
1.7999999999998182, -1.2259875576251311 
1.809999999999817, -1.22633988928665 
1.819999999999816, -1.2275581595558172 
1.8299999999998149, -1.2296464825954556 
1.8399999999998138, -1.2323375502732399 
1.8499999999998127, -1.2352522199717078 
1.8599999999998116, -1.2380605207499624 
1.8699999999998105, -1.2405428463183232 
1.8799999999998094, -1.2425796693894129 
1.8899999999998083, -1.2441234451136531 
1.8999999999998072, -1.2451769064835647 
1.909999999999806, -1.2457785369390821 
1.919999999999805, -1.2459897320812159 
1.9299999999998039, -1.245882224692189 
1.9399999999998028, -1.2455296121337354 
1.9499999999998017, -1.2450069624543665 
1.9599999999998006, -1.2443970668221245 
1.9699999999997995, -1.2437944477435772 
1.9799999999997984, -1.2432957197487442 
1.9899999999997973, -1.2429757872588223 
1.9999999999997962, -1.242866102771838 
2.0099999999998173, -1.242949436266598 
2.0199999999998384, -1.2431685150039988 
2.0299999999998595, -1.2434413677505214 
2.0399999999998806, -1.2436798670610858 
2.0499999999999017, -1.2438047641269618 
2.059999999999923, -1.2437511697653578 
2.069999999999944, -1.24346690095047 
2.079999999999965, -1.2429103622713011 
2.089999999999986, -1.2420513133119093 
2.100000000000007, -1.2408734938496704 
2.1100000000000283, -1.2393774340870298 
2.1200000000000494, -1.2375841966793681 
2.1300000000000705, -1.2355426761535269 
2.1400000000000916, -1.233341892774435 
2.1500000000001127, -1.2311246463385215 
2.160000000000134, -1.2290885411067982 
2.170000000000155, -1.2274487675790557 
2.180000000000176, -1.2263510475475254 
2.190000000000197, -1.2257861391653184 
2.2000000000002182, -1.2255944411807511 
2.2100000000002393, -1.2255618766673517 
2.2200000000002604, -1.2255084895933326 
2.2300000000002815, -1.2253071677668503 
2.2400000000003026, -1.224851716132771 
2.2500000000003237, -1.224010490750513 
2.260000000000345, -1.2225811190476168 
2.270000000000366, -1.2202523437294253 
2.280000000000387, -1.216591104419312 
2.290000000000408, -1.2110970206303144 
2.3000000000004293, -1.2033780784274488 
2.3100000000004504, -1.1934616826072264 
2.3200000000004715, -1.1821347518048948 
2.3300000000004926, -1.1710257023829238 
2.3400000000005137, -1.1620780423562989 
2.3500000000005348, -1.156506941639175 
2.360000000000556, -1.154127434433593 
2.370000000000577, -1.1537766248562409 
2.380000000000598, -1.15425630421582 
2.390000000000619, -1.1548395841434966 
2.4000000000006403, -1.155229420552259 
2.4100000000006614, -1.1553468917987664 
2.4200000000006825, -1.1551744639112047 
2.4300000000007036, -1.1546741764173079 
2.4400000000007247, -1.153739709263284 
2.450000000000746, -1.1521480435969054 
2.460000000000767, -1.1494950475882169 
2.470000000000788, -1.1451327163010425 
2.480000000000809, -1.1382101034020944 
2.49000000000083, -1.1280669041943383 
2.5000000000008513, -1.1152110979971903 
2.5100000000008724, -1.1023163268730252 
2.5200000000008935, -1.0934360973643904 
2.5300000000009146, -1.0909658060014578 
2.5400000000009357, -1.093728693050977 
2.550000000000957, -1.0986208417980081 
2.560000000000978, -1.1032168361352706 
2.570000000000999, -1.1065814339570756 
2.58000000000102, -1.1087185390327803 
2.5900000000010412, -1.1099296102190381 
2.6000000000010624, -1.110502798178836 
2.6100000000010835, -1.11063007257692 
2.6200000000011046, -1.1104083494862114 
2.6300000000011257, -1.109855087119406 
2.6400000000011468, -1.108918901042278 
2.650000000001168, -1.107491561251096 
2.660000000001189, -1.1054539853404923 
2.67000000000121, -1.1028313949227955 
2.680000000001231, -1.1001577479979094 
2.6900000000012523, -1.0989814316958473 
2.7000000000012734, -1.1018753568701176 
2.7100000000012945, -1.1109821294256357 
2.7200000000013156, -1.1257065702952427 
2.7300000000013367, -1.1424243451575107 
2.740000000001358, -1.1571264872494655 
2.750000000001379, -1.1678532771288708 
2.7600000000014, -1.1747273816017525 
2.770000000001421, -1.1787597076207912 
2.780000000001442, -1.1809623713597683 
2.7900000000014633, -1.182053814024293 
2.8000000000014844, -1.1824704383842592 
2.8100000000015055, -1.1824540539990396 
2.8200000000015266, -1.182130458649703 
2.8300000000015477, -1.1815710080734032 
2.840000000001569, -1.1808563766631002 
2.85000000000159, -1.180165537813863 
2.860000000001611, -1.1798811883686084 
2.870000000001632, -1.1806109960286055 
2.8800000000016532, -1.1829641573418646 
2.8900000000016743, -1.18713487000701 
2.9000000000016954, -1.192690730830854 
2.9100000000017165, -1.1988066051526223 
2.9200000000017377, -1.2046710982117874 
2.9300000000017588, -1.2097281737686862 
2.94000000000178, -1.2137141772773306 
2.950000000001801, -1.2165985095784762 
2.960000000001822, -1.2185013993086007 
2.970000000001843, -1.2196139293278763 
2.9800000000018643, -1.2201340721544223 
2.9900000000018854, -1.220229743849812 
3.0000000000019065, -1.2200302194725103 
3.0100000000019276, -1.2196386967207422 
3.0200000000019487, -1.2191560834761752 
3.03000000000197, -1.2187027478914256 
3.040000000001991, -1.2184180262913702 
3.050000000002012, -1.218423053003031 
3.060000000002033, -1.2187676217065915 
3.070000000002054, -1.2194096312376703 
3.0800000000020753, -1.2202438716881758 
3.0900000000020964, -1.2211478028629739 
3.1000000000021175, -1.2220126830601283 
3.1100000000021386, -1.2227555637556387 
3.1200000000021597, -1.223319637072062 
3.130000000002181, -1.2236695320046702 
3.140000000002202, -1.2237858551513134 
3.150000000002223, -1.223661316201387 
3.160000000002244, -1.2232990402521953 
3.1700000000022652, -1.2227126813496456 
3.1800000000022863, -1.2219278729728174 
3.1900000000023074, -1.2209848885452792 
3.2000000000023285, -1.2199418363215107 
3.2100000000023496, -1.2188757606246863 
3.2200000000023707, -1.217877879455362 
3.230000000002392, -1.217040699139028 
3.240000000002413, -1.2164364971108323 
3.250000000002434, -1.2160902819380857 
3.260000000002455, -1.2159622361914224 
3.2700000000024763, -1.2159588687273275 
3.2800000000024974, -1.2159674024158285 
3.2900000000025185, -1.2158840614725206 
3.3000000000025396, -1.2156188716117333 
3.3100000000025607, -1.2150844621570305 
3.3200000000025818, -1.2141845951819619 
3.330000000002603, -1.212813306519351 
3.340000000002624, -1.210868332331367 
3.350000000002645, -1.2082753762864853 
3.360000000002666, -1.2050154056018332 
3.3700000000026873, -1.2011504447722052 
3.3800000000027084, -1.196850630051116 
3.3900000000027295, -1.1924211223411534 
3.4000000000027506, -1.1882998043179165 
3.4100000000027717, -1.184965708389901 
3.420000000002793, -1.1827392678496926 
3.430000000002814, -1.1816047213066676 
3.440000000002835, -1.1812442404155927 
3.450000000002856, -1.1812558711027332 
3.460000000002877, -1.1813341676766345 
3.4700000000028983, -1.1813037557207362 
3.4800000000029194, -1.1810647681875628 
3.4900000000029405, -1.1805252471140744 
3.5000000000029616, -1.1795427075214397 
3.5100000000029827, -1.1778665885796928 
3.520000000003004, -1.1750742480147396 
3.530000000003025, -1.170520183301977 
3.540000000003046, -1.1633775596167895 
3.550000000003067, -1.1529216937867928 
3.5600000000030882, -1.1391573870922636 
3.5700000000031094, -1.1235191267004059 
3.5800000000031305, -1.108829441183802 
3.5900000000031516, -1.0979383866813621 
3.6000000000031727, -1.091982243663183 
3.6100000000031938, -1.090028020338777 
3.620000000003215, -1.090260279932735 
3.630000000003236, -1.09121023578851 
3.640000000003257, -1.092119233950201 
3.650000000003278, -1.0927307655621679 
3.6600000000032993, -1.0930114079449609 
3.6700000000033204, -1.0929829107263698 
3.6800000000033415, -1.092646687041456 
3.6900000000033626, -1.0919477547361371 
3.7000000000033837, -1.09074276767693 
3.710000000003405, -1.0887542896403888 
3.720000000003426, -1.085510530621661 
3.730000000003447, -1.0803083081097324 
3.740000000003468, -1.0723252342098692 
3.750000000003489, -1.0611072676696423 
3.7600000000035103, -1.047487434564836 
3.7700000000035314, -1.0341771697541802 
3.7800000000035525, -1.0246682610232987 
3.7900000000035736, -1.0207793956610032 
3.8000000000035947, -1.0215401277274117 
3.810000000003616, -1.0245515277261414 
3.820000000003637, -1.0278306932863286 
3.830000000003658, -1.0304479254324463 
3.840000000003679, -1.032224397545105 
3.8500000000037002, -1.033289153618056 
3.8600000000037213, -1.0338218776446104 
3.8700000000037424, -1.033957742713278 
3.8800000000037635, -1.0337662526676175 
3.8900000000037847, -1.0332492638999669 
3.9000000000038058, -1.0323346662430364 
3.910000000003827, -1.0308576570870045 
3.920000000003848, -1.0285315985154477 
3.930000000003869, -1.024930019791968 
3.94000000000389, -1.0195464417706486 
3.9500000000039113, -1.0120598434654524 
3.9600000000039324, -1.002889960520505 
3.9700000000039535, -0.9937339677220646 
3.9800000000039746, -0.9872122486325449 
3.9900000000039957, -0.985241857413906 
4.000000000004016, -0.987580098921895 
4.010000000003993, -0.9922425680061722 
4.02000000000397, -0.997141039954179 
4.030000000003946, -1.0011168809336675 
4.040000000003923, -1.0039003817203107 
4.0500000000039, -1.0056609229192293 
4.0600000000038765, -1.0066673818577236 
4.070000000003853, -1.0071426378951889 
4.08000000000383, -1.0072294251449352 
4.090000000003807, -1.006994090378055 
4.100000000003783, -1.0064329258273113 
4.11000000000376, -1.0054681610915794 
4.120000000003737, -1.0039301214426408 
4.130000000003713, -1.0015294721934431 
4.14000000000369, -0.997841307381697 
4.150000000003667, -0.9923637508764193 
4.1600000000036434, -0.9847657655959289 
4.17000000000362, -0.9753937062873256 
4.180000000003597, -0.9657628752220132 
4.1900000000035735, -0.958284545617705 
4.20000000000355, -0.9548767539124607 
4.210000000003527, -0.9556181937941293 
4.220000000003504, -0.9589330946130801 
4.23000000000348, -0.9629349030277256 
4.240000000003457, -0.9664249295912318 
4.250000000003434, -0.968993568925222 
4.26000000000341, -0.9706848415673635 
4.270000000003387, -0.9716898538639578 
4.280000000003364, -0.9721924453933107 
4.2900000000033405, -0.9723192623831931 
4.300000000003317, -0.9721325791713443 
4.310000000003294, -0.9716308648604667 
4.320000000003271, -0.9707415676053104 
4.330000000003247, -0.9692988669242067 
4.340000000003224, -0.967003192336327 
4.350000000003201, -0.9633689933611482 
4.360000000003177, -0.9576977573089372 
4.370000000003154, -0.9491784462420501 
4.380000000003131, -0.93727745531354 
4.390000000003107, -0.9224432587943078 
4.400000000003084, -0.9066204453408935 
4.410000000003061, -0.8926886253767691 
4.4200000000030375, -0.8828718225984484 
4.430000000003014, -0.877595431323568 
4.440000000002991, -0.8757852966068562 
4.450000000002968, -0.8759272945232445 
4.460000000002944, -0.8768327632583495 
4.470000000002921, -0.8778286728249183 
4.480000000002898, -0.8786298431502153 
4.490000000002874, -0.879158839032151 
4.500000000002851, -0.8794198207743008 
4.510000000002828, -0.8794312419445612 
4.520000000002804, -0.8791937019156787 
4.530000000002781, -0.8786720012943763 
4.540000000002758, -0.8777788026080943 
4.5500000000027345, -0.8763545774628702 
4.560000000002711, -0.8741471888115017 
4.570000000002688, -0.8708096399706875 
4.580000000002665, -0.8659549309275709 
4.590000000002641, -0.8593068479696784 
4.600000000002618, -0.8509170889935058 
4.610000000002595, -0.8413011118643168 
4.620000000002571, -0.8313392888510867 
4.630000000002548, -0.8219816914908457 
4.640000000002525, -0.8139602710615955 
4.6500000000025015, -0.8076538778738032 
4.660000000002478, -0.8031023281636746 
4.670000000002455, -0.8000999166238791 
4.6800000000024315, -0.7983105546740517 
4.690000000002408, -0.7973704137782792 
4.700000000002385, -0.7969587595336826 
4.710000000002362, -0.7968306700664831 
4.720000000002338, -0.79681822509575 
4.730000000002315, -0.7968138542562933 
4.740000000002292, -0.796748690817533 
4.750000000002268, -0.7965738028282259 
4.760000000002245, -0.7962477358775909 
4.770000000002222, -0.795731711078896 
4.7800000000021985, -0.7949930031555748 
4.790000000002175, -0.7940150573127477 
4.800000000002152, -0.7928086659001582 
4.810000000002129, -0.7914153757852614 
4.820000000002105, -0.7898981628179872 
4.830000000002082, -0.7883243269810253 
4.840000000002059, -0.7867513572033992 
4.850000000002035, -0.7852223645638574 
4.860000000002012, -0.7837697014426838 
4.870000000001989, -0.7824214016443449 
4.880000000001965, -0.7812059811415735 
4.890000000001942, -0.7801537151727971 
4.900000000001919, -0.7792944679556891 
4.9100000000018955, -0.7786532131024887 
4.920000000001872, -0.7782449644647104 
4.930000000001849, -0.7780710269717921 
4.940000000001826, -0.7781180594435598 
