t, s[1].omega / s[0].omega 
0, -0.5801424447711447 
0.009999999999999995, -0.5934826106057061 
0.019999999999999934, -0.6039816142320605 
0.029999999999999874, -0.6113010498959205 
0.04000000000000012, -0.6161312281336324 
0.050000000000000405, -0.619304681426121 
0.06000000000000069, -0.6214167476124179 
0.07000000000000098, -0.6228295689012489 
0.08000000000000126, -0.6237601783678401 
0.09000000000000155, -0.6243430249443014 
0.10000000000000184, -0.6246623127684104 
0.11000000000000212, -0.6247675672398665 
0.12000000000000241, -0.6246810668605283 
0.130000000000002, -0.6244011732387729 
0.1400000000000009, -0.6239039687041837 
0.1499999999999998, -0.6231461101061586 
0.1599999999999987, -0.6220733693108871 
0.1699999999999976, -0.6206396523825377 
0.1799999999999965, -0.6188359985182077 
0.1899999999999954, -0.6167164963196552 
0.1999999999999943, -0.6143993388136042 
0.2099999999999932, -0.6120343995907528 
0.2199999999999921, -0.6097569924491822 
0.229999999999991, -0.6076574071196639 
0.2399999999999899, -0.6057774730871142 
0.2499999999999888, -0.6041247592119887 
0.2599999999999877, -0.6026904070930906 
0.2699999999999866, -0.6014625734089086 
0.2799999999999855, -0.6004338089458405 
0.2899999999999844, -0.5996037871738367 
0.2999999999999833, -0.5989793577606406 
0.3099999999999822, -0.5985734333835259 
0.3199999999999811, -0.5984036507226335 
0.32999999999998, -0.5984913801217239 
0.3399999999999789, -0.5988614387565757 
0.3499999999999778, -0.5995426320073614 
0.35999999999997667, -0.6005688653243823 
0.36999999999997557, -0.6019799122412375 
0.37999999999997447, -0.6038198804533609 
0.38999999999997337, -0.6061300187595531 
0.39999999999997227, -0.6089314367312352 
0.40999999999997117, -0.6121948928558842 
0.41999999999997006, -0.6158034197007566 
0.42999999999996896, -0.6195309764545813 
0.43999999999996786, -0.6230723147452136 
0.44999999999996676, -0.626134103066416 
0.45999999999996566, -0.6285363409020853 
0.46999999999996456, -0.6302503178342275 
0.47999999999996346, -0.6313584527736841 
0.48999999999996235, -0.6319849975714281 
0.49999999999996125, -0.6322444476860454 
0.5099999999999602, -0.6322184228524741 
0.519999999999959, -0.6319502780158213 
0.529999999999958, -0.631444918380449 
0.5399999999999568, -0.6306658063400122 
0.5499999999999557, -0.6295241304424475 
0.5599999999999546, -0.6278554088172579 
0.5699999999999535, -0.6253783447903233 
0.5799999999999524, -0.6216357335312412 
0.5899999999999513, -0.6159449503568206 
0.5999999999999502, -0.6074628936553441 
0.6099999999999491, -0.5955590865721831 
0.619999999999948, -0.5805212801665198 
0.6299999999999469, -0.5639792853964114 
0.6399999999999458, -0.5482577287203063 
0.6499999999999447, -0.535121751046892 
0.6599999999999436, -0.5251746623299491 
0.6699999999999425, -0.5181409123019282 
0.6799999999999414, -0.5133929798882515 
0.6899999999999403, -0.5102944840073099 
0.6999999999999392, -0.50833128574255 
0.7099999999999381, -0.5071282039246942 
0.719999999999937, -0.5064253015248366 
0.7299999999999359, -0.5060476511770339 
0.7399999999999348, -0.5058797809979713 
0.7499999999999337, -0.5058468283238551 
0.7599999999999326, -0.5059016149727458 
0.7699999999999315, -0.5060163831282694 
0.7799999999999304, -0.5061780628402803 
0.7899999999999293, -0.5063859724432628 
0.7999999999999282, -0.5066505228939086 
0.8099999999999271, -0.5069909538279708 
0.819999999999926, -0.5074299963301463 
0.8299999999999249, -0.5079843908073991 
0.8399999999999238, -0.508652608188952 
0.8499999999999227, -0.5094043625079785 
0.8599999999999216, -0.5101789409721003 
0.8699999999999205, -0.5108975400541801 
0.8799999999999194, -0.5114861813340194 
0.8899999999999183, -0.5118962903186866 
0.8999999999999172, -0.5121110755298953 
0.9099999999999161, -0.5121373961932691 
0.919999999999915, -0.5119917143620302 
0.9299999999999139, -0.5116878956841133 
0.9399999999999128, -0.5112291536737421 
0.9499999999999117, -0.5106024712986972 
0.9599999999999106, -0.5097723175936237 
0.9699999999999095, -0.508669496118348 
0.9799999999999084, -0.5071684988708317 
0.9899999999999073, -0.5050416833703502 
0.9999999999999062, -0.5018744343938419 
1.0099999999999052, -0.4969456931250088 
1.019999999999904, -0.48918973361473483 
1.029999999999903, -0.47757985574369605 
1.039999999999902, -0.4621693202499788 
1.0499999999999008, -0.44489331467381 
1.0599999999998997, -0.42865557337334026 
1.0699999999998986, -0.4154756284854071 
1.0799999999998975, -0.4058105936761782 
1.0899999999998964, -0.39913958412377654 
1.0999999999998953, -0.3946810263168157 
1.1099999999998942, -0.3917501348736234 
1.119999999999893, -0.38984522136191313 
1.129999999999892, -0.388626280929678 
1.1399999999998909, -0.3878712273063035 
1.1499999999998898, -0.3874381615012329 
1.1599999999998887, -0.3872387595342804 
1.1699999999998876, -0.3872211369138402 
1.1799999999998865, -0.38735959729708125 
1.1899999999998854, -0.3876491843387882 
1.1999999999998843, -0.38810350834680574 
1.2099999999998832, -0.3887544756476331 
1.219999999999882, -0.38965215544588705 
1.229999999999881, -0.3908620216125712 
1.2399999999998799, -0.39245529298543647 
1.2499999999998788, -0.3944868595680521 
1.2599999999998777, -0.39695754055006416 
1.2699999999998766, -0.3997696898852631 
1.2799999999998755, -0.4027081491566228 
1.2899999999998744, -0.40548612695613 
1.2999999999998733, -0.40784938318666175 
1.3099999999998722, -0.4096651974301163 
1.319999999999871, -0.4109325931814025 
1.32999999999987, -0.41172968493285855 
1.3399999999998689, -0.4121538021492494 
1.3499999999998678, -0.4122853412017265 
1.3599999999998666, -0.412174102611864 
1.3699999999998655, -0.41183642217775607 
1.3799999999998644, -0.4112543727836783 
1.3899999999998633, -0.4103737123454036 
1.3999999999998622, -0.40910245585052624 
1.4099999999998611, -0.4073184415792944 
1.41999999999986, -0.4049012059736482 
1.429999999999859, -0.40179976025548436 
1.4399999999998578, -0.39811428820531714 
1.4499999999998567, -0.3941206301990375 
1.4599999999998556, -0.39018297871008817 
1.4699999999998545, -0.3866090685066391 
1.4799999999998534, -0.38356145322688573 
1.4899999999998523, -0.38106418564107947 
1.4999999999998512, -0.37905864663415756 
1.5099999999998501, -0.37745689028829327 
1.519999999999849, -0.3761739115233913 
1.529999999999848, -0.37514183381420085 
1.5399999999998468, -0.3743138662801914 
1.5499999999998457, -0.37366409183301535 
1.5599999999998446, -0.3731867221043765 
1.5699999999998435, -0.3728968921719802 
1.5799999999998424, -0.37283437491526794 
1.5899999999998413, -0.37307157568472626 
1.5999999999998402, -0.37372763599088016 
1.6099999999998391, -0.3749911203955528 
1.619999999999838, -0.37715365158493963 
1.629999999999837, -0.38065300593218376 
1.6399999999998358, -0.3861083380168979 
1.6499999999998347, -0.39428581684386127 
1.6599999999998336, -0.40585234136048653 
1.6699999999998325, -0.42075899954476875 
1.6799999999998314, -0.4374896041491777 
1.6899999999998303, -0.4532248766592873 
1.6999999999998292, -0.4655214895985037 
1.709999999999828, -0.47377767627916345 
1.719999999999827, -0.47884943533716096 
1.729999999999826, -0.4818864391748603 
1.7399999999998248, -0.48373040254738014 
1.7499999999998237, -0.48487514870645987 
1.7599999999998226, -0.48558915304677164 
1.7699999999998215, -0.4860175046202608 
1.7799999999998204, -0.486239397637333 
1.7899999999998193, -0.48629673744639845 
1.7999999999998182, -0.48620808075229893 
1.809999999999817, -0.4859761186116671 
1.819999999999816, -0.4855934120177956 
1.8299999999998149, -0.48504952175718935 
1.8399999999998138, -0.4843411720943389 
1.8499999999998127, -0.4834839272395537 
1.8599999999998116, -0.4825194384303324 
1.8699999999998105, -0.48151110294952126 
1.8799999999998094, -0.48052740762334223 
1.8899999999998083, -0.4796218666632101 
1.8999999999998072, -0.47882074039283307 
1.909999999999806, -0.4781228618723018 
1.919999999999805, -0.4775083314280987 
1.9299999999998039, -0.4769501755541027 
1.9399999999998028, -0.4764241754088734 
1.9499999999998017, -0.4759145997638344 
1.9599999999998006, -0.4754162129433036 
1.9699999999997995, -0.47493460574645585 
1.9799999999997984, -0.4744871931168239 
1.9899999999997973, -0.47410676560842446 
1.9999999999997962, -0.4738491764018641 
2.0099999999998173, -0.47380701118068824 
2.0199999999998384, -0.4741317745045276 
2.0299999999998595, -0.47506743961165787 
2.0399999999998806, -0.47699575569560926 
2.0499999999999017, -0.48048190002419233 
2.059999999999923, -0.4862738364534097 
2.069999999999944, -0.4951375241075476 
2.079999999999965, -0.5073604619414375 
2.089999999999986, -0.521995577054698 
2.100000000000007, -0.5366536762524874 
2.1100000000000283, -0.5487590603247712 
2.1200000000000494, -0.5572368888268454 
2.1300000000000705, -0.5626274539477409 
2.1400000000000916, -0.5659914232779115 
2.1500000000001127, -0.5681534280887538 
2.160000000000134, -0.5695918408126445 
2.170000000000155, -0.5705616425486315 
2.180000000000176, -0.5712032236999371 
2.190000000000197, -0.5715991735119816 
2.2000000000002182, -0.5717990811115771 
2.2100000000002393, -0.5718298725399047 
2.2200000000002604, -0.5717002425893576 
2.2300000000002815, -0.5714030375453203 
2.2400000000003026, -0.5709181158591189 
2.2500000000003237, -0.5702184061488329 
2.260000000000345, -0.5692816904937013 
2.270000000000366, -0.5681076333571086 
2.280000000000387, -0.566732908565042 
2.290000000000408, -0.5652323815805803 
2.3000000000004293, -0.5637005768871973 
2.3100000000004504, -0.5622232201592056 
2.3200000000004715, -0.5608564238458597 
2.3300000000004926, -0.5596226224138547 
2.3400000000005137, -0.558519536873799 
2.3500000000005348, -0.5575334497799087 
2.360000000000556, -0.556650417985326 
2.370000000000577, -0.555863234036187 
2.380000000000598, -0.5551748389259673 
2.390000000000619, -0.5545999384803252 
2.4000000000006403, -0.5541663568144382 
2.4100000000006614, -0.5539170057189458 
2.4200000000006825, -0.5539128242909267 
2.4300000000007036, -0.5542367955917863 
2.4400000000007247, -0.5549990339391054 
2.450000000000746, -0.5563426351800043 
2.460000000000767, -0.5584489379301243 
2.470000000000788, -0.56153811543638 
2.480000000000809, -0.5658553476186214 
2.49000000000083, -0.5716240749519541 
2.5000000000008513, -0.5789425447149805 
2.5100000000008724, -0.5876214993094766 
2.5200000000008935, -0.5970424616654554 
2.5300000000009146, -0.6062175050416444 
2.5400000000009357, -0.61415220955726 
2.550000000000957, -0.6202783101479209 
2.560000000000978, -0.6245816089422944 
2.570000000000999, -0.6273956885061666 
2.58000000000102, -0.6291335601372423 
2.5900000000010412, -0.6301380919424975 
2.6000000000010624, -0.6306458016620395 
2.6100000000010835, -0.6308007602946104 
2.6200000000011046, -0.6306769285015715 
2.6300000000011257, -0.6302933511196516 
2.6400000000011468, -0.6296188327475848 
2.650000000001168, -0.6285663624691286 
2.660000000001189, -0.6269795535944478 
2.67000000000121, -0.6246194115118189 
2.680000000001231, -0.6211748188237197 
2.6900000000012523, -0.6163396047092286 
2.7000000000012734, -0.6099858586718546 
2.7100000000012945, -0.6023617194094687 
2.7200000000013156, -0.5941193060310241 
2.7300000000013367, -0.5860718785617485 
2.740000000001358, -0.5788667755614789 
2.750000000001379, -0.57282778422693 
2.7600000000014, -0.5679989199958044 
2.770000000001421, -0.564265448823004 
2.780000000001442, -0.5614546862026626 
2.7900000000014633, -0.5593921710051124 
2.8000000000014844, -0.5579246164342163 
2.8100000000015055, -0.5569254581604166 
2.8200000000015266, -0.5562933744989484 
2.8300000000015477, -0.5559488855005116 
2.840000000001569, -0.5558310388956403 
2.85000000000159, -0.5558947623161853 
2.860000000001611, -0.5561089471603418 
2.870000000001632, -0.5564551853781301 
2.8800000000016532, -0.5569269481404444 
2.8900000000016743, -0.5575286454746476 
2.9000000000016954, -0.5582733880545538 
2.9100000000017165, -0.5591776716585825 
2.9200000000017377, -0.5602513427994584 
2.9300000000017588, -0.5614830719260506 
2.94000000000178, -0.5628257993060201 
2.950000000001801, -0.5641917974588644 
2.960000000001822, -0.5654672333864973 
2.970000000001843, -0.5665447073382208 
2.9800000000018643, -0.5673554194829415 
2.9900000000018854, -0.56788052260857 
3.0000000000019065, -0.568138975845668 
3.0100000000019276, -0.5681655460886328 
3.0200000000019487, -0.5679923117136727 
3.03000000000197, -0.5676378307504842 
3.040000000001991, -0.5671015922441055 
3.050000000002012, -0.5663596722014388 
3.060000000002033, -0.5653577046344713 
3.070000000002054, -0.563996693895825 
3.0800000000020753, -0.5621044324447482 
3.0900000000020964, -0.5593806414113247 
3.1000000000021175, -0.5553057486947016 
3.1100000000021386, -0.5490472073776693 
3.1200000000021597, -0.539548829214368 
3.130000000002181, -0.5261506954170906 
3.140000000002202, -0.5096397298842965 
3.150000000002223, -0.49246739692034724 
3.160000000002244, -0.4773222398453278 
3.1700000000022652, -0.4656125173023159 
3.1800000000022863, -0.457342756464567 
3.1900000000023074, -0.451823603690977 
3.2000000000023285, -0.4482655051016059 
3.2100000000023496, -0.4460257890581391 
3.2200000000023707, -0.4446475548045363 
3.230000000002392, -0.443825804919749 
3.240000000002413, -0.4433632133582773 
3.250000000002434, -0.4431344463772794 
3.260000000002455, -0.44306137437380383 
3.2700000000024763, -0.44309707484166483 
3.2800000000024974, -0.44321615038708534 
3.2900000000025185, -0.4434094287413199 
3.3000000000025396, -0.4436815204887027 
3.3100000000025607, -0.4440496771555199 
3.3200000000025818, -0.4445419849364529 
3.330000000002603, -0.4451925605410668 
3.340000000002624, -0.44603170061985253 
3.350000000002645, -0.4470705003287308 
3.360000000002666, -0.4482830712960397 
3.3700000000026873, -0.44959526851376524 
3.3800000000027084, -0.45089242393832896 
3.3900000000027295, -0.45205051699538307 
3.4000000000027506, -0.45297544626114067 
3.4100000000027717, -0.45362494346739196 
3.420000000002793, -0.45400277460034566 
3.430000000002814, -0.4541366867065886 
3.440000000002835, -0.45405636010934225 
3.450000000002856, -0.45377847914572855 
3.460000000002877, -0.4532972732116116 
3.4700000000028983, -0.4525755941241851 
3.4800000000029194, -0.4515313720457697 
3.4900000000029405, -0.4500149275669697 
3.5000000000029616, -0.44777578320090505 
3.5100000000029827, -0.4444314213124742 
3.520000000003004, -0.4394885673265893 
3.530000000003025, -0.43251835177433523 
3.540000000003046, -0.4235311559254044 
3.550000000003067, -0.4132882471007129 
3.5600000000030882, -0.4030818583972501 
3.5700000000031094, -0.39405817415498273 
3.5800000000031305, -0.3867589060282769 
3.5900000000031516, -0.3811763160372902 
3.6000000000031727, -0.3770322640596905 
3.6100000000031938, -0.373995901541452 
3.620000000003215, -0.37178228216259984 
3.630000000003236, -0.3701765073286331 
3.640000000003257, -0.36902770062598067 
3.650000000003278, -0.3682356837464926 
3.6600000000032993, -0.3677389953979171 
3.6700000000033204, -0.36750659558748283 
3.6800000000033415, -0.36753345775990565 
3.6900000000033626, -0.3678398109064499 
3.7000000000033837, -0.36847391388289097 
3.710000000003405, -0.36951838464786124 
3.720000000003426, -0.3710997908774685 
3.730000000003447, -0.37339954405303477 
3.740000000003468, -0.37665924679747664 
3.750000000003489, -0.38116258406085635 
3.7600000000035103, -0.38715867076644794 
3.7700000000035314, -0.3946882717131752 
3.7800000000035525, -0.4033462972046526 
3.7900000000035736, -0.41219494866141854 
3.8000000000035947, -0.420092065583719 
3.810000000003616, -0.42627306865529146 
3.820000000003637, -0.4306231200297711 
3.830000000003658, -0.4334684106947638 
3.840000000003679, -0.4352430097634179 
3.8500000000037002, -0.4363045027551422 
3.8600000000037213, -0.4368950881020911 
3.8700000000037424, -0.43716230613226276 
3.8800000000037635, -0.4371878632166575 
3.8900000000037847, -0.4370088905395158 
3.9000000000038058, -0.43663118269626117 
3.910000000003827, -0.4360382505452455 
3.920000000003848, -0.4352011548563667 
3.930000000003869, -0.43409394973596027 
3.94000000000389, -0.4327160680000858 
3.9500000000039113, -0.4311139490704618 
3.9600000000039324, -0.4293853480744372 
3.9700000000039535, -0.4276556545497612 
3.9800000000039746, -0.42603800181934937 
3.9900000000039957, -0.4246030173121314 
4.000000000004016, -0.4233725217686187 
4.010000000003993, -0.4223317021107733 
4.02000000000397, -0.42144710809577146 
4.030000000003946, -0.4206819211611714 
4.040000000003923, -0.42000562995598145 
4.0500000000039, -0.41939862711754605 
4.0600000000038765, -0.418853728127669 
4.070000000003853, -0.41837695079655723 
4.08000000000383, -0.4179895924014197 
4.090000000003807, -0.4177332845210356 
4.100000000003783, -0.4176797498789367 
4.11000000000376, -0.4179475448595754 
4.120000000003737, -0.4187288151028567 
4.130000000003713, -0.42032868548224006 
4.14000000000369, -0.42321405290343544 
4.150000000003667, -0.42804576933953964 
4.1600000000036434, -0.4356079550276645 
4.17000000000362, -0.4464552600744919 
4.180000000003597, -0.4601532191460418 
4.1900000000035735, -0.47462115959325113 
4.20000000000355, -0.48689049587543504 
4.210000000003527, -0.49522218550176006 
4.220000000003504, -0.5000062551414451 
4.23000000000348, -0.5025958640675469 
4.240000000003457, -0.5040886612161524 
4.250000000003434, -0.5050591327659684 
4.26000000000341, -0.5057475601171443 
4.270000000003387, -0.5062471496395361 
4.280000000003364, -0.5065975170450494 
4.2900000000033405, -0.5068193039262457 
4.300000000003317, -0.5069243046621338 
4.310000000003294, -0.5069175869697256 
4.320000000003271, -0.5067978750321903 
4.330000000003247, -0.5065586333759142 
4.340000000003224, -0.5061912565439355 
4.350000000003201, -0.5056912176656978 
4.360000000003177, -0.5050664253550399 
4.370000000003154, -0.5043440696559895 
4.380000000003131, -0.5035702657647714 
4.390000000003107, -0.502799672418421 
4.400000000003084, -0.5020794088238715 
4.410000000003061, -0.5014360805956384 
4.4200000000030375, -0.5008719958229062 
4.430000000003014, -0.5003704824115311 
4.440000000002991, -0.49990609426286303 
4.450000000002968, -0.49945469943574194 
4.460000000002944, -0.4990000388877906 
4.470000000002921, -0.4985361500460366 
4.480000000002898, -0.49806741877855626 
4.490000000002874, -0.4976088042033299 
4.500000000002851, -0.4971883527013353 
4.510000000002828, -0.4968535994267687 
4.520000000002804, -0.4966835165934532 
4.530000000002781, -0.4968082772605366 
4.540000000002758, -0.4974396454777422 
4.5500000000027345, -0.4989135352715001 
4.560000000002711, -0.5017383988939955 
4.570000000002688, -0.5066175694661628 
4.580000000002665, -0.5143558617630661 
4.590000000002641, -0.5254932617319268 
4.600000000002618, -0.539611432785162 
4.610000000002595, -0.554825298483055 
4.620000000002571, -0.5684735545049837 
4.630000000002548, -0.5788087861062174 
4.640000000002525, -0.5857704107285185 
4.6500000000025015, -0.5902379303720895 
4.660000000002478, -0.5931126329573604 
4.670000000002455, -0.5949987151479084 
4.6800000000024315, -0.5962483280676334 
4.690000000002408, -0.5970647044190689 
4.700000000002385, -0.5975693604088721 
4.710000000002362, -0.5978358996773504 
4.720000000002338, -0.5979059013732522 
4.730000000002315, -0.5977963278725775 
4.740000000002292, -0.5975030287634103 
4.750000000002268, -0.5970032086098003 
4.760000000002245, -0.5962600251959863 
4.770000000002222, -0.5952332890484622 
4.7800000000021985, -0.5938988510492523 
4.790000000002175, -0.5922724666608238 
4.800000000002152, -0.5904238458073309 
4.810000000002129, -0.5884657326137889 
4.820000000002105, -0.5865201607695518 
4.830000000002082, -0.5846835241932467 
4.840000000002059, -0.5830103853473851 
4.850000000002035, -0.5815179873010153 
4.860000000002012, -0.5802010471141238 
4.870000000001989, -0.57904658849002 
4.880000000001965, -0.5780441145323597 
4.890000000001942, -0.5771908761721545 
