t, s[1].omega / s[0].omega 
0, -0.569997739291802 
0.009999999999999995, -0.569805226377437 
0.019999999999999934, -0.569665794801923 
0.029999999999999874, -0.5695449447723151 
0.04000000000000012, -0.5694004891893267 
0.050000000000000405, -0.5691971985312583 
0.06000000000000069, -0.5689158497069897 
0.07000000000000098, -0.5685546817617092 
0.08000000000000126, -0.5681267348439075 
0.09000000000000155, -0.5676583381699086 
0.10000000000000184, -0.5671927420945952 
0.11000000000000212, -0.5668016291371765 
0.12000000000000241, -0.5666076321650961 
0.130000000000002, -0.5668229309657489 
0.1400000000000009, -0.5678116638363513 
0.1499999999999998, -0.5701853360116491 
0.1599999999999987, -0.5749342454596466 
0.1699999999999976, -0.5835647861725533 
0.1799999999999965, -0.5981081269962112 
0.1899999999999954, -0.6206504059689117 
0.1999999999999943, -0.6519099428560347 
0.2099999999999932, -0.68921536400193 
0.2199999999999921, -0.7263220244979575 
0.229999999999991, -0.7569567743448438 
0.2399999999999899, -0.7785980070772303 
0.2499999999999888, -0.7923497467686077 
0.2599999999999877, -0.800587625122667 
0.2699999999999866, -0.8053824744975528 
0.2799999999999855, -0.8081204398808042 
0.2899999999999844, -0.8096304340876033 
0.2999999999999833, -0.8103807171768244 
0.3099999999999822, -0.8106204962825553 
0.3199999999999811, -0.8104608755874407 
0.32999999999998, -0.8099110061721628 
0.3399999999999789, -0.8088800463292571 
0.3499999999999778, -0.8071463121204132 
0.35999999999997667, -0.8042883338135576 
0.36999999999997557, -0.7995781298845056 
0.37999999999997447, -0.791883135505092 
0.38999999999997337, -0.7797526229901177 
0.39999999999997227, -0.7620114251500409 
0.40999999999997117, -0.7389149123153522 
0.41999999999997006, -0.7129023061624036 
0.42999999999996896, -0.6876718365180599 
0.43999999999996786, -0.6662158273008292 
0.44999999999996676, -0.6497603291530687 
0.45999999999996566, -0.6380784115291119 
0.46999999999996456, -0.6302662680031308 
0.47999999999996346, -0.6253046679423854 
0.48999999999996235, -0.622312749029068 
0.49999999999996125, -0.62061509119482 
0.5099999999999602, -0.6197285414560347 
0.519999999999959, -0.6193238446681323 
0.529999999999958, -0.6191848434068336 
0.5399999999999568, -0.6191733987686784 
0.5499999999999557, -0.6192023504519496 
0.5599999999999546, -0.619216628476633 
0.5699999999999535, -0.6191818960885019 
0.5799999999999524, -0.6190797606815684 
0.5899999999999513, -0.6189077325098657 
0.5999999999999502, -0.6186803831524754 
0.6099999999999491, -0.6184268765816171 
0.619999999999948, -0.6181818250137832 
0.6299999999999469, -0.6179715816935609 
0.6399999999999458, -0.6178025496343925 
0.6499999999999447, -0.6176578621038484 
0.6599999999999436, -0.6175043610219071 
0.6699999999999425, -0.6173061507269424 
0.6799999999999414, -0.6170374987948599 
0.6899999999999403, -0.6166894286448114 
0.6999999999999392, -0.6162699197554218 
0.7099999999999381, -0.6158020855057009 
0.719999999999937, -0.6153251546165582 
0.7299999999999359, -0.6149013195331714 
0.7399999999999348, -0.6146301430662522 
0.7499999999999337, -0.6146719060953016 
0.7599999999999326, -0.6152813082254205 
0.7699999999999315, -0.6168522045757492 
0.7799999999999304, -0.6199709247367888 
0.7899999999999293, -0.6254663225664723 
0.7999999999999282, -0.6344202366928099 
0.8099999999999271, -0.6480496108306367 
0.819999999999926, -0.6673005649194726 
0.8299999999999249, -0.6920303916516952 
0.8399999999999238, -0.7201030737820079 
0.8499999999999227, -0.747518843829833 
0.8599999999999216, -0.7703244087247476 
0.8699999999999205, -0.7867379608981192 
0.8799999999999194, -0.7973277761213293 
0.8899999999999183, -0.8036970717835462 
0.8999999999999172, -0.8073674921905616 
0.9099999999999161, -0.8094035756055383 
0.919999999999915, -0.8104516908070849 
0.9299999999999139, -0.8108727542538521 
0.9399999999999128, -0.8108476994449605 
0.9499999999999117, -0.8104373059301224 
0.9599999999999106, -0.8096035385677037 
0.9699999999999095, -0.8081972860345694 
0.9799999999999084, -0.8059082995753821 
0.9899999999999073, -0.8021639658895706 
0.9999999999999062, -0.7959648419180446 
1.0099999999999052, -0.7856953963891058 
1.019999999999904, -0.7691394165636577 
1.029999999999903, -0.7442764717002167 
1.039999999999902, -0.7112788713647908 
1.0499999999999008, -0.6742229958584034 
1.0599999999998997, -0.6395144643793562 
1.0699999999998986, -0.6118690773204902 
1.0799999999998975, -0.5924151406575305 
1.0899999999998964, -0.5798594915751173 
1.0999999999998953, -0.5722335518852224 
1.1099999999998942, -0.5678209863169362 
1.119999999999893, -0.5653883865320994 
1.129999999999892, -0.5641268010762366 
1.1399999999998909, -0.5635312697925847 
1.1499999999998898, -0.5632958422867574 
1.1599999999998887, -0.5632384581054157 
1.1699999999998876, -0.5632514631368191 
1.1799999999998865, -0.563270696760495 
1.1899999999998854, -0.5632575035992813 
1.1999999999998843, -0.5631899378294483 
1.2099999999998832, -0.5630605273141656 
1.219999999999882, -0.5628776497922655 
1.229999999999881, -0.5626662252420217 
1.2399999999998799, -0.5624631305834598 
1.2499999999998788, -0.5623057823028254 
1.2599999999998777, -0.5622175722456975 
1.2699999999998766, -0.5621969617770747 
1.2799999999998755, -0.56221585864139 
1.2899999999998744, -0.5622287435650787 
1.2999999999998733, -0.5621885162282885 
1.3099999999998722, -0.5620609402266197 
1.319999999999871, -0.5618310662003354 
1.32999999999987, -0.5615015354973569 
1.3399999999998689, -0.5610879367622442 
1.3499999999998678, -0.560616818160341 
1.3599999999998666, -0.560129968869268 
1.3699999999998655, -0.5596976639329698 
1.3799999999998644, -0.559444897848095 
1.3899999999998633, -0.559597855584663 
1.3999999999998622, -0.5605620512424225 
1.4099999999998611, -0.5630456323550386 
1.41999999999986, -0.5682296453583094 
1.429999999999859, -0.5779261493330926 
1.4399999999998578, -0.5944837037731674 
1.4499999999998567, -0.619897639174227 
1.4599999999998556, -0.6537284534503688 
1.4699999999998545, -0.6912938974847325 
1.4799999999998534, -0.7255016895670264 
1.4899999999998523, -0.7516150514287804 
1.4999999999998512, -0.7692089218748683 
1.5099999999998501, -0.7802504941062871 
1.519999999999849, -0.7869483875436388 
1.529999999999848, -0.7909434123475034 
1.5399999999998468, -0.7932861793094345 
1.5499999999998457, -0.7946077701223977 
1.5599999999998446, -0.7952722251373887 
1.5699999999998435, -0.7954761299043968 
1.5799999999998424, -0.7953041137907864 
1.5899999999998413, -0.7947519063643107 
1.5999999999998402, -0.7937230855923081 
1.6099999999998391, -0.7920004271436918 
1.619999999999838, -0.7891929807594111 
1.629999999999837, -0.7846771816916195 
1.6399999999998358, -0.7776038819146631 
1.6499999999998347, -0.7671219942851378 
1.6599999999998336, -0.7529241284658965 
1.6699999999998325, -0.7358282391466914 
1.6799999999998314, -0.7177201861721818 
1.6899999999998303, -0.7006985174737421 
1.6999999999998292, -0.6862014300857995 
1.709999999999828, -0.6747646509719594 
1.719999999999827, -0.6662680657034895 
1.729999999999826, -0.6602709239856275 
1.7399999999998248, -0.6562421740628065 
1.7499999999998237, -0.6536779563697666 
1.7599999999998226, -0.6521498033369283 
1.7699999999998215, -0.651317847877366 
1.7799999999998204, -0.6509269970962716 
1.7899999999998193, -0.6507947167034013 
1.7999999999998182, -0.6507954130555558 
1.809999999999817, -0.6508449771352564 
1.819999999999816, -0.6508880661204098 
1.8299999999998149, -0.6508897011861347 
1.8399999999998138, -0.6508315949576418 
1.8499999999998127, -0.6507119322468553 
1.8599999999998116, -0.6505452211460542 
1.8699999999998105, -0.65035793989208 
1.8799999999998094, -0.6501782046628345 
1.8899999999998083, -0.6500227978438055 
1.8999999999998072, -0.6498882676493797 
1.909999999999806, -0.6497513390706058 
1.919999999999805, -0.6495786733789286 
1.9299999999998039, -0.6493405249509123 
1.9399999999998028, -0.649021077529475 
1.9499999999998017, -0.6486219700519136 
1.9599999999998006, -0.6481612531836952 
1.9699999999997995, -0.6476727107750233 
1.9799999999997984, -0.6472094322979014 
1.9899999999997973, -0.6468533683586752 
1.9999999999997962, -0.6467311140407698 
2.0099999999998173, -0.6470352194646798 
2.0199999999998384, -0.6480491900600986 
2.0299999999998595, -0.6501724897352138 
2.0399999999998806, -0.6539385538516977 
2.0499999999999017, -0.6600117399634108 
2.059999999999923, -0.6691336131458873 
2.069999999999944, -0.6819627539689225 
2.079999999999965, -0.6987377298301738 
2.089999999999986, -0.7187786168331634 
2.100000000000007, -0.740143080074932 
2.1100000000000283, -0.7600450445620343 
2.1200000000000494, -0.7761389557225472 
2.1300000000000705, -0.7875953639483823 
2.1400000000000916, -0.794986555571551 
2.1500000000001127, -0.7994422937980217 
2.160000000000134, -0.8019956076294591 
2.170000000000155, -0.8033686776464914 
2.180000000000176, -0.8040010693300301 
2.190000000000197, -0.8041336409185839 
2.2000000000002182, -0.8038744140464097 
2.2100000000002393, -0.8032328801516293 
2.2200000000002604, -0.8021247312214257 
2.2300000000002815, -0.8003468663822236 
2.2400000000003026, -0.797515308202586 
2.2500000000003237, -0.7929517637379516 
2.260000000000345, -0.7855098381172075 
2.270000000000366, -0.7733930198210917 
2.280000000000387, -0.7542387833167544 
2.290000000000408, -0.7261375013645438 
2.3000000000004293, -0.6899698093020386 
2.3100000000004504, -0.6510056755088319 
2.3200000000004715, -0.6163571640619393 
2.3300000000004926, -0.590324486203801 
2.3400000000005137, -0.5730843090677094 
2.3500000000005348, -0.5626192783846068 
2.360000000000556, -0.5566505436992962 
2.370000000000577, -0.5534233219862853 
2.380000000000598, -0.5517803353010662 
2.390000000000619, -0.5510141874903146 
2.4000000000006403, -0.550709918832945 
2.4100000000006614, -0.5506297301143737 
2.4200000000006825, -0.5506386524151348 
2.4300000000007036, -0.5506594392219798 
2.4400000000007247, -0.5506465383648178 
2.450000000000746, -0.5505725304384619 
2.460000000000767, -0.5504231447219723 
2.470000000000788, -0.5501980354477172 
2.480000000000809, -0.5499137109463766 
2.49000000000083, -0.5496035553487546 
2.5000000000008513, -0.5493106940354473 
2.5100000000008724, -0.5490741528412093 
2.5200000000008935, -0.5489141465028292 
2.5300000000009146, -0.5488236480417106 
2.5400000000009357, -0.5487703622121145 
2.550000000000957, -0.5487084347303959 
2.560000000000978, -0.5485943420948735 
2.570000000000999, -0.5483991190460809 
2.58000000000102, -0.548112312130802 
2.5900000000010412, -0.5477393753178732 
2.6000000000010624, -0.5472978897435934 
2.6100000000010835, -0.5468174531815 
2.6200000000011046, -0.5463463615128659 
2.6300000000011257, -0.5459680215600902 
2.6400000000011468, -0.5458320107107018 
2.650000000001168, -0.5462084174405437 
2.660000000001189, -0.5475783908681596 
2.67000000000121, -0.5507739025961622 
2.680000000001231, -0.5571577270552452 
2.6900000000012523, -0.5687404303178459 
2.7000000000012734, -0.5878862316399189 
2.7100000000012945, -0.615981926412452 
2.7200000000013156, -0.6510938896563424 
2.7300000000013367, -0.6871674976398103 
2.740000000001358, -0.7175728147695729 
2.750000000001379, -0.7394564737528989 
2.7600000000014, -0.7537457063445907 
2.770000000001421, -0.762648228782037 
2.780000000001442, -0.7680870120324126 
2.7900000000014633, -0.771371439789051 
2.8000000000014844, -0.7733180351121252 
2.8100000000015055, -0.7744168153277847 
2.8200000000015266, -0.7749514900664621 
2.8300000000015477, -0.7750729859360435 
2.840000000001569, -0.7748386205080481 
2.85000000000159, -0.7742258737128369 
2.860000000001611, -0.7731249321270729 
2.870000000001632, -0.771312006264935 
2.8800000000016532, -0.768411206998785 
2.8900000000016743, -0.7638770355549691 
2.9000000000016954, -0.7570765220574918 
2.9100000000017165, -0.747567239726439 
2.9200000000017377, -0.7355154786720062 
2.9300000000017588, -0.721897543523693 
2.94000000000178, -0.7081622448840934 
2.950000000001801, -0.6956028257123033 
2.960000000001822, -0.6849720649387995 
2.970000000001843, -0.6764908775376058 
2.9800000000018643, -0.6700407624082249 
2.9900000000018854, -0.6653445030771072 
3.0000000000019065, -0.6620768820300353 
3.0100000000019276, -0.6599201065305245 
3.0200000000019487, -0.6585893078852034 
3.03000000000197, -0.6578437890501314 
3.040000000001991, -0.657490528216621 
3.050000000002012, -0.6573822179223658 
3.060000000002033, -0.6574113846624982 
3.070000000002054, -0.657502600216173 
3.0800000000020753, -0.6576050402232123 
3.0900000000020964, -0.6576872157934838 
3.1000000000021175, -0.6577345363095621 
3.1100000000021386, -0.6577484975995832 
3.1200000000021597, -0.6577444302221239 
3.130000000002181, -0.6577446899400241 
3.140000000002202, -0.6577672387741507 
3.150000000002223, -0.6578140212709612 
3.160000000002244, -0.6578655750172844 
3.1700000000022652, -0.6578858595317413 
3.1800000000022863, -0.6578354162783489 
3.1900000000023074, -0.6576855284483505 
3.2000000000023285, -0.6574260432853143 
3.2100000000023496, -0.65706544908572 
3.2200000000023707, -0.6566277296654459 
3.230000000002392, -0.6561517187451347 
3.240000000002413, -0.6556965331888714 
3.250000000002434, -0.6553545327252446 
3.260000000002455, -0.6552722168383702 
3.2700000000024763, -0.6556786724653489 
3.2800000000024974, -0.6569195237784692 
3.2900000000025185, -0.6594909966106715 
3.3000000000025396, -0.6640623841261623 
3.3100000000025607, -0.6714624152501931 
3.3200000000025818, -0.6825803016866792 
3.330000000002603, -0.6980998243238191 
3.340000000002624, -0.7179989019483267 
3.350000000002645, -0.7409515877886526 
3.360000000002666, -0.7642091173698492 
3.3700000000026873, -0.7845940944092081 
3.3800000000027084, -0.8001018394427655 
3.3900000000027295, -0.810584540659318 
3.4000000000027506, -0.8170936861177989 
3.4100000000027717, -0.8209119979122516 
3.420000000002793, -0.8230469377221121 
3.430000000002814, -0.8241505092573476 
3.440000000002835, -0.82460081660709 
3.450000000002856, -0.8245942396478293 
3.460000000002877, -0.8242054725288664 
3.4700000000028983, -0.8234136339492617 
3.4800000000029194, -0.8220986331302231 
3.4900000000029405, -0.8200070855797776 
3.5000000000029616, -0.8166804313590754 
3.5100000000029827, -0.8113351017791702 
3.520000000003004, -0.8027009004193596 
3.530000000003025, -0.7889070020962999 
3.540000000003046, -0.7677466111213817 
3.550000000003067, -0.737961235306329 
3.5600000000030882, -0.701540444192233 
3.5700000000031094, -0.6644777864370649 
3.5800000000031305, -0.6333770349204281 
3.5900000000031516, -0.6113079306052125 
3.6000000000031727, -0.5975317387244095 
3.6100000000031938, -0.5897145595688189 
3.620000000003215, -0.5856191454891497 
3.630000000003236, -0.5836514129839834 
3.640000000003257, -0.5828202178507202 
3.650000000003278, -0.5825533908482168 
3.6600000000032993, -0.5825351977131117 
3.6700000000033204, -0.5825958836148415 
3.6800000000033415, -0.5826441465419522 
3.6900000000033626, -0.5826282305745241 
3.7000000000033837, -0.5825149931125684 
3.710000000003405, -0.58228074612073 
3.720000000003426, -0.5819107108776914 
3.730000000003447, -0.5814045591370768 
3.740000000003468, -0.5807834144915007 
3.750000000003489, -0.580091111709996 
3.7600000000035103, -0.5793844674218341 
3.7700000000035314, -0.5787153208044844 
3.7800000000035525, -0.5781140898558033 
3.7900000000035736, -0.5775833444032779 
3.8000000000035947, -0.5771029883471083 
3.810000000003616, -0.576642761003903 
3.820000000003637, -0.5761755319956163 
3.830000000003658, -0.5756862317242578 
3.840000000003679, -0.5751752403575234 
3.8500000000037002, -0.5746588592769057 
3.8600000000037213, -0.5741707207393266 
3.8700000000037424, -0.5737671058019773 
3.8800000000037635, -0.573537996594334 
3.8900000000037847, -0.5736252916798913 
3.9000000000038058, -0.5742498345118896 
3.910000000003827, -0.5757490976804467 
3.920000000003848, -0.5786262932076689 
3.930000000003869, -0.583606132662908 
3.94000000000389, -0.591674288137391 
3.9500000000039113, -0.6040312513927774 
3.9600000000039324, -0.6218076994070822 
3.9700000000039535, -0.6453448072095374 
3.9800000000039746, -0.6731476857056676 
3.9900000000039957, -0.7015106109246869 
4.000000000004016, -0.7260639732821237 
4.010000000003993, -0.7442819318171285 
4.02000000000397, -0.7562758207999273 
4.030000000003946, -0.763587408022844 
4.040000000003923, -0.7678536237958682 
4.0500000000039, -0.7702664039010323 
4.0600000000038765, -0.7715634286710983 
4.070000000003853, -0.7721639714961638 
4.08000000000383, -0.7722873240308974 
4.090000000003807, -0.7720238131313611 
4.100000000003783, -0.7713652592434539 
4.11000000000376, -0.7702022551132631 
4.120000000003737, -0.7682877453167788 
4.130000000003713, -0.7651595405811383 
4.14000000000369, -0.7600201632303171 
4.150000000003667, -0.7516242808979037 
4.1600000000036434, -0.7383770487388541 
4.17000000000362, -0.7190298346863875 
4.180000000003597, -0.6940299020893861 
4.1900000000035735, -0.6663102031515186 
4.20000000000355, -0.6400169516066478 
4.210000000003527, -0.6181966026543803 
4.220000000003504, -0.6018142640854853 
4.23000000000348, -0.5903466258786403 
4.240000000003457, -0.5827096919366033 
4.250000000003434, -0.5778231004112783 
4.26000000000341, -0.5748150413538912 
4.270000000003387, -0.5730456590305159 
4.280000000003364, -0.5720685850929224 
4.2900000000033405, -0.5715822641165557 
4.300000000003317, -0.5713877193148942 
4.310000000003294, -0.5713560690195291 
4.320000000003271, -0.5714051147811494 
4.330000000003247, -0.5714835816560841 
4.340000000003224, -0.5715617155288468 
4.350000000003201, -0.5716269530228587 
4.360000000003177, -0.5716827507391438 
4.370000000003154, -0.5717474671681512 
4.380000000003131, -0.571849636664034 
4.390000000003107, -0.5720177166153511 
4.400000000003084, -0.5722662926546331 
4.410000000003061, -0.5725843076039366 
4.4200000000030375, -0.5729318672052852 
4.430000000003014, -0.5732494920574037 
4.440000000002991, -0.5734768937775998 
4.450000000002968, -0.5735711641275555 
4.460000000002944, -0.5735145354715113 
4.470000000002921, -0.5733105741841975 
4.480000000002898, -0.5729755067284582 
4.490000000002874, -0.5725320171805603 
4.500000000002851, -0.5720095341966426 
4.510000000002828, -0.5714530451713264 
4.520000000002804, -0.5709435632421498 
4.530000000002781, -0.5706369413761292 
4.540000000002758, -0.5708327567080559 
4.5500000000027345, -0.5720886574462165 
4.560000000002711, -0.5753864442819754 
4.570000000002688, -0.5822978727398286 
4.580000000002665, -0.5949157504446445 
4.590000000002641, -0.6150105379487193 
4.600000000002618, -0.6420569705457336 
4.610000000002595, -0.6717277837280576 
4.620000000002571, -0.698060333683167 
4.630000000002548, -0.7177863706725447 
4.640000000002525, -0.7312234179509474 
4.6500000000025015, -0.7400670515135712 
4.660000000002478, -0.7458267832670219 
4.670000000002455, -0.7495403649778717 
4.6800000000024315, -0.7518930835733377 
4.690000000002408, -0.7533356156266309 
4.700000000002385, -0.7541575854335101 
4.710000000002362, -0.7545347120847653 
4.720000000002338, -0.7545587554539241 
4.730000000002315, -0.7542530704070974 
4.740000000002292, -0.7535748092836478 
4.750000000002268, -0.7524049113342824 
4.760000000002245, -0.7505305343216359 
4.770000000002222, -0.7476364587413317 
4.7800000000021985, -0.7433445214171337 
4.790000000002175, -0.7373516792037982 
4.800000000002152, -0.7296555398743487 
4.810000000002129, -0.7207089988922281 
4.820000000002105, -0.7113109669832959 
4.830000000002082, -0.7022843927385707 
4.840000000002059, -0.6942096392925848 
4.850000000002035, -0.6873629013514485 
4.860000000002012, -0.6817932103978471 
4.870000000001989, -0.6774230206542656 
4.880000000001965, -0.6741180701461922 
4.890000000001942, -0.6717237201510688 
4.900000000001919, -0.6700814309088623 
4.9100000000018955, -0.6690372666289834 
4.920000000001872, -0.6684483620099666 
