t, s[1].omega / s[0].omega 
0, -1.1699981200465874 
0.009999999999999995, -1.1696711750001825 
0.019999999999999934, -1.169076690697935 
0.029999999999999874, -1.168261268793908 
0.04000000000000012, -1.1673440912854025 
0.050000000000000405, -1.166508436631182 
0.06000000000000069, -1.165957546199426 
0.07000000000000098, -1.1657755970652937 
0.08000000000000126, -1.1657658239316042 
0.09000000000000155, -1.1656136288728107 
0.10000000000000184, -1.1650473134383093 
0.11000000000000212, -1.1638197091375952 
0.12000000000000241, -1.1617842823480788 
0.130000000000002, -1.1589772345197884 
0.1400000000000009, -1.155556144788766 
0.1499999999999998, -1.1518718467495006 
0.1599999999999987, -1.148769775220106 
0.1699999999999976, -1.147202508554642 
0.1799999999999965, -1.1469134992840528 
0.1899999999999954, -1.146913480197943 
0.1999999999999943, -1.1466196945101934 
0.2099999999999932, -1.1455654687396148 
0.2199999999999921, -1.1426730352803582 
0.229999999999991, -1.1357332529818864 
0.2399999999999899, -1.1224053746261595 
0.2499999999999888, -1.1032173467757125 
0.2599999999999877, -1.08361339948211 
0.2699999999999866, -1.071565428004498 
0.2799999999999855, -1.0683376844222139 
0.2899999999999844, -1.0685010148899052 
0.2999999999999833, -1.0688492269403786 
0.3099999999999822, -1.068753054537839 
0.3199999999999811, -1.067956182677602 
0.32999999999998, -1.0654490434467172 
0.3399999999999789, -1.057752201075916 
0.3499999999999778, -1.0362895193994646 
0.35999999999997667, -0.9932516948499497 
0.36999999999997557, -0.9420215000090969 
0.37999999999997447, -0.9080565790566648 
0.38999999999997337, -0.8957268637175325 
0.39999999999997227, -0.8937239216716948 
0.40999999999997117, -0.8940721710312195 
0.41999999999997006, -0.8944135640747912 
0.42999999999996896, -0.8943735185429714 
0.43999999999996786, -0.8937988952438511 
0.44999999999996676, -0.8921975542562435 
0.45999999999996566, -0.8884473301333913 
0.46999999999996456, -0.8813149927232407 
0.47999999999996346, -0.8713431201823931 
0.48999999999996235, -0.8609452991792182 
0.49999999999996125, -0.8521510949711353 
0.5099999999999602, -0.8459225984370538 
0.519999999999959, -0.8424217265994 
0.529999999999958, -0.8410254149399565 
0.5399999999999568, -0.8407116306992953 
0.5499999999999557, -0.8406982965794457 
0.5599999999999546, -0.8405962437693967 
0.5699999999999535, -0.8402051112246921 
0.5799999999999524, -0.8393790213661725 
0.5899999999999513, -0.8380953337550215 
0.5999999999999502, -0.8365391148673572 
0.6099999999999491, -0.8349521546947132 
0.619999999999948, -0.8334665296547477 
0.6299999999999469, -0.8321401311631186 
0.6399999999999458, -0.8310425747597748 
0.6499999999999447, -0.8302653087852893 
0.6599999999999436, -0.8298681721350926 
0.6699999999999425, -0.8298213799173366 
0.6799999999999414, -0.8300039615962362 
0.6899999999999403, -0.830270433107761 
0.6999999999999392, -0.8305220900292967 
0.7099999999999381, -0.8307313466949124 
0.719999999999937, -0.8309075933456718 
0.7299999999999359, -0.8310260525163037 
0.7399999999999348, -0.8310121443522576 
0.7499999999999337, -0.8308194272754197 
0.7599999999999326, -0.8304920295185315 
0.7699999999999315, -0.8301698755402114 
0.7799999999999304, -0.8300930150177018 
0.7899999999999293, -0.8305556551407599 
0.7999999999999282, -0.8317590849309985 
0.8099999999999271, -0.8337166519729895 
0.819999999999926, -0.8363256317111937 
0.8299999999999249, -0.8394506762530123 
0.8399999999999238, -0.8428361847737943 
0.8499999999999227, -0.8459251431122797 
0.8599999999999216, -0.8480712864450913 
0.8699999999999205, -0.8491274001836755 
0.8799999999999194, -0.8494104669559823 
0.8899999999999183, -0.8492410377697538 
0.8999999999999172, -0.8488275994424102 
0.9099999999999161, -0.8485476509743312 
0.919999999999915, -0.8497070451828093 
0.9299999999999139, -0.8555106010405735 
0.9399999999999128, -0.8701528414730423 
0.9499999999999117, -0.8946577462721103 
0.9599999999999106, -0.9231240844936743 
0.9699999999999095, -0.9451748932904572 
0.9799999999999084, -0.9563784143364457 
0.9899999999999073, -0.9605537349028328 
0.9999999999999062, -0.9618246733369519 
1.0099999999999052, -0.9619912925954109 
1.019999999999904, -0.9615815469846459 
1.029999999999903, -0.9606705983591934 
1.039999999999902, -0.9597462200808887 
1.0499999999999008, -0.9628385165105033 
1.0599999999998997, -0.9825401106689197 
1.0699999999998986, -1.0281032752422918 
1.0799999999998975, -1.0795458715326989 
1.0899999999998964, -1.1112288665535044 
1.0999999999998953, -1.1237486678866242 
1.1099999999998942, -1.1276315665995256 
1.119999999999893, -1.1286285560748728 
1.129999999999892, -1.1286248010347664 
1.1399999999998909, -1.1281458615079838 
1.1499999999998898, -1.127666832467335 
1.1599999999998887, -1.1289807529493006 
1.1699999999998876, -1.134698465868078 
1.1799999999998865, -1.143843778575028 
1.1899999999998854, -1.1529614577496041 
1.1999999999998843, -1.1600079000565822 
1.2099999999998832, -1.1643878810140322 
1.219999999999882, -1.1664760966119008 
1.229999999999881, -1.167148216894145 
1.2399999999998799, -1.1671149982730968 
1.2499999999998788, -1.1668027549584463 
1.2599999999998777, -1.1666591075783943 
1.2699999999998766, -1.1671973452446367 
1.2799999999998755, -1.1684301453393466 
1.2899999999998744, -1.1698935991310473 
1.2999999999998733, -1.1712266077864248 
1.3099999999998722, -1.1722734196950986 
1.319999999999871, -1.172967844485427 
1.32999999999987, -1.1732688460259868 
1.3399999999998689, -1.1731805954693741 
1.3499999999998678, -1.1727899440725933 
1.3599999999998666, -1.1722658418267293 
1.3699999999998655, -1.171823192450357 
1.3799999999998644, -1.1716097852079461 
1.3899999999998633, -1.1716406809298787 
1.3999999999998622, -1.171801171570195 
1.4099999999998611, -1.171884506184331 
1.41999999999986, -1.1717071379805863 
1.429999999999859, -1.1711643574815247 
1.4399999999998578, -1.1702358512932975 
1.4499999999998567, -1.1689555477395732 
1.4599999999998556, -1.1673792618386074 
1.4699999999998545, -1.1656250462125894 
1.4799999999998534, -1.1639753781371498 
1.4899999999998523, -1.1628820579456514 
1.4999999999998512, -1.162512667169355 
1.5099999999998501, -1.162457898075165 
1.519999999999849, -1.1622396817346405 
1.529999999999848, -1.1614724565318053 
1.5399999999998468, -1.1595866988881116 
1.5499999999998457, -1.1558163165731679 
1.5599999999998446, -1.14971750244649 
1.5699999999998435, -1.1416052685418057 
1.5799999999998424, -1.132789902651761 
1.5899999999998413, -1.1260108254674845 
1.5999999999998402, -1.123299335169785 
1.6099999999998391, -1.123088312717033 
1.619999999999838, -1.1232535785953395 
1.629999999999837, -1.1230668835138036 
1.6399999999998358, -1.1221341974008905 
1.6499999999998347, -1.1192499323294935 
1.6599999999998336, -1.1106834975934425 
1.6699999999998325, -1.0887919721628712 
1.6799999999998314, -1.0494038163926536 
1.6899999999998303, -1.0065273526320835 
1.6999999999998292, -0.9812925963203426 
1.709999999999828, -0.9744217625972488 
1.719999999999827, -0.9743054112908743 
1.729999999999826, -0.9749259023669091 
1.7399999999998248, -0.9751304590577063 
1.7499999999998237, -0.9748096956404788 
1.7599999999998226, -0.973606872743386 
1.7699999999998215, -0.9701718035277119 
1.7799999999998204, -0.9610083387737055 
1.7899999999998193, -0.9414585861803656 
1.7999999999998182, -0.9131458224726712 
1.809999999999817, -0.886024018807121 
1.819999999999816, -0.8681514885583689 
1.8299999999998149, -0.8601851923977126 
1.8399999999998138, -0.8580420655445122 
1.8499999999998127, -0.8578942856969651 
1.8599999999998116, -0.8580276538942683 
1.8699999999998105, -0.8579493322111588 
1.8799999999998094, -0.8574506982001977 
1.8899999999998083, -0.8562157969587942 
1.8999999999998072, -0.8538325663406539 
1.909999999999806, -0.8502634261911192 
1.919999999999805, -0.8461375259368182 
1.9299999999998039, -0.842176501964386 
1.9399999999998028, -0.8387613378013848 
1.9499999999998017, -0.8360756510454411 
1.9599999999998006, -0.8342468254112244 
1.9699999999997995, -0.8332756899236502 
1.9799999999997984, -0.8329454636449556 
1.9899999999997973, -0.8329211890419796 
1.9999999999997962, -0.8329255725120642 
2.0099999999998173, -0.8327931155063243 
2.0199999999998384, -0.8324555161126419 
2.0299999999998595, -0.8319452348558904 
2.0399999999998806, -0.8313533258693397 
2.0499999999999017, -0.8307352320214517 
2.059999999999923, -0.8300944042168555 
2.069999999999944, -0.829449288424942 
2.079999999999965, -0.8288812372978832 
2.089999999999986, -0.8285207204318993 
2.100000000000007, -0.8284837817825811 
2.1100000000000283, -0.8288064802304436 
2.1200000000000494, -0.8294364015093707 
2.1300000000000705, -0.8302814130716343 
2.1400000000000916, -0.831267509723888 
2.1500000000001127, -0.8323486450608891 
2.160000000000134, -0.8334390293666628 
2.170000000000155, -0.8343471157405126 
2.180000000000176, -0.8348755151185395 
2.190000000000197, -0.8349927635236593 
2.2000000000002182, -0.8348125347472669 
2.2100000000002393, -0.8345132974074362 
2.2200000000002604, -0.8344206935965877 
2.2300000000002815, -0.8351853659909346 
2.2400000000003026, -0.8377092198765171 
2.2500000000003237, -0.8426369794710743 
2.260000000000345, -0.849978900612904 
2.270000000000366, -0.8591042226587657 
2.280000000000387, -0.868474427199658 
2.290000000000408, -0.8757611917857323 
2.3000000000004293, -0.879800423808593 
2.3100000000004504, -0.8814447983979722 
2.3200000000004715, -0.8818780087720307 
2.3300000000004926, -0.8817077100813627 
2.3400000000005137, -0.8811255005421165 
2.3500000000005348, -0.8803326804803079 
2.360000000000556, -0.8808027258159687 
2.370000000000577, -0.8888443683271653 
2.380000000000598, -0.9176031251504487 
2.390000000000619, -0.9712342108029031 
2.4000000000006403, -1.0246843398642251 
2.4100000000006614, -1.0541661809192735 
2.4200000000006825, -1.0648581586634418 
2.4300000000007036, -1.0680494189519893 
2.4400000000007247, -1.06883437816957 
2.450000000000746, -1.068739532512104 
2.460000000000767, -1.0681256801512518 
2.470000000000788, -1.0673059143103816 
2.480000000000809, -1.0684955309144466 
2.49000000000083, -1.077819381094786 
2.5000000000008513, -1.097725492293275 
2.5100000000008724, -1.1201563380936055 
2.5200000000008935, -1.1368565330057296 
2.5300000000009146, -1.1457974645313118 
2.5400000000009357, -1.1493896729788058 
2.550000000000957, -1.1504822008497484 
2.560000000000978, -1.1505698232695516 
2.570000000000999, -1.1502383214342404 
2.58000000000102, -1.14997317854045 
2.5900000000010412, -1.1507461874310487 
2.6000000000010624, -1.1532503091835349 
2.6100000000010835, -1.1567311576886716 
2.6200000000011046, -1.1601203539473302 
2.6300000000011257, -1.1629147024756317 
2.6400000000011468, -1.1649123975689604 
2.650000000001168, -1.166041087105382 
2.660000000001189, -1.1664185700145198 
2.67000000000121, -1.1662971254012142 
2.680000000001231, -1.1659496908078837 
2.6900000000012523, -1.165690450178861 
2.7000000000012734, -1.1657858235131866 
2.7100000000012945, -1.1662227693718503 
2.7200000000013156, -1.1668003451465934 
2.7300000000013367, -1.1673203030997001 
2.740000000001358, -1.1676447525938372 
2.750000000001379, -1.1677110708464344 
2.7600000000014, -1.1675042697373539 
2.770000000001421, -1.1670252207902008 
2.780000000001442, -1.1663047129359145 
2.7900000000014633, -1.1654409153592298 
2.8000000000014844, -1.1646013314647377 
2.8100000000015055, -1.1639815631733519 
2.8200000000015266, -1.1637150669206686 
2.8300000000015477, -1.1636959100019617 
2.840000000001569, -1.1636296733719795 
2.85000000000159, -1.1632405868507976 
2.860000000001611, -1.1622914891186154 
2.870000000001632, -1.1606183370235192 
2.8800000000016532, -1.1582195319978517 
2.8900000000016743, -1.1552149011150548 
2.9000000000016954, -1.1518381669583817 
2.9100000000017165, -1.1486809088643128 
2.9200000000017377, -1.1466972167036773 
2.9300000000017588, -1.1461147352214371 
2.94000000000178, -1.1460970901427783 
2.950000000001801, -1.145936360905466 
2.960000000001822, -1.1452087621930016 
2.970000000001843, -1.1431488953204458 
2.9800000000018643, -1.1380939961516714 
2.9900000000018854, -1.1279058355917608 
3.0000000000019065, -1.1121467752638323 
3.0100000000019276, -1.0940458383303568 
3.0200000000019487, -1.080303983829054 
3.03000000000197, -1.0750022444380516 
3.040000000001991, -1.0745660815039697 
3.050000000002012, -1.074946832211283 
3.060000000002033, -1.074992113291772 
3.070000000002054, -1.0744527137871611 
3.0800000000020753, -1.0726530284125348 
3.0900000000020964, -1.0671412538982845 
3.1000000000021175, -1.051142991661409 
3.1100000000021386, -1.015326859272591 
3.1200000000021597, -0.9653181476859154 
3.130000000002181, -0.9258333917425675 
3.140000000002202, -0.9087258869274424 
3.150000000002223, -0.9051124055050844 
3.160000000002244, -0.9052655681248546 
3.1700000000022652, -0.9056883123015269 
3.1800000000022863, -0.9057533228367769 
3.1900000000023074, -0.9053268562253373 
3.2000000000023285, -0.9040155066434116 
3.2100000000023496, -0.9007682949849829 
3.2200000000023707, -0.8939980519694704 
3.230000000002392, -0.8834419031496683 
3.240000000002413, -0.8714788956657644 
3.250000000002434, -0.8608724848835211 
3.260000000002455, -0.8531432854119854 
3.2700000000024763, -0.8486892146265989 
3.2800000000024974, -0.8468604600743288 
3.2900000000025185, -0.8464262936931385 
3.3000000000025396, -0.8464107546072192 
3.3100000000025607, -0.8463381141210613 
3.3200000000025818, -0.8459833638314556 
3.330000000002603, -0.8451692550397528 
3.340000000002624, -0.8438045759182721 
3.350000000002645, -0.8420373609369506 
3.360000000002666, -0.8401648035668757 
3.3700000000026873, -0.8383922375080901 
3.3800000000027084, -0.8368077446010516 
3.3900000000027295, -0.8354831463636813 
3.4000000000027506, -0.8345112763131214 
3.4100000000027717, -0.8339596074174903 
3.420000000002793, -0.8338007434203375 
3.430000000002814, -0.8339006198351561 
3.440000000002835, -0.8340910240479541 
3.450000000002856, -0.8342506132630122 
3.460000000002877, -0.8343366978476348 
3.4700000000028983, -0.8343658499586251 
3.4800000000029194, -0.8343466473410085 
3.4900000000029405, -0.8342350990152212 
3.5000000000029616, -0.833984159695124 
3.5100000000029827, -0.8336173012755201 
3.520000000003004, -0.8332500090647099 
3.530000000003025, -0.8330846704171112 
3.540000000003046, -0.8333584376416043 
3.550000000003067, -0.8342215549701942 
3.5600000000030882, -0.8356690944612803 
3.5700000000031094, -0.8376055655213566 
3.5800000000031305, -0.8399272448650592 
3.5900000000031516, -0.842487643142737 
3.6000000000031727, -0.8449493765238838 
3.6100000000031938, -0.8468114034458002 
3.620000000003215, -0.8478169026654966 
3.630000000003236, -0.8481209282796676 
3.640000000003257, -0.8479881747043262 
3.650000000003278, -0.8476295273746396 
3.6600000000032993, -0.8473929578568085 
3.6700000000033204, -0.8482977555897432 
3.6800000000033415, -0.8525499325195385 
3.6900000000033626, -0.8627412363139939 
3.7000000000033837, -0.8795819137329381 
3.710000000003405, -0.9002434272296338 
3.720000000003426, -0.918540818668951 
3.730000000003447, -0.9295466422268047 
3.740000000003468, -0.934229654615429 
3.750000000003489, -0.9357983923691181 
3.7600000000035103, -0.9361139387308425 
3.7700000000035314, -0.9358223927283656 
3.7800000000035525, -0.9350497250407995 
3.7900000000035736, -0.9340502465959708 
3.8000000000035947, -0.9353651699890301 
3.810000000003616, -0.9490922756958832 
3.820000000003637, -0.9894237814944572 
3.830000000003658, -1.0464909038929076 
3.840000000003679, -1.0884860031198076 
3.8500000000037002, -1.1068524568505145 
3.8600000000037213, -1.1127832832902596 
3.8700000000037424, -1.1144239311747157 
3.8800000000037635, -1.1146651724862275 
3.8900000000037847, -1.114302476717804 
3.9000000000038058, -1.1136504752960663 
3.910000000003827, -1.1138910260247836 
3.920000000003848, -1.1183128286857122 
3.930000000003869, -1.1284615514653433 
3.94000000000389, -1.1405807322391825 
3.9500000000039113, -1.150764340706351 
3.9600000000039324, -1.1574550816093518 
3.9700000000039535, -1.1608469976668552 
3.9800000000039746, -1.1621159079653007 
3.9900000000039957, -1.1623370349879392 
4.000000000004016, -1.1620952393328223 
4.010000000003993, -1.161808194588598 
4.02000000000397, -1.1620861748713263 
4.030000000003946, -1.163330548530845 
4.040000000003923, -1.1651554167295795 
4.0500000000039, -1.1669838626867235 
4.0600000000038765, -1.1685262503705418 
4.070000000003853, -1.1696706473003744 
4.08000000000383, -1.1703521711425813 
4.090000000003807, -1.170554921290499 
4.100000000003783, -1.170359506798051 
4.11000000000376, -1.1699323231676384 
4.120000000003737, -1.169503739507655 
4.130000000003713, -1.169285279742113 
4.14000000000369, -1.1693325131901726 
4.150000000003667, -1.1695584012810076 
4.1600000000036434, -1.1697895576191482 
4.17000000000362, -1.1698427470088404 
4.180000000003597, -1.1696029827193268 
4.1900000000035735, -1.1690355365412701 
4.20000000000355, -1.1681567535434438 
4.210000000003527, -1.1670013470809775 
4.220000000003504, -1.1656418041966645 
4.23000000000348, -1.1642445435532538 
4.240000000003457, -1.1631146118769424 
4.250000000003434, -1.1625475579492341 
4.26000000000341, -1.1624305153561365 
4.270000000003387, -1.1623408952776657 
4.280000000003364, -1.1619112504978106 
4.2900000000033405, -1.1607568178174958 
4.300000000003317, -1.1583818398468715 
4.310000000003294, -1.1544406731146952 
4.320000000003271, -1.1490127743961447 
4.330000000003247, -1.1426175430159364 
4.340000000003224, -1.1365683462966356 
4.350000000003201, -1.132890648320427 
4.360000000003177, -1.13192721157317 
4.370000000003154, -1.1319951628324965 
4.380000000003131, -1.131962842031609 
4.390000000003107, -1.131408189883263 
4.400000000003084, -1.1296224504290622 
4.410000000003061, -1.124456655193006 
4.4200000000030375, -1.1111188358444897 
4.430000000003014, -1.0848950152309809 
4.440000000002991, -1.050335887649218 
4.450000000002968, -1.0229229801526356 
4.460000000002944, -1.011856630001657 
4.470000000002921, -1.0104383408717794 
4.480000000002898, -1.0110112691469821 
4.490000000002874, -1.0113372487511636 
4.500000000002851, -1.0111588685415842 
4.510000000002828, -1.0102202560123152 
4.520000000002804, -1.0074063840634515 
4.530000000002781, -0.9992724635349212 
4.540000000002758, -0.9790401354027066 
4.5500000000027345, -0.9439993321779354 
4.560000000002711, -0.906155541386819 
4.570000000002688, -0.88051408795758 
4.580000000002665, -0.8696159034793515 
4.590000000002641, -0.8670030586004739 
4.600000000002618, -0.8669422901157867 
4.610000000002595, -0.8671679713650599 
4.620000000002571, -0.8671395177217205 
4.630000000002548, -0.8666685265290235 
4.640000000002525, -0.8654045417646329 
4.6500000000025015, -0.8627279835684001 
4.660000000002478, -0.8582507835253447 
4.670000000002455, -0.8526007774884012 
4.6800000000024315, -0.8469490570970981 
4.690000000002408, -0.8420593866775569 
4.700000000002385, -0.8382826552231061 
4.710000000002362, -0.8357916196132054 
4.720000000002338, -0.8345216990496162 
4.730000000002315, -0.8340989771936546 
4.740000000002292, -0.8340458185833765 
4.750000000002268, -0.8340165473288288 
4.760000000002245, -0.8338171125234983 
4.770000000002222, -0.8333491008589359 
4.7800000000021985, -0.8326238271612332 
4.790000000002175, -0.8317594875991023 
4.800000000002152, -0.8308704845143804 
4.810000000002129, -0.829998981246454 
4.820000000002105, -0.8291673413743323 
4.830000000002082, -0.8284413952751721 
4.840000000002059, -0.827929201181213 
4.850000000002035, -0.8277260471405729 
4.860000000002012, -0.827856129011397 
4.870000000001989, -0.8282596915009283 
4.880000000001965, -0.8288341437952195 
4.890000000001942, -0.8294953747013399 
4.900000000001919, -0.8302047899186548 
4.9100000000018955, -0.8309263926523273 
4.920000000001872, -0.8315523375065409 
4.930000000001849, -0.8319272593181194 
