t, s[1].omega / s[0].omega 
0, -1.480090281169639 
0.009999999999999995, -1.4875173394633636 
0.019999999999999934, -1.4921594784020404 
0.029999999999999874, -1.4947971895674166 
0.04000000000000012, -1.4961300972330132 
0.050000000000000405, -1.4966467016552234 
0.06000000000000069, -1.4966530712918753 
0.07000000000000098, -1.4963398664652952 
0.08000000000000126, -1.4958489574606033 
0.09000000000000155, -1.4953220514263719 
0.10000000000000184, -1.4949044212601437 
0.11000000000000212, -1.4946959328495149 
0.12000000000000241, -1.4947089258452775 
0.130000000000002, -1.4948852221624418 
0.1400000000000009, -1.4951329251929426 
0.1499999999999998, -1.4953461988771624 
0.1599999999999987, -1.4954201841610515 
0.1699999999999976, -1.4952593834018406 
0.1799999999999965, -1.494769249490174 
0.1899999999999954, -1.4938393150242275 
0.1999999999999943, -1.4923317326152485 
0.2099999999999932, -1.490082618378484 
0.2199999999999921, -1.486922739038189 
0.229999999999991, -1.4827376795897094 
0.2399999999999899, -1.477611895104879 
0.2499999999999888, -1.4720752187737243 
0.2599999999999877, -1.4672302247800588 
0.2699999999999866, -1.4642215707552926 
0.2799999999999855, -1.4632257024785917 
0.2899999999999844, -1.4633969367623434 
0.2999999999999833, -1.4638305108861176 
0.3099999999999822, -1.4640799919148366 
0.3199999999999811, -1.4640161879685547 
0.32999999999998, -1.4635914087861954 
0.3399999999999789, -1.46271000797745 
0.3499999999999778, -1.4611738625652475 
0.35999999999997667, -1.458724823764228 
0.36999999999997557, -1.4554207887971367 
0.37999999999997447, -1.4527229638387325 
0.38999999999997337, -1.4543741677181126 
0.39999999999997227, -1.4635264372421875 
0.40999999999997117, -1.47785603150708 
0.41999999999997006, -1.4917592167228941 
0.42999999999996896, -1.5019834189601071 
0.43999999999996786, -1.5083705001235992 
0.44999999999996676, -1.5119625456615766 
0.45999999999996566, -1.5137939660100912 
0.46999999999996456, -1.5145757229268404 
0.47999999999996346, -1.5147324529111423 
0.48999999999996235, -1.5145089589124048 
0.49999999999996125, -1.514066790179642 
0.5099999999999602, -1.513556591428415 
0.519999999999959, -1.5131433896505952 
0.529999999999958, -1.512958995505144 
0.5399999999999568, -1.5130326535330871 
0.5499999999999557, -1.5132953761639212 
0.5599999999999546, -1.5136384033698207 
0.5699999999999535, -1.513949381200122 
0.5799999999999524, -1.5141243219641898 
0.5899999999999513, -1.5140724143615747 
0.5999999999999502, -1.5137093212983652 
0.6099999999999491, -1.5129423167328309 
0.619999999999948, -1.5116588151522774 
0.6299999999999469, -1.5097250535954436 
0.6399999999999458, -1.5069993756989248 
0.6499999999999447, -1.5033751220562661 
0.6599999999999436, -1.4988910478813862 
0.6699999999999425, -1.4939414581620951 
0.6799999999999414, -1.4894422172706303 
0.6899999999999403, -1.486475180891752 
0.6999999999999392, -1.4853648979246254 
0.7099999999999381, -1.4854295454813882 
0.719999999999937, -1.485806099956253 
0.7299999999999359, -1.4860289461227976 
0.7399999999999348, -1.485949191317833 
0.7499999999999337, -1.4855070154307852 
0.7599999999999326, -1.4845951724914768 
0.7699999999999315, -1.482998000696188 
0.7799999999999304, -1.480436285999793 
0.7899999999999293, -1.4769864294477741 
0.7999999999999282, -1.4742845472177444 
0.8099999999999271, -1.476360501901356 
0.819999999999926, -1.4861808684115072 
0.8299999999999249, -1.5007344497567618 
0.8399999999999238, -1.514255310829353 
0.8499999999999227, -1.523875745844537 
0.8599999999999216, -1.5297403348629488 
0.8699999999999205, -1.5329699902802885 
0.8799999999999194, -1.534571938696452 
0.8899999999999183, -1.5352109046865028 
0.8999999999999172, -1.5352761497312328 
0.9099999999999161, -1.534993154880225 
0.919999999999915, -1.5345188566543544 
0.9299999999999139, -1.5340075693917732 
0.9399999999999128, -1.5336203407068685 
0.9499999999999117, -1.5334654547766091 
0.9599999999999106, -1.533545405600856 
0.9699999999999095, -1.533783043895522 
0.9799999999999084, -1.534073335069493 
0.9899999999999073, -1.5343061578876018 
0.9999999999999062, -1.534377073576167 
1.0099999999999052, -1.5341912581773876 
1.019999999999904, -1.5336517834060834 
1.029999999999903, -1.5326405999036143 
1.039999999999902, -1.5310055499501898 
1.0499999999999008, -1.5285610471824311 
1.0599999999998997, -1.5251132534214826 
1.0699999999998986, -1.5205432654249287 
1.0799999999998975, -1.5150133760531275 
1.0899999999998964, -1.5092876506648598 
1.0999999999998953, -1.5047470867186674 
1.1099999999998942, -1.5024499310405524 
1.119999999999893, -1.5020893529650943 
1.129999999999892, -1.5025409943178563 
1.1399999999998909, -1.5029901434982647 
1.1499999999998898, -1.5031444505699174 
1.1599999999998887, -1.5029451772515565 
1.1699999999998876, -1.5023489620350066 
1.1799999999998865, -1.501239574766096 
1.1899999999998854, -1.4994368414523536 
1.1999999999998843, -1.4969339276875848 
1.2099999999998832, -1.4946799936235502 
1.219999999999882, -1.49548479567601 
1.229999999999881, -1.5023032763324582 
1.2399999999998799, -1.5139985706446177 
1.2499999999998788, -1.5260930072879813 
1.2599999999998777, -1.5354792307238319 
1.2699999999998766, -1.5416392034885043 
1.2799999999998755, -1.5452657616872805 
1.2899999999998744, -1.5471969268305894 
1.2999999999998733, -1.548065812460654 
1.3099999999998722, -1.548278430548729 
1.319999999999871, -1.548080751067036 
1.32999999999987, -1.5476347873413407 
1.3399999999998689, -1.5470808677813266 
1.3499999999998678, -1.54656339899103 
1.3599999999998666, -1.546200962116309 
1.3699999999998655, -1.5460404310913851 
1.3799999999998644, -1.546058008508736 
1.3899999999998633, -1.5461849872042972 
1.3999999999998622, -1.5463199790083029 
1.4099999999998611, -1.5463461645716814 
1.41999999999986, -1.5461494476486382 
1.429999999999859, -1.5456109863635126 
1.4399999999998578, -1.5445780217462886 
1.4499999999998567, -1.54283304761638 
1.4599999999998556, -1.5400768755415604 
1.4699999999998545, -1.5359468424232416 
1.4799999999998534, -1.5301268681454254 
1.4899999999998523, -1.5226696339668724 
1.4999999999998512, -1.5145760889695274 
1.5099999999998501, -1.507987321377501 
1.519999999999849, -1.5047143927268989 
1.529999999999848, -1.5043627980451515 
1.5399999999998468, -1.5051872075444526 
1.5499999999998457, -1.5059810951625112 
1.5599999999998446, -1.5063764363042251 
1.5699999999998435, -1.506359189466405 
1.5799999999998424, -1.5059545128996328 
1.5899999999998413, -1.5051300656639932 
1.5999999999998402, -1.5038181621207207 
1.6099999999998391, -1.5021124324584436 
1.619999999999838, -1.500794701949454 
1.629999999999837, -1.501787477319236 
1.6399999999998358, -1.5068850467014994 
1.6499999999998347, -1.5152679908133864 
1.6599999999998336, -1.5241124247738622 
1.6699999999998325, -1.5313406630867779 
1.6799999999998314, -1.536413172296382 
1.6899999999998303, -1.539619349905029 
1.6999999999998292, -1.5414478837271326 
1.709999999999828, -1.5423291724860975 
1.719999999999827, -1.542576425770067 
1.729999999999826, -1.5424001376035297 
1.7399999999998248, -1.5419463355385847 
1.7499999999998237, -1.5413381536338582 
1.7599999999998226, -1.5407003480867623 
1.7699999999998215, -1.5401481302076392 
1.7799999999998204, -1.539757797268293 
1.7899999999998193, -1.5395563892149773 
1.7999999999998182, -1.5395183663246834 
1.809999999999817, -1.5395571807771176 
1.819999999999816, -1.5395456859611731 
1.8299999999998149, -1.5393524949002457 
1.8399999999998138, -1.5388439462152481 
1.8499999999998127, -1.5378467932506512 
1.8599999999998116, -1.5360957906638857 
1.8699999999998105, -1.5331861607301043 
1.8799999999998094, -1.5285618852219365 
1.8899999999998083, -1.5216275052046073 
1.8999999999998072, -1.5121811814908415 
1.909999999999806, -1.5013244915652346 
1.919999999999805, -1.492033202106027 
1.9299999999998039, -1.4872443846902779 
1.9399999999998028, -1.4867411826372872 
1.9499999999998017, -1.488036835283793 
1.9599999999998006, -1.489325814740747 
1.9699999999997995, -1.4900763927888803 
1.9799999999997984, -1.4903089386558643 
1.9899999999997973, -1.4901213897927847 
1.9999999999997962, -1.489553095197062 
2.0099999999998173, -1.4885930437364674 
2.0199999999998384, -1.4873012881170324 
2.0299999999998595, -1.4861319157912622 
2.0399999999998806, -1.4863125754161264 
2.0499999999999017, -1.4893384806894983 
2.059999999999923, -1.4952695950413983 
2.069999999999944, -1.5023561939770045 
2.079999999999965, -1.5087649759907333 
2.089999999999986, -1.5136712500851315 
2.100000000000007, -1.517035846674186 
2.1100000000000283, -1.51912974565847 
2.1200000000000494, -1.5202710244242268 
2.1300000000000705, -1.5207296264460912 
2.1400000000000916, -1.5207073695353461 
2.1500000000001127, -1.5203496415774336 
2.160000000000134, -1.5197716184895813 
2.170000000000155, -1.5190848366812462 
2.180000000000176, -1.5184046944912288 
2.190000000000197, -1.5178325629913734 
2.2000000000002182, -1.5174363751936863 
2.2100000000002393, -1.5172395552736675 
2.2200000000002604, -1.5172010245724155 
2.2300000000002815, -1.5172122773801688 
2.2400000000003026, -1.5171364206000775 
2.2500000000003237, -1.5168404968717428 
2.260000000000345, -1.5161804971389352 
2.270000000000366, -1.514953257952681 
2.280000000000387, -1.5128396643183046 
2.290000000000408, -1.5093591961331363 
2.3000000000004293, -1.50388190006501 
2.3100000000004504, -1.4958221930566944 
2.3200000000004715, -1.4852417932533142 
2.3300000000004926, -1.4738522495019644 
2.3400000000005137, -1.465074234577655 
2.3500000000005348, -1.4613071521371506 
2.360000000000556, -1.4614563698412202 
2.370000000000577, -1.462917465689078 
2.380000000000598, -1.4641701725314225 
2.390000000000619, -1.464855282531938 
2.4000000000006403, -1.465035842555557 
2.4100000000006614, -1.4648080829326169 
2.4200000000006825, -1.464202798324738 
2.4300000000007036, -1.4632035540241757 
2.4400000000007247, -1.4618724622454518 
2.450000000000746, -1.4606774498513762 
2.460000000000767, -1.4608777027090871 
2.470000000000788, -1.464035635572976 
2.480000000000809, -1.4702940692694724 
2.49000000000083, -1.4778858440935532 
2.5000000000008513, -1.4848445324239963 
2.5100000000008724, -1.4902240468593082 
2.5200000000008935, -1.493940189592623 
2.5300000000009146, -1.4962738313607729 
2.5400000000009357, -1.4975731590040704 
2.550000000000957, -1.498138295526354 
2.560000000000978, -1.4981937530282525 
2.570000000000999, -1.4978990018160883 
2.58000000000102, -1.497376222177793 
2.5900000000010412, -1.4967402639024714 
2.6000000000010624, -1.4961103543963143 
2.6100000000010835, -1.4955913001393406 
2.6200000000011046, -1.495247096699533 
2.6300000000011257, -1.4950929373176491 
2.6400000000011468, -1.4950903384474699 
2.650000000001168, -1.4951452708458224 
2.660000000001189, -1.4951340411868657 
2.67000000000121, -1.4949339199033203 
2.680000000001231, -1.4944205648510867 
2.6900000000012523, -1.4934363566463946 
2.7000000000012734, -1.491752760190041 
2.7100000000012945, -1.489044760455539 
2.7200000000013156, -1.484899921066253 
2.7300000000013367, -1.4789130458059607 
2.740000000001358, -1.470970853029995 
2.750000000001379, -1.4618091707724035 
2.7600000000014, -1.4534425902059798 
2.770000000001421, -1.4482252750540352 
2.780000000001442, -1.4466700454294628 
2.7900000000014633, -1.4472093492275147 
2.8000000000014844, -1.4481855628148708 
2.8100000000015055, -1.4488658093202702 
2.8200000000015266, -1.4491185281602588 
2.8300000000015477, -1.448977614391851 
2.840000000001569, -1.4484543791984406 
2.85000000000159, -1.4474932344175684 
2.860000000001611, -1.4460152636843253 
2.870000000001632, -1.4441439775470941 
2.8800000000016532, -1.4427697971729498 
2.8900000000016743, -1.4440007589432413 
2.9000000000016954, -1.4498305067905601 
2.9100000000017165, -1.4594908586400455 
2.9200000000017377, -1.4698746762372537 
2.9300000000017588, -1.4784901751289607 
2.94000000000178, -1.4845822587716913 
2.950000000001801, -1.48844718121754 
2.960000000001822, -1.4906742964857573 
2.970000000001843, -1.4917967399636793 
2.9800000000018643, -1.4922009745091882 
2.9900000000018854, -1.4921406464965181 
3.0000000000019065, -1.491782956791114 
3.0100000000019276, -1.4912598651599718 
3.0200000000019487, -1.4907048017110942 
3.03000000000197, -1.4902495722311981 
3.040000000001991, -1.489981955348799 
3.050000000002012, -1.4899169822048148 
3.060000000002033, -1.4900109356826834 
3.070000000002054, -1.4901820909414263 
3.0800000000020753, -1.4903248479995184 
3.0900000000020964, -1.4903296748676054 
3.1000000000021175, -1.490093915171895 
3.1100000000021386, -1.489510653748906 
3.1200000000021597, -1.4884476997084197 
3.130000000002181, -1.4867329325186867 
3.140000000002202, -1.4841556266510894 
3.150000000002223, -1.48049470279486 
3.160000000002244, -1.4756028935372982 
3.1700000000022652, -1.469603707057932 
3.1800000000022863, -1.4632055999854918 
3.1900000000023074, -1.4577962750600326 
3.2000000000023285, -1.4546607963557938 
3.2100000000023496, -1.453803943821136 
3.2200000000023707, -1.4541395977556246 
3.230000000002392, -1.4546750258953751 
3.240000000002413, -1.454975922723131 
3.250000000002434, -1.4549400961590504 
3.260000000002455, -1.4545399358358084 
3.2700000000024763, -1.453699068444742 
3.2800000000024974, -1.4522515728609124 
3.2900000000025185, -1.450004575459314 
3.3000000000025396, -1.447122691515069 
3.3100000000025607, -1.4451094437684706 
3.3200000000025818, -1.4473768678653829 
3.330000000002603, -1.4564430785138334 
3.340000000002624, -1.469965364198479 
3.350000000002645, -1.4829991244858314 
3.360000000002666, -1.4926997255793875 
3.3700000000026873, -1.4988794432269927 
3.3800000000027084, -1.5024286033724015 
3.3900000000027295, -1.5042758070113482 
3.4000000000027506, -1.5050845805010724 
3.4100000000027717, -1.505264458481672 
3.420000000002793, -1.5050572100988482 
3.430000000002814, -1.5046225801456437 
3.440000000002835, -1.5041057793688513 
3.450000000002856, -1.5036645460787241 
3.460000000002877, -1.503430276673827 
3.4700000000028983, -1.5034435347537733 
3.4800000000029194, -1.5036508492222784 
3.4900000000029405, -1.5039540922302241 
3.5000000000029616, -1.5042445628838146 
3.5100000000029827, -1.5044168950986867 
3.520000000003004, -1.5043771008646853 
3.530000000003025, -1.5040382917537707 
3.540000000003046, -1.5033060888781058 
3.550000000003067, -1.5020660817055789 
3.5600000000030882, -1.500181336930241 
3.5700000000031094, -1.4975042658513307 
3.5800000000031305, -1.4939154824038154 
3.5900000000031516, -1.4894240211410756 
3.6000000000031727, -1.4843666225616654 
3.6100000000031938, -1.4796019603106267 
3.620000000003215, -1.4762578845674794 
3.630000000003236, -1.474833931834421 
3.640000000003257, -1.4747621066806367 
3.650000000003278, -1.4751375121485255 
3.6600000000032993, -1.475414243751989 
3.6700000000033204, -1.4754044720716386 
3.6800000000033415, -1.4750467982476245 
3.6900000000033626, -1.474252463239999 
3.7000000000033837, -1.4728317024502908 
3.710000000003405, -1.4704996777719797 
3.720000000003426, -1.4671555582670974 
3.730000000003447, -1.4638730473488322 
3.740000000003468, -1.464156233108141 
3.750000000003489, -1.4719334983321235 
3.7600000000035103, -1.4859619760282956 
3.7700000000035314, -1.5004739748742755 
3.7800000000035525, -1.511465754835958 
3.7900000000035736, -1.5184148480831963 
3.8000000000035947, -1.5223440506465817 
3.810000000003616, -1.5243626164495505 
3.820000000003637, -1.525246846060354 
3.830000000003658, -1.5254610734963918 
3.840000000003679, -1.5252702147764512 
3.8500000000037002, -1.5248433046539187 
3.8600000000037213, -1.5243315889323696 
3.8700000000037424, -1.5239008275098924 
3.8800000000037635, -1.5236892808902605 
3.8900000000037847, -1.5237354686969538 
3.9000000000038058, -1.5239761400953347 
3.910000000003827, -1.5243044201089155 
3.920000000003848, -1.5246078544728212 
3.930000000003869, -1.5247807569609244 
3.94000000000389, -1.5247297393857775 
3.9500000000039113, -1.5243674355968369 
3.9600000000039324, -1.5235965857996914 
3.9700000000039535, -1.5222966644734175 
3.9800000000039746, -1.5203209117423766 
3.9900000000039957, -1.5175092337625897 
4.000000000004016, -1.513734092425816 
4.010000000003993, -1.5090229957635357 
4.02000000000397, -1.503796691247026 
4.030000000003946, -1.4990597724433266 
4.040000000003923, -1.4959927901199799 
4.0500000000039, -1.49491367511478 
4.0600000000038765, -1.4950475704085622 
4.070000000003853, -1.4954718724650546 
4.08000000000383, -1.4957159475027706 
4.090000000003807, -1.495642383038001 
4.100000000003783, -1.4952008782684547 
4.11000000000376, -1.4942924911896684 
4.120000000003737, -1.492719855674516 
4.130000000003713, -1.4902639990513136 
4.14000000000369, -1.4871692290407403 
4.150000000003667, -1.485325294587313 
4.1600000000036434, -1.4885946609464988 
4.17000000000362, -1.498919004429266 
4.180000000003597, -1.512718274664723 
4.1900000000035735, -1.5249435578787436 
4.20000000000355, -1.5334904508524243 
4.210000000003527, -1.5386876592979355 
4.220000000003504, -1.5415518639111914 
4.23000000000348, -1.5429601585358135 
4.240000000003457, -1.5434922964948523 
4.250000000003434, -1.5434930282893005 
4.26000000000341, -1.5431683012098225 
4.270000000003387, -1.5426688145706866 
4.280000000003364, -1.5421449653449588 
4.2900000000033405, -1.5417452797371145 
4.300000000003317, -1.541559645158268 
4.310000000003294, -1.5415846978404095 
4.320000000003271, -1.541753307488303 
4.330000000003247, -1.5419693987118457 
4.340000000003224, -1.5421229401318683 
4.350000000003201, -1.5421049000862246 
4.360000000003177, -1.541811797813681 
4.370000000003154, -1.5411292177018188 
4.380000000003131, -1.5399073624626065 
4.390000000003107, -1.5379441173648003 
4.400000000003084, -1.534986438204747 
4.410000000003061, -1.5307711442219207 
4.4200000000030375, -1.5251631476633523 
4.430000000003014, -1.5184824051763042 
4.440000000002991, -1.5119200614761061 
4.450000000002968, -1.5072779576475246 
4.460000000002944, -1.505448792629305 
4.470000000002921, -1.5055611409427723 
4.480000000002898, -1.5062399244366405 
4.490000000002874, -1.5067425714146985 
4.500000000002851, -1.5068794917204982 
4.510000000002828, -1.5066397105648481 
4.520000000002804, -1.5059962645980463 
4.530000000002781, -1.5048534287122481 
4.540000000002758, -1.5031127126012005 
4.5500000000027345, -1.501019168513289 
4.560000000002711, -1.4999402713504946 
4.570000000002688, -1.5025414224373062 
4.580000000002665, -1.510238653728529 
4.590000000002641, -1.5207521184971067 
4.600000000002618, -1.5305444495238794 
4.610000000002595, -1.5378446016105762 
4.620000000002571, -1.542601011210436 
4.630000000002548, -1.545406801400661 
4.640000000002525, -1.5468836211627108 
4.6500000000025015, -1.54749850698335 
4.660000000002478, -1.5475594215461368 
4.670000000002455, -1.5472628688038408 
4.6800000000024315, -1.5467502624848954 
4.690000000002408, -1.5461532187822613 
4.700000000002385, -1.5456035816398492 
4.710000000002362, -1.545201601203793 
4.720000000002338, -1.5449873356574515 
4.730000000002315, -1.5449456380549387 
4.740000000002292, -1.5450119391005201 
4.750000000002268, -1.545077608255907 
4.760000000002245, -1.545017309452559 
4.770000000002222, -1.5447080388390393 
4.7800000000021985, -1.5440117301240963 
4.790000000002175, -1.5427349752041035 
4.800000000002152, -1.5405878584525234 
4.810000000002129, -1.5371609409622358 
4.820000000002105, -1.5319605952319932 
4.830000000002082, -1.5246086725550287 
4.840000000002059, -1.5153878118701254 
4.850000000002035, -1.5060265250373293 
4.860000000002012, -1.4994056107735387 
4.870000000001989, -1.4970082410571655 
4.880000000001965, -1.4974507883985582 
4.890000000001942, -1.4986290270655944 
4.900000000001919, -1.4995070321937856 
4.9100000000018955, -1.499891523800016 
4.920000000001872, -1.4998404783776262 
4.930000000001849, -1.4994012202374258 
4.940000000001826, -1.4985584750762748 
