t, s[1].omega / s[0].omega 
0, -0.7699976642956118 
0.009999999999999995, -0.7697420350610696 
0.019999999999999934, -0.7694382339987039 
0.029999999999999874, -0.7690759910000969 
0.04000000000000012, -0.7686465829428146 
0.050000000000000405, -0.7681498049346744 
0.06000000000000069, -0.7675977267340734 
0.07000000000000098, -0.7670157619332575 
0.08000000000000126, -0.7664432347775031 
0.09000000000000155, -0.7659346614825282 
0.10000000000000184, -0.7655609139481956 
0.11000000000000212, -0.7654080489459673 
0.12000000000000241, -0.7655718073819039 
0.130000000000002, -0.7661477037460506 
0.1400000000000009, -0.7672191971095822 
0.1499999999999998, -0.7688477020394596 
0.1599999999999987, -0.7710667538917233 
0.1699999999999976, -0.7738790916553164 
0.1799999999999965, -0.7772520580410152 
0.1899999999999954, -0.7811061597143497 
0.1999999999999943, -0.7852963083887909 
0.2099999999999932, -0.7895966103125385 
0.2199999999999921, -0.7937126083308975 
0.229999999999991, -0.7973411689774077 
0.2399999999999899, -0.800261117419217 
0.2499999999999888, -0.8023960117787924 
0.2599999999999877, -0.8038050194527573 
0.2699999999999866, -0.804620593137833 
0.2799999999999855, -0.8049841785963295 
0.2899999999999844, -0.8050097110119785 
0.2999999999999833, -0.8047738620649307 
0.3099999999999822, -0.8043213767429149 
0.3199999999999811, -0.8036781681399325 
0.32999999999998, -0.8028729003597528 
0.3399999999999789, -0.801975449873777 
0.3499999999999778, -0.8011668950299156 
0.35999999999997667, -0.8008555765296601 
0.36999999999997557, -0.8018321159845083 
0.37999999999997447, -0.80538818131077 
0.38999999999997337, -0.8132025414402941 
0.39999999999997227, -0.8267189734985845 
0.40999999999997117, -0.8459923889957068 
0.41999999999997006, -0.8687792216967406 
0.42999999999996896, -0.8911729297877266 
0.43999999999996786, -0.9097409019666685 
0.44999999999996676, -0.923128557449634 
0.45999999999996566, -0.9318453383515971 
0.46999999999996456, -0.937147810998761 
0.47999999999996346, -0.940224168897616 
0.48999999999996235, -0.9419231256778241 
0.49999999999996125, -0.9427736862006191 
0.5099999999999602, -0.9430778980383863 
0.519999999999959, -0.9429896630117749 
0.529999999999958, -0.9425626333526672 
0.5399999999999568, -0.9417715400765305 
0.5499999999999557, -0.9405145171054615 
0.5599999999999546, -0.9386058043811722 
0.5699999999999535, -0.9357781556386815 
0.5799999999999524, -0.9317396803073992 
0.5899999999999513, -0.9263634313198216 
0.5999999999999502, -0.9200641701899164 
0.6099999999999491, -0.9141931562595851 
0.619999999999948, -0.9108924491801591 
0.6299999999999469, -0.91196377678173 
0.6399999999999458, -0.9174716955745307 
0.6499999999999447, -0.9255857554074043 
0.6599999999999436, -0.9338964560444161 
0.6699999999999425, -0.9407841889050561 
0.6799999999999414, -0.9457567347699243 
0.6899999999999403, -0.9490286941984689 
0.6999999999999392, -0.9510353157150494 
0.7099999999999381, -0.9521719929796445 
0.719999999999937, -0.9527178670852008 
0.7299999999999359, -0.9528393345774303 
0.7399999999999348, -0.9526102007778136 
0.7499999999999337, -0.9520229054680776 
0.7599999999999326, -0.9509816749641866 
0.7699999999999315, -0.9492721457509413 
0.7799999999999304, -0.9465026555362737 
0.7899999999999293, -0.9420214707561201 
0.7999999999999282, -0.9348531504195258 
0.8099999999999271, -0.9237936993963813 
0.819999999999926, -0.9079188926198809 
0.8299999999999249, -0.8876087624563412 
0.8399999999999238, -0.8653944728308242 
0.8499999999999227, -0.845257045994068 
0.8599999999999216, -0.8303785646958172 
0.8699999999999205, -0.821531825847871 
0.8799999999999194, -0.8174804211915208 
0.8899999999999183, -0.8163534955725851 
0.8999999999999172, -0.8166164891371647 
0.9099999999999161, -0.8173347967081119 
0.919999999999915, -0.8180522018650794 
0.9299999999999139, -0.8185915825266854 
0.9399999999999128, -0.8189049902541606 
0.9499999999999117, -0.8189873688692808 
0.9599999999999106, -0.8188326494514138 
0.9699999999999095, -0.8184106830484627 
0.9799999999999084, -0.8176517292795777 
0.9899999999999073, -0.8164337552591678 
0.9999999999999062, -0.8145771774447434 
1.0099999999999052, -0.8118629922641206 
1.019999999999904, -0.8080957150206393 
1.029999999999903, -0.8032105756827669 
1.039999999999902, -0.7973681755839248 
1.0499999999999008, -0.7909501650539636 
1.0599999999998997, -0.7844400460721448 
1.0699999999998986, -0.7782767098249896 
1.0799999999998975, -0.7727708989601119 
1.0899999999998964, -0.7680963127673037 
1.0999999999998953, -0.7643168323805472 
1.1099999999998942, -0.7614163797977184 
1.119999999999893, -0.7593206781217636 
1.129999999999892, -0.7579141032047276 
1.1399999999998909, -0.7570568416090044 
1.1499999999998898, -0.7566034092524255 
1.1599999999998887, -0.7564193291154087 
1.1699999999998876, -0.7563919528674434 
1.1799999999998865, -0.7564338841830434 
1.1899999999998854, -0.7564806665393136 
1.1999999999998843, -0.756486150468689 
1.2099999999998832, -0.7564187899027762 
1.219999999999882, -0.7562605361351473 
1.229999999999881, -0.7560075628699503 
1.2399999999998799, -0.7556698112877642 
1.2499999999998788, -0.7552663300026006 
1.2599999999998777, -0.754816710751999 
1.2699999999998766, -0.7543330075846522 
1.2799999999998755, -0.7538170642967741 
1.2899999999998744, -0.7532644496351791 
1.2999999999998733, -0.7526718821129801 
1.3099999999998722, -0.7520438423304691 
1.319999999999871, -0.7513962687478872 
1.32999999999987, -0.7507580069469778 
1.3399999999998689, -0.7501715157974703 
1.3499999999998678, -0.7496932416267446 
1.3599999999998666, -0.7493926422572257 
1.3699999999998655, -0.7493484212431707 
1.3799999999998644, -0.7496415224301586 
1.3899999999998633, -0.750346255834616 
1.3999999999998622, -0.7515222417494978 
1.4099999999998611, -0.7532094318830493 
1.41999999999986, -0.7554262074011941 
1.429999999999859, -0.7581676597205818 
1.4399999999998578, -0.7613993153607651 
1.4499999999998567, -0.7650425425444738 
1.4599999999998556, -0.7689538284189718 
1.4699999999998545, -0.7729119464824811 
1.4799999999998534, -0.776637507455807 
1.4899999999998523, -0.7798586838194436 
1.4999999999998512, -0.7823959752845204 
1.5099999999998501, -0.7842077920439942 
1.519999999999849, -0.7853677045068996 
1.529999999999848, -0.7860026010226082 
1.5399999999998468, -0.7862379218729796 
1.5499999999998457, -0.7861700414614801 
1.5599999999998446, -0.7858609344964905 
1.5699999999998435, -0.7853446635723768 
1.5799999999998424, -0.7846406296043529 
1.5899999999998413, -0.7837760295551127 
1.5999999999998402, -0.7828271299013339 
1.6099999999998391, -0.7819948725664987 
1.619999999999838, -0.7817289625378536 
1.629999999999837, -0.7828883309845378 
1.6399999999998358, -0.7868462260720217 
1.6499999999998347, -0.7953113979543877 
1.6599999999998336, -0.8095756205839149 
1.6699999999998325, -0.8292765926558312 
1.6799999999998314, -0.851705403690028 
1.6899999999998303, -0.872907506266071 
1.6999999999998292, -0.8899201166308905 
1.709999999999828, -0.901924891055863 
1.719999999999827, -0.9096680181671575 
1.729999999999826, -0.9143780264771889 
1.7399999999998248, -0.9171243252747102 
1.7499999999998237, -0.9186485279874965 
1.7599999999998226, -0.9194085680756926 
1.7699999999998215, -0.9196644025105736 
1.7799999999998204, -0.9195447605700153 
1.7899999999998193, -0.9190849926465576 
1.7999999999998182, -0.9182394025996284 
1.809999999999817, -0.9168714642984591 
1.819999999999816, -0.9147236031817236 
1.8299999999998149, -0.9113718285178771 
1.8399999999998138, -0.9061891277758436 
1.8499999999998127, -0.8983873192651034 
1.8599999999998116, -0.8872696699635126 
1.8699999999998105, -0.8728048944912187 
1.8799999999998094, -0.8563186528617907 
1.8899999999998083, -0.8405423865274173 
1.8999999999998072, -0.828373909670637 
1.909999999999806, -0.8211794650688743 
1.919999999999805, -0.818341343255234 
1.9299999999998039, -0.8182319997268845 
1.9399999999998028, -0.8193304848959654 
1.9499999999998017, -0.8206845038825132 
1.9599999999998006, -0.821854261995747 
1.9699999999997995, -0.8227032307694749 
1.9799999999997984, -0.8232281187297064 
1.9899999999997973, -0.8234625346542934 
1.9999999999997962, -0.8234316102673065 
2.0099999999998173, -0.8231310557135048 
2.0199999999998384, -0.8225135746828048 
2.0299999999998595, -0.8214743130888793 
2.0399999999998806, -0.8198348162851052 
2.0499999999999017, -0.8173361101065669 
2.059999999999923, -0.813667744313158 
2.069999999999944, -0.8085668036654556 
2.079999999999965, -0.8019817628375888 
2.089999999999986, -0.7942035562256087 
2.100000000000007, -0.7858308915798953 
2.1100000000000283, -0.777567713576638 
2.1200000000000494, -0.7700054808449827 
2.1300000000000705, -0.7635176760649769 
2.1400000000000916, -0.7582647256953152 
2.1500000000001127, -0.754245550102672 
2.160000000000134, -0.751350740544182 
2.170000000000155, -0.7494054189863444 
2.180000000000176, -0.7482045293573447 
2.190000000000197, -0.7475428143799874 
2.2000000000002182, -0.7472375269852758 
2.2100000000002393, -0.7471409394723435 
2.2200000000002604, -0.7471423931164951 
2.2300000000002815, -0.7471629304457115 
2.2400000000003026, -0.747147042151995 
2.2500000000003237, -0.7470555711308818 
2.260000000000345, -0.7468622653152786 
2.270000000000366, -0.7465543218464437 
2.280000000000387, -0.7461346033062353 
2.290000000000408, -0.7456212302528181 
2.3000000000004293, -0.7450414514746587 
2.3100000000004504, -0.7444214613721629 
2.3200000000004715, -0.7437779579470585 
2.3300000000004926, -0.7431163263707741 
2.3400000000005137, -0.7424355152635075 
2.3500000000005348, -0.7417357153443933 
2.360000000000556, -0.7410247446895892 
2.370000000000577, -0.7403215694362721 
2.380000000000598, -0.7396576938151267 
2.390000000000619, -0.739077504919775 
2.4000000000006403, -0.7386376267967838 
2.4100000000006614, -0.7384044310857949 
2.4200000000006825, -0.7384490172846905 
2.4300000000007036, -0.7388401682179515 
2.4400000000007247, -0.7396371311421411 
2.450000000000746, -0.7408844309020258 
2.460000000000767, -0.7426097273604806 
2.470000000000788, -0.7448234559767039 
2.480000000000809, -0.7475167603388193 
2.49000000000083, -0.7506532805175913 
2.5000000000008513, -0.7541522697653831 
2.5100000000008724, -0.7578674386345187 
2.5200000000008935, -0.7615779372415961 
2.5300000000009146, -0.7650153688039985 
2.5400000000009357, -0.7679337324067768 
2.550000000000957, -0.770187146549796 
2.560000000000978, -0.7717604410778127 
2.570000000000999, -0.7727367636708606 
2.58000000000102, -0.7732376974435373 
2.5900000000010412, -0.773376285764929 
2.6000000000010624, -0.773235845715851 
2.6100000000010835, -0.7728676286444911 
2.6200000000011046, -0.7722981439903296 
2.6300000000011257, -0.7715428636353323 
2.6400000000011468, -0.7706301035256458 
2.650000000001168, -0.7696457012932303 
2.660000000001189, -0.7688144494495949 
2.67000000000121, -0.7686306481411556 
2.680000000001231, -0.7700173123263404 
2.6900000000012523, -0.7744012467212141 
2.7000000000012734, -0.783447620378247 
2.7100000000012945, -0.7981867975589922 
2.7200000000013156, -0.817794918742989 
2.7300000000013367, -0.8392483741512052 
2.740000000001358, -0.8588067767330816 
2.750000000001379, -0.8740878370245444 
2.7600000000014, -0.8847171451475158 
2.770000000001421, -0.8915490880312594 
2.780000000001442, -0.8957193898418069 
2.7900000000014633, -0.8981658005875733 
2.8000000000014844, -0.899528439551647 
2.8100000000015055, -0.9002015183513024 
2.8200000000015266, -0.9004079259815576 
2.8300000000015477, -0.9002543190686765 
2.840000000001569, -0.8997603407708029 
2.85000000000159, -0.8988639971782512 
2.860000000001611, -0.8974037497498598 
2.870000000001632, -0.8950748351102827 
2.8800000000016532, -0.8913590745691312 
2.8900000000016743, -0.885446822625453 
2.9000000000016954, -0.8762313456845326 
2.9100000000017165, -0.8625698841293252 
2.9200000000017377, -0.8440402819663945 
2.9300000000017588, -0.8219834967716819 
2.94000000000178, -0.7997089542573779 
2.950000000001801, -0.780943130869191 
2.960000000001822, -0.7677538796060472 
2.970000000001843, -0.759986592858521 
2.9800000000018643, -0.7562113430243763 
2.9900000000018854, -0.7548371874395915 
3.0000000000019065, -0.75466679101586 
3.0100000000019276, -0.7549727657662949 
3.0200000000019487, -0.7553766674707547 
3.03000000000197, -0.7557066290514447 
3.040000000001991, -0.7558935891299979 
3.050000000002012, -0.7559089240012611 
3.060000000002033, -0.7557301614790117 
3.070000000002054, -0.7553223703435404 
3.0800000000020753, -0.7546283726021412 
3.0900000000020964, -0.753567168280362 
3.1000000000021175, -0.7520455176304481 
3.1100000000021386, -0.7499886173476243 
3.1200000000021597, -0.7473851641356821 
3.130000000002181, -0.7443213495271571 
3.140000000002202, -0.7409720434158592 
3.150000000002223, -0.7375477664111959 
3.160000000002244, -0.7342343271960602 
3.1700000000022652, -0.7311610689650765 
3.1800000000022863, -0.7284020903271036 
3.1900000000023074, -0.7259934518760778 
3.2000000000023285, -0.7239501539211718 
3.2100000000023496, -0.722276019405838 
3.2200000000023707, -0.7209666278633606 
3.230000000002392, -0.7200082800880605 
3.240000000002413, -0.7193762491571845 
3.250000000002434, -0.7190346709872222 
3.260000000002455, -0.7189390167286902 
3.2700000000024763, -0.7190406649464091 
3.2800000000024974, -0.7192922006199822 
3.2900000000025185, -0.7196520322213651 
3.3000000000025396, -0.7200875135300188 
3.3100000000025607, -0.7205763260827414 
3.3200000000025818, -0.7211058715757543 
3.330000000002603, -0.7216699873850649 
3.340000000002624, -0.7222624105411037 
3.350000000002645, -0.7228680929543201 
3.360000000002666, -0.723456308051893 
3.3700000000026873, -0.7239809877685801 
3.3800000000027084, -0.7243908479815537 
3.3900000000027295, -0.7246448845867042 
3.4000000000027506, -0.7247238853354299 
3.4100000000027717, -0.7246318714498956 
3.420000000002793, -0.7243897631264811 
3.430000000002814, -0.7240283428111742 
3.440000000002835, -0.7235862019941465 
3.450000000002856, -0.7231150035212497 
3.460000000002877, -0.7226924672566819 
3.4700000000028983, -0.7224427593243481 
3.4800000000029194, -0.7225626412763984 
3.4900000000029405, -0.7233484830478516 
3.5000000000029616, -0.7252140000793144 
3.5100000000029827, -0.7286824878357323 
3.520000000003004, -0.734331711312635 
3.530000000003025, -0.7426659062722801 
3.540000000003046, -0.753896095703096 
3.550000000003067, -0.7676567855309836 
3.5600000000030882, -0.7828096458143757 
3.5700000000031094, -0.7976082885942042 
3.5800000000031305, -0.8103404580129915 
3.5900000000031516, -0.82004914641869 
3.6000000000031727, -0.8267342880689954 
3.6100000000031938, -0.8309908037936762 
3.620000000003215, -0.8335401371927272 
3.630000000003236, -0.8349707599529896 
3.640000000003257, -0.8356808265220141 
3.650000000003278, -0.8359096563665978 
3.6600000000032993, -0.8357829395528322 
3.6700000000033204, -0.8353448729048555 
3.6800000000033415, -0.8345730602349921 
3.6900000000033626, -0.8333781159863098 
3.7000000000033837, -0.8315907547411194 
3.710000000003405, -0.8289410542213467 
3.720000000003426, -0.8250415679597591 
3.730000000003447, -0.8194003013450496 
3.740000000003468, -0.8115080002564756 
3.750000000003489, -0.8010552883556897 
3.7600000000035103, -0.7883133918517469 
3.7700000000035314, -0.774549088165763 
3.7800000000035525, -0.7619405744249795 
3.7900000000035736, -0.7525291527906343 
3.8000000000035947, -0.7470241115759018 
3.810000000003616, -0.7447383350258223 
3.820000000003637, -0.7444309495125067 
3.830000000003658, -0.7450341474222972 
3.840000000003679, -0.7458864660392254 
3.8500000000037002, -0.7466651230356216 
3.8600000000037213, -0.7472486667785451 
3.8700000000037424, -0.7476098284053699 
3.8800000000037635, -0.7477524437644323 
3.8900000000037847, -0.7476788406985272 
3.9000000000038058, -0.7473730450287668 
3.910000000003827, -0.7467908032359005 
3.920000000003848, -0.7458536069304804 
3.930000000003869, -0.7444503435189175 
3.94000000000389, -0.7424563094180348 
3.9500000000039113, -0.7397788345242646 
3.9600000000039324, -0.7364205962783028 
3.9700000000039535, -0.732520724452892 
3.9800000000039746, -0.7283306127593676 
3.9900000000039957, -0.7241325506994865 
4.000000000004016, -0.7201595868108451 
4.010000000003993, -0.7165613605283907 
4.02000000000397, -0.713412885969838 
4.030000000003946, -0.7107398497081074 
4.040000000003923, -0.7085405212664135 
4.0500000000039, -0.7067979910240538 
4.0600000000038765, -0.7054845474056346 
4.070000000003853, -0.7045623479929258 
4.08000000000383, -0.7039839446030223 
4.090000000003807, -0.7036945685624619 
4.100000000003783, -0.7036363249904118 
4.11000000000376, -0.7037532247463572 
4.120000000003737, -0.7039956833866504 
4.130000000003713, -0.7043236289220788 
4.14000000000369, -0.7047080946004916 
4.150000000003667, -0.7051314473944243 
4.1600000000036434, -0.7055859559086568 
4.17000000000362, -0.7060697597578036 
4.180000000003597, -0.7065796412241949 
4.1900000000035735, -0.7071020983552359 
4.20000000000355, -0.7076070987957942 
4.210000000003527, -0.7080497498448619 
4.220000000003504, -0.7083813998599287 
4.23000000000348, -0.7085647452025807 
4.240000000003457, -0.708583851526528 
4.250000000003434, -0.7084443836837491 
4.26000000000341, -0.7081672860770285 
4.270000000003387, -0.7077827414057306 
4.280000000003364, -0.7073293771919686 
4.2900000000033405, -0.7068606757489826 
4.300000000003317, -0.706459073663792 
4.310000000003294, -0.7062577619623843 
4.320000000003271, -0.7064690041680265 
4.330000000003247, -0.707414556570952 
4.340000000003224, -0.7095480304166906 
4.350000000003201, -0.7134509678253733 
4.360000000003177, -0.7197743493859907 
4.370000000003154, -0.7290877888424132 
4.380000000003131, -0.7416063110856184 
4.390000000003107, -0.7568372447877507 
4.400000000003084, -0.7733690208907844 
4.410000000003061, -0.7891601642398458 
4.4200000000030375, -0.8023806111691772 
4.430000000003014, -0.8121875372071043 
4.440000000002991, -0.8187845144205129 
4.450000000002968, -0.8229141453673954 
4.460000000002944, -0.8253597366087237 
4.470000000002921, -0.8267202594568591 
4.480000000002898, -0.827386057917359 
4.490000000002874, -0.8275856747521239 
4.500000000002851, -0.8274350096269236 
4.510000000002828, -0.8269686047596935 
4.520000000002804, -0.8261514686620682 
4.530000000002781, -0.8248730868931311 
4.540000000002758, -0.8229240231398001 
4.5500000000027345, -0.8199553197736853 
4.560000000002711, -0.8154270385153856 
4.570000000002688, -0.8085746126369401 
4.580000000002665, -0.7984762725509164 
4.590000000002641, -0.7843882671680305 
4.600000000002618, -0.7664830060462713 
4.610000000002595, -0.7466135859911841 
4.620000000002571, -0.7279877099860997 
4.630000000002548, -0.713417633668787 
4.640000000002525, -0.7038528951135555 
4.6500000000025015, -0.6985507073436191 
4.660000000002478, -0.6961243086037128 
4.670000000002455, -0.6953267422066916 
4.6800000000024315, -0.6953093199229087 
4.690000000002408, -0.6955826156397034 
4.700000000002385, -0.6958967978468481 
4.710000000002362, -0.6961366938979625 
4.720000000002338, -0.6962521923525345 
4.730000000002315, -0.696217634986712 
4.740000000002292, -0.6960095939306745 
4.750000000002268, -0.6955955315185433 
4.760000000002245, -0.6949303745657072 
4.770000000002222, -0.6939620332108907 
4.7800000000021985, -0.6926482482086666 
4.790000000002175, -0.6909823525882041 
4.800000000002152, -0.6890146161231684 
4.810000000002129, -0.6868503689590033 
4.820000000002105, -0.6846202059204357 
4.830000000002082, -0.682441204000471 
4.840000000002059, -0.68039328843803 
4.850000000002035, -0.678518107683347 
4.860000000002012, -0.6768316120216166 
4.870000000001989, -0.6753387321004337 
4.880000000001965, -0.6740437128284625 
4.890000000001942, -0.6729548481644506 
4.900000000001919, -0.6720848827835982 
4.9100000000018955, -0.6714488688454383 
4.920000000001872, -0.671061037772039 
