t, s[1].omega / s[0].omega 
0, -0.5299977496715751 
0.009999999999999995, -0.5297963730486186 
0.019999999999999934, -0.529632507763961 
0.029999999999999874, -0.5294820227854496 
0.04000000000000012, -0.529315148887941 
0.050000000000000405, -0.5291063059977831 
0.06000000000000069, -0.5288401306468985 
0.07000000000000098, -0.5285123880228553 
0.08000000000000126, -0.5281277918717281 
0.09000000000000155, -0.5276978427641466 
0.10000000000000184, -0.5272409916213043 
0.11000000000000212, -0.5267864570944134 
0.12000000000000241, -0.5263828383534694 
0.130000000000002, -0.526113162371272 
0.1400000000000009, -0.5261184182804484 
0.1499999999999998, -0.5266302118190038 
0.1599999999999987, -0.5280056370477259 
0.1699999999999976, -0.5307351058170191 
0.1799999999999965, -0.5353490248566164 
0.1899999999999954, -0.5421143620031027 
0.1999999999999943, -0.5505423692951339 
0.2099999999999932, -0.5591779859270829 
0.2199999999999921, -0.566323013789493 
0.229999999999991, -0.5712121646831526 
0.2399999999999899, -0.5742248956368579 
0.2499999999999888, -0.5761200199693228 
0.2599999999999877, -0.5774379839802712 
0.2699999999999866, -0.5784305392577497 
0.2799999999999855, -0.5791914695199541 
0.2899999999999844, -0.5797580757325071 
0.2999999999999833, -0.5801530208964144 
0.3099999999999822, -0.5803944540919023 
0.3199999999999811, -0.5804955445909831 
0.32999999999998, -0.5804620819399365 
0.3399999999999789, -0.5802906873908568 
0.3499999999999778, -0.5799685065913287 
0.35999999999997667, -0.5794754823792241 
0.36999999999997557, -0.5787908079990817 
0.37999999999997447, -0.5779042968831982 
0.38999999999997337, -0.5768297382180744 
0.39999999999997227, -0.5756123106926478 
0.40999999999997117, -0.5743220181796099 
0.41999999999997006, -0.5730341093172787 
0.42999999999996896, -0.5718079937295576 
0.43999999999996786, -0.5706764074113672 
0.44999999999996676, -0.5696474379035761 
0.45999999999996566, -0.5687141667567045 
0.46999999999996456, -0.5678653536562746 
0.47999999999996346, -0.5670933235630653 
0.48999999999996235, -0.5663983876532841 
0.49999999999996125, -0.5657909761351624 
0.5099999999999602, -0.5652930277333837 
0.519999999999959, -0.5649397103176396 
0.529999999999958, -0.5647819497761815 
0.5399999999999568, -0.5648898664294313 
0.5499999999999557, -0.5653570458141546 
0.5599999999999546, -0.5663053780406736 
0.5699999999999535, -0.5678895857625113 
0.5799999999999524, -0.5702988551825371 
0.5899999999999513, -0.5737492238890203 
0.5999999999999502, -0.5784539789486616 
0.6099999999999491, -0.584553097006695 
0.619999999999948, -0.5919900046072959 
0.6299999999999469, -0.6003710867470697 
0.6399999999999458, -0.6089312024082217 
0.6499999999999447, -0.616743587932186 
0.6599999999999436, -0.6231049545414467 
0.6699999999999425, -0.6277857499274069 
0.6799999999999414, -0.6309638043563865 
0.6899999999999403, -0.632991051061105 
0.6999999999999392, -0.6342090065078996 
0.7099999999999381, -0.6348747846945585 
0.719999999999937, -0.6351562369567786 
0.7299999999999359, -0.6351494099788566 
0.7399999999999348, -0.6348951293686682 
0.7499999999999337, -0.634387508026523 
0.7599999999999326, -0.6335732790662845 
0.7699999999999315, -0.6323428347285398 
0.7799999999999304, -0.6305168576771298 
0.7899999999999293, -0.6278412046994336 
0.7999999999999282, -0.6240192758898646 
0.8099999999999271, -0.6188207940546047 
0.819999999999926, -0.6122628519985238 
0.8299999999999249, -0.6047438415536346 
0.8399999999999238, -0.5969626562522281 
0.8499999999999227, -0.5896387296064023 
0.8599999999999216, -0.5832603147591442 
0.8699999999999205, -0.5780201086087479 
0.8799999999999194, -0.5738934592976473 
0.8899999999999183, -0.5707462525354079 
0.8999999999999172, -0.5684117827419335 
0.9099999999999161, -0.5667301646012144 
0.919999999999915, -0.5655632488435207 
0.9299999999999139, -0.5647975061742342 
0.9399999999999128, -0.5643422776171374 
0.9499999999999117, -0.5641268306832312 
0.9599999999999106, -0.5640975161908199 
0.9699999999999095, -0.5642154063448267 
0.9799999999999084, -0.5644544945784342 
0.9899999999999073, -0.5648004198848382 
0.9999999999999062, -0.5652494592301173 
1.0099999999999052, -0.5658070684198147 
1.019999999999904, -0.5664846501648964 
1.029999999999903, -0.5672929815140507 
1.039999999999902, -0.5682316435430262 
1.0499999999999008, -0.5692765005077379 
1.0599999999998997, -0.5703712941260852 
1.0699999999998986, -0.5714316848906835 
1.0799999999998975, -0.5723652979611205 
1.0899999999998964, -0.5730991141779348 
1.0999999999998953, -0.5735974283411042 
1.1099999999998942, -0.5738608631291708 
1.119999999999893, -0.5739117810206528 
1.129999999999892, -0.5737776549497345 
1.1399999999998909, -0.5734794219954447 
1.1499999999998898, -0.5730253902343184 
1.1599999999998887, -0.5724082449257522 
1.1699999999998876, -0.5716024323852194 
1.1799999999998865, -0.5705594111692815 
1.1899999999998854, -0.5691972866111115 
1.1999999999998843, -0.5673779710948109 
1.2099999999998832, -0.564859485643025 
1.219999999999882, -0.5612133139891063 
1.229999999999881, -0.555747092459797 
1.2399999999998799, -0.5476256744480437 
1.2499999999998788, -0.5364747335519475 
1.2599999999998777, -0.5232018835404638 
1.2699999999998766, -0.5099028851427219 
1.2799999999998755, -0.4985742082711158 
1.2899999999998744, -0.49008861882207155 
1.2999999999998733, -0.48428493280328144 
1.3099999999998722, -0.4805517030673804 
1.319999999999871, -0.4782522377506752 
1.32999999999987, -0.4768864088021633 
1.3399999999998689, -0.4761066133139419 
1.3499999999998678, -0.47568563887232695 
1.3599999999998666, -0.47547977796876906 
1.3699999999998655, -0.47539988505501596 
1.3799999999998644, -0.4753915425813048 
1.3899999999998633, -0.47542250555692844 
1.3999999999998622, -0.47547544437186195 
1.4099999999998611, -0.4755444311906151 
1.41999999999986, -0.4756337913906282 
1.429999999999859, -0.47575765622933386 
1.4399999999998578, -0.4759381092079503 
1.4499999999998567, -0.47619998522257834 
1.4599999999998556, -0.47656179574814034 
1.4699999999998545, -0.4770246903327136 
1.4799999999998534, -0.47756389771082175 
1.4899999999998523, -0.4781283615822739 
1.4999999999998512, -0.4786519616894844 
1.5099999999998501, -0.47907260090441744 
1.519999999999849, -0.4793486366309743 
1.529999999999848, -0.47946377611260715 
1.5399999999998468, -0.47942057863081783 
1.5499999999998457, -0.4792292201476969 
1.5599999999998446, -0.4788973963596299 
1.5699999999998435, -0.47842305334848384 
1.5799999999998424, -0.477788463477943 
1.5899999999998413, -0.476952648676712 
1.5999999999998402, -0.4758378455917091 
1.6099999999998391, -0.47430322286518195 
1.619999999999838, -0.47209579939083673 
1.629999999999837, -0.46877220392180624 
1.6399999999998358, -0.4636245950107827 
1.6499999999998347, -0.45576571737580895 
1.6599999999998336, -0.44464137377920404 
1.6699999999998325, -0.4308677085853659 
1.6799999999998314, -0.4163996169224333 
1.6899999999998303, -0.4034122843471909 
1.6999999999998292, -0.3930994458160668 
1.709999999999828, -0.38554546995455347 
1.719999999999827, -0.38026107145915033 
1.729999999999826, -0.3766492274444984 
1.7399999999998248, -0.37420898675362324 
1.7499999999998237, -0.37257559503088683 
1.7599999999998226, -0.3715003090891811 
1.7699999999998215, -0.37081938374815837 
1.7799999999998204, -0.370428186670689 
1.7899999999998193, -0.3702631124497529 
1.7999999999998182, -0.37029015435568247 
1.809999999999817, -0.3704984814659051 
1.819999999999816, -0.3708976845483093 
1.8299999999998149, -0.3715176225069371 
1.8399999999998138, -0.37240966638477146 
1.8499999999998127, -0.37364732887824215 
1.8599999999998116, -0.37532247106018524 
1.8699999999998105, -0.37753041380357233 
1.8799999999998094, -0.38033502577304107 
1.8899999999998083, -0.3837100790651166 
1.8999999999998072, -0.38747746673174804 
1.909999999999806, -0.3913003231966995 
1.919999999999805, -0.3947826391577541 
1.9299999999998039, -0.39762957513060393 
1.9399999999998028, -0.39974071615205803 
1.9499999999998017, -0.40117900142482155 
1.9599999999998006, -0.4020795942173983 
1.9699999999997995, -0.4025771637964503 
1.9799999999997984, -0.4027735319212419 
1.9899999999997973, -0.40273165331079064 
1.9999999999997962, -0.40247918019997275 
2.0099999999998173, -0.4020129273700582 
2.0199999999998384, -0.40130231438253866 
2.0299999999998595, -0.40029434734713504 
2.0399999999998806, -0.398926205538913 
2.0499999999999017, -0.39715230588630157 
2.059999999999923, -0.39498448643590894 
2.069999999999944, -0.39252398465221583 
2.079999999999965, -0.38995167310494633 
2.089999999999986, -0.38746922042180726 
2.100000000000007, -0.38523063134500896 
2.1100000000000283, -0.38330969697620254 
2.1200000000000494, -0.3817097678119057 
2.1300000000000705, -0.38039267925351916 
2.1400000000000916, -0.37930567149906846 
2.1500000000001127, -0.3783986633681092 
2.160000000000134, -0.37763274217315035 
2.170000000000155, -0.37698316371106283 
2.180000000000176, -0.37643998944345036 
2.190000000000197, -0.37600873565334775 
2.2000000000002182, -0.37571275921312075 
2.2100000000002393, -0.3755988256533781 
2.2200000000002604, -0.37574749124790247 
2.2300000000002815, -0.37629046096858093 
2.2400000000003026, -0.3774373706546326 
2.2500000000003237, -0.3795124896380297 
2.260000000000345, -0.38299176871813756 
2.270000000000366, -0.38849893632569665 
2.280000000000387, -0.39665101573026396 
2.290000000000408, -0.40758788146085695 
2.3000000000004293, -0.42024955370265865 
2.3100000000004504, -0.4322354338169031 
2.3200000000004715, -0.4411941164387206 
2.3300000000004926, -0.44652128421940407 
2.3400000000005137, -0.44920378209977196 
2.3500000000005348, -0.4504948554098346 
2.360000000000556, -0.4511883712716525 
2.370000000000577, -0.45163923395047034 
2.380000000000598, -0.4519727760414785 
2.390000000000619, -0.45222536141675534 
2.4000000000006403, -0.452405734623449 
2.4100000000006614, -0.452515624915139 
2.4200000000006825, -0.4525548437883263 
2.4300000000007036, -0.45252186924154414 
2.4400000000007247, -0.45241402607816833 
2.450000000000746, -0.45222883877922665 
2.460000000000767, -0.4519671635822141 
2.470000000000788, -0.45163772259465207 
2.480000000000809, -0.451261104287514 
2.49000000000083, -0.4508699948603036 
2.5000000000008513, -0.4505032734546254 
2.5100000000008724, -0.4501951746437111 
2.5200000000008935, -0.44996425794920974 
2.5300000000009146, -0.4498072954132515 
2.5400000000009357, -0.4497006791724211 
2.550000000000957, -0.4496086470269514 
2.560000000000978, -0.44949461188599094 
2.570000000000999, -0.44933041094767107 
2.58000000000102, -0.4490999566434607 
2.5900000000010412, -0.44879754872268995 
2.6000000000010624, -0.4484237118131979 
2.6100000000010835, -0.44798135101430636 
2.6200000000011046, -0.44747354547820956 
2.6300000000011257, -0.44690300750507495 
2.6400000000011468, -0.44627239287672166 
2.650000000001168, -0.4455833263652546 
2.660000000001189, -0.4448281938658841 
2.67000000000121, -0.44395905284368825 
2.680000000001231, -0.4428006093764723 
2.6900000000012523, -0.4408695933133601 
2.7000000000012734, -0.43716790296968233 
2.7100000000012945, -0.4303550024327623 
2.7200000000013156, -0.41982097659742657 
2.7300000000013367, -0.40688794874049383 
2.740000000001358, -0.3941993532931509 
2.750000000001379, -0.38378203884625794 
2.7600000000014, -0.3761978986819332 
2.770000000001421, -0.3710548385347885 
2.780000000001442, -0.3676972935251417 
2.7900000000014633, -0.36554901769737663 
2.8000000000014844, -0.3641939400691282 
2.8100000000015055, -0.36335597957266264 
2.8200000000015266, -0.3628592891406589 
2.8300000000015477, -0.3625948365878827 
2.840000000001569, -0.3624974409507014 
2.85000000000159, -0.3625314507395054 
2.860000000001611, -0.36268257897719736 
2.870000000001632, -0.3629539402571741 
2.8800000000016532, -0.3633647854184515 
2.8900000000016743, -0.363950442232038 
2.9000000000016954, -0.36476148355120197 
2.9100000000017165, -0.36585922568897916 
2.9200000000017377, -0.36730357592821217 
2.9300000000017588, -0.3691291797474497 
2.94000000000178, -0.37131036359515757 
2.950000000001801, -0.37372914004123814 
2.960000000001822, -0.37617730163119734 
2.970000000001843, -0.37841499021988995 
2.9800000000018643, -0.3802584922465792 
2.9900000000018854, -0.3816330286960935 
3.0000000000019065, -0.38256053962462744 
3.0100000000019276, -0.38311154348643833 
3.0200000000019487, -0.38336167081539785 
3.03000000000197, -0.38336815215423753 
3.040000000001991, -0.38316146927513073 
3.050000000002012, -0.38274339147442127 
3.060000000002033, -0.3820860519243574 
3.070000000002054, -0.3811312568121803 
3.0800000000020753, -0.37979405851074993 
3.0900000000020964, -0.37797995421340064 
3.1000000000021175, -0.3756262712468385 
3.1100000000021386, -0.372763143107087 
3.1200000000021597, -0.3695550267919563 
3.130000000002181, -0.366270105483118 
3.140000000002202, -0.36318072676308166 
3.150000000002223, -0.36046961285615464 
3.160000000002244, -0.358202616799768 
3.1700000000022652, -0.3563582977346088 
3.1800000000022863, -0.3548725836945599 
3.1900000000023074, -0.35367241306696195 
3.2000000000023285, -0.3526938244439178 
3.2100000000023496, -0.35188908952654685 
3.2200000000023707, -0.3512282230918856 
3.230000000002392, -0.35069867146191924 
3.240000000002413, -0.35030559431533115 
3.250000000002434, -0.3500743614452034 
3.260000000002455, -0.35005668524860856 
3.2700000000024763, -0.3503421276944683 
3.2800000000024974, -0.3510773371563665 
3.2900000000025185, -0.3524955109450941 
3.3000000000025396, -0.3549556161339938 
3.3100000000025607, -0.35897716636546484 
3.3200000000025818, -0.36521512583286464 
3.330000000002603, -0.37423832334182244 
3.340000000002624, -0.3859432784330924 
3.350000000002645, -0.3988168106753876 
3.360000000002666, -0.41014987941757547 
3.3700000000026873, -0.4178659455041517 
3.3800000000027084, -0.42196011800995353 
3.3900000000027295, -0.4237513035849331 
3.4000000000027506, -0.42448370675585545 
3.4100000000027717, -0.4248348837050517 
3.420000000002793, -0.4250681829476962 
3.430000000002814, -0.425257671945376 
3.440000000002835, -0.4254131948177057 
3.450000000002856, -0.42552922777407476 
3.460000000002877, -0.42559930990287426 
3.4700000000028983, -0.4256185829807963 
3.4800000000029194, -0.4255834578642014 
3.4900000000029405, -0.4254915830211405 
3.5000000000029616, -0.4253432011389263 
3.5100000000029827, -0.4251440369369316 
3.520000000003004, -0.4249088121181974 
3.530000000003025, -0.4246631979486953 
3.540000000003046, -0.424441536694245 
3.550000000003067, -0.4242792628820207 
3.5600000000030882, -0.4242020941302925 
3.5700000000031094, -0.4242163033302333 
3.5800000000031305, -0.42430432308482835 
3.5900000000031516, -0.4244282079792351 
3.6000000000031727, -0.42454042307052636 
3.6100000000031938, -0.4245973683004614 
3.620000000003215, -0.42456898466257853 
3.630000000003236, -0.4244405860766397 
3.640000000003257, -0.4242082730599611 
3.650000000003278, -0.4238719334387187 
3.6600000000032993, -0.42342874957737864 
3.6700000000033204, -0.4228676733258082 
3.6800000000033415, -0.4221633245040791 
3.6900000000033626, -0.42126604324270034 
3.7000000000033837, -0.4200821050867004 
3.710000000003405, -0.41843332772132447 
3.720000000003426, -0.41598132334137616 
3.730000000003447, -0.41211856209308106 
3.740000000003468, -0.4059236838025118 
3.750000000003489, -0.3964740489186408 
3.7600000000035103, -0.38373254447063876 
3.7700000000035314, -0.369265683740725 
3.7800000000035525, -0.35551083177343157 
3.7900000000035736, -0.3442047509672671 
3.8000000000035947, -0.33578065699596593 
3.810000000003616, -0.329841892416251 
3.820000000003637, -0.32576115381735316 
3.830000000003658, -0.3229825006115278 
3.840000000003679, -0.32109679102588473 
3.8500000000037002, -0.3198265393710607 
3.8600000000037213, -0.3189915081317933 
3.8700000000037424, -0.3184789175985824 
3.8800000000037635, -0.31822277126138526 
3.8900000000037847, -0.318191198179196 
3.9000000000038058, -0.31837993631931716 
3.910000000003827, -0.3188105530967636 
3.920000000003848, -0.319532528276513 
3.930000000003869, -0.3206284361660465 
3.94000000000389, -0.3222206412637666 
3.9500000000039113, -0.3244751182244384 
3.9600000000039324, -0.3275914919714228 
3.9700000000039535, -0.3317577526640463 
3.9800000000039746, -0.3370432543332267 
3.9900000000039957, -0.3432392545734885 
4.000000000004016, -0.3497635733853728 
4.010000000003993, -0.3558146630866072 
4.02000000000397, -0.36075146658820423 
4.030000000003946, -0.3643596512617803 
4.040000000003923, -0.36678985997512126 
4.0500000000039, -0.3683349286889275 
4.0600000000038765, -0.36926790792886627 
4.070000000003853, -0.3697868765225442 
4.08000000000383, -0.3700178975394373 
4.090000000003807, -0.3700334125734908 
4.100000000003783, -0.3698688257963648 
4.11000000000376, -0.36953434354353265 
4.120000000003737, -0.36902421914366934 
4.130000000003713, -0.36832678883706493 
4.14000000000369, -0.36743782947230585 
4.150000000003667, -0.3663760665893011 
4.1600000000036434, -0.36519361003466105 
4.17000000000362, -0.3639715273006111 
4.180000000003597, -0.3627987237269886 
4.1900000000035735, -0.3617457619606392 
4.20000000000355, -0.36084874875456036 
4.210000000003527, -0.36010860738845357 
4.220000000003504, -0.3595008355336121 
4.23000000000348, -0.3589885566647596 
4.240000000003457, -0.35853401569911447 
4.250000000003434, -0.35810611305821666 
4.26000000000341, -0.3576834519643117 
4.270000000003387, -0.3572539894653512 
4.280000000003364, -0.35681321228435114 
4.2900000000033405, -0.35636253061083034 
4.300000000003317, -0.3559087929217177 
4.310000000003294, -0.35546496180151743 
4.320000000003271, -0.35505079749434476 
4.330000000003247, -0.35468943606612047 
4.340000000003224, -0.35438765452251664 
4.350000000003201, -0.35406910404830255 
4.360000000003177, -0.3534045267211995 
4.370000000003154, -0.35151667844880363 
4.380000000003131, -0.34683297458732465 
4.390000000003107, -0.33787295081299484 
4.400000000003084, -0.32504537132427413 
4.410000000003061, -0.31108735523319747 
4.4200000000030375, -0.29889366061938427 
4.430000000003014, -0.28970038865249037 
4.440000000002991, -0.28332091343804205 
4.450000000002968, -0.2790610028947881 
4.460000000002944, -0.2762540597820049 
4.470000000002921, -0.2744101691731941 
4.480000000002898, -0.2732050270300067 
4.490000000002874, -0.2724343018748848 
4.500000000002851, -0.27197394253972096 
4.510000000002828, -0.2717533418532198 
4.520000000002804, -0.27173934783174336 
4.530000000002781, -0.2719281640593939 
4.540000000002758, -0.2723430489113573 
4.5500000000027345, -0.27303660874410846 
4.560000000002711, -0.27409683736505536 
4.570000000002688, -0.2756553540872334 
4.580000000002665, -0.2778933107359386 
4.590000000002641, -0.2810328757619193 
4.600000000002618, -0.2852888727584892 
4.610000000002595, -0.290747379369879 
4.620000000002571, -0.29717986384150635 
4.630000000002548, -0.30393472446809555 
4.640000000002525, -0.31012963882296507 
4.6500000000025015, -0.3150957689493556 
4.660000000002478, -0.3186540433805123 
4.670000000002455, -0.3210076668476478 
4.6800000000024315, -0.32248392548466437 
4.690000000002408, -0.32336899065714175 
4.700000000002385, -0.32386247698635096 
4.710000000002362, -0.32408854090519035 
4.720000000002338, -0.3241184475257031 
4.730000000002315, -0.323989063539555 
4.740000000002292, -0.32371581946966105 
4.750000000002268, -0.32330274111172363 
4.760000000002245, -0.32275234303221745 
4.770000000002222, -0.32207647330430944 
4.7800000000021985, -0.3213058506704019 
4.790000000002175, -0.32049283107135257 
4.800000000002152, -0.3197030634231387 
4.810000000002129, -0.31899860020927207 
4.820000000002105, -0.31842136952210087 
4.830000000002082, -0.31798463953481526 
4.840000000002059, -0.3176738400913025 
4.850000000002035, -0.3174540633843404 
4.860000000002012, -0.31728099942812704 
4.870000000001989, -0.3171119407351546 
