t, s[1].omega / s[0].omega 
0, -1.2599812475899008 
0.009999999999999995, -1.2578679001999378 
0.019999999999999934, -1.2552983769339512 
0.029999999999999874, -1.2523380327545104 
0.04000000000000012, -1.2491306113311516 
0.050000000000000405, -1.2459255592077378 
0.06000000000000069, -1.2430705408214946 
0.07000000000000098, -1.2409130618687747 
0.08000000000000126, -1.2396215126359464 
0.09000000000000155, -1.239078598181886 
0.10000000000000184, -1.238977698309234 
0.11000000000000212, -1.239013418971618 
0.12000000000000241, -1.2389807397561061 
0.130000000000002, -1.2387569814543873 
0.1400000000000009, -1.2382386178431557 
0.1499999999999998, -1.2372763946311136 
0.1599999999999987, -1.2356096840583661 
0.1699999999999976, -1.232792234838247 
0.1799999999999965, -1.2281276045879808 
0.1899999999999954, -1.2207023908763952 
0.1999999999999943, -1.2097052855956596 
0.2099999999999932, -1.19519617113111 
0.2199999999999921, -1.1790070306231686 
0.229999999999991, -1.164610360180874 
0.2399999999999899, -1.1551301290331082 
0.2499999999999888, -1.1511528169029335 
0.2599999999999877, -1.1508954258173538 
0.2699999999999866, -1.152142315844646 
0.2799999999999855, -1.1535236360834844 
0.2899999999999844, -1.1545307838629586 
0.2999999999999833, -1.15509253236868 
0.3099999999999822, -1.155266256292689 
0.3199999999999811, -1.1551026311090464 
0.32999999999998, -1.154598549439514 
0.3399999999999789, -1.1536751574597657 
0.3499999999999778, -1.15215558842961 
0.35999999999997667, -1.1497484578216963 
0.36999999999997557, -1.1460939903893481 
0.37999999999997447, -1.1410222053418608 
0.38999999999997337, -1.1352087902674453 
0.39999999999997227, -1.1309702806672044 
0.40999999999997117, -1.1318171736792775 
0.41999999999997006, -1.13966666057684 
0.42999999999996896, -1.1523948016321313 
0.43999999999996786, -1.165524174551291 
0.44999999999996676, -1.1758741755046942 
0.45999999999996566, -1.1827486294170588 
0.46999999999996456, -1.1868451923946155 
0.47999999999996346, -1.189101698225709 
0.48999999999996235, -1.1902305226002705 
0.49999999999996125, -1.1906719677172053 
0.5099999999999602, -1.1906680093033435 
0.519999999999959, -1.190337297519595 
0.529999999999958, -1.1897329452791632 
0.5399999999999568, -1.188902311894409 
0.5499999999999557, -1.187983170236143 
0.5599999999999546, -1.1873568426056607 
0.5699999999999535, -1.1877763757118318 
0.5799999999999524, -1.190210041291128 
0.5899999999999513, -1.1952416390440395 
0.5999999999999502, -1.202496321870305 
0.6099999999999491, -1.2107770404003932 
0.619999999999948, -1.2187541126254193 
0.6299999999999469, -1.225509667519027 
0.6399999999999458, -1.2306651523945673 
0.6499999999999447, -1.2342552681339307 
0.6599999999999436, -1.2365390332700996 
0.6699999999999425, -1.2378404096729763 
0.6799999999999414, -1.2384503436430723 
0.6899999999999403, -1.2385892676831156 
0.6999999999999392, -1.2384112625804429 
0.7099999999999381, -1.2380300049815083 
0.719999999999937, -1.237553495944848 
0.7299999999999359, -1.2371147444143484 
0.7399999999999348, -1.2368750889428528 
0.7499999999999337, -1.2369789202687227 
0.7599999999999326, -1.237483296311991 
0.7699999999999315, -1.238329434822244 
0.7799999999999304, -1.2393825671770629 
0.7899999999999293, -1.240494226425291 
0.7999999999999282, -1.2415409097297183 
0.8099999999999271, -1.2424346872746748 
0.819999999999926, -1.2431194134904016 
0.8299999999999249, -1.2435628520577884 
0.8399999999999238, -1.2437497182282347 
0.8499999999999227, -1.2436774721870174 
0.8599999999999216, -1.2433546920419476 
0.8699999999999205, -1.2428010624284973 
0.8799999999999194, -1.242048519022028 
0.8899999999999183, -1.2411437460465973 
0.8999999999999172, -1.240151123418357 
0.9099999999999161, -1.2391526391274754 
0.919999999999915, -1.2382408510756586 
0.9299999999999139, -1.237503816078864 
0.9399999999999128, -1.2370025701945808 
0.9499999999999117, -1.2367455433977002 
0.9599999999999106, -1.2366768200335296 
0.9699999999999095, -1.236694538583009 
0.9799999999999084, -1.236686436321327 
0.9899999999999073, -1.2365522978826788 
0.9999999999999062, -1.2362025035135433 
1.0099999999999052, -1.2355446592664074 
1.019999999999904, -1.2344738636005208 
1.029999999999903, -1.2328757780291222 
1.039999999999902, -1.2306443961407387 
1.0499999999999008, -1.2277098530398558 
1.0599999999998997, -1.2240695664972587 
1.0699999999998986, -1.2198215920758844 
1.0799999999998975, -1.2152030996153655 
1.0899999999998964, -1.2106196081106382 
1.0999999999998953, -1.2066070086109724 
1.1099999999998942, -1.2036556967680991 
1.119999999999893, -1.2019525267578377 
1.129999999999892, -1.2012790716534723 
1.1399999999998909, -1.2011949568439761 
1.1499999999998898, -1.2013015789127315 
1.1599999999998887, -1.2013540875906608 
1.1699999999998876, -1.2012260384619122 
1.1799999999998865, -1.2008313621930609 
1.1899999999998854, -1.2000555798678805 
1.1999999999998843, -1.1986938752298069 
1.2099999999998832, -1.196379998787664 
1.219999999999882, -1.1925061983731253 
1.229999999999881, -1.1861880562776692 
1.2399999999998799, -1.1764342591553156 
1.2499999999998788, -1.1627588745391784 
1.2599999999998777, -1.1461961983767572 
1.2699999999998766, -1.129799053102235 
1.2799999999998755, -1.1173099623498055 
1.2899999999998744, -1.1106264532673173 
1.2999999999998733, -1.108823426691019 
1.3099999999998722, -1.109616355650533 
1.319999999999871, -1.11113489054367 
1.32999999999987, -1.1124647660150935 
1.3399999999998689, -1.1133486106714767 
1.3499999999998678, -1.1137998405784726 
1.3599999999998666, -1.1138870832763215 
1.3699999999998655, -1.1136498096668102 
1.3799999999998644, -1.1130682021009943 
1.3899999999998633, -1.1120428232147084 
1.3999999999998622, -1.110366855212542 
1.4099999999998611, -1.1076960745562154 
1.41999999999986, -1.1035631924241636 
1.429999999999859, -1.0975655769598918 
1.4399999999998578, -1.0899140178029711 
1.4499999999998567, -1.0822419020147076 
1.4599999999998556, -1.077664426732493 
1.4699999999998545, -1.0788641402859194 
1.4799999999998534, -1.0855535531979474 
1.4899999999998523, -1.0946559488088337 
1.4999999999998512, -1.1030149576829211 
1.5099999999998501, -1.10918127589116 
1.519999999999849, -1.1131575945761414 
1.529999999999848, -1.1154982704237306 
1.5399999999998468, -1.116757583408242 
1.5499999999998457, -1.1173250427320993 
1.5599999999998446, -1.1174308650760059 
1.5699999999998435, -1.1171882269073479 
1.5799999999998424, -1.1166285732079895 
1.5899999999998413, -1.1157282633059473 
1.5999999999998402, -1.1144464183500074 
1.6099999999998391, -1.112818370057546 
1.619999999999838, -1.11117141986348 
1.629999999999837, -1.1104696053329461 
1.6399999999998358, -1.1124978827421108 
1.6499999999998347, -1.1192235615125135 
1.6599999999998336, -1.1311970088775247 
1.6699999999998325, -1.1464898311443776 
1.6799999999998314, -1.16173652322183 
1.6899999999998303, -1.1742675370404583 
1.6999999999998292, -1.1831609756442263 
1.709999999999828, -1.1888256614197847 
1.719999999999827, -1.192148742872479 
1.729999999999826, -1.1939499293763525 
1.7399999999998248, -1.1948089339842243 
1.7499999999998237, -1.1950835612411135 
1.7599999999998226, -1.1949785211928607 
1.7699999999998215, -1.1946114668926109 
1.7799999999998204, -1.1940721957301943 
1.7899999999998193, -1.1934869395193501 
1.7999999999998182, -1.1930869525171746 
1.809999999999817, -1.1932335213314376 
1.819999999999816, -1.1943134228808883 
1.8299999999998149, -1.1965130138346831 
1.8399999999998138, -1.1996697224488542 
1.8499999999998127, -1.203361329720985 
1.8599999999998116, -1.2071214886661534 
1.8699999999998105, -1.210587768567164 
1.8799999999998094, -1.2135365879722042 
1.8899999999998083, -1.2158619504043513 
1.8999999999998072, -1.2175463048224828 
1.909999999999806, -1.2186358067762868 
1.919999999999805, -1.2192161234695251 
1.9299999999998039, -1.2193881023631825 
1.9399999999998028, -1.219249467425718 
1.9499999999998017, -1.2188887237215857 
1.9599999999998006, -1.2183916259263046 
1.9699999999997995, -1.2178532421676178 
1.9799999999997984, -1.2173819032554598 
1.9899999999997973, -1.2170819832627005 
1.9999999999997962, -1.2170204301563037 
2.0099999999998173, -1.2172034210574592 
2.0199999999998384, -1.2175813204580972 
2.0299999999998595, -1.2180717966882253 
2.0399999999998806, -1.2185833088008566 
2.0499999999999017, -1.2190319234445004 
2.059999999999923, -1.219350284572576 
2.069999999999944, -1.219489314500109 
2.079999999999965, -1.2194158669744646 
2.089999999999986, -1.219109913007467 
2.100000000000007, -1.21856272486644 
2.1100000000000283, -1.217776140611443 
2.1200000000000494, -1.21676320984777 
2.1300000000000705, -1.215550883906063 
2.1400000000000916, -1.2141848571349734 
2.1500000000001127, -1.2127351723660216 
2.160000000000134, -1.2112992350761507 
2.170000000000155, -1.2099966833586286 
2.180000000000176, -1.2089482561038465 
2.190000000000197, -1.2082348613895155 
2.2000000000002182, -1.2078548892569716 
2.2100000000002393, -1.207718157799007 
2.2200000000002604, -1.2076879103547848 
2.2300000000002815, -1.2076316123742736 
2.2400000000003026, -1.2074406804136335 
2.2500000000003237, -1.2070183309265359 
2.260000000000345, -1.2062557292888088 
2.270000000000366, -1.2050132327087666 
2.280000000000387, -1.2031175126594182 
2.290000000000408, -1.200382828947874 
2.3000000000004293, -1.1966588237831146 
2.3100000000004504, -1.1918963181574669 
2.3200000000004715, -1.1862167073538925 
2.3300000000004926, -1.1799718198876459 
2.3400000000005137, -1.1737654991639423 
2.3500000000005348, -1.1683635127391916 
2.360000000000556, -1.1644246677130312 
2.370000000000577, -1.1621662223100921 
2.380000000000598, -1.1612732869321716 
2.390000000000619, -1.161166009465842 
2.4000000000006403, -1.1613367535533117 
2.4100000000006614, -1.161483696839591 
2.4200000000006825, -1.161464653454733 
2.4300000000007036, -1.1612045855111188 
2.4400000000007247, -1.1606213378216927 
2.450000000000746, -1.159568365953283 
2.460000000000767, -1.15777485821061 
2.470000000000788, -1.1547719168068467 
2.480000000000809, -1.149825618902919 
2.49000000000083, -1.1419737297544361 
2.5000000000008513, -1.1303693995927346 
2.5100000000008724, -1.1150887766427293 
2.5200000000008935, -1.0980102446399749 
2.5300000000009146, -1.0825863598931642 
2.5400000000009357, -1.0719143291973532 
2.550000000000957, -1.0667662590474336 
2.560000000000978, -1.0656694769937016 
2.570000000000999, -1.066527681367937 
2.58000000000102, -1.0678570617845158 
2.5900000000010412, -1.068978868097028 
2.6000000000010624, -1.0697099219125537 
2.6100000000010835, -1.0700630577358703 
2.6200000000011046, -1.0700872127451002 
2.6300000000011257, -1.0698023361207578 
2.6400000000011468, -1.0691713800192546 
2.650000000001168, -1.0680754991900832 
2.660000000001189, -1.0662762542487318 
2.67000000000121, -1.0633626263886635 
2.680000000001231, -1.0587099070517956 
2.6900000000012523, -1.0515474823589366 
2.7000000000012734, -1.041327995837378 
2.7100000000012945, -1.0285127056004013 
2.7200000000013156, -1.0152752443625546 
2.7300000000013367, -1.0049037455270273 
2.740000000001358, -0.9996757764844297 
2.750000000001379, -0.9993241600266737 
2.7600000000014, -1.0017859427367615 
2.770000000001421, -1.0049799823163628 
2.780000000001442, -1.0077395809405125 
2.7900000000014633, -1.0097154957777608 
2.8000000000014844, -1.0109624159529171 
2.8100000000015055, -1.0116438517340438 
2.8200000000015266, -1.0119032354372426 
2.8300000000015477, -1.0118266729466217 
2.840000000001569, -1.0114366537848267 
2.85000000000159, -1.0106869124651934 
2.860000000001611, -1.0094459614806088 
2.870000000001632, -1.007464893653026 
2.8800000000016532, -1.0043352762805953 
2.8900000000016743, -0.9994708299391327 
2.9000000000016954, -0.9922062050631901 
2.9100000000017165, -0.9821636900307844 
2.9200000000017377, -0.9699154947584157 
2.9300000000017588, -0.9574541892267481 
2.94000000000178, -0.9475666402637595 
2.950000000001801, -0.9421347158369286 
2.960000000001822, -0.9410017786143395 
2.970000000001843, -0.9425456837752251 
2.9800000000018643, -0.945026806406039 
2.9900000000018854, -0.9473650268145771 
3.0000000000019065, -0.9491463009248235 
3.0100000000019276, -0.950333541704711 
3.0200000000019487, -0.9510242606384939 
3.03000000000197, -0.9513264354733751 
3.040000000001991, -0.9513122193085621 
3.050000000002012, -0.9510038016917362 
3.060000000002033, -0.9503645914700114 
3.070000000002054, -0.9492820993721842 
3.0800000000020753, -0.9475348803152788 
3.0900000000020964, -0.9447413037381807 
3.1000000000021175, -0.9403045409379318 
3.1100000000021386, -0.9334133838093402 
3.1200000000021597, -0.9232323874470023 
3.130000000002181, -0.9094192696350504 
3.140000000002202, -0.8928158063650956 
3.150000000002223, -0.8756338782079542 
3.160000000002244, -0.8605709782679345 
3.1700000000022652, -0.8494434627809457 
3.1800000000022863, -0.8425444016247507 
3.1900000000023074, -0.8390319187144744 
3.2000000000023285, -0.8376977251156801 
3.2100000000023496, -0.8375078310802013 
3.2200000000023707, -0.8377816309647483 
3.230000000002392, -0.8381482037275954 
3.240000000002413, -0.8384357655996608 
3.250000000002434, -0.8385751959932832 
3.260000000002455, -0.8385371519408826 
3.2700000000024763, -0.8382958167431939 
3.2800000000024974, -0.8378077726392072 
3.2900000000025185, -0.8369983073728839 
3.3000000000025396, -0.835753813401295 
3.3100000000025607, -0.8339265263361642 
3.3200000000025818, -0.8313638014180393 
3.330000000002603, -0.8279686455348527 
3.340000000002624, -0.8237716566191444 
3.350000000002645, -0.8189647041107081 
3.360000000002666, -0.8138604065955519 
3.3700000000026873, -0.8088017043507231 
3.3800000000027084, -0.8040817262427963 
3.3900000000027295, -0.7999077735736239 
3.4000000000027506, -0.7964008618152715 
3.4100000000027717, -0.793608164700603 
3.420000000002793, -0.7915151174087189 
3.430000000002814, -0.7900561396719139 
3.440000000002835, -0.7891278709065059 
3.450000000002856, -0.7886066810179679 
3.460000000002877, -0.7883675834621482 
3.4700000000028983, -0.7882993128988453 
3.4800000000029194, -0.7883119908065929 
3.4900000000029405, -0.7883375403444013 
3.5000000000029616, -0.7883258658774656 
3.5100000000029827, -0.7882405110443204 
3.520000000003004, -0.7880564771751561 
3.530000000003025, -0.7877608262196494 
3.540000000003046, -0.7873542157753235 
3.550000000003067, -0.7868500115842234 
3.5600000000030882, -0.7862689999404703 
3.5700000000031094, -0.7856316274284711 
3.5800000000031305, -0.7849523897105322 
3.5900000000031516, -0.7842395292736624 
3.6000000000031727, -0.7834992773897963 
3.6100000000031938, -0.7827414055160589 
3.620000000003215, -0.7819834075585201 
3.630000000003236, -0.7812525834182398 
3.640000000003257, -0.7805864010814406 
3.650000000003278, -0.7800312645315082 
3.6600000000032993, -0.7796392458800528 
3.6700000000033204, -0.7794625347607405 
3.6800000000033415, -0.7795464505972464 
3.6900000000033626, -0.7799230250458734 
3.7000000000033837, -0.7806073278931216 
3.710000000003405, -0.7815975285786236 
3.720000000003426, -0.7828778193447685 
3.730000000003447, -0.7844218112110595 
3.740000000003468, -0.786193516071205 
3.750000000003489, -0.7881438321854033 
3.7600000000035103, -0.7902029201817599 
3.7700000000035314, -0.7922731827675811 
3.7800000000035525, -0.7942318600236513 
3.7900000000035736, -0.7959508306961959 
3.8000000000035947, -0.7973293014173405 
3.810000000003616, -0.7983205627349 
3.820000000003637, -0.7989351598964229 
3.830000000003658, -0.7992216743006102 
3.840000000003679, -0.7992413352260976 
3.8500000000037002, -0.7990505419219281 
3.8600000000037213, -0.7986954109469606 
3.8700000000037424, -0.7982167298601263 
3.8800000000037635, -0.7976639743923759 
3.8900000000037847, -0.7971196423726779 
3.9000000000038058, -0.7967364328747457 
3.910000000003827, -0.796786487465115 
3.920000000003848, -0.7977106643787943 
3.930000000003869, -0.8001359561307714 
3.94000000000389, -0.8048085950200292 
3.9500000000039113, -0.8123897917232241 
3.9600000000039324, -0.8231112530335771 
3.9700000000039535, -0.8364137515578591 
3.9800000000039746, -0.8508506509480229 
3.9900000000039957, -0.8645178054488216 
4.000000000004016, -0.8758579909366622 
4.010000000003993, -0.8842335240381527 
4.02000000000397, -0.8898680151132133 
4.030000000003946, -0.8933990491444884 
4.040000000003923, -0.8954841878051111 
4.0500000000039, -0.8966275001494951 
4.0600000000038765, -0.8971606006224354 
4.070000000003853, -0.8972796066569941 
4.08000000000383, -0.8970852913243155 
4.090000000003807, -0.8966105148060114 
4.100000000003783, -0.8958347497132676 
4.11000000000376, -0.8946909095701665 
4.120000000003737, -0.8930740251292899 
4.130000000003713, -0.8908698368208249 
4.14000000000369, -0.8880338600251134 
4.150000000003667, -0.8847517333721632 
4.1600000000036434, -0.8816528513435754 
4.17000000000362, -0.8798903845450893 
4.180000000003597, -0.8807769089902973 
4.1900000000035735, -0.8849595169204475 
4.20000000000355, -0.8918025647097625 
4.210000000003527, -0.8996971823636194 
4.220000000003504, -0.9070256242716497 
4.23000000000348, -0.9128678228047832 
4.240000000003457, -0.9170485256165641 
4.250000000003434, -0.9198158278702255 
4.26000000000341, -0.9215326399211324 
4.270000000003387, -0.9225163083780081 
4.280000000003364, -0.922992067844443 
4.2900000000033405, -0.9230968609384147 
4.300000000003317, -0.9228940068366818 
4.310000000003294, -0.9223816605040746 
4.320000000003271, -0.9214885243317955 
4.330000000003247, -0.9200531686268547 
4.340000000003224, -0.9177844945655325 
4.350000000003201, -0.9142078140832662 
4.360000000003177, -0.9086269028857041 
4.370000000003154, -0.9001921439126311 
4.380000000003131, -0.8882309694339525 
4.390000000003107, -0.8729031510999775 
4.400000000003084, -0.8557814671716624 
4.410000000003061, -0.8395399154781901 
4.4200000000030375, -0.8266190553078017 
4.430000000003014, -0.818035311092262 
4.440000000002991, -0.8133309983961421 
4.450000000002968, -0.811328056991907 
4.460000000002944, -0.8108530569874647 
4.470000000002921, -0.8110668781567997 
4.480000000002898, -0.8114834680310075 
4.490000000002874, -0.8118656788961796 
4.500000000002851, -0.8121155225334367 
4.510000000002828, -0.8121973432595653 
4.520000000002804, -0.812092693922944 
4.530000000002781, -0.8117751934199356 
4.540000000002758, -0.8111955029286367 
4.5500000000027345, -0.8102718815531851 
4.560000000002711, -0.8088882072765001 
4.570000000002688, -0.8069079505189066 
4.580000000002665, -0.8042142511984014 
4.590000000002641, -0.8007725372582731 
4.600000000002618, -0.7966830263846221 
4.610000000002595, -0.7921781013806453 
4.620000000002571, -0.7875568806451476 
4.630000000002548, -0.7831021043374098 
4.640000000002525, -0.7790283503556047 
4.6500000000025015, -0.7754716748553394 
4.660000000002478, -0.7725017910322085 
4.670000000002455, -0.770137302743356 
4.6800000000024315, -0.7683562374307065 
4.690000000002408, -0.7671032106449729 
4.700000000002385, -0.766297265156666 
4.710000000002362, -0.7658425542017507 
4.720000000002338, -0.7656406756877475 
4.730000000002315, -0.7656014325826718 
4.740000000002292, -0.7656493262621765 
4.750000000002268, -0.7657253099637846 
4.760000000002245, -0.7657854184649733 
4.770000000002222, -0.765798661727114 
4.7800000000021985, -0.7657458823371159 
4.790000000002175, -0.7656195798021933 
4.800000000002152, -0.7654229525697207 
4.810000000002129, -0.7651661489470122 
4.820000000002105, -0.7648598737666422 
4.830000000002082, -0.7645094699420123 
4.840000000002059, -0.7641132047183203 
4.850000000002035, -0.7636657432217314 
4.860000000002012, -0.7631642744825584 
4.870000000001989, -0.7626137293088497 
4.880000000001965, -0.7620294580775459 
4.890000000001942, -0.7614381812921435 
4.900000000001919, -0.7608787106800536 
4.9100000000018955, -0.7604028632291612 
4.920000000001872, -0.760075542208461 
4.930000000001849, -0.7599723284951772 
