t, s[1].omega / s[0].omega 
0, -0.7299976803081512 
0.009999999999999995, -0.729748516914778 
0.019999999999999934, -0.7294617920343904 
0.029999999999999874, -0.7291293513671158 
0.04000000000000012, -0.7287438809351853 
0.050000000000000405, -0.7283041474021992 
0.06000000000000069, -0.7278178103316957 
0.07000000000000098, -0.7273021429812471 
0.08000000000000126, -0.7267844168824805 
0.09000000000000155, -0.7263033017291274 
0.10000000000000184, -0.7259113316622374 
0.11000000000000212, -0.7256773152914602 
0.12000000000000241, -0.7256869875983292 
0.130000000000002, -0.7260403848901938 
0.1400000000000009, -0.7268453329150129 
0.1499999999999998, -0.7282075730480886 
0.1599999999999987, -0.7302184492830335 
0.1699999999999976, -0.7329400205150745 
0.1799999999999965, -0.7363855410128827 
0.1899999999999954, -0.7404930820380242 
0.1999999999999943, -0.7450959074704393 
0.2099999999999932, -0.7499073378974056 
0.2199999999999921, -0.7545508447578768 
0.229999999999991, -0.7586517606037955 
0.2399999999999899, -0.7619536101107323 
0.2499999999999888, -0.7643820622498092 
0.2599999999999877, -0.7660180060927803 
0.2699999999999866, -0.7670178786413075 
0.2799999999999855, -0.7675418978317733 
0.2899999999999844, -0.7677168113862569 
0.2999999999999833, -0.7676265733346969 
0.3099999999999822, -0.7673158089474691 
0.3199999999999811, -0.7667958991653313 
0.32999999999998, -0.7660497718449737 
0.3399999999999789, -0.7650355654765468 
0.3499999999999778, -0.7636920480814464 
0.35999999999997667, -0.7619509805227741 
0.36999999999997557, -0.7597624204726559 
0.37999999999997447, -0.7571336899093806 
0.38999999999997337, -0.7541663676984599 
0.39999999999997227, -0.7510597055751439 
0.40999999999997117, -0.7480743231926831 
0.41999999999997006, -0.7455094283385052 
0.42999999999996896, -0.7436944446024294 
0.43999999999996786, -0.7428735205066463 
0.44999999999996676, -0.7430234368725854 
0.45999999999996566, -0.7438465357056075 
0.46999999999996456, -0.7449566842612658 
0.47999999999996346, -0.7460523630573773 
0.48999999999996235, -0.7469692655282236 
0.49999999999996125, -0.7476503770618583 
0.5099999999999602, -0.7480967935471292 
0.519999999999959, -0.7483298984869731 
0.529999999999958, -0.7483691366724953 
0.5399999999999568, -0.7482202295878225 
0.5499999999999557, -0.7478682855704588 
0.5599999999999546, -0.7472726131014781 
0.5699999999999535, -0.746363173410489 
0.5799999999999524, -0.7450425903676858 
0.5899999999999513, -0.7432017690472505 
0.5999999999999502, -0.7407566860234777 
0.6099999999999491, -0.7377006254271883 
0.619999999999948, -0.7341424416111192 
0.6299999999999469, -0.7302952434822001 
0.6399999999999458, -0.7264145151444732 
0.6499999999999447, -0.722727113663041 
0.6599999999999436, -0.7193915802529702 
0.6699999999999425, -0.7164955941237723 
0.6799999999999414, -0.714072652678769 
0.6899999999999403, -0.7121205054953978 
0.6999999999999392, -0.7106139553098246 
0.7099999999999381, -0.7095121561227734 
0.719999999999937, -0.7087631724137308 
0.7299999999999359, -0.708308160045572 
0.7399999999999348, -0.7080860496293787 
0.7499999999999337, -0.7080383066877295 
0.7599999999999326, -0.7081128259132027 
0.7699999999999315, -0.7082663126964857 
0.7799999999999304, -0.7084651789276005 
0.7899999999999293, -0.7086854645653212 
0.7999999999999282, -0.7089122186580176 
0.8099999999999271, -0.7091381586538794 
0.819999999999926, -0.7093608198928134 
0.8299999999999249, -0.7095777050580984 
0.8399999999999238, -0.7097805574803754 
0.8499999999999227, -0.7099517631300276 
0.8599999999999216, -0.7100659188170086 
0.8699999999999205, -0.7100967221915998 
0.8799999999999194, -0.7100254466089002 
0.8899999999999183, -0.7098461482494227 
0.8999999999999172, -0.7095657608109681 
0.9099999999999161, -0.7092012461430734 
0.919999999999915, -0.7087774401804082 
0.9299999999999139, -0.708328122101449 
0.9399999999999128, -0.7079011564144236 
0.9499999999999117, -0.7075674251327598 
0.9599999999999106, -0.7074324123868184 
0.9699999999999095, -0.7076481168863913 
0.9799999999999084, -0.708421255723415 
0.9899999999999073, -0.7100117768635931 
0.9999999999999062, -0.7127138625595666 
1.0099999999999052, -0.7168100313284362 
1.019999999999904, -0.7224891272175665 
1.029999999999903, -0.7297281403226128 
1.039999999999902, -0.7381703920674787 
1.0499999999999008, -0.7470894115397702 
1.0599999999998997, -0.755546135849498 
1.0699999999998986, -0.7627226343785052 
1.0799999999998975, -0.7682132160014029 
1.0899999999998964, -0.7720593690432339 
1.0999999999998953, -0.7745668267568359 
1.1099999999998942, -0.7760982120871146 
1.119999999999893, -0.7769565913850317 
1.129999999999892, -0.7773544537567347 
1.1399999999998909, -0.7774231419615083 
1.1499999999998898, -0.7772307885594556 
1.1599999999998887, -0.7767953480867968 
1.1699999999998876, -0.7760889982695693 
1.1799999999998865, -0.7750331543070342 
1.1899999999998854, -0.7734837156401704 
1.1999999999998843, -0.7712071354061105 
1.2099999999998832, -0.7678534973908582 
1.219999999999882, -0.7629501879338324 
1.229999999999881, -0.7559754011287917 
1.2399999999998799, -0.7465998039431824 
1.2499999999998788, -0.7350958406346801 
1.2599999999998777, -0.7226139616720576 
1.2699999999998766, -0.7108651857424175 
1.2799999999998755, -0.7012946760070038 
1.2899999999998744, -0.6944835553889596 
1.2999999999998733, -0.6902007408863472 
1.3099999999998722, -0.6878166748589025 
1.319999999999871, -0.6866674897096113 
1.32999999999987, -0.6862289042492906 
1.3399999999998689, -0.6861477036614196 
1.3499999999998678, -0.6862098241964049 
1.3599999999998666, -0.6862948376282809 
1.3699999999998655, -0.686337404000768 
1.3799999999998644, -0.6863002524447085 
1.3899999999998633, -0.6861571672550111 
1.3999999999998622, -0.6858834699535484 
1.4099999999998611, -0.6854525351725718 
1.41999999999986, -0.6848381865946348 
1.429999999999859, -0.6840228709298857 
1.4399999999998578, -0.6830090168924292 
1.4499999999998567, -0.6818269297987236 
1.4599999999998556, -0.6805318613592758 
1.4699999999998545, -0.6791895603370969 
1.4799999999998534, -0.6778586779948889 
1.4899999999998523, -0.6765800872844524 
1.4999999999998512, -0.6753765270710783 
1.5099999999998501, -0.6742590439000262 
1.519999999999849, -0.6732348454719677 
1.529999999999848, -0.6723131626296972 
1.5399999999998468, -0.6715082622275783 
1.5499999999998457, -0.6708401316406547 
1.5599999999998446, -0.6703336048113256 
1.5699999999998435, -0.670016528076499 
1.5799999999998424, -0.6699174730171489 
1.5899999999998413, -0.6700635538138296 
1.5999999999998402, -0.6704789024515432 
1.6099999999998391, -0.6711841017196979 
1.619999999999838, -0.672196319279921 
1.629999999999837, -0.673529109144785 
1.6399999999998358, -0.6751900276534066 
1.6499999999998347, -0.6771737254589285 
1.6599999999998336, -0.679448923097635 
1.6699999999998325, -0.6819412086240991 
1.6799999999998314, -0.6845207106969684 
1.6899999999998303, -0.6870102138878819 
1.6999999999998292, -0.6892236552082711 
1.709999999999828, -0.6910211705605727 
1.719999999999827, -0.6923459527520665 
1.729999999999826, -0.6932202675580842 
1.7399999999998248, -0.6937118646474109 
1.7499999999998237, -0.6938978149460503 
1.7599999999998226, -0.6938418231056246 
1.7699999999998215, -0.6935853749287855 
1.7799999999998204, -0.6931467076670101 
1.7899999999998193, -0.6925225077624663 
1.7999999999998182, -0.6916900444131279 
1.809999999999817, -0.6906096966256988 
1.819999999999816, -0.6892290968038519 
1.8299999999998149, -0.687489834184223 
1.8399999999998138, -0.685334049522797 
1.8499999999998127, -0.6827005667302958 
1.8599999999998116, -0.6795002606221017 
1.8699999999998105, -0.6756042339518354 
1.8799999999998094, -0.6709596887495811 
1.8899999999998083, -0.6658605737586487 
1.8999999999998072, -0.6610365053774324 
1.909999999999806, -0.6572595811098292 
1.919999999999805, -0.654863380184618 
1.9299999999998039, -0.6536862759297225 
1.9399999999998028, -0.6533355462196699 
1.9499999999998017, -0.6534313569441264 
1.9599999999998006, -0.6537055101633539 
1.9699999999997995, -0.654001049699641 
1.9799999999997984, -0.6542382468726213 
1.9899999999997973, -0.6543808737266298 
1.9999999999997962, -0.6544122608455711 
2.0099999999998173, -0.6543205265991127 
2.0199999999998384, -0.65409024068839 
2.0299999999998595, -0.653698713390701 
2.0399999999998806, -0.6531168252603528 
2.0499999999999017, -0.652315575569615 
2.059999999999923, -0.6512787369886834 
2.069999999999944, -0.6500177925605399 
2.079999999999965, -0.6485799330975275 
2.089999999999986, -0.6470405981548599 
2.100000000000007, -0.6454825442407643 
2.1100000000000283, -0.6439741878081382 
2.1200000000000494, -0.6425589547761794 
2.1300000000000705, -0.6412573443707801 
2.1400000000000916, -0.6400758670606154 
2.1500000000001127, -0.6390164439743118 
2.160000000000134, -0.6380829554886612 
2.170000000000155, -0.6372845102706541 
2.180000000000176, -0.6366363105448675 
2.190000000000197, -0.636159100974639 
2.2000000000002182, -0.6358778976505146 
2.2100000000002393, -0.635820478458111 
2.2200000000002604, -0.6360160452101826 
2.2300000000002815, -0.636494392808009 
2.2400000000003026, -0.6372856719147485 
2.2500000000003237, -0.6384203104551484 
2.260000000000345, -0.6399278477215227 
2.270000000000366, -0.6418324352138801 
2.280000000000387, -0.6441420327198409 
2.290000000000408, -0.646829215561281 
2.3000000000004293, -0.6498064603719322 
2.3100000000004504, -0.6529091538470727 
2.3200000000004715, -0.6559087714481305 
2.3300000000004926, -0.6585687476177979 
2.3400000000005137, -0.6607194779464156 
2.3500000000005348, -0.6623023467045046 
2.360000000000556, -0.6633569237096523 
2.370000000000577, -0.6639734933068918 
2.380000000000598, -0.664247917074466 
2.390000000000619, -0.6642561290193095 
2.4000000000006403, -0.6640453749192231 
2.4100000000006614, -0.6636332170403533 
2.4200000000006825, -0.6630074056719376 
2.4300000000007036, -0.6621227315397697 
2.4400000000007247, -0.660892430235491 
2.450000000000746, -0.6591717903872858 
2.460000000000767, -0.6567316854350549 
2.470000000000788, -0.6532240470730205 
2.480000000000809, -0.6481619481384715 
2.49000000000083, -0.6409910482450374 
2.5000000000008513, -0.6313805996502516 
2.5100000000008724, -0.619715384310874 
2.5200000000008935, -0.6073256650119819 
2.5300000000009146, -0.5959482238941674 
2.5400000000009357, -0.5868157882965989 
2.550000000000957, -0.580257121782421 
2.560000000000978, -0.5759420031571374 
2.570000000000999, -0.5732979312186872 
2.58000000000102, -0.5717795310616732 
2.5900000000010412, -0.5709670854715999 
2.6000000000010624, -0.5705711908571584 
2.6100000000010835, -0.5704047821099454 
2.6200000000011046, -0.5703516016198392 
2.6300000000011257, -0.5703407578505199 
2.6400000000011468, -0.5703288147319255 
2.650000000001168, -0.5702883339685683 
2.660000000001189, -0.5702015160528686 
2.67000000000121, -0.5700578801400769 
2.680000000001231, -0.5698549224411112 
2.6900000000012523, -0.5696000024003565 
2.7000000000012734, -0.5693107402052158 
2.7100000000012945, -0.569011381220525 
2.7200000000013156, -0.5687249874842748 
2.7300000000013367, -0.5684646897170301 
2.740000000001358, -0.5682286347236896 
2.750000000001379, -0.5680013829089525 
2.7600000000014, -0.5677608226510841 
2.770000000001421, -0.5674867115683917 
2.780000000001442, -0.5671667088444217 
2.7900000000014633, -0.5667982650139336 
2.8000000000014844, -0.5663877300982875 
2.8100000000015055, -0.5659493148262043 
2.8200000000015266, -0.5655060780375323 
2.8300000000015477, -0.5650942569085738 
2.840000000001569, -0.5647719072457689 
2.85000000000159, -0.5646329694849791 
2.860000000001611, -0.564827958890895 
2.870000000001632, -0.5655914254080641 
2.8800000000016532, -0.5672719318827868 
2.8900000000016743, -0.5703482716045205 
2.9000000000016954, -0.5753908584030956 
2.9100000000017165, -0.5828962776081872 
2.9200000000017377, -0.5929409930257169 
2.9300000000017588, -0.6047845726937411 
2.94000000000178, -0.6168620385782122 
2.950000000001801, -0.6274812202789851 
2.960000000001822, -0.6356930189135677 
2.970000000001843, -0.6414881148794438 
2.9800000000018643, -0.6453667317151619 
2.9900000000018854, -0.6478945222510645 
3.0000000000019065, -0.6495135449994305 
3.0100000000019276, -0.6505238129860947 
3.0200000000019487, -0.6511170507626096 
3.03000000000197, -0.6514109014980021 
3.040000000001991, -0.6514722631553292 
3.050000000002012, -0.6513307649321449 
3.060000000002033, -0.6509851826384855 
3.070000000002054, -0.6504053832128258 
3.0800000000020753, -0.6495329408179064 
3.0900000000020964, -0.6482856831381508 
3.1000000000021175, -0.6465741648051845 
3.1100000000021386, -0.6443366384520622 
3.1200000000021597, -0.6415858978564857 
3.130000000002181, -0.6384394074343442 
3.140000000002202, -0.635100659854907 
3.150000000002223, -0.6317954669243275 
3.160000000002244, -0.6287065088999366 
3.1700000000022652, -0.6259436139178991 
3.1800000000022863, -0.623550779601461 
3.1900000000023074, -0.6215293752126767 
3.2000000000023285, -0.6198600508883435 
3.2100000000023496, -0.6185167776680478 
3.2200000000023707, -0.6174735306345083 
3.230000000002392, -0.6167063582744513 
3.240000000002413, -0.6161933595600966 
3.250000000002434, -0.6159142137784074 
3.260000000002455, -0.6158500997710322 
3.2700000000024763, -0.6159842609674092 
3.2800000000024974, -0.6163031023900483 
3.2900000000025185, -0.6167974815185236 
3.3000000000025396, -0.6174636720821491 
3.3100000000025607, -0.6183032104985734 
3.3200000000025818, -0.6193204432545334 
3.330000000002603, -0.6205163575902584 
3.340000000002624, -0.6218779676457907 
3.350000000002645, -0.6233651784772645 
3.360000000002666, -0.6249017153511045 
3.3700000000026873, -0.6263800611004727 
3.3800000000027084, -0.6276855120963509 
3.3900000000027295, -0.6287296916332987 
3.4000000000027506, -0.6294727823006536 
3.4100000000027717, -0.6299218941854148 
3.420000000002793, -0.6301120583315166 
3.430000000002814, -0.6300849168567629 
3.440000000002835, -0.6298744019376739 
3.450000000002856, -0.6295001667791941 
3.460000000002877, -0.6289657138037683 
3.4700000000028983, -0.6282583076275584 
3.4800000000029194, -0.6273490285803573 
3.4900000000029405, -0.6261920586938439 
3.5000000000029616, -0.6247215943349909 
3.5100000000029827, -0.6228415996130847 
3.520000000003004, -0.6203983171146983 
3.530000000003025, -0.6171290009928247 
3.540000000003046, -0.6126290543395662 
3.550000000003067, -0.6064915859584978 
3.5600000000030882, -0.5987488006262609 
3.5700000000031094, -0.5902653348278809 
3.5800000000031305, -0.5824163547544983 
3.5900000000031516, -0.5762434396200512 
3.6000000000031727, -0.5720168311852355 
3.6100000000031938, -0.5694384377109499 
3.620000000003215, -0.5680230469788515 
3.630000000003236, -0.5673336975172274 
3.640000000003257, -0.5670547341460919 
3.650000000003278, -0.5669832423901299 
3.6600000000032993, -0.5669974825096583 
3.6700000000033204, -0.5670270624812817 
3.6800000000033415, -0.5670312047869184 
3.6900000000033626, -0.5669847607961588 
3.7000000000033837, -0.5668702325952016 
3.710000000003405, -0.5666744448878824 
3.720000000003426, -0.5663890477132825 
3.730000000003447, -0.5660138467342939 
3.740000000003468, -0.5655607320655938 
3.750000000003489, -0.5650546299198185 
3.7600000000035103, -0.5645286161663539 
3.7700000000035314, -0.5640140760967417 
3.7800000000035525, -0.563530807027772 
3.7900000000035736, -0.5630823349472075 
3.8000000000035947, -0.5626582934492158 
3.810000000003616, -0.5622416736958522 
3.820000000003637, -0.5618168008185479 
3.830000000003658, -0.5613747283776511 
3.840000000003679, -0.5609152937018836 
3.8500000000037002, -0.5604473168422583 
3.8600000000037213, -0.5599891130148916 
3.8700000000037424, -0.5595710052852219 
3.8800000000037635, -0.5592408812948352 
3.8900000000037847, -0.5590735550894224 
3.9000000000038058, -0.559184653155864 
3.910000000003827, -0.5597494278881827 
3.920000000003848, -0.5610253339782123 
3.930000000003869, -0.5633724075841344 
3.94000000000389, -0.5672539678735978 
3.9500000000039113, -0.5731789401684774 
3.9600000000039324, -0.5815261634964882 
3.9700000000039535, -0.5922229210632362 
3.9800000000039746, -0.6044248250454871 
3.9900000000039957, -0.6165849604941778 
4.000000000004016, -0.6271265450709906 
4.010000000003993, -0.6352053429705681 
4.02000000000397, -0.6408543436770103 
4.030000000003946, -0.6445825119926971 
4.040000000003923, -0.6469613763622826 
4.0500000000039, -0.6484402998869034 
4.0600000000038765, -0.6493236384801755 
4.070000000003853, -0.6498027239515763 
4.08000000000383, -0.6499908016764879 
4.090000000003807, -0.6499473550658658 
4.100000000003783, -0.6496917570725882 
4.11000000000376, -0.6492089104819732 
4.120000000003737, -0.6484498095902996 
4.130000000003713, -0.6473311318141175 
4.14000000000369, -0.6457412776185617 
4.150000000003667, -0.6435641960917626 
4.1600000000036434, -0.6407292155703379 
4.17000000000362, -0.6372739370798487 
4.180000000003597, -0.6333763854672347 
4.1900000000035735, -0.629315846446331 
4.20000000000355, -0.6253799321477181 
4.210000000003527, -0.6217832607096133 
4.220000000003504, -0.6186404870247167 
4.23000000000348, -0.6159843285469764 
4.240000000003457, -0.6137982314555588 
4.250000000003434, -0.6120434027890413 
4.26000000000341, -0.6106748368498849 
4.270000000003387, -0.6096485978103262 
4.280000000003364, -0.6089241700431789 
4.2900000000033405, -0.6084647952331894 
4.300000000003317, -0.6082374455999568 
4.310000000003294, -0.6082131137265182 
4.320000000003271, -0.6083675186536295 
4.330000000003247, -0.6086820493259717 
4.340000000003224, -0.6091446499337455 
4.350000000003201, -0.6097502248888537 
4.360000000003177, -0.6104998574134932 
4.370000000003154, -0.6113977237142716 
4.380000000003131, -0.6124444478506023 
4.390000000003107, -0.6136266045253478 
4.400000000003084, -0.6149049282913075 
4.410000000003061, -0.6162079526309939 
4.4200000000030375, -0.6174395223880957 
4.430000000003014, -0.6185022760081309 
4.440000000002991, -0.6193259878267385 
4.450000000002968, -0.6198831425120985 
4.460000000002944, -0.6201841363218327 
4.470000000002921, -0.62025994276679 
4.480000000002898, -0.6201446676827521 
4.490000000002874, -0.6198644842725791 
4.500000000002851, -0.6194328596054292 
4.510000000002828, -0.6188495202867452 
4.520000000002804, -0.6181010320910432 
4.530000000002781, -0.6171619308748674 
4.540000000002758, -0.6159956818382069 
4.5500000000027345, -0.6145532237331978 
4.560000000002711, -0.6127619383900125 
4.570000000002688, -0.6104905661990098 
4.580000000002665, -0.6074824814803157 
4.590000000002641, -0.6033178275295743 
4.600000000002618, -0.5975936488329152 
4.610000000002595, -0.5904168145029678 
4.620000000002571, -0.5827273741172883 
4.630000000002548, -0.5758337053398643 
4.640000000002525, -0.5705921783246717 
4.6500000000025015, -0.5671218812289214 
4.660000000002478, -0.5650788124559238 
4.670000000002455, -0.5640059282359018 
4.6800000000024315, -0.563518627703967 
4.690000000002408, -0.5633494964715503 
4.700000000002385, -0.5633310425293127 
4.710000000002362, -0.56336462384426 
4.720000000002338, -0.5633937356772243 
4.730000000002315, -0.5633853626799799 
4.740000000002292, -0.5633183871846044 
4.750000000002268, -0.5631773952586716 
4.760000000002245, -0.5629507627616975 
4.770000000002222, -0.5626322951518969 
4.7800000000021985, -0.5622251829582586 
4.790000000002175, -0.5617455733324572 
4.800000000002152, -0.56122204289523 
4.810000000002129, -0.5606889115040643 
4.820000000002105, -0.560175649203303 
4.830000000002082, -0.5596979239431465 
4.840000000002059, -0.5592548944016225 
4.850000000002035, -0.5588333463858753 
4.860000000002012, -0.5584156303391292 
4.870000000001989, -0.5579872121529178 
4.880000000001965, -0.5575411374473245 
4.890000000001942, -0.5570793753398704 
4.900000000001919, -0.5566128761918743 
4.9100000000018955, -0.556162460183764 
4.920000000001872, -0.5557620437434198 
