t, s[1].omega / s[0].omega 
0, -1.6399524332511 
0.009999999999999995, -1.6341057905969396 
0.019999999999999934, -1.6260233649219693 
0.029999999999999874, -1.6166871469979434 
0.04000000000000012, -1.6090230025141756 
0.050000000000000405, -1.6057385815763472 
0.06000000000000069, -1.6060592895827988 
0.07000000000000098, -1.6074286893118817 
0.08000000000000126, -1.6084544130861733 
0.09000000000000155, -1.6088982636031872 
0.10000000000000184, -1.608857149523173 
0.11000000000000212, -1.6084135560924164 
0.12000000000000241, -1.6075962376782034 
0.130000000000002, -1.6065044816326648 
0.1400000000000009, -1.6056230122437036 
0.1499999999999998, -1.6060534989305182 
0.1599999999999987, -1.6087296231606558 
0.1699999999999976, -1.6131112127015101 
0.1799999999999965, -1.617708852514354 
0.1899999999999954, -1.621505353904131 
0.1999999999999943, -1.624231448023599 
0.2099999999999932, -1.6259861986339135 
0.2199999999999921, -1.626957467641566 
0.229999999999991, -1.627318402469546 
0.2399999999999899, -1.6272037271025912 
0.2499999999999888, -1.626713021394896 
0.2599999999999877, -1.625925548810202 
0.2699999999999866, -1.62492090730716 
0.2799999999999855, -1.623798466702524 
0.2899999999999844, -1.6226948866529665 
0.2999999999999833, -1.6217901966184738 
0.3099999999999822, -1.6212383266749086 
0.3199999999999811, -1.621026542984307 
0.32999999999998, -1.620962192862806 
0.3399999999999789, -1.620818022259126 
0.3499999999999778, -1.6204098858364386 
0.35999999999997667, -1.6195345776603283 
0.36999999999997557, -1.6178322296923286 
0.37999999999997447, -1.6145867453884093 
0.38999999999997337, -1.6084966177373048 
0.39999999999997227, -1.59787719541818 
0.40999999999997117, -1.5829122007119059 
0.41999999999997006, -1.5702554520564889 
0.42999999999996896, -1.5695125253883495 
0.43999999999996786, -1.5789278054182045 
0.44999999999996676, -1.5890528591380972 
0.45999999999996566, -1.595604388658781 
0.46999999999996456, -1.5990215670482044 
0.47999999999996346, -1.6005740102167745 
0.48999999999996235, -1.6011145616037805 
0.49999999999996125, -1.6010884416772508 
0.5099999999999602, -1.6007239735369805 
0.519999999999959, -1.6001917390460751 
0.529999999999958, -1.5997248580935834 
0.5399999999999568, -1.5996245121880546 
0.5499999999999557, -1.6000646771289475 
0.5599999999999546, -1.6009235042224972 
0.5699999999999535, -1.6019163395560525 
0.5799999999999524, -1.602808148744343 
0.5899999999999513, -1.6034656521200688 
0.5999999999999502, -1.6038199451363522 
0.6099999999999491, -1.603829852832429 
0.619999999999948, -1.603459036019847 
0.6299999999999469, -1.6026629847588603 
0.6399999999999458, -1.6013843144180104 
0.6499999999999447, -1.5995572765763613 
0.6599999999999436, -1.597131009756014 
0.6699999999999425, -1.5941386567132891 
0.6799999999999414, -1.5908440412671252 
0.6899999999999403, -1.5878767540808865 
0.6999999999999392, -1.5859860448963083 
0.7099999999999381, -1.5853531086516433 
0.719999999999937, -1.5854411242081048 
0.7299999999999359, -1.5856353487887214 
0.7399999999999348, -1.5856201145977928 
0.7499999999999337, -1.5852705306185055 
0.7599999999999326, -1.584466472799857 
0.7699999999999315, -1.5829776383972554 
0.7799999999999304, -1.5804518282417896 
0.7899999999999293, -1.5767886481208724 
0.7999999999999282, -1.5735378903550337 
0.8099999999999271, -1.5752255833712845 
0.819999999999926, -1.585166979122541 
0.8299999999999249, -1.5994474218678776 
0.8399999999999238, -1.6118667304152443 
0.8499999999999227, -1.6201498430964185 
0.8599999999999216, -1.6249316628024222 
0.8699999999999205, -1.6274269881161547 
0.8799999999999194, -1.628560990576577 
0.8899999999999183, -1.628897689411663 
0.8999999999999172, -1.6287563493775683 
0.9099999999999161, -1.6283295205826633 
0.919999999999915, -1.6277705691067605 
0.9299999999999139, -1.62723204015434 
0.9399999999999128, -1.6268366795478808 
0.9499999999999117, -1.6266320072209113 
0.9599999999999106, -1.6265982916971073 
0.9699999999999095, -1.6266701155803758 
0.9799999999999084, -1.6267387436980816 
0.9899999999999073, -1.6266731566782906 
0.9999999999999062, -1.6263402896268704 
1.0099999999999052, -1.625583309263072 
1.019999999999904, -1.6241658397292593 
1.029999999999903, -1.6217043590509364 
1.039999999999902, -1.6176127854959415 
1.0499999999999008, -1.6111408556053266 
1.0599999999998997, -1.6017647893896818 
1.0699999999998986, -1.590339898680401 
1.0799999999998975, -1.5803128146263086 
1.0899999999998964, -1.5755525843943106 
1.0999999999998953, -1.5757199164888078 
1.1099999999998942, -1.5775676231801141 
1.119999999999893, -1.5790814862480804 
1.129999999999892, -1.5798670452279917 
1.1399999999998909, -1.5800634667090228 
1.1499999999998898, -1.5798212814209183 
1.1599999999998887, -1.5792125200169662 
1.1699999999998876, -1.5783024049450454 
1.1799999999998865, -1.577356592349437 
1.1899999999998854, -1.5771162036339157 
1.1999999999998843, -1.578569105551082 
1.2099999999998832, -1.5818768277823725 
1.219999999999882, -1.5860199146050573 
1.229999999999881, -1.5898605187083712 
1.2399999999998799, -1.5928605820916126 
1.2499999999998788, -1.5949515472154876 
1.2599999999998777, -1.5962475638469837 
1.2699999999998766, -1.596895621735846 
1.2799999999998755, -1.5970255064017622 
1.2899999999998744, -1.5967395523301742 
1.2999999999998733, -1.5961177381271163 
1.3099999999998722, -1.5952317974220036 
1.319999999999871, -1.594163461853078 
1.32999999999987, -1.5930209294062307 
1.3399999999998689, -1.5919531791629624 
1.3499999999998678, -1.5911389217370036 
1.3599999999998666, -1.5906910886896333 
1.3699999999998655, -1.590540490969215 
1.3799999999998644, -1.5904780665614453 
1.3899999999998633, -1.5902937914708017 
1.3999999999998622, -1.5898145521431561 
1.4099999999998611, -1.588826206693247 
1.41999999999986, -1.586936297077507 
1.429999999999859, -1.583378735536328 
1.4399999999998578, -1.5768070364853235 
1.4499999999998567, -1.565550052403579 
1.4599999999998556, -1.5497955534321282 
1.4699999999998545, -1.5357437357293697 
1.4799999999998534, -1.532546925862451 
1.4899999999998523, -1.5395520486688326 
1.4999999999998512, -1.548362078761581 
1.5099999999998501, -1.554436363724014 
1.519999999999849, -1.5577255365672584 
1.529999999999848, -1.5592609899843755 
1.5399999999998468, -1.559814337494966 
1.5499999999998457, -1.5598044702097722 
1.5599999999998446, -1.5594452553382523 
1.5699999999998435, -1.5588895702387109 
1.5799999999998424, -1.5583595830305357 
1.5899999999998413, -1.5582008250574992 
1.5999999999998402, -1.5587073411783763 
1.6099999999998391, -1.5598379638800868 
1.619999999999838, -1.5612532349524326 
1.629999999999837, -1.562609328849725 
1.6399999999998358, -1.5637067054726237 
1.6499999999998347, -1.564461861017109 
1.6599999999998336, -1.5648481359543691 
1.6699999999998325, -1.5648591667541387 
1.6799999999998314, -1.5644912950114926 
1.6899999999998303, -1.56373696498682 
1.6999999999998292, -1.5625854812760138 
1.709999999999828, -1.561032090714021 
1.719999999999827, -1.5591019553158834 
1.729999999999826, -1.5569012431279194 
1.7399999999998248, -1.5546928298633982 
1.7499999999998237, -1.5529015677110771 
1.7599999999998226, -1.5518764842144261 
1.7699999999998215, -1.551565840749875 
1.7799999999998204, -1.551590419509965 
1.7899999999998193, -1.5515920317611172 
1.7999999999998182, -1.5513659800977333 
1.809999999999817, -1.550768816536034 
1.819999999999816, -1.5495821981960856 
1.8299999999998149, -1.54737760486943 
1.8399999999998138, -1.543409964980174 
1.8499999999998127, -1.5368766233258406 
1.8599999999998116, -1.5286067397353713 
1.8699999999998105, -1.5241222442707052 
1.8799999999998094, -1.5306526210610225 
1.8899999999998083, -1.5460462144405382 
1.8999999999998072, -1.561121774631769 
1.909999999999806, -1.571217877825802 
1.919999999999805, -1.5768087021827304 
1.9299999999998039, -1.5795861120706134 
1.9399999999998028, -1.5808066796802558 
1.9499999999998017, -1.5811771879868357 
1.9599999999998006, -1.581062998867907 
1.9699999999997995, -1.5806690497916014 
1.9799999999997984, -1.580166084188384 
1.9899999999997973, -1.579757020870677 
1.9999999999997962, -1.579632843217651 
2.0099999999998173, -1.5798483608615779 
2.0199999999998384, -1.5802971275616984 
2.0299999999998595, -1.580817370562213 
2.0399999999998806, -1.5812704665114514 
2.0499999999999017, -1.5815501135326098 
2.059999999999923, -1.5815725946544021 
2.069999999999944, -1.5812628708274137 
2.079999999999965, -1.5805371716667405 
2.089999999999986, -1.5792895389720403 
2.100000000000007, -1.5773877479204668 
2.1100000000000283, -1.574684802668312 
2.1200000000000494, -1.5710691152339582 
2.1300000000000705, -1.5666091509212265 
2.1400000000000916, -1.5618262979660575 
2.1500000000001127, -1.55782762495503 
2.160000000000134, -1.5556484243128916 
2.170000000000155, -1.5552065716602106 
2.180000000000176, -1.5555515703420864 
2.190000000000197, -1.5559134827518564 
2.2000000000002182, -1.5559950383882262 
2.2100000000002393, -1.5557214156441632 
2.2200000000002604, -1.5550257557210607 
2.2300000000002815, -1.553761255475365 
2.2400000000003026, -1.5517403898398388 
2.2500000000003237, -1.549117286410698 
2.260000000000345, -1.5474302747748696 
2.270000000000366, -1.55006432869814 
2.280000000000387, -1.558855116899858 
2.290000000000408, -1.5706934510165869 
2.3000000000004293, -1.581192852702875 
2.3100000000004504, -1.5885744029685025 
2.3200000000004715, -1.5931102554160224 
2.3300000000004926, -1.5956316490278053 
2.3400000000005137, -1.5968616206772528 
2.3500000000005348, -1.5972888313695424 
2.360000000000556, -1.597213086830144 
2.370000000000577, -1.59682113275541 
2.380000000000598, -1.596255108266339 
2.390000000000619, -1.595653557946671 
2.4000000000006403, -1.595142757288492 
2.4100000000006614, -1.5947990139098853 
2.4200000000006825, -1.5946393601582305 
2.4300000000007036, -1.5946298262107155 
2.4400000000007247, -1.5946801305883322 
2.450000000000746, -1.5946605868443773 
2.460000000000767, -1.5944359650894315 
2.470000000000788, -1.5938627105257697 
2.480000000000809, -1.592742785028261 
2.49000000000083, -1.590757953903735 
2.5000000000008513, -1.5874047695676616 
2.5100000000008724, -1.5819765877072027 
2.5200000000008935, -1.5737508010648582 
2.5300000000009146, -1.5627384260679986 
2.5400000000009357, -1.5510745366492549 
2.550000000000957, -1.5429675587530771 
2.560000000000978, -1.540632392642447 
2.570000000000999, -1.541865677977089 
2.58000000000102, -1.5436986985169545 
2.5900000000010412, -1.5449317590704863 
2.6000000000010624, -1.5454836260175453 
2.6100000000010835, -1.5455184946724458 
2.6200000000011046, -1.5451513794076754 
2.6300000000011257, -1.5444282220986416 
2.6400000000011468, -1.5434251787617599 
2.650000000001168, -1.5424910499338433 
2.660000000001189, -1.5425104701438628 
2.67000000000121, -1.5445134924215387 
2.680000000001231, -1.5484943957728539 
2.6900000000012523, -1.5532464081569175 
2.7000000000012734, -1.5575628273413 
2.7100000000012945, -1.5609073579921624 
2.7200000000013156, -1.5632341653277961 
2.7300000000013367, -1.564685804612435 
2.740000000001358, -1.5654378598239862 
2.750000000001379, -1.5656456163806252 
2.7600000000014, -1.5654322494009438 
2.770000000001421, -1.5648941494389161 
2.780000000001442, -1.5641162100540549 
2.7900000000014633, -1.5631895605534756 
2.8000000000014844, -1.5622212883982542 
2.8100000000015055, -1.5613355838131864 
2.8200000000015266, -1.5606630499712575 
2.8300000000015477, -1.5602837426835614 
2.840000000001569, -1.5601473642516344 
2.85000000000159, -1.5600883829096897 
2.860000000001611, -1.5599229935319818 
2.870000000001632, -1.5594888588450717 
2.8800000000016532, -1.5585923422154504 
2.8900000000016743, -1.5569026654834763 
2.9000000000016954, -1.5538044149019534 
2.9100000000017165, -1.5482286937272478 
2.9200000000017377, -1.5386763620579644 
2.9300000000017588, -1.5241886414697097 
2.94000000000178, -1.507138723020303 
2.950000000001801, -1.4947607899851796 
2.960000000001822, -1.4923056884799353 
2.970000000001843, -1.4963810071266324 
2.9800000000018643, -1.5011960461767537 
2.9900000000018854, -1.504434553858904 
3.0000000000019065, -1.506151374831977 
3.0100000000019276, -1.5068751339513131 
3.0200000000019487, -1.5069906389671095 
3.03000000000197, -1.5067030496665732 
3.040000000001991, -1.506124144030219 
3.050000000002012, -1.5053944925554106 
3.060000000002033, -1.5048430137772677 
3.070000000002054, -1.5050380122162896 
3.0800000000020753, -1.5064345308607294 
3.0900000000020964, -1.508870545138023 
3.1000000000021175, -1.5116909628697555 
3.1100000000021386, -1.5142989681380792 
3.1200000000021597, -1.5163989968759028 
3.130000000002181, -1.5179182444708725 
3.140000000002202, -1.5188843672621122 
3.150000000002223, -1.5193568081526199 
3.160000000002244, -1.519398897622219 
3.1700000000022652, -1.5190687671953196 
3.1800000000022863, -1.5184192188829042 
3.1900000000023074, -1.5175045272903789 
3.2000000000023285, -1.5163927622455915 
3.2100000000023496, -1.5151796605464312 
3.2200000000023707, -1.5140008604688935 
3.230000000002392, -1.5130283001080829 
3.240000000002413, -1.512406358040661 
3.250000000002434, -1.5121384377225588 
3.260000000002455, -1.5120655647183443 
3.2700000000024763, -1.511978314633802 
3.2800000000024974, -1.5117031964121699 
3.2900000000025185, -1.5110798992333636 
3.3000000000025396, -1.5098731786692812 
3.3100000000025607, -1.5076487910049212 
3.3200000000025818, -1.5036101595982305 
3.330000000002603, -1.4964674543539362 
3.340000000002624, -1.4847429736903541 
3.350000000002645, -1.4684696435161086 
3.360000000002666, -1.4521384611337598 
3.3700000000026873, -1.4433580113155933 
3.3800000000027084, -1.4442326768520197 
3.3900000000027295, -1.44950329501055 
3.4000000000027506, -1.4543215779750294 
3.4100000000027717, -1.4573483680751163 
3.420000000002793, -1.4589172496895084 
3.430000000002814, -1.4595635349443699 
3.440000000002835, -1.4596405936586512 
3.450000000002856, -1.4593321453163048 
3.460000000002877, -1.4587374062088805 
3.4700000000028983, -1.4579846973194859 
3.4800000000029194, -1.45738790774788 
3.4900000000029405, -1.4575271911529382 
3.5000000000029616, -1.4589517496643893 
3.5100000000029827, -1.4616241610677019 
3.520000000003004, -1.4648961613986486 
3.530000000003025, -1.4680606587001441 
3.540000000003046, -1.4707101054929395 
3.550000000003067, -1.4727129244090953 
3.5600000000030882, -1.4740818193577452 
3.5700000000031094, -1.4748846046903963 
3.5800000000031305, -1.4752032557540975 
3.5900000000031516, -1.4751176047175487 
3.6000000000031727, -1.4747003316704388 
3.6100000000031938, -1.4740199567484715 
3.620000000003215, -1.4731503716790888 
3.630000000003236, -1.4721807311847632 
3.640000000003257, -1.4712179729103876 
3.650000000003278, -1.470381070981326 
3.6600000000032993, -1.4697796188164305 
3.6700000000033204, -1.4694592861668028 
3.6800000000033415, -1.4693521638002631 
3.6900000000033626, -1.4693061517563402 
3.7000000000033837, -1.4691604027672827 
3.710000000003405, -1.4687723882916646 
3.720000000003426, -1.46798010399101 
3.730000000003447, -1.4665318433487515 
3.740000000003468, -1.464001813034163 
3.750000000003489, -1.4597105963031551 
3.7600000000035103, -1.4527332267226742 
3.7700000000035314, -1.4422300492561366 
3.7800000000035525, -1.4284583675276452 
3.7900000000035736, -1.4141786636557108 
3.8000000000035947, -1.404072946817579 
3.810000000003616, -1.400556284254494 
3.820000000003637, -1.4015372615474895 
3.830000000003658, -1.4037319750891923 
3.840000000003679, -1.4054780154714759 
3.8500000000037002, -1.4064732911106335 
3.8600000000037213, -1.406859941254412 
3.8700000000037424, -1.406797204609377 
3.8800000000037635, -1.4063639134142325 
3.8900000000037847, -1.4055718474241456 
3.9000000000038058, -1.4044420454099622 
3.910000000003827, -1.4032053866649608 
3.920000000003848, -1.4026467718318354 
3.930000000003869, -1.4041626641969647 
3.94000000000389, -1.4087562731740153 
3.9500000000039113, -1.4157623441415477 
3.9600000000039324, -1.4233296210865956 
3.9700000000039535, -1.4299287570468218 
3.9800000000039746, -1.4349409400142135 
3.9900000000039957, -1.4383837132919701 
4.000000000004016, -1.4405360782165346 
4.010000000003993, -1.441722686648894 
4.02000000000397, -1.4422233811864076 
4.030000000003946, -1.442249010576703 
4.040000000003923, -1.4419512671195565 
4.0500000000039, -1.4414495296172063 
4.0600000000038765, -1.4408596894663954 
4.070000000003853, -1.4403038345062222 
4.08000000000383, -1.439886821508209 
4.090000000003807, -1.4396627209741006 
4.100000000003783, -1.4396271649826016 
4.11000000000376, -1.4397279379739758 
4.120000000003737, -1.4398754287779196 
4.130000000003713, -1.4399616172877976 
4.14000000000369, -1.4398816637657652 
4.150000000003667, -1.4395370384263928 
4.1600000000036434, -1.4388207840853753 
4.17000000000362, -1.43760141506701 
4.180000000003597, -1.435717913389473 
4.1900000000035735, -1.4329917952288813 
4.20000000000355, -1.4292639136148755 
4.210000000003527, -1.4244774247957173 
4.220000000003504, -1.4188412552466505 
4.23000000000348, -1.4130446217073123 
4.240000000003457, -1.4082423653269225 
4.250000000003434, -1.4054085351810264 
4.26000000000341, -1.404511057968815 
4.270000000003387, -1.4046829514523362 
4.280000000003364, -1.4050932588604284 
4.2900000000033405, -1.405334604510172 
4.300000000003317, -1.405281601322686 
4.310000000003294, -1.4048838321843433 
4.320000000003271, -1.404046273129168 
4.330000000003247, -1.4025642496028268 
4.340000000003224, -1.4001058190371336 
4.350000000003201, -1.3963872077745827 
4.360000000003177, -1.391946923270567 
4.370000000003154, -1.3896023604796308 
4.380000000003131, -1.394122712166814 
4.390000000003107, -1.4070682978882716 
4.400000000003084, -1.4235575597907935 
4.410000000003061, -1.43764519148903 
4.4200000000030375, -1.4471406081822658 
4.430000000003014, -1.4527014467599693 
4.440000000002991, -1.455665830908317 
4.450000000002968, -1.4570915350710625 
4.460000000002944, -1.4576307820969467 
4.470000000002921, -1.457647327145053 
4.480000000002898, -1.4573459880512063 
4.490000000002874, -1.4568748375327447 
4.500000000002851, -1.4564008106616408 
4.510000000002828, -1.456128995288409 
4.520000000002804, -1.4562234743290616 
4.530000000002781, -1.456696341807833 
4.540000000002758, -1.457411885809339 
4.5500000000027345, -1.458191918959291 
4.560000000002711, -1.4588907459367373 
4.570000000002688, -1.4594079959349542 
4.580000000002665, -1.4596779967817093 
4.590000000002641, -1.4596565485717297 
4.600000000002618, -1.4593098754162515 
4.610000000002595, -1.4586082585457123 
4.620000000002571, -1.4575248210424996 
4.630000000002548, -1.4560394109050976 
4.640000000002525, -1.4541502901064598 
4.6500000000025015, -1.4519004710980457 
4.660000000002478, -1.4494261092309553 
4.670000000002455, -1.447011723478625 
4.6800000000024315, -1.4450644815738556 
4.690000000002408, -1.4438976946192725 
4.700000000002385, -1.4434726748739766 
4.710000000002362, -1.4434519199577196 
4.720000000002338, -1.44348590728286 
4.730000000002315, -1.4433585588385742 
4.740000000002292, -1.4429367632997387 
4.750000000002268, -1.4420621520622614 
4.760000000002245, -1.4404385218990716 
4.770000000002222, -1.4374980915860835 
4.7800000000021985, -1.4322785157008653 
4.790000000002175, -1.4236192609543505 
4.800000000002152, -1.4115527541167148 
4.810000000002129, -1.400122104427336 
4.820000000002105, -1.3968102858989657 
4.830000000002082, -1.404027698479451 
4.840000000002059, -1.415619753306753 
4.850000000002035, -1.4252876343822747 
4.860000000002012, -1.4313516824476307 
4.870000000001989, -1.434630915034474 
4.880000000001965, -1.4362182018809444 
4.890000000001942, -1.4368434981603664 
4.900000000001919, -1.4369055414964218 
4.9100000000018955, -1.4366088060033615 
4.920000000001872, -1.4360811609609154 
4.930000000001849, -1.4354839600976683 
4.940000000001826, -1.4351089782487443 
