t, s[1].omega / s[0].omega 
0, -1.0999704686969425 
0.009999999999999995, -1.0967694573045779 
0.019999999999999934, -1.0931646436527498 
0.029999999999999874, -1.0893340038174126 
0.04000000000000012, -1.0855158867685046 
0.050000000000000405, -1.0819946845128583 
0.06000000000000069, -1.0790559513087215 
0.07000000000000098, -1.0769033192499626 
0.08000000000000126, -1.0755746554278833 
0.09000000000000155, -1.074927154302421 
0.10000000000000184, -1.0747146197299955 
0.11000000000000212, -1.0746939626662175 
0.12000000000000241, -1.0746854446706322 
0.130000000000002, -1.0745724937545724 
0.1400000000000009, -1.0742706473059846 
0.1499999999999998, -1.0736925796364463 
0.1599999999999987, -1.0727198389697779 
0.1699999999999976, -1.07118547374181 
0.1799999999999965, -1.0688760749934467 
0.1899999999999954, -1.0655672596348915 
0.1999999999999943, -1.0610989176549541 
0.2099999999999932, -1.0554692969848865 
0.2199999999999921, -1.04890211912767 
0.229999999999991, -1.0418504376205981 
0.2399999999999899, -1.0349327265223405 
0.2499999999999888, -1.0288095621801445 
0.2599999999999877, -1.0240120661419128 
0.2699999999999866, -1.0207728509867793 
0.2799999999999855, -1.0189623237784033 
0.2899999999999844, -1.018192744513926 
0.2999999999999833, -1.0180163480697013 
0.3099999999999822, -1.0180769771709817 
0.3199999999999811, -1.018152102226781 
0.32999999999998, -1.0181199497722426 
0.3399999999999789, -1.0179070471405811 
0.3499999999999778, -1.0174438329032394 
0.35999999999997667, -1.0166316999559253 
0.36999999999997557, -1.0153182833282672 
0.37999999999997447, -1.0132838889141058 
0.38999999999997337, -1.0102542013688898 
0.39999999999997227, -1.0059619742225954 
0.40999999999997117, -1.0002631326625688 
0.41999999999997006, -0.9932636768551198 
0.42999999999996896, -0.9853770292775907 
0.43999999999996786, -0.97726396846593 
0.44999999999996676, -0.9696799470869303 
0.45999999999996566, -0.9632887427631136 
0.46999999999996456, -0.9584963846776603 
0.47999999999996346, -0.9553612412892175 
0.48999999999996235, -0.9536282374655196 
0.49999999999996125, -0.9528737382670764 
0.5099999999999602, -0.9526734265119 
0.519999999999959, -0.9527051513030058 
0.529999999999958, -0.9527668652175141 
0.5399999999999568, -0.9527443798052808 
0.5499999999999557, -0.9525679365671238 
0.5599999999999546, -0.9521763980503714 
0.5699999999999535, -0.9514921943291679 
0.5799999999999524, -0.9504062911283014 
0.5899999999999513, -0.9487764763153385 
0.5999999999999502, -0.9464477307987795 
0.6099999999999491, -0.9433008196528044 
0.619999999999948, -0.9393163301375452 
0.6299999999999469, -0.9346177117993486 
0.6399999999999458, -0.9294613081031067 
0.6499999999999447, -0.9241803809470805 
0.6599999999999436, -0.9191193840995207 
0.6699999999999425, -0.9145837259006306 
0.6799999999999414, -0.9108042509832532 
0.6899999999999403, -0.9079081719924575 
0.6999999999999392, -0.9059003419869518 
0.7099999999999381, -0.9046696865383016 
0.719999999999937, -0.9040277721426457 
0.7299999999999359, -0.9037648253030923 
0.7399999999999348, -0.9036964914837575 
0.7499999999999337, -0.9036845791784291 
0.7599999999999326, -0.903633802051397 
0.7699999999999315, -0.9034766048411482 
0.7799999999999304, -0.9031571999267047 
0.7899999999999293, -0.9026213552150413 
0.7999999999999282, -0.9018153331753076 
0.8099999999999271, -0.9006950642149393 
0.819999999999926, -0.899242181146984 
0.8299999999999249, -0.897477438902545 
0.8399999999999238, -0.8954610842219104 
0.8499999999999227, -0.8932787979131444 
0.8599999999999216, -0.8910230413142755 
0.8699999999999205, -0.8887808478772241 
0.8799999999999194, -0.8866309537665178 
0.8899999999999183, -0.8846457107096134 
0.8999999999999172, -0.882891707401587 
0.9099999999999161, -0.8814256252931422 
0.919999999999915, -0.8802855666358355 
0.9299999999999139, -0.8794814093976285 
0.9399999999999128, -0.878989537998291 
0.9499999999999117, -0.8787560674958315 
0.9599999999999106, -0.878708224400094 
0.9699999999999095, -0.8787688110910837 
0.9799999999999084, -0.8788676375564352 
0.9899999999999073, -0.8789470088486493 
0.9999999999999062, -0.8789625209733541 
1.0099999999999052, -0.8788823259893919 
1.019999999999904, -0.8786870558208703 
1.029999999999903, -0.8783701152552643 
1.039999999999902, -0.8779363086015675 
1.0499999999999008, -0.8773976304561636 
1.0599999999998997, -0.8767679276211002 
1.0699999999998986, -0.8760597935884012 
1.0799999999998975, -0.8752854632602844 
1.0899999999998964, -0.8744604972965468 
1.0999999999998953, -0.8736077231868122 
1.1099999999998942, -0.8727596841779057 
1.119999999999893, -0.8719589149893758 
1.129999999999892, -0.8712555420084888 
1.1399999999998909, -0.870701692504187 
1.1499999999998898, -0.870343138089549 
1.1599999999998887, -0.8702103419067362 
1.1699999999998876, -0.8703121521690458 
1.1799999999998865, -0.8706346121728631 
1.1899999999998854, -0.8711451481516665 
1.1999999999998843, -0.8718002000271479 
1.2099999999998832, -0.8725533212809647 
1.219999999999882, -0.8733611150171541 
1.229999999999881, -0.8741855565279998 
1.2399999999998799, -0.8749926096110056 
1.2499999999998788, -0.8757484361932797 
1.2599999999998777, -0.8764160213133609 
1.2699999999998766, -0.8769557940436382 
1.2799999999998755, -0.8773319646609353 
1.2899999999998744, -0.8775218002470577 
1.2999999999998733, -0.8775219163222479 
1.3099999999998722, -0.8773479544544889 
1.319999999999871, -0.8770297099339602 
1.32999999999987, -0.8766069411912477 
1.3399999999998689, -0.8761296186530607 
1.3499999999998678, -0.8756627505276405 
1.3599999999998666, -0.8752925078828074 
1.3699999999998655, -0.8751279480380904 
1.3799999999998644, -0.8752925169434667 
1.3899999999998633, -0.8759037656197501 
1.3999999999998622, -0.8770474964199625 
1.4099999999998611, -0.8787577135203488 
1.41999999999986, -0.8810103786012192 
1.429999999999859, -0.8837294899980511 
1.4399999999998578, -0.886797161032389 
1.4499999999998567, -0.8900606392743932 
1.4599999999998556, -0.8933369784602592 
1.4699999999998545, -0.8964244918837652 
1.4799999999998534, -0.8991309365108338 
1.4899999999998523, -0.9013152060337235 
1.4999999999998512, -0.9029203350171839 
1.5099999999998501, -0.9039745547274721 
1.519999999999849, -0.9045611059305851 
1.529999999999848, -0.904779495038834 
1.5399999999998468, -0.9047189172170464 
1.5499999999998457, -0.9044496373247609 
1.5599999999998446, -0.9040288106280185 
1.5699999999998435, -0.903517022966623 
1.5799999999998424, -0.9030046705910706 
1.5899999999998413, -0.9026469269580562 
1.5999999999998402, -0.9026982742668215 
1.6099999999998391, -0.9035231838595307 
1.619999999999838, -0.9055510085818004 
1.629999999999837, -0.9091614433543388 
1.6399999999998358, -0.9145333183281015 
1.6499999999998347, -0.9215256222937855 
1.6599999999998336, -0.9296490609796028 
1.6699999999998325, -0.9381472611505449 
1.6799999999998314, -0.9461754016663372 
1.6899999999998303, -0.9530304486611959 
1.6999999999998292, -0.9583364532616778 
1.709999999999828, -0.9620830519609079 
1.719999999999827, -0.9645116673682553 
1.729999999999826, -0.9659501508414323 
1.7399999999998248, -0.9666946792682328 
1.7499999999998237, -0.9669636608315072 
1.7599999999998226, -0.9668986446633653 
1.7699999999998215, -0.9665837825822642 
1.7799999999998204, -0.9660705853080224 
1.7899999999998193, -0.9654086407368518 
1.7999999999998182, -0.9646912913209773 
1.809999999999817, -0.9641255704600121 
1.819999999999816, -0.964118138945738 
1.8299999999998149, -0.9653232476491814 
1.8399999999998138, -0.968549563252456 
1.8499999999998127, -0.9744568969047286 
1.8599999999998116, -0.9831468674340395 
1.8699999999998105, -0.9939236528465665 
1.8799999999998094, -1.0054450271041686 
1.8899999999998083, -1.0162139118629248 
1.8999999999998072, -1.0251213631528246 
1.909999999999806, -1.031730206939132 
1.919999999999805, -1.0361954752009912 
1.9299999999998039, -1.0389765371658928 
1.9399999999998028, -1.0405702390365679 
1.9499999999998017, -1.0413739588030473 
1.9599999999998006, -1.041657716064715 
1.9699999999997995, -1.041586776261598 
1.9799999999997984, -1.0412564167401488 
1.9899999999997973, -1.0407274458286988 
1.9999999999997962, -1.0400677320001994 
2.0099999999998173, -1.0394111760228495 
2.0199999999998384, -1.0390358852256445 
2.0299999999998595, -1.039424586385247 
2.0399999999998806, -1.0412151569984807 
2.0499999999999017, -1.0449655564116864 
2.059999999999923, -1.0508244156284898 
2.069999999999944, -1.0583595591400576 
2.079999999999965, -1.0666916061805545 
2.089999999999986, -1.0748182550911947 
2.100000000000007, -1.0819216872009978 
2.1100000000000283, -1.0875421259010716 
2.1200000000000494, -1.0915961433884542 
2.1300000000000705, -1.094272687915871 
2.1400000000000916, -1.0958805033931693 
2.1500000000001127, -1.096724326009618 
2.160000000000134, -1.0970439622647972 
2.170000000000155, -1.097005271449741 
2.180000000000176, -1.0967184852550322 
2.190000000000197, -1.0962683617554916 
2.2000000000002182, -1.0957519391587704 
2.2100000000002393, -1.095320401628966 
2.2200000000002604, -1.0952061659687689 
2.2300000000002815, -1.0956959035214247 
2.2400000000003026, -1.097027232967195 
2.2500000000003237, -1.0992638450763734 
2.260000000000345, -1.1022530271112807 
2.270000000000366, -1.1056965644228052 
2.280000000000387, -1.1092622873037126 
2.290000000000408, -1.1126607853167643 
2.3000000000004293, -1.1156742178207142 
2.3100000000004504, -1.1181609250977789 
2.3200000000004715, -1.1200549171226846 
2.3300000000004926, -1.12136143972852 
2.3400000000005137, -1.1221419181349572 
2.3500000000005348, -1.1224886247447539 
2.360000000000556, -1.1224994324186421 
2.370000000000577, -1.1222635792535711 
2.380000000000598, -1.121862165209386 
2.390000000000619, -1.1213799809978917 
2.4000000000006403, -1.1209198156356737 
2.4100000000006614, -1.1206050294411019 
2.4200000000006825, -1.1205572823116083 
2.4300000000007036, -1.1208547430227218 
2.4400000000007247, -1.1215003702780897 
2.450000000000746, -1.122425619503369 
2.460000000000767, -1.1235222991134646 
2.470000000000788, -1.1246768073762574 
2.480000000000809, -1.125791097246211 
2.49000000000083, -1.1267898468588973 
2.5000000000008513, -1.127619207597505 
2.5100000000008724, -1.1282425350821081 
2.5200000000008935, -1.1286369871999213 
2.5300000000009146, -1.1287926708455112 
2.5400000000009357, -1.128713533105399 
2.550000000000957, -1.1284178910144191 
2.560000000000978, -1.1279376544176178 
2.570000000000999, -1.127317537961427 
2.58000000000102, -1.1266156408962087 
2.5900000000010412, -1.1259036251490433 
2.6000000000010624, -1.1252615320137733 
2.6100000000010835, -1.124764145438334 
2.6200000000011046, -1.1244631003431709 
2.6300000000011257, -1.1243736170230223 
2.6400000000011468, -1.1244712921095326 
2.650000000001168, -1.1246990232894096 
2.660000000001189, -1.1249815354159671 
2.67000000000121, -1.12524195613422 
2.680000000001231, -1.1254135225024935 
2.6900000000012523, -1.1254438712188473 
2.7000000000012734, -1.1252948818358335 
2.7100000000012945, -1.1249418563913254 
2.7200000000013156, -1.124373107341279 
2.7300000000013367, -1.1235891807201603 
2.740000000001358, -1.1226016600404642 
2.750000000001379, -1.1214328872303616 
2.7600000000014, -1.1201177983731883 
2.770000000001421, -1.1187074771049994 
2.780000000001442, -1.1172722357618399 
2.7900000000014633, -1.1159007968193788 
2.8000000000014844, -1.1146917676595574 
2.8100000000015055, -1.1137345981289433 
2.8200000000015266, -1.1130819184656728 
2.8300000000015477, -1.1127255957172426 
2.840000000001569, -1.1125953009281189 
2.85000000000159, -1.1125843561208852 
2.860000000001611, -1.1125834171128928 
2.870000000001632, -1.1124991412453133 
2.8800000000016532, -1.112253433948735 
2.8900000000016743, -1.1117738460352813 
2.9000000000016954, -1.110987089475829 
2.9100000000017165, -1.1098223933537816 
2.9200000000017377, -1.108224796042559 
2.9300000000017588, -1.1061719154234408 
2.94000000000178, -1.10368528424087 
2.950000000001801, -1.1008327235662227 
2.960000000001822, -1.0977264939864826 
2.970000000001843, -1.094523253614188 
2.9800000000018643, -1.09142358041358 
2.9900000000018854, -1.088657448485375 
3.0000000000019065, -1.08643908226056 
3.0100000000019276, -1.0848944323268326 
3.0200000000019487, -1.084003699828762 
3.03000000000197, -1.0836119752473417 
3.040000000001991, -1.0835056202609308 
3.050000000002012, -1.0834918605336568 
3.060000000002033, -1.08343171410203 
3.070000000002054, -1.0832286166116838 
3.0800000000020753, -1.0827990927984013 
3.0900000000020964, -1.082044314404325 
3.1000000000021175, -1.0808306665034988 
3.1100000000021386, -1.0789860379903904 
3.1200000000021597, -1.0763216808075344 
3.130000000002181, -1.072685392443394 
3.140000000002202, -1.0680333904047405 
3.150000000002223, -1.0624887990442373 
3.160000000002244, -1.0563590402943759 
3.1700000000022652, -1.0501081650234059 
3.1800000000022863, -1.0442887730022088 
3.1900000000023074, -1.0394276104617457 
3.2000000000023285, -1.035873558992789 
3.2100000000023496, -1.033676205839646 
3.2200000000023707, -1.0325919015579563 
3.230000000002392, -1.0322272922447873 
3.240000000002413, -1.0322100394796796 
3.250000000002434, -1.0322784775678315 
3.260000000002455, -1.0322797500261367 
3.2700000000024763, -1.032125550696635 
3.2800000000024974, -1.031745415381233 
3.2900000000025185, -1.0310500653069772 
3.3000000000025396, -1.0299037276256202 
3.3100000000025607, -1.0281061325683003 
3.3200000000025818, -1.025395524275771 
3.330000000002603, -1.0214941994067424 
3.340000000002624, -1.016209804590431 
3.350000000002645, -1.0095650147114905 
3.360000000002666, -1.001883267307493 
3.3700000000026873, -0.9937681838088498 
3.3800000000027084, -0.9859776080964939 
3.3900000000027295, -0.9792386694225845 
3.4000000000027506, -0.974057366648845 
3.4100000000027717, -0.9705870501753322 
3.420000000002793, -0.9686253262409744 
3.430000000002814, -0.9677497255639024 
3.440000000002835, -0.967505532662507 
3.450000000002856, -0.9675355365376467 
3.460000000002877, -0.9676130136558824 
3.4700000000028983, -0.9676113577854533 
3.4800000000029194, -0.9674566668547302 
3.4900000000029405, -0.9670874559272546 
3.5000000000029616, -0.9664258589116146 
3.5100000000029827, -0.9653585535402275 
3.520000000003004, -0.9637294703122894 
3.530000000003025, -0.9613539078799116 
3.540000000003046, -0.9580656707178761 
3.550000000003067, -0.9537928569319833 
3.5600000000030882, -0.948626559190347 
3.5700000000031094, -0.9428350554658133 
3.5800000000031305, -0.9368117041802216 
3.5900000000031516, -0.9309910413059395 
3.6000000000031727, -0.9257713061092872 
3.6100000000031938, -0.921454121485701 
3.620000000003215, -0.9181985503840501 
3.630000000003236, -0.9159979776202432 
3.640000000003257, -0.9146977009152291 
3.650000000003278, -0.9140552698935152 
3.6600000000032993, -0.9138163746188862 
3.6700000000033204, -0.9137700308171256 
3.6800000000033415, -0.9137668576758626 
3.6900000000033626, -0.9137089182282606 
3.7000000000033837, -0.9135282775874183 
3.710000000003405, -0.9131667908563597 
3.720000000003426, -0.912563096679607 
3.730000000003447, -0.9116499012202242 
3.740000000003468, -0.9103637318490956 
3.750000000003489, -0.9086657178136779 
3.7600000000035103, -0.9065638458926182 
3.7700000000035314, -0.9041216734781907 
3.7800000000035525, -0.9014460109411436 
3.7900000000035736, -0.8986623623179945 
3.8000000000035947, -0.8958940706215675 
3.810000000003616, -0.89325304489904 
3.820000000003637, -0.8908385262761243 
3.830000000003658, -0.8887360535349499 
3.840000000003679, -0.8870114716060469 
3.8500000000037002, -0.8857002792807123 
3.8600000000037213, -0.8847976539993013 
3.8700000000037424, -0.8842563980789555 
3.8800000000037635, -0.8839966238929605 
3.8900000000037847, -0.8839237776225378 
3.9000000000038058, -0.8839465374560168 
3.910000000003827, -0.8839875916434365 
3.920000000003848, -0.8839861037787875 
3.930000000003869, -0.883895436491682 
3.94000000000389, -0.8836807779496715 
3.9500000000039113, -0.8833193911408035 
3.9600000000039324, -0.8828029244648634 
3.9700000000039535, -0.8821385352590939 
3.9800000000039746, -0.8813458468938764 
3.9900000000039957, -0.8804503839925241 
4.000000000004016, -0.8794775668860473 
4.010000000003993, -0.8784508452054858 
4.02000000000397, -0.8773940600932418 
4.030000000003946, -0.8763354697056738 
4.040000000003923, -0.8753107258358771 
4.0500000000039, -0.8743631783382648 
4.0600000000038765, -0.8735407971233989 
4.070000000003853, -0.8728897965254664 
4.08000000000383, -0.8724462575413515 
4.090000000003807, -0.8722283250790767 
4.100000000003783, -0.8722318875822367 
4.11000000000376, -0.8724315005931658 
4.120000000003737, -0.8727862020899675 
4.130000000003713, -0.8732479275551155 
4.14000000000369, -0.8737695396928606 
4.150000000003667, -0.8743102755780789 
4.1600000000036434, -0.8748378207241949 
4.17000000000362, -0.8753272229481878 
4.180000000003597, -0.8757574533417352 
4.1900000000035735, -0.8761073268550389 
4.20000000000355, -0.8763535329337934 
4.210000000003527, -0.8764730522812098 
4.220000000003504, -0.8764493057851762 
4.23000000000348, -0.8762782228471486 
4.240000000003457, -0.8759706324832003 
4.250000000003434, -0.8755510084136787 
4.26000000000341, -0.8750556505256352 
4.270000000003387, -0.8745330397971495 
4.280000000003364, -0.8740462963976388 
4.2900000000033405, -0.8736747006554424 
4.300000000003317, -0.8735098972690472 
4.310000000003294, -0.8736441183859187 
4.320000000003271, -0.8741526309736741 
4.330000000003247, -0.8750775114814816 
4.340000000003224, -0.8764200592188407 
4.350000000003201, -0.8781437974688868 
4.360000000003177, -0.8801836825598878 
4.370000000003154, -0.8824547568518772 
4.380000000003131, -0.8848558800967753 
4.390000000003107, -0.8872693824161507 
4.400000000003084, -0.8895629815446586 
4.410000000003061, -0.8916023182339382 
4.4200000000030375, -0.893276186557961 
4.430000000003014, -0.8945233055997346 
4.440000000002991, -0.8953427354434316 
4.450000000002968, -0.8957810049120525 
4.460000000002944, -0.8959068054494193 
4.470000000002921, -0.8957895008957021 
4.480000000002898, -0.8954900182907535 
4.490000000002874, -0.8950644052540854 
4.500000000002851, -0.8945777059317981 
4.510000000002828, -0.8941259987441604 
4.520000000002804, -0.8938624001132552 
4.530000000002781, -0.8940160065606569 
4.540000000002758, -0.8948847275927554 
4.5500000000027345, -0.8967851860311237 
4.560000000002711, -0.89996444656888 
4.570000000002688, -0.9045069941836077 
4.580000000002665, -0.9102773203460218 
4.590000000002641, -0.9169168826532752 
4.600000000002618, -0.9238925920416013 
4.610000000002595, -0.9305929147785423 
4.620000000002571, -0.9364652792812427 
4.630000000002548, -0.9411553030344221 
4.640000000002525, -0.9445743832209258 
4.6500000000025015, -0.9468552688111475 
4.660000000002478, -0.9482386191445075 
4.670000000002455, -0.9489689248418834 
4.6800000000024315, -0.9492402647334028 
4.690000000002408, -0.9491854957384536 
4.700000000002385, -0.9488877532544453 
4.710000000002362, -0.9484008476389306 
4.720000000002338, -0.947776793140777 
4.730000000002315, -0.9471066304105384 
4.740000000002292, -0.9465814160398649 
4.750000000002268, -0.9465661781157898 
4.760000000002245, -0.9476435292187648 
4.770000000002222, -0.9505442280578625 
4.7800000000021985, -0.9559036950375985 
4.790000000002175, -0.9639116645866672 
4.800000000002152, -0.9740649988298378 
4.810000000002129, -0.9852227997359433 
4.820000000002105, -0.9959796059041481 
4.830000000002082, -1.0051647469343257 
4.840000000002059, -1.012188467501383 
4.850000000002035, -1.0170643382185065 
4.860000000002012, -1.0201774914745745 
4.870000000001989, -1.022011572665713 
4.880000000001965, -1.0229810689691987 
4.890000000001942, -1.0233796219850437 
4.900000000001919, -1.0233919107146774 
4.9100000000018955, -1.0231250068199302 
4.920000000001872, -1.0226415667003246 
4.930000000001849, -1.0219962763315245 
