t, s[1].omega / s[0].omega 
0, -0.6499977111784558 
0.009999999999999995, -0.6497742055762369 
0.019999999999999934, -0.6495530963874887 
0.029999999999999874, -0.6493137883876569 
0.04000000000000012, -0.6490329726195238 
0.050000000000000405, -0.6486943188977294 
0.06000000000000069, -0.6482938987493146 
0.07000000000000098, -0.6478410805253818 
0.08000000000000126, -0.6473578762111657 
0.09000000000000155, -0.6468800722660173 
0.10000000000000184, -0.6464620589406836 
0.11000000000000212, -0.6461858328686785 
0.12000000000000241, -0.6461737146186999 
0.130000000000002, -0.6466035447702427 
0.1400000000000009, -0.6477240691966197 
0.1499999999999998, -0.6498664976777044 
0.1599999999999987, -0.6534449034704984 
0.1699999999999976, -0.6589312758241174 
0.1799999999999965, -0.6667791015382547 
0.1899999999999954, -0.6772589391017989 
0.1999999999999943, -0.6901925519677886 
0.2099999999999932, -0.704687535612536 
0.2199999999999921, -0.7191586603388939 
0.229999999999991, -0.7318760498978328 
0.2399999999999899, -0.7417457662607205 
0.2499999999999888, -0.7486389244203471 
0.2599999999999877, -0.7530863829576983 
0.2699999999999866, -0.7557935054614148 
0.2799999999999855, -0.7573521210014551 
0.2899999999999844, -0.758168367748908 
0.2999999999999833, -0.7584895315165255 
0.3099999999999822, -0.7584482973997881 
0.3199999999999811, -0.7580944458009798 
0.32999999999998, -0.7574081001119504 
0.3399999999999789, -0.7562940506788305 
0.3499999999999778, -0.7545549276705845 
0.35999999999997667, -0.7518385205001473 
0.36999999999997557, -0.7475590912372931 
0.37999999999997447, -0.7408234571214761 
0.38999999999997337, -0.7304828323036242 
0.39999999999997227, -0.715555789345941 
0.40999999999997117, -0.6961376247553843 
0.41999999999997006, -0.6741508670725196 
0.42999999999996896, -0.6527712939341439 
0.43999999999996786, -0.6347221693801466 
0.44999999999996676, -0.6211475215919952 
0.45999999999996566, -0.6117994380406919 
0.46999999999996456, -0.6057832790833044 
0.47999999999996346, -0.6021258846184051 
0.48999999999996235, -0.6000239374299158 
0.49999999999996125, -0.598893725028501 
0.5099999999999602, -0.5983407821045116 
0.519999999999959, -0.5981107420947428 
0.529999999999958, -0.5980446572417364 
0.5399999999999568, -0.5980448425765783 
0.5499999999999557, -0.5980510882444487 
0.5599999999999546, -0.5980254879138016 
0.5699999999999535, -0.5979441884813971 
0.5799999999999524, -0.5977946529711909 
0.5899999999999513, -0.5975766583863662 
0.5999999999999502, -0.5973039867370835 
0.6099999999999491, -0.5970027905169453 
0.619999999999948, -0.5967041215070197 
0.6299999999999469, -0.5964324285262971 
0.6399999999999458, -0.5961956257036628 
0.6499999999999447, -0.5959821362460401 
0.6599999999999436, -0.5957664394906118 
0.6699999999999425, -0.5955199260003263 
0.6799999999999414, -0.5952212618187933 
0.6899999999999403, -0.5948618774910037 
0.6999999999999392, -0.5944464304363398 
0.7099999999999381, -0.5939914250119711 
0.719999999999937, -0.5935256217748656 
0.7299999999999359, -0.593094666247924 
0.7399999999999348, -0.5927714114400253 
0.7499999999999337, -0.5926732955282759 
0.7599999999999326, -0.592988399100056 
0.7699999999999315, -0.5940115145692088 
0.7799999999999304, -0.5961890567560169 
0.7899999999999293, -0.6001632090643474 
0.7999999999999282, -0.6067836759050547 
0.8099999999999271, -0.6170105325252544 
0.819999999999926, -0.631578546822366 
0.8299999999999249, -0.6503456576401286 
0.8399999999999238, -0.6716333922752201 
0.8499999999999227, -0.6924243796759788 
0.8599999999999216, -0.7098318197182342 
0.8699999999999205, -0.7225752437087517 
0.8799999999999194, -0.7310332005390959 
0.8899999999999183, -0.736315264096474 
0.8999999999999172, -0.7394981348751605 
0.9099999999999161, -0.7413596156701601 
0.919999999999915, -0.7423918334067198 
0.9299999999999139, -0.7428841225136164 
0.9399999999999128, -0.742993557686431 
0.9499999999999117, -0.7427881202615715 
0.9599999999999106, -0.7422660705685746 
0.9699999999999095, -0.7413559802827224 
0.9799999999999084, -0.7398993901483037 
0.9899999999999073, -0.7376185851534538 
0.9999999999999062, -0.7340829461771123 
1.0099999999999052, -0.7287190351002738 
1.019999999999904, -0.7209541343188077 
1.029999999999903, -0.7105581339283752 
1.039999999999902, -0.6980281420568728 
1.0499999999999008, -0.6846088105567586 
1.0599999999998997, -0.6717824612553847 
1.0699999999998986, -0.6606554752789704 
1.0799999999998975, -0.6517139195115954 
1.0899999999998964, -0.6449442839773843 
1.0999999999998953, -0.6400645823318203 
1.1099999999998942, -0.6367026619674173 
1.119999999999893, -0.6344936319754916 
1.129999999999892, -0.6331214768882144 
1.1399999999998909, -0.6323312358126518 
1.1499999999998898, -0.6319274022833865 
1.1599999999998887, -0.6317662143096889 
1.1699999999998876, -0.6317456419000135 
1.1799999999998865, -0.6317953278760704 
1.1899999999998854, -0.6318680325953662 
1.1999999999998843, -0.6319335988274813 
1.2099999999998832, -0.6319757799196226 
1.219999999999882, -0.6319912203831111 
1.229999999999881, -0.6319885208964153 
1.2399999999998799, -0.6319845996023259 
1.2499999999998788, -0.6319968885620699 
1.2599999999998777, -0.6320332630908512 
1.2699999999998766, -0.6320845805300737 
1.2799999999998755, -0.6321245906283085 
1.2899999999998744, -0.6321182177177072 
1.2999999999998733, -0.6320339448641887 
1.3099999999998722, -0.6318534429858343 
1.319999999999871, -0.631574431621744 
1.32999999999987, -0.6312083040726025 
1.3399999999998689, -0.6307771388039577 
1.3499999999998678, -0.6303140950302724 
1.3599999999998666, -0.6298693688719343 
1.3699999999998655, -0.6295229476062212 
1.3799999999998644, -0.6294054256333969 
1.3899999999998633, -0.6297281783875419 
1.3999999999998622, -0.6308229592153449 
1.4099999999998611, -0.6331865434623541 
1.41999999999986, -0.6375145610151783 
1.429999999999859, -0.6446835410227522 
1.4399999999998578, -0.6555979950235871 
1.4499999999998567, -0.6707912346037911 
1.4599999999998556, -0.6897827230919715 
1.4699999999998545, -0.7106077106022186 
1.4799999999998534, -0.7302956773505791 
1.4899999999998523, -0.7463489326621341 
1.4999999999998512, -0.7578847251440878 
1.5099999999998501, -0.7654463581144715 
1.519999999999849, -0.770120318718036 
1.529999999999848, -0.7729007740679387 
1.5399999999998468, -0.7744912321421894 
1.5499999999998457, -0.7753316496711934 
1.5599999999998446, -0.7756764218641768 
1.5699999999998435, -0.7756575229160473 
1.5799999999998424, -0.7753213024176399 
1.5899999999998413, -0.7746418418552081 
1.5999999999998402, -0.7735134731073879 
1.6099999999998391, -0.7717217324674854 
1.619999999999838, -0.7688917231343959 
1.629999999999837, -0.7644255127558969 
1.6399999999998358, -0.7574851522562638 
1.6499999999998347, -0.7471614948411112 
1.6599999999998336, -0.7329848019256018 
1.6699999999998325, -0.7156149464013645 
1.6799999999998314, -0.6970042382457793 
1.6899999999998303, -0.6795637332265841 
1.6999999999998292, -0.665029280180774 
1.709999999999828, -0.6540090800045889 
1.719999999999827, -0.6462537384877652 
1.729999999999826, -0.6411229518828299 
1.7399999999998248, -0.637916602892804 
1.7499999999998237, -0.6360302696339148 
1.7599999999998226, -0.6349996772800278 
1.7699999999998215, -0.6344932527957545 
1.7799999999998204, -0.6342862368855398 
1.7899999999998193, -0.6342319919427684 
1.7999999999998182, -0.6342369725767462 
1.809999999999817, -0.6342415447412652 
1.819999999999816, -0.6342069945765338 
1.8299999999998149, -0.634108391268773 
1.8399999999998138, -0.6339325494771672 
1.8499999999998127, -0.6336793688855573 
1.8599999999998116, -0.6333632165044508 
1.8699999999998105, -0.6330102698820538 
1.8799999999998094, -0.6326500190298496 
1.8899999999998083, -0.6323038811444841 
1.8999999999998072, -0.6319770001940725 
1.909999999999806, -0.631657781140478 
1.919999999999805, -0.6313250103253725 
1.9299999999998039, -0.6309581805009953 
1.9399999999998028, -0.6305457115698465 
1.9499999999998017, -0.6300885397104958 
1.9599999999998006, -0.629600412083016 
1.9699999999997995, -0.6291080888266309 
1.9799999999997984, -0.6286540968028606 
1.9899999999997973, -0.6283032827256746 
1.9999999999997962, -0.6281533602185843 
2.0099999999998173, -0.6283489971386762 
2.0199999999998384, -0.6290983172101503 
2.0299999999998595, -0.6306895086282376 
2.0399999999998806, -0.6335027408127738 
2.0499999999999017, -0.6380070107309167 
2.059999999999923, -0.6447201241705838 
2.069999999999944, -0.654093013947718 
2.079999999999965, -0.666274840001233 
2.089999999999986, -0.6807804821786261 
2.100000000000007, -0.6962761924975495 
2.1100000000000283, -0.710861729584451 
2.1200000000000494, -0.7228971709251841 
2.1300000000000705, -0.7317155106409506 
2.1400000000000916, -0.737603291449802 
2.1500000000001127, -0.7412842691571015 
2.160000000000134, -0.7434732081181002 
2.170000000000155, -0.7446993974053092 
2.180000000000176, -0.7453017742634105 
2.190000000000197, -0.7454759724744492 
2.2000000000002182, -0.7453174846027318 
2.2100000000002393, -0.7448464524963652 
2.2200000000002604, -0.7440130641788689 
2.2300000000002815, -0.7426832856657664 
2.2400000000003026, -0.7406021431956837 
2.2500000000003237, -0.7373326274470001 
2.260000000000345, -0.732185258545488 
2.270000000000366, -0.7242113330544272 
2.280000000000387, -0.7124361065884047 
2.290000000000408, -0.696502608244575 
2.3000000000004293, -0.6774426258093283 
2.3100000000004504, -0.6576616851388534 
2.3200000000004715, -0.6397735261047062 
2.3300000000004926, -0.6253714412473255 
2.3400000000005137, -0.6147694285882495 
2.3500000000005348, -0.6074734758450744 
2.360000000000556, -0.6027144504898915 
2.370000000000577, -0.5997564419288588 
2.380000000000598, -0.5980095526695763 
2.390000000000619, -0.5970418376218325 
2.4000000000006403, -0.596553977077666 
2.4100000000006614, -0.596346292384393 
2.4200000000006825, -0.5962891176169275 
2.4300000000007036, -0.5962995938074217 
2.4400000000007247, -0.5963250599868914 
2.450000000000746, -0.5963323840998042 
2.460000000000767, -0.5963024143258643 
2.470000000000788, -0.5962284295603075 
2.480000000000809, -0.5961165589458591 
2.49000000000083, -0.5959849887838095 
2.5000000000008513, -0.5958589045534857 
2.5100000000008724, -0.595760804559967 
2.5200000000008935, -0.5956997746689493 
2.5300000000009146, -0.5956652974698682 
2.5400000000009357, -0.5956294468735334 
2.550000000000957, -0.5955568226220354 
2.560000000000978, -0.595416955216515 
2.570000000000999, -0.5951927524199642 
2.58000000000102, -0.5948822534312944 
2.5900000000010412, -0.5944960266999209 
2.6000000000010624, -0.5940546829987917 
2.6100000000010835, -0.5935900178281763 
2.6200000000011046, -0.5931518142040756 
2.6300000000011257, -0.592821971329519 
2.6400000000011468, -0.5927383065921287 
2.650000000001168, -0.5931312201046038 
2.660000000001189, -0.594375902061808 
2.67000000000121, -0.5970575266951903 
2.680000000001231, -0.6020289267928203 
2.6900000000012523, -0.6103950317737883 
2.7000000000012734, -0.6232792452071401 
2.7100000000012945, -0.6411904071287188 
2.7200000000013156, -0.6630923063044327 
2.7300000000013367, -0.6860457881460537 
2.740000000001358, -0.7064513216741611 
2.750000000001379, -0.7220826499095697 
2.7600000000014, -0.7327894829715429 
2.770000000001421, -0.73962787691779 
2.780000000001442, -0.7438317774577674 
2.7900000000014633, -0.7463555786738938 
2.8000000000014844, -0.7478259192764644 
2.8100000000015055, -0.7486234453854959 
2.8200000000015266, -0.7489668091953231 
2.8300000000015477, -0.7489691554922697 
2.840000000001569, -0.74866860807622 
2.85000000000159, -0.7480385723196663 
2.860000000001611, -0.7469814707410252 
2.870000000001632, -0.7453082269182899 
2.8800000000016532, -0.7427104833694151 
2.8900000000016743, -0.7387505059689841 
2.9000000000016954, -0.7329269575819327 
2.9100000000017165, -0.7248863842197323 
2.9200000000017377, -0.7147448137877214 
2.9300000000017588, -0.703265222344118 
2.94000000000178, -0.6916302211773283 
2.950000000001801, -0.680947993981202 
2.960000000001822, -0.671900990722419 
2.970000000001843, -0.6647104910683224 
2.9800000000018643, -0.6592830356123272 
2.9900000000018854, -0.6553706689799126 
3.0000000000019065, -0.6526781793989447 
3.0100000000019276, -0.6509198067113587 
3.0200000000019487, -0.6498448948140515 
3.03000000000197, -0.6492471894499936 
3.040000000001991, -0.6489654703724455 
3.050000000002012, -0.6488792558326983 
3.060000000002033, -0.6489019036212957 
3.070000000002054, -0.6489730537268331 
3.0800000000020753, -0.6490520797380215 
3.0900000000020964, -0.6491136998438638 
3.1000000000021175, -0.6491459938152974 
3.1100000000021386, -0.6491497119228772 
3.1200000000021597, -0.6491364210893871 
3.130000000002181, -0.6491230496629463 
3.140000000002202, -0.6491227988029138 
3.150000000002223, -0.6491359570925019 
3.160000000002244, -0.6491458436856632 
3.1700000000022652, -0.6491230061139636 
3.1800000000022863, -0.6490358744165505 
3.1900000000023074, -0.6488618669580937 
3.2000000000023285, -0.6485933172137636 
3.2100000000023496, -0.6482373367244685 
3.2200000000023707, -0.647813162332042 
3.230000000002392, -0.647351359594776 
3.240000000002413, -0.646897643448406 
3.250000000002434, -0.6465225181632215 
3.260000000002455, -0.6463372591789003 
3.2700000000024763, -0.6465163339956372 
3.2800000000024974, -0.6473252231263593 
3.2900000000025185, -0.64914977684631 
3.3000000000025396, -0.6525172255238665 
3.3100000000025607, -0.6580869090395203 
3.3200000000025818, -0.6665677232852094 
3.330000000002603, -0.678496913059486 
3.340000000002624, -0.6938399026665769 
3.350000000002645, -0.711547274093524 
3.360000000002666, -0.7295182926339783 
3.3700000000026873, -0.7453789479063391 
3.3800000000027084, -0.7576298352998143 
3.3900000000027295, -0.7661091832965357 
3.4000000000027506, -0.7715339924064619 
3.4100000000027717, -0.7748249190964923 
3.420000000002793, -0.7767346142715887 
3.430000000002814, -0.7777703583170759 
3.440000000002835, -0.778239276550881 
3.450000000002856, -0.7783098894051005 
3.460000000002877, -0.7780554399822133 
3.4700000000028983, -0.7774745904395717 
3.4800000000029194, -0.7764911572737858 
3.4900000000029405, -0.7749323598608533 
3.5000000000029616, -0.7724819744189136 
3.5100000000029827, -0.7686076790943098 
3.520000000003004, -0.7624869908183163 
3.530000000003025, -0.753032538867132 
3.540000000003046, -0.7392333480423554 
3.550000000003067, -0.7209594593267387 
3.5600000000030882, -0.6997558234624652 
3.5700000000031094, -0.678546684163922 
3.5800000000031305, -0.660135436821497 
3.5900000000031516, -0.6459523920024319 
3.6000000000031727, -0.6360055111140944 
3.6100000000031938, -0.6295268301892474 
3.620000000003215, -0.6255654564116953 
3.630000000003236, -0.6232896125369625 
3.640000000003257, -0.622074183863025 
3.650000000003278, -0.6214882142270797 
3.6600000000032993, -0.6212510357157526 
3.6700000000033204, -0.6211869456351449 
3.6800000000033415, -0.6211884080695627 
3.6900000000033626, -0.6211894687639574 
3.7000000000033837, -0.6211482906366962 
3.710000000003405, -0.6210372682407961 
3.720000000003426, -0.6208394121532401 
3.730000000003447, -0.6205494651111751 
3.740000000003468, -0.6201768902407759 
3.750000000003489, -0.6197462983836352 
3.7600000000035103, -0.6192916058502025 
3.7700000000035314, -0.6188446020046948 
3.7800000000035525, -0.6184235251674863 
3.7900000000035736, -0.6180279336915872 
3.8000000000035947, -0.6176421890970112 
3.810000000003616, -0.6172448559534081 
3.820000000003637, -0.6168186861838005 
3.830000000003658, -0.6163569582570819 
3.840000000003679, -0.6158655370773702 
3.8500000000037002, -0.6153630481883163 
3.8600000000037213, -0.6148821815888544 
3.8700000000037424, -0.6144740995119133 
3.8800000000037635, -0.61421673562825 
3.8900000000037847, -0.6142270557369199 
3.9000000000038058, -0.6146768755872574 
3.910000000003827, -0.6158111147929013 
3.920000000003848, -0.6179657231326275 
3.930000000003869, -0.6215785213390406 
3.94000000000389, -0.6271770561013852 
3.9500000000039113, -0.6353103366894179 
3.9600000000039324, -0.6463718414016658 
3.9700000000039535, -0.6602785763845029 
3.9800000000039746, -0.6761110236472869 
3.9900000000039957, -0.6920782720442764 
4.000000000004016, -0.7061570580068082 
4.010000000003993, -0.7170584435929191 
4.02000000000397, -0.7246363772176838 
4.030000000003946, -0.7295088432564141 
4.040000000003923, -0.7324783214565717 
4.0500000000039, -0.7342055810721051 
4.0600000000038765, -0.7351382265315656 
4.070000000003853, -0.7355477083614165 
4.08000000000383, -0.7355817655018013 
4.090000000003807, -0.7353012033016524 
4.100000000003783, -0.7346964382567427 
4.11000000000376, -0.7336847201523848 
4.120000000003737, -0.732087357183849 
4.130000000003713, -0.7295851414780525 
4.14000000000369, -0.7256581601293873 
4.150000000003667, -0.71955067552485 
4.1600000000036434, -0.7103780381343043 
4.17000000000362, -0.6975434909432475 
4.180000000003597, -0.6814108813496588 
4.1900000000035735, -0.6636288863606009 
4.20000000000355, -0.6464952732515483 
4.210000000003527, -0.6318317281678782 
4.220000000003504, -0.6204049926131059 
4.23000000000348, -0.6121063786915707 
4.240000000003457, -0.6063973375068897 
4.250000000003434, -0.6026460260128768 
4.26000000000341, -0.6002897146892551 
4.270000000003387, -0.5988843586642268 
4.280000000003364, -0.5981023803430381 
4.2900000000033405, -0.5977126102365028 
4.300000000003317, -0.5975571942939768 
4.310000000003294, -0.5975309914011004 
4.320000000003271, -0.5975651951445695 
4.330000000003247, -0.5976155189109643 
4.340000000003224, -0.597654785133449 
4.350000000003201, -0.5976694047543429 
4.360000000003177, -0.5976585247893416 
4.370000000003154, -0.5976334935912883 
4.380000000003131, -0.597614621776884 
4.390000000003107, -0.5976234658222541 
4.400000000003084, -0.5976721939754694 
4.410000000003061, -0.5977547874933993 
4.4200000000030375, -0.5978452554585189 
4.430000000003014, -0.5979049137675747 
4.440000000002991, -0.5978954474256339 
4.450000000002968, -0.5977906272347716 
4.460000000002944, -0.5975810815231032 
4.470000000002921, -0.5972722610063165 
4.480000000002898, -0.5968800802066669 
4.490000000002874, -0.5964288776513895 
4.500000000002851, -0.5959544625926907 
4.510000000002828, -0.5955139181313661 
4.520000000002804, -0.59520426109335 
4.530000000002781, -0.5951933507943982 
4.540000000002758, -0.5957673571499436 
4.5500000000027345, -0.597397184799958 
4.560000000002711, -0.6008153547199016 
4.570000000002688, -0.607061359115339 
4.580000000002665, -0.6173794357857587 
4.590000000002641, -0.632762114804947 
4.600000000002618, -0.6530303919127304 
4.610000000002595, -0.6759940937801362 
4.620000000002571, -0.6979764204548777 
4.630000000002548, -0.7158812664672012 
4.640000000002525, -0.7287055438191676 
4.6500000000025015, -0.7371484179014849 
4.660000000002478, -0.7424538135931579 
4.670000000002455, -0.7457054809521184 
4.6800000000024315, -0.7476560648104071 
4.690000000002408, -0.7487795168477265 
4.700000000002385, -0.7493588122474324 
4.710000000002362, -0.7495526208045356 
4.720000000002338, -0.7494354477065517 
4.730000000002315, -0.7490165669022693 
4.740000000002292, -0.7482423456124265 
4.750000000002268, -0.7469846087158774 
4.760000000002245, -0.7450190079878031 
4.770000000002222, -0.7420072247548725 
4.7800000000021985, -0.7375202067530947 
4.790000000002175, -0.731163045581851 
4.800000000002152, -0.7228235326436251 
4.810000000002129, -0.7129093342142258 
4.820000000002105, -0.7023185222110656 
4.830000000002082, -0.6920900838198986 
4.840000000002059, -0.6830188519045937 
4.850000000002035, -0.6755013291839773 
4.860000000002012, -0.6695995544235879 
4.870000000001989, -0.6651762475285952 
4.880000000001965, -0.6620056775162342 
4.890000000001942, -0.6598402340271943 
4.900000000001919, -0.6584447306386929 
4.9100000000018955, -0.6576127214682489 
4.920000000001872, -0.6571732322496276 
