t, s[1].omega / s[0].omega 
0, -0.5800039452669173 
0.009999999999999995, -0.5804148991096152 
0.019999999999999934, -0.5808294537382066 
0.029999999999999874, -0.5811961044139642 
0.04000000000000012, -0.5814651412282339 
0.050000000000000405, -0.5816027050629564 
0.06000000000000069, -0.5815961582553542 
0.07000000000000098, -0.5814500982813267 
0.08000000000000126, -0.5811782876141333 
0.09000000000000155, -0.5807970651982661 
0.10000000000000184, -0.5803229393717704 
0.11000000000000212, -0.5797749748187995 
0.12000000000000241, -0.5791824649079669 
0.130000000000002, -0.5785994776469486 
0.1400000000000009, -0.5781289385886562 
0.1499999999999998, -0.5779578373291042 
0.1599999999999987, -0.5783967246119969 
0.1699999999999976, -0.5798904590763427 
0.1799999999999965, -0.5829159874251214 
0.1899999999999954, -0.5876550937504368 
0.1999999999999943, -0.593517063484406 
0.2099999999999932, -0.5990894821497785 
0.2199999999999921, -0.6030656515140732 
0.229999999999991, -0.6052698434524311 
0.2399999999999899, -0.6064292203453783 
0.2499999999999888, -0.6072560006395347 
0.2599999999999877, -0.6080484009854084 
0.2699999999999866, -0.6088235452332308 
0.2799999999999855, -0.6095184004295406 
0.2899999999999844, -0.6100832206390805 
0.2999999999999833, -0.6104976737515516 
0.3099999999999822, -0.6107604364382695 
0.3199999999999811, -0.6108762987687923 
0.32999999999998, -0.6108470303558866 
0.3399999999999789, -0.6106660423884399 
0.3499999999999778, -0.6103161461355975 
0.35999999999997667, -0.6097708547276093 
0.36999999999997557, -0.6090009561666491 
0.37999999999997447, -0.6079876999555618 
0.38999999999997337, -0.6067398383802174 
0.39999999999997227, -0.6053050256106574 
0.40999999999997117, -0.6037644534832887 
0.41999999999997006, -0.6022100910877073 
0.42999999999996896, -0.6007182296480497 
0.43999999999996786, -0.5993347657060846 
0.44999999999996676, -0.5980763187415001 
0.45999999999996566, -0.5969409315598688 
0.46999999999996456, -0.5959202697811535 
0.47999999999996346, -0.5950086746848462 
0.48999999999996235, -0.5942081959117863 
0.49999999999996125, -0.5935307481684456 
0.5099999999999602, -0.5929988664114679 
0.519999999999959, -0.5926460329432699 
0.529999999999958, -0.592516991489913 
0.5399999999999568, -0.5926681822312294 
0.5499999999999557, -0.5931683849833151 
0.5599999999999546, -0.5940996117717534 
0.5699999999999535, -0.5955579278024006 
0.5799999999999524, -0.5976528222262227 
0.5899999999999513, -0.6005015988270451 
0.5999999999999502, -0.6042119430148464 
0.6099999999999491, -0.608842937180915 
0.619999999999948, -0.6143385276815371 
0.6299999999999469, -0.6204497878579728 
0.6399999999999458, -0.6267058489185161 
0.6499999999999447, -0.632511715814357 
0.6599999999999436, -0.6373641112795301 
0.6699999999999425, -0.641034103055825 
0.6799999999999414, -0.6435771740442686 
0.6899999999999403, -0.6452072260363397 
0.6999999999999392, -0.6461638356003936 
0.7099999999999381, -0.6466410870366447 
0.719999999999937, -0.6467693970112925 
0.7299999999999359, -0.6466205053217602 
0.7399999999999348, -0.6462154070841267 
0.7499999999999337, -0.6455261589003342 
0.7599999999999326, -0.6444675924667733 
0.7699999999999315, -0.6428762059687955 
0.7799999999999304, -0.6404753885247172 
0.7899999999999293, -0.6368365898082365 
0.7999999999999282, -0.6313785020189501 
0.8099999999999271, -0.6235016597403068 
0.819999999999926, -0.6129527263804044 
0.8299999999999249, -0.600275031647421 
0.8399999999999238, -0.586854011846645 
0.8499999999999227, -0.5743047955986635 
0.8599999999999216, -0.5637355878492867 
0.8699999999999205, -0.5555076721958986 
0.8799999999999194, -0.5494498316596658 
0.8899999999999183, -0.5451644794994385 
0.8999999999999172, -0.5422278386214912 
0.9099999999999161, -0.5402758833885916 
0.919999999999915, -0.5390246525933275 
0.9299999999999139, -0.5382634783183873 
0.9399999999999128, -0.5378406850141015 
0.9499999999999117, -0.5376494715717912 
0.9599999999999106, -0.5376163032096174 
0.9699999999999095, -0.5376921618895059 
0.9799999999999084, -0.5378464378312889 
0.9899999999999073, -0.5380630939172455 
0.9999999999999062, -0.5383385149270542 
1.0099999999999052, -0.53867995619892 
1.019999999999904, -0.5391028636185916 
1.029999999999903, -0.5396251379251767 
1.039999999999902, -0.540257436318732 
1.0499999999999008, -0.5409911446946375 
1.0599999999998997, -0.5417890523782264 
1.0699999999998986, -0.5425858771694172 
1.0799999999998975, -0.5433028051627155 
1.0899999999998964, -0.5438707397010152 
1.0999999999998953, -0.544248658952377 
1.1099999999998942, -0.5444268865589168 
1.119999999999893, -0.5444171451943723 
1.129999999999892, -0.5442385704854908 
1.1399999999998909, -0.5439067156592473 
1.1499999999998898, -0.5434271618694776 
1.1599999999998887, -0.542792097978861 
1.1699999999998876, -0.5419774243733103 
1.1799999999998865, -0.5409376232108702 
1.1899999999998854, -0.5395938276995361 
1.1999999999998843, -0.5378051418007965 
1.2099999999998832, -0.5353034441410756 
1.219999999999882, -0.5315696836871956 
1.229999999999881, -0.5256945251335338 
1.2399999999998799, -0.5164982801839848 
1.2499999999998788, -0.5033675268655186 
1.2599999999998777, -0.487455923976707 
1.2699999999998766, -0.4715300817277959 
1.2799999999998755, -0.45811651926544605 
1.2899999999998744, -0.44818883116058067 
1.2999999999998733, -0.4414375725159088 
1.3099999999998722, -0.43707649711672725 
1.319999999999871, -0.43434752290788214 
1.32999999999987, -0.43268002954028384 
1.3399999999998689, -0.43168740033504516 
1.3499999999998678, -0.43112037152996957 
1.3599999999998666, -0.43082223957675686 
1.3699999999998655, -0.4306961797863062 
1.3799999999998644, -0.4306838170710557 
1.3899999999998633, -0.43075207644855523 
1.3999999999998622, -0.4308857438048304 
1.4099999999998611, -0.43108384975145125 
1.41999999999986, -0.43135827873243066 
1.429999999999859, -0.4317328020702509 
1.4399999999998578, -0.43224031868994317 
1.4499999999998567, -0.4329160296016812 
1.4599999999998556, -0.4337851410976647 
1.4699999999998545, -0.434846024146494 
1.4799999999998534, -0.4360542439499107 
1.4899999999998523, -0.4373183718935449 
1.4999999999998512, -0.43851803881282425 
1.5099999999998501, -0.43954061581753284 
1.519999999999849, -0.4403146870345738 
1.529999999999848, -0.440819462889842 
1.5399999999998468, -0.4410703201837259 
1.5499999999998457, -0.44109593215073695 
1.5599999999998446, -0.44091955329034577 
1.5699999999998435, -0.44054704345236956 
1.5799999999998424, -0.4399580717482839 
1.5899999999998413, -0.4390954334714549 
1.5999999999998402, -0.43784775715974134 
1.6099999999998391, -0.43602262483376986 
1.619999999999838, -0.43331488708140925 
1.629999999999837, -0.42929984288427747 
1.6399999999998358, -0.423527538112049 
1.6499999999998347, -0.415801561732858 
1.6599999999998336, -0.4065373246602954 
1.6699999999998325, -0.3967918890010384 
1.6799999999998314, -0.38775635464870956 
1.6899999999998303, -0.3801834052454732 
1.6999999999998292, -0.3742535916704607 
1.709999999999828, -0.36978657603275045 
1.719999999999827, -0.3664814173314383 
1.729999999999826, -0.364051278128441 
1.7399999999998248, -0.3622695000988699 
1.7499999999998237, -0.36097285077095026 
1.7599999999998226, -0.36005099527314605 
1.7699999999998215, -0.3594347528006166 
1.7799999999998204, -0.3590872569366744 
1.7899999999998193, -0.35899889917505345 
1.7999999999998182, -0.3591860516876052 
1.809999999999817, -0.3596935761837977 
1.819999999999816, -0.36060136526758135 
1.8299999999998149, -0.36203517437373567 
1.8399999999998138, -0.36418101969636457 
1.8499999999998127, -0.36729865452449917 
1.8599999999998116, -0.37171947787929943 
1.8699999999998105, -0.37779375221235567 
1.8799999999998094, -0.3857304205171678 
1.8899999999998083, -0.3953084500063303 
1.8999999999998072, -0.4056304640098265 
1.909999999999806, -0.41530983948647265 
1.919999999999805, -0.42317350134056 
1.9299999999998039, -0.42882748586626007 
1.9399999999998028, -0.4325596766759971 
1.9499999999998017, -0.4349015866197935 
1.9599999999998006, -0.43632537635103785 
1.9699999999997995, -0.4371584824983099 
1.9799999999997984, -0.4376030089446147 
1.9899999999997973, -0.4377750210962347 
1.9999999999997962, -0.43773504842099237 
2.0099999999998173, -0.43750705223137976 
2.0199999999998384, -0.43708996729118904 
2.0299999999998595, -0.4364668303014967 
2.0399999999998806, -0.435616237385807 
2.0499999999999017, -0.43452907731389023 
2.059999999999923, -0.43322795314633106 
2.069999999999944, -0.43177853222411694 
2.079999999999965, -0.4302804002558879 
2.089999999999986, -0.4288380948868181 
2.100000000000007, -0.42752995129815224 
2.1100000000000283, -0.42639274884131134 
2.1200000000000494, -0.425425219283027 
2.1300000000000705, -0.4246019461716334 
2.1400000000000916, -0.42388850491502394 
2.1500000000001127, -0.4232528799458418 
2.160000000000134, -0.42267189007260947 
2.170000000000155, -0.4221336279511173 
2.180000000000176, -0.4216380284432787 
2.190000000000197, -0.4211977981799916 
2.2000000000002182, -0.4208415630105293 
2.2100000000002393, -0.4206208780127961 
2.2200000000002604, -0.4206230503771309 
2.2300000000002815, -0.4209924332630921 
2.2400000000003026, -0.4219631028697745 
2.2500000000003237, -0.42390273384756405 
2.260000000000345, -0.4273526648967657 
2.270000000000366, -0.4330045169061377 
2.280000000000387, -0.4414664491582764 
2.290000000000408, -0.45264066979281814 
2.3000000000004293, -0.4649478303087015 
2.3100000000004504, -0.4755818783596051 
2.3200000000004715, -0.48247960124269235 
2.3300000000004926, -0.48580757533455604 
2.3400000000005137, -0.48705707234105916 
2.3500000000005348, -0.4875116066283242 
2.360000000000556, -0.48778405821085463 
2.370000000000577, -0.4880507709461061 
2.380000000000598, -0.48831978601038173 
2.390000000000619, -0.48856203700825895 
2.4000000000006403, -0.48875258129125915 
2.4100000000006614, -0.48887643693524 
2.4200000000006825, -0.4889249874937155 
2.4300000000007036, -0.48889182861975994 
2.4400000000007247, -0.48877045380071377 
2.450000000000746, -0.48855443343679605 
2.460000000000767, -0.48824036486845523 
2.470000000000788, -0.48783315652081266 
2.480000000000809, -0.4873514617468989 
2.49000000000083, -0.48682922033260656 
2.5000000000008513, -0.4863098957971627 
2.5100000000008724, -0.48583436730989754 
2.5200000000008935, -0.4854282179716557 
2.5300000000009146, -0.4850947211894857 
2.5400000000009357, -0.484816252136274 
2.550000000000957, -0.4845626361411499 
2.560000000000978, -0.484302168831208 
2.570000000000999, -0.48401043841894004 
2.58000000000102, -0.4836741343763965 
2.5900000000010412, -0.48329044053904324 
2.6000000000010624, -0.48286478477492506 
2.6100000000010835, -0.4824097071007949 
2.6200000000011046, -0.4819466296704683 
2.6300000000011257, -0.48151174659732476 
2.6400000000011468, -0.48116746287324774 
2.650000000001168, -0.48102126478244456 
2.660000000001189, -0.4812530165653164 
2.67000000000121, -0.48214520079223727 
2.680000000001231, -0.48408857973207287 
2.6900000000012523, -0.4874849252017947 
2.7000000000012734, -0.4924145348380594 
2.7100000000012945, -0.4980718785047616 
2.7200000000013156, -0.5025853720468462 
2.7300000000013367, -0.504176582463022 
2.740000000001358, -0.5028293461845715 
2.750000000001379, -0.5001129568342206 
2.7600000000014, -0.49754947490310036 
2.770000000001421, -0.49577496104271584 
2.780000000001442, -0.49477548405298755 
2.7900000000014633, -0.4943169778983222 
2.8000000000014844, -0.49417191642046215 
2.8100000000015055, -0.49418035860340404 
2.8200000000015266, -0.4942443147741337 
2.8300000000015477, -0.49430760882164276 
2.840000000001569, -0.49433846353300703 
2.85000000000159, -0.49431795103671855 
2.860000000001611, -0.4942336251627813 
2.870000000001632, -0.49407731712536673 
2.8800000000016532, -0.49384634641379266 
2.8900000000016743, -0.49354705205587585 
2.9000000000016954, -0.49319827744355615 
2.9100000000017165, -0.4928312622699065 
2.9200000000017377, -0.49248339071829783 
2.9300000000017588, -0.49218703055692686 
2.94000000000178, -0.49195844055816573 
2.950000000001801, -0.49179211696518144 
2.960000000001822, -0.491663161932539 
2.970000000001843, -0.49153646283735686 
2.9800000000018643, -0.4913782437886486 
2.9900000000018854, -0.4911646075832679 
3.0000000000019065, -0.490884197425868 
3.0100000000019276, -0.4905361257494706 
3.0200000000019487, -0.4901264897575473 
3.03000000000197, -0.4896663509177103 
3.040000000001991, -0.4891727267100488 
3.050000000002012, -0.4886734469227617 
3.060000000002033, -0.48821684679422184 
3.070000000002054, -0.48788739621761296 
3.0800000000020753, -0.4878265045613933 
3.0900000000020964, -0.48824896113024974 
3.1000000000021175, -0.48941972880657947 
3.1100000000021386, -0.49150674360451985 
3.1200000000021597, -0.4942105340922874 
3.130000000002181, -0.4963263990591261 
3.140000000002202, -0.49602846416327573 
3.150000000002223, -0.49241910391530463 
3.160000000002244, -0.4866555601344464 
3.1700000000022652, -0.48083537647158636 
3.1800000000022863, -0.4763007832003546 
3.1900000000023074, -0.47330316353068425 
3.2000000000023285, -0.4715325409388426 
3.2100000000023496, -0.4705783862075382 
3.2200000000023707, -0.4701131618482711 
3.230000000002392, -0.46991825502365253 
3.240000000002413, -0.46985958249198817 
3.250000000002434, -0.4698582837271286 
3.260000000002455, -0.46986867778807434 
3.2700000000024763, -0.4698642061544562 
3.2800000000024974, -0.46982958212889103 
3.2900000000025185, -0.4697574993491447 
3.3000000000025396, -0.46964862683688346 
3.3100000000025607, -0.4695133847270447 
3.3200000000025818, -0.4693731558217708 
3.330000000002603, -0.4692581113213029 
3.340000000002624, -0.46920007618117615 
3.350000000002645, -0.4692218184629577 
3.360000000002666, -0.4693268401159951 
3.3700000000026873, -0.46949443732337165 
3.3800000000027084, -0.46968331988138046 
3.3900000000027295, -0.46984341555394266 
3.4000000000027506, -0.46993052102308236 
3.4100000000027717, -0.46991621853827475 
3.420000000002793, -0.4697890785800749 
3.430000000002814, -0.4695492021625364 
3.440000000002835, -0.4692008621224616 
3.450000000002856, -0.4687465414690477 
3.460000000002877, -0.4681830480136252 
3.4700000000028983, -0.4674986408035838 
3.4800000000029194, -0.4666689480340726 
3.4900000000029405, -0.4656472739317734 
3.5000000000029616, -0.4643391843857111 
3.5100000000029827, -0.46253939505182295 
3.520000000003004, -0.45979708199061964 
3.530000000003025, -0.4552149113971474 
3.540000000003046, -0.44741309066870266 
3.550000000003067, -0.4352465849648346 
3.5600000000030882, -0.419318353786457 
3.5700000000031094, -0.4024159488184543 
3.5800000000031305, -0.38760318301361585 
3.5900000000031516, -0.3763309062945119 
3.6000000000031727, -0.368471833027566 
3.6100000000031938, -0.36324280493489514 
3.620000000003215, -0.35983955013724356 
3.630000000003236, -0.3576481316967083 
3.640000000003257, -0.3562512548616333 
3.650000000003278, -0.35537953574336434 
3.6600000000032993, -0.3548636454002458 
3.6700000000033204, -0.3545997665765262 
3.6800000000033415, -0.3545273994987748 
3.6900000000033626, -0.35461615413890135 
3.7000000000033837, -0.35485870145818177 
3.710000000003405, -0.35526791858940604 
3.720000000003426, -0.35587673346467297 
3.730000000003447, -0.3567390441763233 
3.740000000003468, -0.3579292236223818 
3.750000000003489, -0.3595359586221556 
3.7600000000035103, -0.3616437052026183 
3.7700000000035314, -0.36429429802276353 
3.7800000000035525, -0.36743006742496037 
3.7900000000035736, -0.37084701739751175 
3.8000000000035947, -0.3742148559824507 
3.810000000003616, -0.3771905229881217 
3.820000000003637, -0.3795542801304844 
3.830000000003658, -0.38126042718721026 
3.840000000003679, -0.382387167997809 
3.8500000000037002, -0.38305604219412864 
3.8600000000037213, -0.38337718799943515 
3.8700000000037424, -0.3834277172572581 
3.8800000000037635, -0.38324857123907097 
3.8900000000037847, -0.38284702529514264 
3.9000000000038058, -0.38219929292705346 
3.910000000003827, -0.38125357705878404 
3.920000000003848, -0.3799387200115112 
3.930000000003869, -0.3781870821469942 
3.94000000000389, -0.3759767221650233 
3.9500000000039113, -0.3733788518509176 
3.9600000000039324, -0.370571420269314 
3.9700000000039535, -0.36778917982438497 
3.9800000000039746, -0.36523771544449124 
3.9900000000039957, -0.36303451025104916 
4.000000000004016, -0.3612054969891413 
4.010000000003993, -0.35971603870258956 
4.02000000000397, -0.35850564202463714 
4.030000000003946, -0.3575119409912658 
4.040000000003923, -0.35668316418505414 
4.0500000000039, -0.35598288029816333 
4.0600000000038765, -0.35539088308521755 
4.070000000003853, -0.3549031591491231 
4.08000000000383, -0.35453306467832846 
4.090000000003807, -0.35431538690925146 
4.100000000003783, -0.3543150326916181 
4.11000000000376, -0.35464269210638943 
4.120000000003737, -0.35548064662842754 
4.130000000003713, -0.357121491327956 
4.14000000000369, -0.3600158878130475 
4.150000000003667, -0.3647982617785873 
4.1600000000036434, -0.3721846906397648 
4.17000000000362, -0.3825231120975701 
4.180000000003597, -0.39488482851115375 
4.1900000000035735, -0.40651100046279065 
4.20000000000355, -0.41429447276266257 
4.210000000003527, -0.41742896443344685 
4.220000000003504, -0.4175502438494158 
4.23000000000348, -0.4166190790862715 
4.240000000003457, -0.415698168163511 
4.250000000003434, -0.41509018376251117 
4.26000000000341, -0.41477141465639794 
4.270000000003387, -0.41464273641120036 
4.280000000003364, -0.4146170135193855 
4.2900000000033405, -0.41463508531866305 
4.300000000003317, -0.4146606878278164 
4.310000000003294, -0.4146725982067374 
4.320000000003271, -0.41465893841317697 
4.330000000003247, -0.41461439296975255 
4.340000000003224, -0.41454005622510487 
4.350000000003201, -0.4144451644018621 
4.360000000003177, -0.41434920231092925 
4.370000000003154, -0.41428201161540235 
4.380000000003131, -0.41427961203175584 
4.390000000003107, -0.4143752278797728 
4.400000000003084, -0.41458763672272286 
4.410000000003061, -0.4149108438047994 
4.4200000000030375, -0.4153098411459856 
4.430000000003014, -0.415726469305595 
4.440000000002991, -0.4160951876406879 
4.450000000002968, -0.4163615521040036 
4.460000000002944, -0.41649327272205783 
4.470000000002921, -0.41647938552992575 
4.480000000002898, -0.4163212475442969 
4.490000000002874, -0.4160216558764481 
4.500000000002851, -0.41557545139108953 
4.510000000002828, -0.4149610693421558 
4.520000000002804, -0.4141298977209221 
4.530000000002781, -0.41298830075043014 
4.540000000002758, -0.41136466887608203 
4.5500000000027345, -0.4089526580351045 
4.560000000002711, -0.40523405647972977 
4.570000000002688, -0.3994448470134667 
4.580000000002665, -0.3907795035890212 
4.590000000002641, -0.37903649769331194 
4.600000000002618, -0.3653164737887607 
4.610000000002595, -0.3517207127240138 
4.620000000002571, -0.3400606557512018 
4.630000000002548, -0.33104064597500654 
4.640000000002525, -0.32447376280692497 
4.6500000000025015, -0.319827874411899 
4.660000000002478, -0.3165712333808392 
4.670000000002455, -0.31428976766636885 
4.6800000000024315, -0.3126932925202843 
4.690000000002408, -0.31158936245802116 
4.700000000002385, -0.31085599139583453 
4.710000000002362, -0.3104214834858491 
4.720000000002338, -0.31025186071798616 
4.730000000002315, -0.3103446965491351 
4.740000000002292, -0.31072840052271616 
4.750000000002268, -0.31146666071310924 
4.760000000002245, -0.31266827936007485 
4.770000000002222, -0.314502454982397 
4.7800000000021985, -0.31721722205269526 
4.790000000002175, -0.3211506829241112 
4.800000000002152, -0.3267046359849179 
4.810000000002129, -0.3342177877319038 
4.820000000002105, -0.34367428012096224 
4.830000000002082, -0.35434307412898586 
4.840000000002059, -0.3647775827745893 
4.850000000002035, -0.3735125549452928 
4.860000000002012, -0.3798793160290959 
4.870000000001989, -0.3840818570575381 
