t, s[1].omega / s[0].omega 
0, -0.6099977250068445 
0.009999999999999995, -0.6097833598782997 
0.019999999999999934, -0.6095859686555214 
0.029999999999999874, -0.6093826738518355 
0.04000000000000012, -0.6091466232268099 
0.050000000000000405, -0.608857144014493 
0.06000000000000069, -0.6085055835730715 
0.07000000000000098, -0.6080961710337424 
0.08000000000000126, -0.6076447240901539 
0.09000000000000155, -0.6071787447470763 
0.10000000000000184, -0.606741317486012 
0.11000000000000212, -0.6064001174133342 
0.12000000000000241, -0.606262460164163 
0.130000000000002, -0.6064972817719568 
0.1400000000000009, -0.6073644004560147 
0.1499999999999998, -0.6092491308764909 
0.1599999999999987, -0.6126937870939234 
0.1699999999999976, -0.6184019156073812 
0.1799999999999965, -0.6271605699542133 
0.1899999999999954, -0.6395899337007509 
0.1999999999999943, -0.6556588496090046 
0.2099999999999932, -0.6741510372674584 
0.2199999999999921, -0.6926823155881217 
0.229999999999991, -0.7087149948932538 
0.2399999999999899, -0.7208422977413014 
0.2499999999999888, -0.7291078874108765 
0.2599999999999877, -0.7343637603504832 
0.2699999999999866, -0.7375644345706361 
0.2799999999999855, -0.739447073757016 
0.2899999999999844, -0.7404956048397476 
0.2999999999999833, -0.7410008666402217 
0.3099999999999822, -0.7411237592779555 
0.3199999999999811, -0.7409370401473389 
0.32999999999998, -0.7404454090461233 
0.3399999999999789, -0.7395871562625125 
0.3499999999999778, -0.7382189036876519 
0.35999999999997667, -0.736084721188187 
0.36999999999997557, -0.7327790017460786 
0.37999999999997447, -0.7277396424289794 
0.38999999999997337, -0.720355118489908 
0.39999999999997227, -0.7102739958949187 
0.40999999999997117, -0.697827615905493 
0.41999999999997006, -0.6841743166329997 
0.42999999999996896, -0.6708693669168411 
0.43999999999996786, -0.6591851777524244 
0.44999999999996676, -0.6497484333346495 
0.45999999999996566, -0.6426089543005132 
0.46999999999996456, -0.637486044122894 
0.47999999999996346, -0.6339798631666965 
0.48999999999996235, -0.6316924783056332 
0.49999999999996125, -0.6302804059953341 
0.5099999999999602, -0.6294696134994912 
0.519999999999959, -0.6290529899230919 
0.529999999999958, -0.628880539188193 
0.5399999999999568, -0.6288473201021445 
0.5499999999999557, -0.6288818083135731 
0.5599999999999546, -0.6289362504224528 
0.5699999999999535, -0.6289799113529174 
0.5799999999999524, -0.6289954876160614 
0.5899999999999513, -0.6289780441977181 
0.5999999999999502, -0.628934554631448 
0.6099999999999491, -0.6288812302927522 
0.619999999999948, -0.6288367513142974 
0.6299999999999469, -0.6288126273414483 
0.6399999999999458, -0.6288051213251074 
0.6499999999999447, -0.6287935998978368 
0.6599999999999436, -0.6287469920461813 
0.6699999999999425, -0.628635085373286 
0.6799999999999414, -0.6284383914795553 
0.6899999999999403, -0.6281521533389129 
0.6999999999999392, -0.6277850389807674 
0.7099999999999381, -0.627356479575035 
0.719999999999937, -0.6268965575647583 
0.7299999999999359, -0.6264507250971806 
0.7399999999999348, -0.6260905505679111 
0.7499999999999337, -0.6259315229904517 
0.7599999999999326, -0.6261589355260367 
0.7699999999999315, -0.6270619263455133 
0.7799999999999304, -0.6290722956666769 
0.7899999999999293, -0.6327957302603398 
0.7999999999999282, -0.6390032437447286 
0.8099999999999271, -0.6485161312043973 
0.819999999999926, -0.6618885840010799 
0.8299999999999249, -0.678863130233073 
0.8399999999999238, -0.6978907201954837 
0.8499999999999227, -0.71637769002715 
0.8599999999999216, -0.7318944242888612 
0.8699999999999205, -0.7433426653549849 
0.8799999999999194, -0.7510089824035604 
0.8899999999999183, -0.7558266312729901 
0.8999999999999172, -0.7587327760195168 
0.9099999999999161, -0.7604212845671285 
0.919999999999915, -0.7613382986128777 
0.9299999999999139, -0.761747845017559 
0.9399999999999128, -0.7617920616138243 
0.9499999999999117, -0.7615288194790256 
0.9599999999999106, -0.7609477853469274 
0.9699999999999095, -0.7599676435633201 
0.9799999999999084, -0.7584148522669378 
0.9899999999999073, -0.7559840645669216 
0.9999999999999062, -0.7521900791884488 
1.0099999999999052, -0.7463549287258303 
1.019999999999904, -0.7377352353685076 
1.029999999999903, -0.7259080375348109 
1.039999999999902, -0.7113086112153021 
1.0499999999999008, -0.695410144933575 
1.0599999999998997, -0.6801529116440618 
1.0699999999998986, -0.6670622025926718 
1.0799999999998975, -0.6568083150019141 
1.0899999999998964, -0.6493359094915029 
1.0999999999998953, -0.6442054882954242 
1.1099999999998942, -0.6408688641918056 
1.119999999999893, -0.6388168854117507 
1.129999999999892, -0.637635468638299 
1.1399999999998909, -0.637013501360379 
1.1499999999998898, -0.6367299915819755 
1.1599999999998887, -0.63663451569478 
1.1699999999998876, -0.636627680954061 
1.1799999999998865, -0.6366446701502614 
1.1899999999998854, -0.6366431217103669 
1.1999999999998843, -0.6365956968562797 
1.2099999999998832, -0.6364870772282607 
1.219999999999882, -0.6363142057309031 
1.229999999999881, -0.636087136409418 
1.2399999999998799, -0.6358269349549619 
1.2499999999998788, -0.6355585426206527 
1.2599999999998777, -0.6353004885510627 
1.2699999999998766, -0.6350566770419106 
1.2799999999998755, -0.6348149877754329 
1.2899999999998744, -0.6345534303669915 
1.2999999999998733, -0.6342501406142274 
1.3099999999998722, -0.6338918288086637 
1.319999999999871, -0.6334775804832892 
1.32999999999987, -0.6330189215434248 
1.3399999999998689, -0.632539363252449 
1.3499999999998678, -0.632076335789032 
1.3599999999998666, -0.6316870333464014 
1.3699999999998655, -0.6314586092426591 
1.3799999999998644, -0.6315225318283602 
1.3899999999998633, -0.6320722553718288 
1.3999999999998622, -0.6333821118029486 
1.4099999999998611, -0.6358227216391894 
1.41999999999986, -0.6398626658768297 
1.429999999999859, -0.6460350553883863 
1.4399999999998578, -0.6548306602542293 
1.4499999999998567, -0.6664717854634663 
1.4599999999998556, -0.6805770832239457 
1.4699999999998545, -0.695912060799586 
1.4799999999998534, -0.710604479775793 
1.4899999999998523, -0.7229357202423886 
1.4999999999998512, -0.7321072294008584 
1.5099999999998501, -0.7383072285790013 
1.519999999999849, -0.7422243792232236 
1.529999999999848, -0.7445795491428714 
1.5399999999998468, -0.7459216714118021 
1.5499999999998457, -0.7466089807208538 
1.5599999999998446, -0.7468527379963215 
1.5699999999998435, -0.7467615254374195 
1.5799999999998424, -0.7463686527136423 
1.5899999999998413, -0.7456410874898348 
1.5999999999998402, -0.744470278373456 
1.6099999999998391, -0.7426432720576461 
1.619999999999838, -0.739792838264212 
1.629999999999837, -0.735337842234167 
1.6399999999998358, -0.7284689649348411 
1.6499999999998347, -0.7183167946738338 
1.6599999999998336, -0.7044544977871735 
1.6699999999998325, -0.6875698085036508 
1.6799999999998314, -0.6696006807352917 
1.6899999999998303, -0.6528855642668652 
1.6999999999998292, -0.6390531030476905 
1.709999999999828, -0.6286196847924627 
1.719999999999827, -0.6212917111494553 
1.729999999999826, -0.6164312292954286 
1.7399999999998248, -0.6133684878491591 
1.7499999999998237, -0.6115385474294791 
1.7599999999998226, -0.6105134668017127 
1.7699999999998215, -0.6099894461346975 
1.7799999999998204, -0.6097602703536678 
1.7899999999998193, -0.6096904113060634 
1.7999999999998182, -0.6096925621441402 
1.809999999999817, -0.6097108104995265 
1.819999999999816, -0.6097093532665976 
1.8299999999998149, -0.6096662508144053 
1.8399999999998138, -0.6095713873538997 
1.8499999999998127, -0.6094269639928512 
1.8599999999998116, -0.6092475936513749 
1.8699999999998105, -0.6090567095634991 
1.8799999999998094, -0.6088781312935803 
1.8899999999998083, -0.6087255972964355 
1.8999999999998072, -0.6085956418601693 
1.909999999999806, -0.6084680115111196 
1.919999999999805, -0.6083136400497077 
1.9299999999998039, -0.6081057854849735 
1.9399999999998028, -0.6078284973191332 
1.9499999999998017, -0.6074794469721927 
1.9599999999998006, -0.6070686432513875 
1.9699999999997995, -0.6066168441428492 
1.9799999999997984, -0.6061569339759085 
1.9899999999997973, -0.6057401571812199 
1.9999999999997962, -0.6054484189235761 
2.0099999999998173, -0.6054139249676991 
2.0199999999998384, -0.6058474897323795 
2.0299999999998595, -0.6070757588664623 
2.0399999999998806, -0.6095833018484746 
2.0499999999999017, -0.614043661815101 
2.059999999999923, -0.6212966124603574 
2.069999999999944, -0.6321843225505718 
2.079999999999965, -0.6471356873789317 
2.089999999999986, -0.6655299156556931 
2.100000000000007, -0.6853143833672612 
2.1100000000000283, -0.7036283156918307 
2.1200000000000494, -0.7182808934551927 
2.1300000000000705, -0.728676788660344 
2.1400000000000916, -0.7354597622640637 
2.1500000000001127, -0.7396640025688171 
2.160000000000134, -0.742184826901054 
2.170000000000155, -0.7436421769762707 
2.180000000000176, -0.7444214399620295 
2.190000000000197, -0.7447458020088725 
2.2000000000002182, -0.7447312959645912 
2.2100000000002393, -0.7444181398296299 
2.2200000000002604, -0.7437819570753137 
2.2300000000002815, -0.742727845441288 
2.2400000000003026, -0.7410685767325028 
2.2500000000003237, -0.7384911300975682 
2.260000000000345, -0.734531512709679 
2.270000000000366, -0.728614374698161 
2.280000000000387, -0.7202481086165295 
2.290000000000408, -0.709394355196292 
2.3000000000004293, -0.696774678513147 
2.3100000000004504, -0.6837310999082061 
2.3200000000004715, -0.6716488173128845 
2.3300000000004926, -0.66143720104632 
2.3400000000005137, -0.6534096639011507 
2.3500000000005348, -0.6474527334650081 
2.360000000000556, -0.6432452897048544 
2.370000000000577, -0.6404111669522594 
2.380000000000598, -0.6385980855649073 
2.390000000000619, -0.6375093884378598 
2.4000000000006403, -0.6369112841870959 
2.4100000000006614, -0.6366285147505195 
2.4200000000006825, -0.6365349891023688 
2.4300000000007036, -0.6365429158410909 
2.4400000000007247, -0.6365926244288002 
2.450000000000746, -0.6366445058579149 
2.460000000000767, -0.6366738732841484 
2.470000000000788, -0.6366687572484923 
2.480000000000809, -0.636629471662785 
2.49000000000083, -0.6365674839555604 
2.5000000000008513, -0.6365009100353686 
2.5100000000008724, -0.6364460530904466 
2.5200000000008935, -0.6364079737407602 
2.5300000000009146, -0.6363751877831407 
2.5400000000009357, -0.6363220996680379 
2.550000000000957, -0.6362183290164379 
2.560000000000978, -0.6360397311046785 
2.570000000000999, -0.6357753552732234 
2.58000000000102, -0.6354284797912245 
2.5900000000010412, -0.635014386128035 
2.6000000000010624, -0.63455902573618 
2.6100000000010835, -0.6341015522578994 
2.6200000000011046, -0.6337021793880812 
2.6300000000011257, -0.6334561414142179 
2.6400000000011468, -0.6335143242941246 
2.650000000001168, -0.634110492541394 
2.660000000001189, -0.6355928929343349 
2.67000000000121, -0.6384526903724133 
2.680000000001231, -0.6433300223030001 
2.6900000000012523, -0.6509563749946623 
2.7000000000012734, -0.6619635949675781 
2.7100000000012945, -0.6764976621955239 
2.7200000000013156, -0.6937292765118597 
2.7300000000013367, -0.7116901840896347 
2.740000000001358, -0.7279387639004108 
2.750000000001379, -0.7407579362322562 
2.7600000000014, -0.7497841873662389 
2.770000000001421, -0.7556415942939905 
2.780000000001442, -0.7592442957411716 
2.7900000000014633, -0.7613725648928861 
2.8000000000014844, -0.7625649121456204 
2.8100000000015055, -0.7631539920032229 
2.8200000000015266, -0.7633283094198792 
2.8300000000015477, -0.7631785687592434 
2.840000000001569, -0.7627223357604948 
2.85000000000159, -0.7619089724709888 
2.860000000001611, -0.7606057444487427 
2.870000000001632, -0.7585637984961974 
2.8800000000016532, -0.7553656064565344 
2.8900000000016743, -0.750375484381901 
2.9000000000016954, -0.7427696508778147 
2.9100000000017165, -0.7317941695899968 
2.9200000000017377, -0.7173311132069482 
2.9300000000017588, -0.7004402799105917 
2.94000000000178, -0.6831873210093488 
2.950000000001801, -0.6676746941799557 
2.960000000001822, -0.6551560337672453 
2.970000000001843, -0.6458849903089705 
2.9800000000018643, -0.6394722652959486 
2.9900000000018854, -0.6352872063636673 
3.0000000000019065, -0.6327041801852706 
3.0100000000019276, -0.6312052553403451 
3.0200000000019487, -0.6304014396134948 
3.03000000000197, -0.6300185855706628 
3.040000000001991, -0.6298722237400881 
3.050000000002012, -0.6298422289388076 
3.060000000002033, -0.6298516351170903 
3.070000000002054, -0.629850920047465 
3.0800000000020753, -0.6298078488922049 
3.0900000000020964, -0.6297024879976245 
3.1000000000021175, -0.6295264718022192 
3.1100000000021386, -0.6292844413733989 
3.1200000000021597, -0.6289941554529933 
3.130000000002181, -0.628681905978967 
3.140000000002202, -0.6283730012520926 
3.150000000002223, -0.6280814304961861 
3.160000000002244, -0.6278044168388998 
3.1700000000022652, -0.6275248770476658 
3.1800000000022863, -0.6272200907649443 
3.1900000000023074, -0.6268715655239545 
3.2000000000023285, -0.6264714608696555 
3.2100000000023496, -0.6260244397048782 
3.2200000000023707, -0.625547237496224 
3.230000000002392, -0.6250691879807093 
3.240000000002413, -0.6246359429957853 
3.250000000002434, -0.6243173534402748 
3.260000000002455, -0.6242197079833007 
3.2700000000024763, -0.6245020202038353 
3.2800000000024974, -0.6253952604549542 
3.2900000000025185, -0.6272216825984123 
3.3000000000025396, -0.6304074811198126 
3.3100000000025607, -0.6354735282426595 
3.3200000000025818, -0.6429732025821099 
3.330000000002603, -0.653328047369089 
3.340000000002624, -0.6665250941433555 
3.350000000002645, -0.6817621205636827 
3.360000000002666, -0.6973696136971477 
3.3700000000026873, -0.7113644466105443 
3.3800000000027084, -0.7223821498749264 
3.3900000000027295, -0.7301540747744353 
3.4000000000027506, -0.7352113736077517 
3.4100000000027717, -0.738324436979032 
3.420000000002793, -0.7401546202306426 
3.430000000002814, -0.7411609852591666 
3.440000000002835, -0.7416272665508459 
3.450000000002856, -0.741712007993004 
3.460000000002877, -0.7414862746732822 
3.4700000000028983, -0.7409524632695283 
3.4800000000029194, -0.7400449143118203 
3.4900000000029405, -0.7386121808785566 
3.5000000000029616, -0.7363794267072407 
3.5100000000029827, -0.7328946558550163 
3.520000000003004, -0.7274882727938902 
3.530000000003025, -0.7193379452696524 
3.540000000003046, -0.7077914399808459 
3.550000000003067, -0.6929658668704852 
3.5600000000030882, -0.6761735872781843 
3.5700000000031094, -0.6595316012833542 
3.5800000000031305, -0.6449369236172413 
3.5900000000031516, -0.6333561615848947 
3.6000000000031727, -0.6248495490347982 
3.6100000000031938, -0.6189657762733121 
3.620000000003215, -0.6150977484346368 
3.630000000003236, -0.61267639847277 
3.640000000003257, -0.6112414755085587 
3.650000000003278, -0.6104495744944646 
3.6600000000032993, -0.6100576010946409 
3.6700000000033204, -0.6098999486599577 
3.6800000000033415, -0.6098669073692115 
3.6900000000033626, -0.6098870136029015 
3.7000000000033837, -0.6099140784038763 
3.710000000003405, -0.6099188776474738 
3.720000000003426, -0.6098850989521248 
3.730000000003447, -0.6098085175131179 
3.740000000003468, -0.6096972442380812 
3.750000000003489, -0.6095699155456871 
3.7600000000035103, -0.6094494513466457 
3.7700000000035314, -0.609353167373907 
3.7800000000035525, -0.6092835690956464 
3.7900000000035736, -0.609225004721003 
3.8000000000035947, -0.6091485643017599 
3.810000000003616, -0.6090228393425158 
3.820000000003637, -0.6088246458315141 
3.830000000003658, -0.6085446111856819 
3.840000000003679, -0.6081870248153457 
3.8500000000037002, -0.6077672970502409 
3.8600000000037213, -0.6073110468177421 
3.8700000000037424, -0.6068574675726145 
3.8800000000037635, -0.6064684700370564 
3.8900000000037847, -0.6062449622496757 
3.9000000000038058, -0.6063519951929635 
3.910000000003827, -0.6070543540393875 
3.920000000003848, -0.6087618594757047 
3.930000000003869, -0.6120757113675844 
3.94000000000389, -0.617806733137495 
3.9500000000039113, -0.6268948658684733 
3.9600000000039324, -0.6401086065681253 
3.9700000000039535, -0.6574419240117774 
3.9800000000039746, -0.6774623570171862 
3.9900000000039957, -0.6973947505902971 
4.000000000004016, -0.714416407295791 
4.010000000003993, -0.7271123780351607 
4.02000000000397, -0.7356761048079801 
4.030000000003946, -0.7410957944720437 
4.040000000003923, -0.7443987696471137 
4.0500000000039, -0.7463530609442307 
4.0600000000038765, -0.7474557239705499 
4.070000000003853, -0.748004584319491 
4.08000000000383, -0.7481654978171097 
4.090000000003807, -0.7480156252808059 
4.100000000003783, -0.7475644472028258 
4.11000000000376, -0.7467565927098444 
4.120000000003737, -0.7454585727189972 
4.130000000003713, -0.7434314257501377 
4.14000000000369, -0.7402992809422497 
4.150000000003667, -0.7355488479069701 
4.1600000000036434, -0.7286345607748854 
4.17000000000362, -0.7192597688624558 
4.180000000003597, -0.7077410142861629 
4.1900000000035735, -0.6951157135967773 
4.20000000000355, -0.682762493628151 
4.210000000003527, -0.6718215871689496 
4.220000000003504, -0.662882193158431 
4.23000000000348, -0.6560296477478731 
4.240000000003457, -0.6510467303275704 
4.250000000003434, -0.6475935493122915 
4.26000000000341, -0.6453160327277621 
4.270000000003387, -0.6438975672828762 
4.280000000003364, -0.6430778454315036 
4.2900000000033405, -0.6426550483828384 
4.300000000003317, -0.6424799259779973 
4.310000000003294, -0.6424463201182677 
4.320000000003271, -0.6424809293569379 
4.330000000003247, -0.6425342378862383 
4.340000000003224, -0.6425738784946194 
4.350000000003201, -0.642580995102434 
4.360000000003177, -0.6425491625935453 
4.370000000003154, -0.6424840439235091 
4.380000000003131, -0.6424009565980362 
4.390000000003107, -0.6423183619453415 
4.400000000003084, -0.6422484199478645 
4.410000000003061, -0.6421890198836036 
4.4200000000030375, -0.642122096190259 
4.430000000003014, -0.6420197770825378 
4.440000000002991, -0.6418550813513307 
4.450000000002968, -0.6416111975893064 
4.460000000002944, -0.6412853340110989 
4.470000000002921, -0.6408878175509461 
4.480000000002898, -0.6404401935682983 
4.490000000002874, -0.6399759258173738 
4.500000000002851, -0.6395457035034282 
4.510000000002828, -0.6392281888686262 
4.520000000002804, -0.6391465407534701 
4.530000000002781, -0.6394905299575471 
4.540000000002758, -0.6405426703413151 
4.5500000000027345, -0.6427035158080774 
4.560000000002711, -0.6465043030496083 
4.570000000002688, -0.6525813776654015 
4.580000000002665, -0.661565098546604 
4.590000000002641, -0.6738221625063215 
4.600000000002618, -0.6890483433344994 
4.610000000002595, -0.7059281283954107 
4.620000000002571, -0.7223280317318685 
4.630000000002548, -0.7362103768487457 
4.640000000002525, -0.7465765298484114 
4.6500000000025015, -0.7535911831491279 
4.660000000002478, -0.7580240009832349 
4.670000000002455, -0.7606951823808094 
4.6800000000024315, -0.7622314326975416 
4.690000000002408, -0.763042293544216 
4.700000000002385, -0.76337090097833 
4.710000000002362, -0.7633460290647546 
4.720000000002338, -0.7630152924131082 
4.730000000002315, -0.7623582715548533 
4.740000000002292, -0.7612808284245863 
4.750000000002268, -0.7595896140400986 
4.760000000002245, -0.7569448825807348 
4.770000000002222, -0.7527986976469665 
4.7800000000021985, -0.7463621163536933 
4.790000000002175, -0.736723499089769 
4.800000000002152, -0.723289324109348 
4.810000000002129, -0.7064849469238424 
4.820000000002105, -0.6880837013195502 
4.830000000002082, -0.670527379788459 
4.840000000002059, -0.6557286691184239 
4.850000000002035, -0.64445231632292 
4.860000000002012, -0.6365138616483408 
4.870000000001989, -0.6312721552351631 
4.880000000001965, -0.6280036730253694 
4.890000000001942, -0.6260820902722062 
4.900000000001919, -0.6250293731696421 
4.9100000000018955, -0.6245071956533448 
4.920000000001872, -0.6242882503141958 
