t, s[1].omega / s[0].omega 
0, -0.7499976724797032 
0.009999999999999995, -0.7497460127208174 
0.019999999999999934, -0.7494525697220253 
0.029999999999999874, -0.7491072830485408 
0.04000000000000012, -0.7487011666686316 
0.050000000000000405, -0.7482327950413014 
0.06000000000000069, -0.7477117914336658 
0.07000000000000098, -0.7471597647804622 
0.08000000000000126, -0.7466108132207021 
0.09000000000000155, -0.7461130252349072 
0.10000000000000184, -0.7457306330503644 
0.11000000000000212, -0.7455450396509404 
0.12000000000000241, -0.7456525963867447 
0.130000000000002, -0.7461579944290272 
0.1400000000000009, -0.74716407050949 
0.1499999999999998, -0.7487604641748054 
0.1599999999999987, -0.7510133803710857 
0.1699999999999976, -0.753956275306378 
0.1799999999999965, -0.757578043031814 
0.1899999999999954, -0.7618042453109773 
0.1999999999999943, -0.7664719569834586 
0.2099999999999932, -0.7713123581913168 
0.2199999999999921, -0.7759704518385707 
0.229999999999991, -0.7800840005628138 
0.2399999999999899, -0.783395447997077 
0.2499999999999888, -0.7858228548782458 
0.2599999999999877, -0.787441926966217 
0.2699999999999866, -0.7884088822422048 
0.2799999999999855, -0.7888861915404577 
0.2899999999999844, -0.7890025871005287 
0.2999999999999833, -0.7888428549800224 
0.3099999999999822, -0.7884522876697868 
0.3199999999999811, -0.7878458467872735 
0.32999999999998, -0.7870198482253705 
0.3399999999999789, -0.7859704346625094 
0.3499999999999778, -0.7847290292071671 
0.35999999999997667, -0.7834297917121904 
0.36999999999997557, -0.7824200928678413 
0.37999999999997447, -0.782391367547429 
0.38999999999997337, -0.7844191322306197 
0.39999999999997227, -0.7896927388404975 
0.40999999999997117, -0.7988018831125415 
0.41999999999997006, -0.8109796885807711 
0.42999999999996896, -0.8241916913172507 
0.43999999999996786, -0.8362489459769682 
0.44999999999996676, -0.8458633574170987 
0.45999999999996566, -0.8528096279910542 
0.46999999999996456, -0.8574912206263517 
0.47999999999996346, -0.8604909006663564 
0.48999999999996235, -0.86232819244795 
0.49999999999996125, -0.8633853576919186 
0.5099999999999602, -0.8639135189350317 
0.519999999999959, -0.8640608261503002 
0.529999999999958, -0.8638969938859018 
0.5399999999999568, -0.8634257468031749 
0.5499999999999557, -0.8625825144027015 
0.5599999999999546, -0.8612151362138322 
0.5699999999999535, -0.8590452318171178 
0.5799999999999524, -0.855613864224161 
0.5899999999999513, -0.8502400505225577 
0.5999999999999502, -0.8420786914892421 
0.6099999999999491, -0.8304238424967678 
0.619999999999948, -0.8153006898700482 
0.6299999999999469, -0.797971808629566 
0.6399999999999458, -0.7806941395398461 
0.6499999999999447, -0.7656908453185209 
0.6599999999999436, -0.754216298772293 
0.6699999999999425, -0.746386262418319 
0.6799999999999414, -0.7415832756207825 
0.6899999999999403, -0.7389457715775636 
0.6999999999999392, -0.7376828166843814 
0.7099999999999381, -0.737198821046188 
0.719999999999937, -0.7370995441967766 
0.7299999999999359, -0.7371476334959619 
0.7399999999999348, -0.7372092215086498 
0.7499999999999337, -0.7372096976476675 
0.7599999999999326, -0.7371028285457041 
0.7699999999999315, -0.7368516454556192 
0.7799999999999304, -0.7364188156928296 
0.7899999999999293, -0.7357656731100343 
0.7999999999999282, -0.7348600675246525 
0.8099999999999271, -0.7336910736523052 
0.819999999999926, -0.7322829123932163 
0.8299999999999249, -0.7306967661521385 
0.8399999999999238, -0.7290155889913907 
0.8499999999999227, -0.7273205584986226 
0.8599999999999216, -0.7256737927392278 
0.8699999999999205, -0.724114564447112 
0.8799999999999194, -0.7226657444054878 
0.8899999999999183, -0.7213432293784335 
0.8999999999999172, -0.7201631648456395 
0.9099999999999161, -0.7191452087192508 
0.919999999999915, -0.7183122293918613 
0.9299999999999139, -0.7176875842388817 
0.9399999999999128, -0.7172912800832469 
0.9499999999999117, -0.7171363506900623 
0.9599999999999106, -0.717226655622891 
0.9699999999999095, -0.7175568364144753 
0.9799999999999084, -0.7181144030753497 
0.9899999999999073, -0.7188831347212318 
0.9999999999999062, -0.7198464193615226 
1.0099999999999052, -0.7209888863168545 
1.019999999999904, -0.7222946648774078 
1.029999999999903, -0.7237410923573022 
1.039999999999902, -0.7252884697972253 
1.0499999999999008, -0.7268701469893117 
1.0599999999998997, -0.7283913100775379 
1.0699999999998986, -0.7297441197545396 
1.0799999999998975, -0.7308364846735924 
1.0899999999998964, -0.731618099987142 
1.0999999999998953, -0.7320869634994227 
1.1099999999998942, -0.7322755622848598 
1.119999999999893, -0.7322299519263435 
1.129999999999892, -0.7319943113231365 
1.1399999999998909, -0.731605370968595 
1.1499999999998898, -0.7310959630354722 
1.1599999999998887, -0.7305070202018945 
1.1699999999998876, -0.7299100308527634 
1.1799999999998865, -0.7294446001288776 
1.1899999999998854, -0.7293758506705917 
1.1999999999998843, -0.7301695865458054 
1.2099999999998832, -0.7325621384092107 
1.219999999999882, -0.7375594040574147 
1.229999999999881, -0.7462445870787523 
1.2399999999998799, -0.7592737005485344 
1.2499999999998788, -0.7761512556278912 
1.2599999999998777, -0.794855274510107 
1.2699999999998766, -0.8125224431182213 
1.2799999999998755, -0.8269082975099058 
1.2899999999998744, -0.8372803795793775 
1.2999999999998733, -0.8441283811191062 
1.3099999999998722, -0.8483918332574719 
1.319999999999871, -0.8509359642242782 
1.32999999999987, -0.8523838980828586 
1.3399999999998689, -0.8531325254060587 
1.3499999999998678, -0.8534143400742668 
1.3599999999998666, -0.8533501669489774 
1.3699999999998655, -0.8529808003327085 
1.3799999999998644, -0.8522784760894009 
1.3899999999998633, -0.8511397890050654 
1.3999999999998622, -0.849359302943275 
1.4099999999998611, -0.8465825641111309 
1.41999999999986, -0.8422457282121023 
1.429999999999859, -0.8355418192348415 
1.4399999999998578, -0.8255270475055916 
1.4499999999998567, -0.811548464916096 
1.4599999999998556, -0.7940078100387055 
1.4699999999998545, -0.7748773141995523 
1.4799999999998534, -0.7570794730701962 
1.4899999999998523, -0.7429613166721696 
1.4999999999998512, -0.733304707931483 
1.5099999999998501, -0.7275492989699963 
1.519999999999849, -0.7245738380863804 
1.529999999999848, -0.7232992487092991 
1.5399999999998468, -0.7229318314941307 
1.5499999999998457, -0.7229734610188889 
1.5599999999998446, -0.7231449760925888 
1.5699999999998435, -0.7233028150238272 
1.5799999999998424, -0.7233761768168707 
1.5899999999998413, -0.7233266319045122 
1.5999999999998402, -0.7231243351104528 
1.6099999999998391, -0.7227352020473921 
1.619999999999838, -0.7221163534543267 
1.629999999999837, -0.7212202681175561 
1.6399999999998358, -0.7200090531866632 
1.6499999999998347, -0.7184760976527594 
1.6599999999998336, -0.7166636525498704 
1.6699999999998325, -0.7146611701917367 
1.6799999999998314, -0.7125810034645726 
1.6899999999998303, -0.7105266727244333 
1.6999999999998292, -0.7085729551962134 
1.709999999999828, -0.7067640275159794 
1.719999999999827, -0.7051229640700307 
1.729999999999826, -0.703663221692535 
1.7399999999998248, -0.702396631445144 
1.7499999999998237, -0.7013366588176455 
1.7599999999998226, -0.700497917292409 
1.7699999999998215, -0.6998935463863047 
1.7799999999998204, -0.6995320302685213 
1.7899999999998193, -0.6994147907508816 
1.7999999999998182, -0.6995354642877747 
1.809999999999817, -0.6998811444356167 
1.819999999999816, -0.7004351757462126 
1.8299999999998149, -0.7011805361561223 
1.8399999999998138, -0.7021025342630213 
1.8499999999998127, -0.7031893889354313 
1.8599999999998116, -0.7044292247273516 
1.8699999999998105, -0.7058025301312871 
1.8799999999998094, -0.7072711011624417 
1.8899999999998083, -0.7087683929580877 
1.8999999999998072, -0.710199975736263 
1.909999999999806, -0.7114608120436781 
1.919999999999805, -0.7124645367325542 
1.9299999999998039, -0.7131673307246751 
1.9399999999998028, -0.7135713861979229 
1.9499999999998017, -0.7137097373671812 
1.9599999999998006, -0.7136261220209037 
1.9699999999997995, -0.7133610951618581 
1.9799999999997984, -0.7129476076044056 
1.9899999999997973, -0.7124150289893099 
1.9999999999997962, -0.7118012111800925 
2.0099999999998173, -0.7111750443954129 
2.0199999999998384, -0.7106748063400643 
2.0299999999998595, -0.7105681165629867 
2.0399999999998806, -0.7113326922369897 
2.0499999999999017, -0.7137340504072311 
2.059999999999923, -0.7188256889254163 
2.069999999999944, -0.7277280781275637 
2.079999999999965, -0.7410471911985068 
2.089999999999986, -0.7580840294161187 
2.100000000000007, -0.7765611181853901 
2.1100000000000283, -0.7935699102855496 
2.1200000000000494, -0.8071080927198964 
2.1300000000000705, -0.8167337045322739 
2.1400000000000916, -0.8230669602323799 
2.1500000000001127, -0.8270306035908261 
2.160000000000134, -0.8294216591551324 
2.170000000000155, -0.8308020246320982 
2.180000000000176, -0.8315286590705847 
2.190000000000197, -0.8318115341194121 
2.2000000000002182, -0.8317596427692978 
2.2100000000002393, -0.8314075581223708 
2.2200000000002604, -0.8307235835718092 
2.2300000000002815, -0.8296002648706219 
2.2400000000003026, -0.8278259431791424 
2.2500000000003237, -0.8250369297939424 
2.260000000000345, -0.8206626427370167 
2.270000000000366, -0.8139167465391116 
2.280000000000387, -0.8039589384742717 
2.290000000000408, -0.7903634968033646 
2.3000000000004293, -0.7737600979753417 
2.3100000000004504, -0.7560272189317041 
2.3200000000004715, -0.7395544348549614 
2.3300000000004926, -0.7261174022075025 
2.3400000000005137, -0.7163343673510507 
2.3500000000005348, -0.7098840271051825 
2.360000000000556, -0.7060053941663116 
2.370000000000577, -0.7038885301658909 
2.380000000000598, -0.7028656808068214 
2.390000000000619, -0.7024593015182166 
2.4000000000006403, -0.7023594791568673 
2.4100000000006614, -0.7023788033939309 
2.4200000000006825, -0.7024086004327105 
2.4300000000007036, -0.7023851157166667 
2.4400000000007247, -0.7022666352631437 
2.450000000000746, -0.7020200208082452 
2.460000000000767, -0.7016152928410062 
2.470000000000788, -0.7010276428460632 
2.480000000000809, -0.7002455887921466 
2.49000000000083, -0.6992808293231059 
2.5000000000008513, -0.6981720144695729 
2.5100000000008724, -0.6969767028655448 
2.5200000000008935, -0.695754535727527 
2.5300000000009146, -0.6945518717475152 
2.5400000000009357, -0.6933959964817707 
2.550000000000957, -0.6922990920245392 
2.560000000000978, -0.6912668045254289 
2.570000000000999, -0.6903062475778026 
2.58000000000102, -0.6894310238617108 
2.5900000000010412, -0.6886632428205737 
2.6000000000010624, -0.6880333741293766 
2.6100000000010835, -0.6875785940965635 
2.6200000000011046, -0.687339994529377 
2.6300000000011257, -0.6873591057564922 
2.6400000000011468, -0.6876745043634278 
2.650000000001168, -0.6883194151238303 
2.660000000001189, -0.6893208552209475 
2.67000000000121, -0.6906999796808226 
2.680000000001231, -0.6924720849997991 
2.6900000000012523, -0.6946435462884494 
2.7000000000012734, -0.6972023826567612 
2.7100000000012945, -0.7001005012212489 
2.7200000000013156, -0.7032312246003991 
2.7300000000013367, -0.7064162063814893 
2.740000000001358, -0.7094236691413583 
2.750000000001379, -0.712027231194605 
2.7600000000014, -0.71407782387854 
2.770000000001421, -0.7155392775555425 
2.780000000001442, -0.7164676572631146 
2.7900000000014633, -0.7169610798146386 
2.8000000000014844, -0.7171162800095775 
2.8100000000015055, -0.7170062337658221 
2.8200000000015266, -0.7166743112153445 
2.8300000000015477, -0.7161363224527906 
2.840000000001569, -0.7153853419366031 
2.85000000000159, -0.7143987125493905 
2.860000000001611, -0.7131503800465793 
2.870000000001632, -0.7116345273459974 
2.8800000000016532, -0.7099059007811086 
2.8900000000016743, -0.7081298125924068 
2.9000000000016954, -0.7065983382275107 
2.9100000000017165, -0.7056248164485981 
2.9200000000017377, -0.7052915985622131 
2.9300000000017588, -0.7053129916591445 
2.94000000000178, -0.705368393047713 
2.950000000001801, -0.7055406611536388 
2.960000000001822, -0.7061409120658538 
2.970000000001843, -0.707246010840848 
2.9800000000018643, -0.7086354107097205 
2.9900000000018854, -0.710020787578274 
3.0000000000019065, -0.711208823808607 
3.0100000000019276, -0.71212210129918 
3.0200000000019487, -0.7127571458002266 
3.03000000000197, -0.713140574032753 
3.040000000001991, -0.7133009632508028 
3.050000000002012, -0.7132539400040978 
3.060000000002033, -0.7129942716912576 
3.070000000002054, -0.7124907384620481 
3.0800000000020753, -0.7116829447312123 
3.0900000000020964, -0.7104834044198991 
3.1000000000021175, -0.7087925357055471 
3.1100000000021386, -0.7065340701192441 
3.1200000000021597, -0.7037054573205606 
3.130000000002181, -0.7004139441044291 
3.140000000002202, -0.6968627053401817 
3.150000000002223, -0.6932875357763278 
3.160000000002244, -0.6898880722281875 
3.1700000000022652, -0.6867940385189961 
3.1800000000022863, -0.6840694557909507 
3.1900000000023074, -0.6817342725346327 
3.2000000000023285, -0.6797851840421727 
3.2100000000023496, -0.6782085054476102 
3.2200000000023707, -0.6769855331472123 
3.230000000002392, -0.6760934434883008 
3.240000000002413, -0.6755047068310953 
3.250000000002434, -0.6751870057795608 
3.260000000002455, -0.67510451437116 
3.2700000000024763, -0.6752204438077263 
3.2800000000024974, -0.6755001902200426 
3.2900000000025185, -0.6759142985451516 
3.3000000000025396, -0.6764406206531376 
3.3100000000025607, -0.6770651558795293 
3.3200000000025818, -0.6777808723914973 
3.330000000002603, -0.6785835265994635 
3.340000000002624, -0.6794639149123474 
3.350000000002645, -0.6803979614513179 
3.360000000002666, -0.6813392971517056 
3.3700000000026873, -0.6822209998157015 
3.3800000000027084, -0.6829699002440086 
3.3900000000027295, -0.6835277182917945 
3.4000000000027506, -0.6838662456650435 
3.4100000000027717, -0.6839880556127003 
3.420000000002793, -0.6839158189645669 
3.430000000002814, -0.6836796819214193 
3.440000000002835, -0.6833097536409602 
3.450000000002856, -0.6828359400581168 
3.460000000002877, -0.6822953073436302 
3.4700000000028983, -0.6817480447794259 
3.4800000000029194, -0.681305110381463 
3.4900000000029405, -0.6811718910382158 
3.5000000000029616, -0.6817100167766232 
3.5100000000029827, -0.6835085874320458 
3.520000000003004, -0.6874275913908031 
3.530000000003025, -0.6945231289190726 
3.540000000003046, -0.7057113883331189 
3.550000000003067, -0.7211028886145462 
3.5600000000030882, -0.7393383201451613 
3.5700000000031094, -0.7577440792744758 
3.5800000000031305, -0.77363658407714 
3.5900000000031516, -0.7856516629233673 
3.6000000000031727, -0.7938881956721079 
3.6100000000031938, -0.7991847953670173 
3.620000000003215, -0.8024547033669828 
3.630000000003236, -0.804406007740266 
3.640000000003257, -0.8055119450898248 
3.650000000003278, -0.8060636726668235 
3.6600000000032993, -0.806226838436635 
3.6700000000033204, -0.8060803380012354 
3.6800000000033415, -0.8056357827454296 
3.6900000000033626, -0.8048396835390227 
3.7000000000033837, -0.8035588343245591 
3.710000000003405, -0.8015482459060521 
3.720000000003426, -0.798405814089975 
3.730000000003447, -0.7935394132705544 
3.740000000003468, -0.7862211563426245 
3.750000000003489, -0.7758494349669991 
3.7600000000035103, -0.7624422116534427 
3.7700000000035314, -0.747036776489918 
3.7800000000035525, -0.7314722247229981 
3.7900000000035736, -0.7175736763980292 
3.8000000000035947, -0.7064375868321587 
3.810000000003616, -0.6982966047956605 
3.820000000003637, -0.6927991762408536 
3.830000000003658, -0.6893519771331934 
3.840000000003679, -0.6873514132338354 
3.8500000000037002, -0.6862932890946256 
3.8600000000037213, -0.6858024531391957 
3.8700000000037424, -0.6856216008476328 
3.8800000000037635, -0.6855845407438239 
3.8900000000037847, -0.6855877750654757 
3.9000000000038058, -0.6855667286447391 
3.910000000003827, -0.6854786682850851 
3.920000000003848, -0.6852924586018769 
3.930000000003869, -0.6849847861331948 
3.94000000000389, -0.6845420474923438 
3.9500000000039113, -0.6839655436320247 
3.9600000000039324, -0.6832752206298767 
3.9700000000039535, -0.6825067718278544 
3.9800000000039746, -0.6817011718319477 
3.9900000000039957, -0.6808920335384976 
4.000000000004016, -0.6800981370927615 
4.010000000003993, -0.6793243045567113 
4.02000000000397, -0.6785682312974108 
4.030000000003946, -0.6778285481441723 
4.040000000003923, -0.6771107360000543 
4.0500000000039, -0.6764302367293522 
4.0600000000038765, -0.675813841491206 
4.070000000003853, -0.6753004864573504 
4.08000000000383, -0.674941735360162 
4.090000000003807, -0.6748015062598625 
4.100000000003783, -0.6749544941989638 
4.11000000000376, -0.6754831897281522 
4.120000000003737, -0.6764739753969793 
4.130000000003713, -0.6780129001408646 
4.14000000000369, -0.6801808688152712 
4.150000000003667, -0.6830460138821263 
4.1600000000036434, -0.6866485267713781 
4.17000000000362, -0.6909721875286376 
4.180000000003597, -0.6959017214212427 
4.1900000000035735, -0.7011818159375425 
4.20000000000355, -0.7064184411355265 
4.210000000003527, -0.711164085367183 
4.220000000003504, -0.7150668284946238 
4.23000000000348, -0.717983171741875 
4.240000000003457, -0.7199738719188545 
4.250000000003434, -0.7212117894424624 
4.26000000000341, -0.7218862351330847 
4.270000000003387, -0.7221498407781247 
4.280000000003364, -0.7221034914419872 
4.2900000000033405, -0.7217989334666731 
4.300000000003317, -0.7212442758392805 
4.310000000003294, -0.7204055724228585 
4.320000000003271, -0.71920193168195 
4.330000000003247, -0.7174928552911783 
4.340000000003224, -0.7150563308308759 
4.350000000003201, -0.7115559958818285 
4.360000000003177, -0.7065002591461603 
4.370000000003154, -0.6992255385240265 
4.380000000003131, -0.6890281035160866 
4.390000000003107, -0.6756617774672571 
4.400000000003084, -0.6601017146356043 
4.410000000003061, -0.6446435894122828 
4.4200000000030375, -0.6316864747468923 
4.430000000003014, -0.6223899461265041 
4.440000000002991, -0.6165424935355748 
4.450000000002968, -0.613263678316478 
4.460000000002944, -0.6116308439236932 
4.470000000002921, -0.6109419108683708 
4.480000000002898, -0.610740298271734 
4.490000000002874, -0.6107557080486227 
4.500000000002851, -0.6108375818904815 
4.510000000002828, -0.6109046177930569 
4.520000000002804, -0.6109118189863191 
4.530000000002781, -0.6108307988286974 
4.540000000002758, -0.6106392671949564 
4.5500000000027345, -0.6103173399211688 
4.560000000002711, -0.6098496803667817 
4.570000000002688, -0.6092322769405607 
4.580000000002665, -0.6084803032826829 
4.590000000002641, -0.6076308087489798 
4.600000000002618, -0.6067353572876601 
4.610000000002595, -0.6058447537328404 
4.620000000002571, -0.6049945359662774 
4.630000000002548, -0.6041989975657471 
4.640000000002525, -0.6034549261923113 
4.6500000000025015, -0.6027508043177122 
4.660000000002478, -0.6020761466627739 
4.670000000002455, -0.6014278177381944 
4.6800000000024315, -0.6008131432321983 
4.690000000002408, -0.600251454673404 
4.700000000002385, -0.5997758604727037 
4.710000000002362, -0.5994362510884365 
4.720000000002338, -0.5993037225650332 
4.730000000002315, -0.5994761177284922 
4.740000000002292, -0.6000841703402091 
4.750000000002268, -0.6012975120346667 
4.760000000002245, -0.6033290470039827 
4.770000000002222, -0.6064339710869087 
4.7800000000021985, -0.6108946509598032 
4.790000000002175, -0.6169741045634023 
4.800000000002152, -0.6248138958081852 
4.810000000002129, -0.6342673785657258 
4.820000000002105, -0.6447319537133238 
4.830000000002082, -0.6551584839503786 
4.840000000002059, -0.664391066320513 
4.850000000002035, -0.6716668388958571 
4.860000000002012, -0.6768515185262797 
4.870000000001989, -0.6802688661767247 
4.880000000001965, -0.6823886516014264 
4.890000000001942, -0.6836235402632067 
4.900000000001919, -0.684266405739087 
4.9100000000018955, -0.6844996039187008 
4.920000000001872, -0.6844210521955129 
