t, s[1].omega / s[0].omega 
0, -0.6899976964512934 
0.009999999999999995, -0.6897642708286514 
0.019999999999999934, -0.6895174856708385 
0.029999999999999874, -0.6892394989325595 
0.04000000000000012, -0.6889111042896068 
0.050000000000000405, -0.6885208001097455 
0.06000000000000069, -0.6880697592861231 
0.07000000000000098, -0.6875728017978873 
0.08000000000000126, -0.6870583311977321 
0.09000000000000155, -0.6865701066174154 
0.10000000000000184, -0.6861719519373781 
0.11000000000000212, -0.685954718801056 
0.12000000000000241, -0.6860435900949081 
0.130000000000002, -0.6866031465480744 
0.1400000000000009, -0.6878376050548755 
0.1499999999999998, -0.6899841733724783 
0.1599999999999987, -0.6932976128183826 
0.1699999999999976, -0.698022126718509 
0.1799999999999965, -0.7043417817477128 
0.1899999999999954, -0.7122968138246197 
0.1999999999999943, -0.7216645229951465 
0.2099999999999932, -0.7318515671067185 
0.2199999999999921, -0.7419182537038986 
0.229999999999991, -0.7508432744586079 
0.2399999999999899, -0.7579239902692698 
0.2499999999999888, -0.7629995548450998 
0.2599999999999877, -0.7663416094246607 
0.2699999999999866, -0.7683869248299593 
0.2799999999999855, -0.7695371514614149 
0.2899999999999844, -0.7700838383664177 
0.2999999999999833, -0.7702087796634756 
0.3099999999999822, -0.7700065539241773 
0.3199999999999811, -0.7695033886282567 
0.32999999999998, -0.7686643626770112 
0.3399999999999789, -0.7673870679769036 
0.3499999999999778, -0.7654802306379197 
0.35999999999997667, -0.7626247771343961 
0.36999999999997557, -0.7583159729299512 
0.37999999999997447, -0.7517969539521367 
0.38999999999997337, -0.7420420535710986 
0.39999999999997227, -0.7279758361340134 
0.40999999999997117, -0.7092278875726423 
0.41999999999997006, -0.6872589483730199 
0.42999999999996896, -0.6654786939133438 
0.43999999999996786, -0.6473860834711825 
0.44999999999996676, -0.6345762129248558 
0.45999999999996566, -0.6266340853706749 
0.46999999999996456, -0.6222372741649471 
0.47999999999996346, -0.6200664968421469 
0.48999999999996235, -0.6191505594997968 
0.49999999999996125, -0.6188746168780865 
0.5099999999999602, -0.6188832270633216 
0.519999999999959, -0.618982939448873 
0.529999999999958, -0.6190719392958336 
0.5399999999999568, -0.619095613010655 
0.5499999999999557, -0.6190205941721757 
0.5599999999999546, -0.6188209933524862 
0.5699999999999535, -0.6184732527406843 
0.5799999999999524, -0.6179582115549508 
0.5899999999999513, -0.6172691030394234 
0.5999999999999502, -0.6164214674788393 
0.6099999999999491, -0.6154573419311599 
0.619999999999948, -0.6144372452874141 
0.6299999999999469, -0.6134220555467376 
0.6399999999999458, -0.6124553410408324 
0.6499999999999447, -0.6115557880307507 
0.6599999999999436, -0.6107212246270264 
0.6699999999999425, -0.6099391738662008 
0.6799999999999414, -0.6091977080528609 
0.6899999999999403, -0.6084929131999642 
0.6999999999999392, -0.607832628300226 
0.7099999999999381, -0.6072381968936696 
0.719999999999937, -0.6067461631992084 
0.7299999999999359, -0.6064109514704547 
0.7399999999999348, -0.606308624728939 
0.7499999999999337, -0.6065413109580353 
0.7599999999999326, -0.6072417838189325 
0.7699999999999315, -0.6085777040689098 
0.7799999999999304, -0.6107546301599164 
0.7899999999999293, -0.6140151518509256 
0.7999999999999282, -0.6186270314499412 
0.8099999999999271, -0.6248451077411004 
0.819999999999926, -0.6328230970627721 
0.8299999999999249, -0.6424589191245317 
0.8399999999999238, -0.6532165340701305 
0.8499999999999227, -0.6640851940564205 
0.8599999999999216, -0.6738639317756254 
0.8699999999999205, -0.6816771366725147 
0.8799999999999194, -0.6872923040022034 
0.8899999999999183, -0.6910014827805958 
0.8999999999999172, -0.6932942473143331 
0.9099999999999161, -0.6946185011850393 
0.919999999999915, -0.6952965470827476 
0.9299999999999139, -0.695528956088992 
0.9399999999999128, -0.6954217091914012 
0.9499999999999117, -0.6950074769955711 
0.9599999999999106, -0.694252426180219 
0.9699999999999095, -0.6930456745314356 
0.9799999999999084, -0.6911677729165834 
0.9899999999999073, -0.6882343902094978 
0.9999999999999062, -0.6836231872553364 
1.0099999999999052, -0.6764403247969513 
1.019999999999904, -0.6656868432757491 
1.029999999999903, -0.650830883920818 
1.039999999999902, -0.6326204458331469 
1.0499999999999008, -0.613254703226599 
1.0599999999998997, -0.5953387538926591 
1.0699999999998986, -0.5805830550120297 
1.0799999999998975, -0.5694322846253824 
1.0899999999998964, -0.5614962025736491 
1.0999999999998953, -0.5560839718780775 
1.1099999999998942, -0.5525171092479475 
1.119999999999893, -0.5502436086472313 
1.129999999999892, -0.5488514807022864 
1.1399999999998909, -0.5480469379892137 
1.1499999999998898, -0.5476262276906515 
1.1599999999998887, -0.547450896184949 
1.1699999999998876, -0.5474286088000347 
1.1799999999998865, -0.547499247287474 
1.1899999999998854, -0.5476255276170408 
1.1999999999998843, -0.5477873812056111 
1.2099999999998832, -0.54797918607299 
1.219999999999882, -0.5482083477546718 
1.229999999999881, -0.5484929220444713 
1.2399999999998799, -0.5488558084454194 
1.2499999999998788, -0.5493144874472103 
1.2599999999998777, -0.5498682692077644 
1.2699999999998766, -0.5504883032477808 
1.2799999999998755, -0.5511172069572746 
1.2899999999998744, -0.5516822362459255 
1.2999999999998733, -0.5521172581696248 
1.3099999999998722, -0.5523808888142095 
1.319999999999871, -0.5524608168430473 
1.32999999999987, -0.5523654961608512 
1.3399999999998689, -0.5521117164105169 
1.3499999999998678, -0.5517150701246389 
1.3599999999998666, -0.5511855310324282 
1.3699999999998655, -0.5505275742515802 
1.3799999999998644, -0.5497440869004226 
1.3899999999998633, -0.5488440376147445 
1.3999999999998622, -0.5478532114179502 
1.4099999999998611, -0.5468208266295282 
1.41999999999986, -0.5457924156383112 
1.429999999999859, -0.5446691676736364 
1.4399999999998578, -0.5428382259439289 
1.4499999999998567, -0.5386971790561611 
1.4599999999998556, -0.5300183362943109 
1.4699999999998545, -0.5161354887093869 
1.4799999999998534, -0.49972619626742676 
1.4899999999998523, -0.48483616672407026 
1.4999999999998512, -0.4737380020327461 
1.5099999999998501, -0.4664770368846834 
1.519999999999849, -0.46210164141172516 
1.529999999999848, -0.45960728138707035 
1.5399999999998468, -0.45825050891798214 
1.5499999999998457, -0.4575521597097114 
1.5599999999998446, -0.4572223574685843 
1.5699999999998435, -0.45709091155751097 
1.5799999999998424, -0.4570592348712756 
1.5899999999998413, -0.45707060030804614 
1.5999999999998402, -0.45709297445233393 
1.6099999999998391, -0.4571100871962669 
1.619999999999838, -0.4571179360121588 
1.629999999999837, -0.45712457584973515 
1.6399999999998358, -0.4571507418443869 
1.6499999999998347, -0.4572282961743853 
1.6599999999998336, -0.457393989586909 
1.6699999999998325, -0.4576782411591779 
1.6799999999998314, -0.4580915613776898 
1.6899999999998303, -0.458613558495783 
1.6999999999998292, -0.4591907473391251 
1.709999999999828, -0.4597477977527696 
1.719999999999827, -0.46020956027431764 
1.729999999999826, -0.4605221074197302 
1.7399999999998248, -0.46066088061413285 
1.7499999999998237, -0.46062442745440924 
1.7599999999998226, -0.460421282062323 
1.7699999999998215, -0.4600574944967818 
1.7799999999998204, -0.4595271774945532 
1.7899999999998193, -0.4588041069753376 
1.7999999999998182, -0.45782988786368806 
1.809999999999817, -0.45649122796502495 
1.819999999999816, -0.4545726041406401 
1.8299999999998149, -0.45166027761112515 
1.8399999999998138, -0.44697336775672136 
1.8499999999998127, -0.4391793042176606 
1.8599999999998116, -0.4265611596799202 
1.8699999999998105, -0.40822472075226174 
1.8799999999998094, -0.3859288487502736 
1.8899999999998083, -0.36381854376221695 
1.8999999999998072, -0.34545256485178727 
1.909999999999806, -0.3319402199108421 
1.919999999999805, -0.3226370258714556 
1.9299999999998039, -0.3164057720678647 
1.9399999999998028, -0.3122566772259082 
1.9499999999998017, -0.3094869289265697 
1.9599999999998006, -0.3076364748785093 
1.9699999999997995, -0.3064147943020646 
1.9799999999997984, -0.3056428869016229 
1.9899999999997973, -0.3052151280859844 
1.9999999999997962, -0.30507651014568826 
2.0099999999998173, -0.3052106659738123 
2.0199999999998384, -0.30563571795851485 
2.0299999999998595, -0.3064065358860692 
2.0399999999998806, -0.3076230295887521 
2.0499999999999017, -0.3094443135595997 
2.059999999999923, -0.3121068250986102 
2.069999999999944, -0.3159375685760911 
2.079999999999965, -0.3213353802777305 
2.089999999999986, -0.32866060555583415 
2.100000000000007, -0.3379619812874609 
2.1100000000000283, -0.3486045272278703 
2.1200000000000494, -0.35919924381731416 
2.1300000000000705, -0.368233626400636 
2.1400000000000916, -0.3749255006799176 
2.1500000000001127, -0.3793920937832235 
2.160000000000134, -0.3821895467912294 
2.170000000000155, -0.38387773311905743 
2.180000000000176, -0.3848598491402185 
2.190000000000197, -0.3853864029046271 
2.2000000000002182, -0.3856006639403511 
2.2100000000002393, -0.3855774948762359 
2.2200000000002604, -0.385348316937229 
2.2300000000002815, -0.38491677611173125 
2.2400000000003026, -0.3842713380047105 
2.2500000000003237, -0.3834001206211514 
2.260000000000345, -0.38230992409965964 
2.270000000000366, -0.3810441878212813 
2.280000000000387, -0.3796873544305447 
2.290000000000408, -0.3783466872048141 
2.3000000000004293, -0.37711959946913837 
2.3100000000004504, -0.37606689849665403 
2.3200000000004715, -0.37520486912581613 
2.3300000000004926, -0.37451350745190953 
2.3400000000005137, -0.3739516642111927 
2.3500000000005348, -0.3734721446300347 
2.360000000000556, -0.3730331293601882 
2.370000000000577, -0.3726042996915437 
2.380000000000598, -0.3721680142645043 
2.390000000000619, -0.37171763737261104 
2.4000000000006403, -0.3712556119522191 
2.4100000000006614, -0.3707932275652156 
2.4200000000006825, -0.3703531989822451 
2.4300000000007036, -0.36997554065374266 
2.4400000000007247, -0.36972585746159203 
2.450000000000746, -0.3696995740495767 
2.460000000000767, -0.36999606240646365 
2.470000000000788, -0.37058272922991764 
2.480000000000809, -0.3708765344800932 
2.49000000000083, -0.36894147445830483 
2.5000000000008513, -0.3611660874575629 
2.5100000000008724, -0.3447985517065354 
2.5200000000008935, -0.32233211585257326 
2.5300000000009146, -0.30027198885458745 
2.5400000000009357, -0.28309689096124385 
2.550000000000957, -0.27138523139282406 
2.560000000000978, -0.26386511687032876 
2.570000000000999, -0.2591239757399312 
2.58000000000102, -0.25613266452498024 
2.5900000000010412, -0.25423717067410156 
2.6000000000010624, -0.2530424799295177 
2.6100000000010835, -0.25231538533953557 
2.6200000000011046, -0.2519221296717372 
2.6300000000011257, -0.2517922889018142 
2.6400000000011468, -0.2518996455754129 
2.650000000001168, -0.2522541324137829 
2.660000000001189, -0.2529017908611911 
2.67000000000121, -0.2539315426552997 
2.680000000001231, -0.2554883696231342 
2.6900000000012523, -0.2577914393202755 
2.7000000000012734, -0.26114989199481564 
2.7100000000012945, -0.26595195907435687 
2.7200000000013156, -0.2725697560484229 
2.7300000000013367, -0.28110217473481935 
2.740000000001358, -0.29099786669952676 
2.750000000001379, -0.30094489151002823 
2.7600000000014, -0.3094634316601821 
2.770000000001421, -0.31576663224086954 
2.780000000001442, -0.3199538332395762 
2.7900000000014633, -0.32256000226857323 
2.8000000000014844, -0.3241237425918838 
2.8100000000015055, -0.32503008783611653 
2.8200000000015266, -0.32551637047705406 
2.8300000000015477, -0.3257179731106003 
2.840000000001569, -0.32570697190032705 
2.85000000000159, -0.3255172519051341 
2.860000000001611, -0.3251608337859059 
2.870000000001632, -0.3246410002420054 
2.8800000000016532, -0.3239658056641442 
2.8900000000016743, -0.3231616379985364 
2.9000000000016954, -0.3222814279992245 
2.9100000000017165, -0.32140032339928337 
2.9200000000017377, -0.320597987068614 
2.9300000000017588, -0.319936725173568 
2.94000000000178, -0.31944688900109786 
2.950000000001801, -0.31912370820641545 
2.960000000001822, -0.31893299748422194 
2.970000000001843, -0.31882231220437096 
2.9800000000018643, -0.31873475259715184 
2.9900000000018854, -0.3186213599632962 
3.0000000000019065, -0.3184476517181254 
3.0100000000019276, -0.31819279733264433 
3.0200000000019487, -0.3178436257999589 
3.03000000000197, -0.3173865344320048 
3.040000000001991, -0.3167984058355994 
3.050000000002012, -0.31603458703307385 
3.060000000002033, -0.3150082741590833 
3.070000000002054, -0.31355004178404905 
3.0800000000020753, -0.31132866605220405 
3.0900000000020964, -0.3077171596730003 
3.1000000000021175, -0.30165825615381314 
3.1100000000021386, -0.2918282671132566 
3.1200000000021597, -0.27761639247480396 
3.130000000002181, -0.2605069467594265 
3.140000000002202, -0.24372736604698533 
3.150000000002223, -0.22990356321235308 
3.160000000002244, -0.21975456724380674 
3.1700000000022652, -0.21272608430657652 
3.1800000000022863, -0.20794855071574508 
3.1900000000023074, -0.2046891609534159 
3.2000000000023285, -0.2024365812613776 
3.2100000000023496, -0.20086080599848258 
3.2200000000023707, -0.19975786631024114 
3.230000000002392, -0.19900839590549393 
3.240000000002413, -0.19855222588518978 
3.250000000002434, -0.19837595383536627 
3.260000000002455, -0.19851137821978465 
3.2700000000024763, -0.19904514925169178 
3.2800000000024974, -0.20014321071407934 
3.2900000000025185, -0.20209778591712949 
3.3000000000025396, -0.20540870702798136 
3.3100000000025607, -0.2109059664061182 
3.3200000000025818, -0.21986835600993815 
3.330000000002603, -0.2338844804068577 
3.340000000002624, -0.2537538343155259 
3.350000000002645, -0.2769471274963793 
3.360000000002666, -0.29662226354811916 
3.3700000000026873, -0.3071192589799336 
3.3800000000027084, -0.3094458807500825 
3.3900000000027295, -0.3080309574662169 
3.4000000000027506, -0.3059545531246485 
3.4100000000027717, -0.304312327552117 
3.420000000002793, -0.3032368198189953 
3.430000000002814, -0.30259332923599525 
3.440000000002835, -0.30223203772239493 
3.450000000002856, -0.30204454424470245 
3.460000000002877, -0.3019627709215064 
3.4700000000028983, -0.301947746387263 
3.4800000000029194, -0.3019805589664895 
3.4900000000029405, -0.3020573627467896 
3.5000000000029616, -0.30218785962280303 
3.5100000000029827, -0.3023961365503587 
3.520000000003004, -0.3027223398760156 
3.530000000003025, -0.30322317037030944 
3.540000000003046, -0.3039687629988249 
3.550000000003067, -0.3050330322458731 
3.5600000000030882, -0.3064738455787141 
3.5700000000031094, -0.30830074507887933 
3.5800000000031305, -0.3104377346635764 
3.5900000000031516, -0.31270804910194144 
3.6000000000031727, -0.3148734785652879 
3.6100000000031938, -0.3167208394139676 
3.620000000003215, -0.31813419516248187 
3.630000000003236, -0.3191028676164787 
3.640000000003257, -0.31967945977802453 
3.650000000003278, -0.3199318277636253 
3.6600000000032993, -0.3199129080573489 
3.6700000000033204, -0.3196475562450096 
3.6800000000033415, -0.31912771046898974 
3.6900000000033626, -0.31831009530586585 
3.7000000000033837, -0.3171167029323236 
3.710000000003405, -0.31544552056145847 
3.720000000003426, -0.31320508536346636 
3.730000000003447, -0.31037993007849723 
3.740000000003468, -0.3070991870356873 
3.750000000003489, -0.3036402362399076 
3.7600000000035103, -0.3003312438343556 
3.7700000000035314, -0.29742095237573357 
3.7800000000035525, -0.29501641783914884 
3.7900000000035736, -0.2931053986086598 
3.8000000000035947, -0.2916117899259657 
3.810000000003616, -0.29044130094236914 
3.820000000003637, -0.28950692137883527 
3.830000000003658, -0.2887395229316566 
3.840000000003679, -0.288090346714056 
3.8500000000037002, -0.2875298732769422 
3.8600000000037213, -0.2870459568681773 
3.8700000000037424, -0.28664327542357027 
3.8800000000037635, -0.2863457137369493 
3.8900000000037847, -0.28620321731179776 
3.9000000000038058, -0.28630473516125177 
3.910000000003827, -0.2867977773382497 
3.920000000003848, -0.28790772657975927 
3.930000000003869, -0.2899200722796129 
3.94000000000389, -0.2929979699784778 
3.9500000000039113, -0.296540718154284 
3.9600000000039324, -0.29792338523648554 
3.9700000000039535, -0.2922020964211932 
3.9800000000039746, -0.2763548810138048 
3.9900000000039957, -0.25454382982103074 
4.000000000004016, -0.23425856250802526 
4.010000000003993, -0.21928552172295607 
4.02000000000397, -0.20942950069551855 
4.030000000003946, -0.20321002087014758 
4.040000000003923, -0.1993064681123155 
4.0500000000039, -0.19683597599129304 
4.0600000000038765, -0.19526252259306892 
4.070000000003853, -0.19427230217992117 
4.08000000000383, -0.19368662635479791 
4.090000000003807, -0.19341063403164055 
4.100000000003783, -0.19340607242924687 
4.11000000000376, -0.1936796941328783 
4.120000000003737, -0.19428305577475868 
4.130000000003713, -0.19532281438659832 
4.14000000000369, -0.19698310983935613 
4.150000000003667, -0.19956278922152043 
4.1600000000036434, -0.20352631341460703 
4.17000000000362, -0.20954522800025197 
4.180000000003597, -0.21843839979219587 
4.1900000000035735, -0.23079614703291534 
4.20000000000355, -0.24612028630982447 
4.210000000003527, -0.26211834449039534 
4.220000000003504, -0.275688786074382 
4.23000000000348, -0.2851591703154566 
4.240000000003457, -0.29091313056309903 
4.250000000003434, -0.2941799808867165 
4.26000000000341, -0.29601148581941245 
4.270000000003387, -0.2970514949564552 
4.280000000003364, -0.29764548763174614 
4.2900000000033405, -0.29797139683494256 
4.300000000003317, -0.29812073826745544 
4.310000000003294, -0.2981410166170998 
4.320000000003271, -0.29805754415154856 
4.330000000003247, -0.2978860967210923 
4.340000000003224, -0.29764221197355023 
4.350000000003201, -0.2973491343430887 
4.360000000003177, -0.29704342298411307 
4.370000000003154, -0.29677547841858865 
4.380000000003131, -0.2966031695156569 
4.390000000003107, -0.2965800091871687 
4.400000000003084, -0.2967416305169196 
4.410000000003061, -0.2970937597879627 
4.4200000000030375, -0.2976044003192319 
4.430000000003014, -0.2982049911637759 
4.440000000002991, -0.2988052845430343 
4.450000000002968, -0.2993185650777531 
4.460000000002944, -0.29968357747965385 
4.470000000002921, -0.2998708815423961 
4.480000000002898, -0.29987377078741195 
4.490000000002874, -0.299692568322109 
4.500000000002851, -0.2993194428680718 
4.510000000002828, -0.29872491845468996 
4.520000000002804, -0.29784315468461625 
4.530000000002781, -0.2965523044923116 
4.540000000002758, -0.2946499937108426 
4.5500000000027345, -0.2918380352139289 
4.560000000002711, -0.2877624965251683 
4.570000000002688, -0.28218282170862247 
4.580000000002665, -0.2752607370881368 
4.590000000002641, -0.26770891357540194 
4.600000000002618, -0.260501602308004 
4.610000000002595, -0.2543616714121782 
4.620000000002571, -0.24953065109584993 
4.630000000002548, -0.24589677450474703 
4.640000000002525, -0.24321154084661104 
4.6500000000025015, -0.24122567733737962 
4.660000000002478, -0.23973946243634595 
4.670000000002455, -0.2386091723480619 
4.6800000000024315, -0.23773898152031805 
4.690000000002408, -0.23707116568283954 
4.700000000002385, -0.2365790700167248 
4.710000000002362, -0.23626442285274424 
4.720000000002338, -0.23616016088871866 
4.730000000002315, -0.23634069023249213 
4.740000000002292, -0.23694307038868662 
4.750000000002268, -0.23820438842152672 
4.760000000002245, -0.240519264736281 
4.770000000002222, -0.24450264054724405 
4.7800000000021985, -0.2509593297795341 
4.790000000002175, -0.26042091064013 
4.800000000002152, -0.27164825700176937 
4.810000000002129, -0.27969746894538455 
4.820000000002105, -0.2781016821889404 
4.830000000002082, -0.26650025497912544 
4.840000000002059, -0.25149711073277314 
4.850000000002035, -0.23881142503016348 
4.860000000002012, -0.22997336776461408 
4.870000000001989, -0.22430176470406188 
