t, s[1].omega / s[0].omega 
0, -1.0199973603232189 
0.009999999999999995, -1.0196680696536562 
0.019999999999999934, -1.0194468678981028 
0.029999999999999874, -1.0191314009166232 
0.04000000000000012, -1.018842908360016 
0.050000000000000405, -1.0185627900532643 
0.06000000000000069, -1.0181988280667778 
0.07000000000000098, -1.0179501747579032 
0.08000000000000126, -1.0175473438817877 
0.09000000000000155, -1.0172820014898099 
0.10000000000000184, -1.0168917630963068 
0.11000000000000212, -1.0165447468382205 
0.12000000000000241, -1.0162092119709096 
0.130000000000002, -1.0157609485933923 
0.1400000000000009, -1.0154808038826215 
0.1499999999999998, -1.014978161254351 
0.1599999999999987, -1.0146747034632244 
0.1699999999999976, -1.014200926512489 
0.1799999999999965, -1.0137793212109834 
0.1899999999999954, -1.0133990895024 
0.1999999999999943, -1.0128337099149314 
0.2099999999999932, -1.0125358370251467 
0.2199999999999921, -1.0119078612170764 
0.229999999999991, -1.0115613963927421 
0.2399999999999899, -1.0110049398731307 
0.2499999999999888, -1.010482795091888 
0.2599999999999877, -1.0100769174873887 
0.2699999999999866, -1.0093627215559624 
0.2799999999999855, -1.0090565560449525 
0.2899999999999844, -1.0082995954560794 
0.2999999999999833, -1.0078954383563943 
0.3099999999999822, -1.0072827399252087 
0.3199999999999811, -1.0066343246224736 
0.32999999999998, -1.0062324622299084 
0.3399999999999789, -1.0053665895822443 
0.3499999999999778, -1.0050524680186526 
0.35999999999997667, -1.0042116934115792 
0.36999999999997557, -1.003730581343836 
0.37999999999997447, -1.0031189952880275 
0.38999999999997337, -1.0023423478365991 
0.39999999999997227, -1.0019732515176654 
0.40999999999997117, -1.0010156349459034 
0.41999999999997006, -1.0006806162255684 
0.42999999999996896, -0.9998513616292397 
0.43999999999996786, -0.9992853997812103 
0.44999999999996676, -0.9987403773961483 
0.45999999999996566, -0.9978843161986393 
0.46999999999996456, -0.9975569337749165 
0.47999999999996346, -0.9966260997068401 
0.48999999999996235, -0.9962512092691402 
0.49999999999996125, -0.9955314843414012 
0.5099999999999602, -0.994904464003435 
0.519999999999959, -0.9944617031162001 
0.529999999999958, -0.9936225958079474 
0.5399999999999568, -0.993319861178044 
0.5499999999999557, -0.9925268916998804 
0.5599999999999546, -0.9921082328739116 
0.5699999999999535, -0.9915436869764831 
0.5799999999999524, -0.9909111976225935 
0.5899999999999513, -0.9905629321640258 
0.5999999999999502, -0.9898351675904485 
0.6099999999999491, -0.9895310886555542 
0.619999999999948, -0.9889178849358843 
0.6299999999999469, -0.9884782264925301 
0.6399999999999458, -0.9880573376988075 
0.6499999999999447, -0.9874801568205713 
0.6599999999999436, -0.9871928000613843 
0.6699999999999425, -0.9866171151461738 
0.6799999999999414, -0.9863027566988778 
0.6899999999999403, -0.9858500242092765 
0.6999999999999392, -0.9854238857960486 
0.7099999999999381, -0.9851095093842953 
0.719999999999937, -0.9846247704885877 
0.7299999999999359, -0.9843667468052109 
0.7399999999999348, -0.9839315563981653 
0.7499999999999337, -0.983618349382995 
0.7599999999999326, -0.9832884415010187 
0.7699999999999315, -0.9829033035326235 
0.7799999999999304, -0.9826595611445239 
0.7899999999999293, -0.9822721611767614 
0.7999999999999282, -0.9820323067190383 
0.8099999999999271, -0.9817115634651608 
0.819999999999926, -0.9814148272061916 
0.8299999999999249, -0.9811791185865639 
0.8399999999999238, -0.9808478437755785 
0.8499999999999227, -0.9806555618875158 
0.8599999999999216, -0.9803578490978176 
0.8699999999999205, -0.9801393482193579 
0.8799999999999194, -0.979920368375937 
0.8899999999999183, -0.9796492160494499 
0.8999999999999172, -0.9794992487321406 
0.9099999999999161, -0.979226043245777 
0.919999999999915, -0.9790862059745835 
0.9299999999999139, -0.9788856014127986 
0.9399999999999128, -0.9786905756993866 
0.9499999999999117, -0.9785888893611613 
0.9599999999999106, -0.9783454321022707 
0.9699999999999095, -0.9783019843899109 
0.9799999999999084, -0.978107710706284 
0.9899999999999073, -0.9780269828577018 
0.9999999999999062, -0.9779700517623325 
1.0099999999999052, -0.9777900037490264 
1.019999999999904, -0.9778738646523262 
1.029999999999903, -0.9776717600372583 
1.039999999999902, -0.9777822804103096 
1.0499999999999008, -0.9777414000393355 
1.0599999999998997, -0.9777111519451713 
1.0699999999998986, -0.9779362842457534 
1.0799999999998975, -0.977751471452151 
1.0899999999998964, -0.9781805089760569 
1.0999999999998953, -0.9780974488709445 
1.1099999999998942, -0.9784046611289017 
1.119999999999893, -0.9787240921989797 
1.129999999999892, -0.9786854250261213 
1.1399999999998909, -0.9795469785766902 
1.1499999999998898, -0.9793828917687157 
1.1599999999998887, -0.9803901048424563 
1.1699999999998876, -0.9806495986556074 
1.1799999999998865, -0.9811039911532156 
1.1899999999998854, -0.9823233381802626 
1.1999999999998843, -0.982175768729301 
1.2099999999998832, -0.9842711957235176 
1.219999999999882, -0.9842803928796626 
1.229999999999881, -0.9859363807257383 
1.2399999999998799, -0.987049081748292 
1.2499999999998788, -0.9873502554403623 
1.2599999999998777, -0.9902713382675923 
1.2699999999998766, -0.9900709970198586 
1.2799999999998755, -0.9934491994275043 
1.2899999999998744, -0.9938685153416658 
1.2999999999998733, -0.9955703122806199 
1.3099999999998722, -0.9979649143591907 
1.319999999999871, -0.9979392185369491 
1.32999999999987, -1.0020056150543901 
1.3399999999998689, -1.0018840436349223 
1.3499999999998678, -1.0051468934389105 
1.3599999999998666, -1.00599819819407 
1.3699999999998655, -1.007046901079437 
1.3799999999998644, -1.0097196412568656 
1.3899999999998633, -1.0095665510019618 
1.3999999999998622, -1.01275760160144 
1.4099999999998611, -1.0127197926079168 
1.41999999999986, -1.0146543631356135 
1.429999999999859, -1.0154570123108044 
1.4399999999998578, -1.0159053193937655 
1.4499999999998567, -1.0175902808232118 
1.4599999999998556, -1.0174158840870113 
1.4699999999998545, -1.0190502910265224 
1.4799999999998534, -1.0190129185194452 
1.4899999999998523, -1.0198332906281706 
1.4999999999998512, -1.0202655139665373 
1.5099999999998501, -1.020368190763725 
1.519999999999849, -1.0211196653167074 
1.529999999999848, -1.020930041273583 
1.5399999999998468, -1.0215774281739616 
1.5499999999998457, -1.0214824526293722 
1.5599999999998446, -1.0217371501507624 
1.5699999999998435, -1.0218655020873941 
1.5799999999998424, -1.0217904300743985 
1.5899999999998413, -1.0220348463631286 
1.5999999999998402, -1.0218207178969396 
1.6099999999998391, -1.0219986438382835 
1.619999999999838, -1.0218381724432648 
1.629999999999837, -1.0218319563143812 
1.6399999999998358, -1.021778083255659 
1.6499999999998347, -1.0216064892262553 
1.6599999999998336, -1.0216009641632113 
1.6699999999998325, -1.0213554116588515 
1.6799999999998314, -1.0213142361203922 
1.6899999999998303, -1.0210951057926814 
1.6999999999998292, -1.020959387373455 
1.709999999999828, -1.020794951836079 
1.719999999999827, -1.0205609082871014 
1.729999999999826, -1.0204243610407773 
1.7399999999998248, -1.0201401865156299 
1.7499999999998237, -1.0199883776259482 
1.7599999999998226, -1.0197132494001286 
1.7699999999998215, -1.019503074964649 
1.7799999999998204, -1.0192613649288798 
1.7899999999998193, -1.0189751075738644 
1.7999999999998182, -1.0187614445428912 
1.809999999999817, -1.0184273700604352 
1.819999999999816, -1.0182134392958841 
1.8299999999998149, -1.0178770834722068 
1.8399999999998138, -1.0176141534067566 
1.8499999999998127, -1.0173083000612828 
1.8599999999998116, -1.0169657777111365 
1.8699999999998105, -1.0167015251167457 
1.8799999999998094, -1.0162998880873402 
1.8899999999998083, -1.0160470352696434 
1.8999999999998072, -1.0156379576153935 
1.909999999999806, -1.015326719323154 
1.919999999999805, -1.01496182951898 
1.9299999999998039, -1.0145480695120048 
1.9399999999998028, -1.014249995838706 
1.9499999999998017, -1.0137572087838673 
1.9599999999998006, -1.0134764187926728 
1.9699999999997995, -1.01298260935074 
1.9799999999997984, -1.0126159322174784 
1.9899999999997973, -1.0121989247442464 
1.9999999999997962, -1.0116908058836944 
2.0099999999998173, -1.0113743121901444 
2.0199999999998384, -1.0107677591711428 
2.0299999999998595, -1.0104614158484302 
2.0399999999998806, -1.0098818209026257 
2.0499999999999017, -1.0094441025278245 
2.059999999999923, -1.0089927114431572 
2.069999999999944, -1.008367055512894 
2.079999999999965, -1.00804771921005 
2.089999999999986, -1.007323202138067 
2.100000000000007, -1.0069849506639543 
2.1100000000000283, -1.006343983204651 
2.1200000000000494, -1.0058175819601465 
2.1300000000000705, -1.005363867442858 
2.1400000000000916, -1.0046161613044247 
2.1500000000001127, -1.0043043454986107 
2.160000000000134, -1.0034985001637677 
2.170000000000155, -1.0031147512982896 
2.180000000000176, -1.0024669584531303 
2.190000000000197, -1.0018464637556606 
2.2000000000002182, -1.0014271407272544 
2.2100000000002393, -1.0005955026416329 
2.2200000000002604, -1.0002885590061206 
2.2300000000002815, -0.9994817110739769 
2.2400000000003026, -0.9990406944919271 
2.2500000000003237, -0.9984512227442534 
2.260000000000345, -0.9977612864373061 
2.270000000000366, -0.997397957064804 
2.280000000000387, -0.9965663884852827 
2.290000000000408, -0.9962487096385593 
2.3000000000004293, -0.995528806880866 
2.3100000000004504, -0.99503605275018 
2.3200000000004715, -0.9945471582628311 
2.3300000000004926, -0.9938461397581665 
2.3400000000005137, -0.9935335401578546 
2.3500000000005348, -0.9927932587796577 
2.360000000000556, -0.9924505837128186 
2.370000000000577, -0.9918668393181572 
2.380000000000598, -0.9913517610861281 
2.390000000000619, -0.9909671349687343 
2.4000000000006403, -0.9903240792231883 
2.4100000000006614, -0.9900383608687431 
2.4200000000006825, -0.9894383297245504 
2.4300000000007036, -0.9890742396666828 
2.4400000000007247, -0.9886270717598676 
2.450000000000746, -0.9881307352860479 
2.460000000000767, -0.9878266879576301 
2.470000000000788, -0.9872866457781377 
2.480000000000809, -0.9870074309547008 
2.49000000000083, -0.9865465628280184 
2.5000000000008513, -0.9861804375831212 
2.5100000000008724, -0.9858442832683492 
2.5200000000008935, -0.985400896742285 
2.5300000000009146, -0.9851472084044945 
2.5400000000009357, -0.9847178154125239 
2.550000000000957, -0.9844423663047904 
2.560000000000978, -0.9840975342768777 
2.570000000000999, -0.9837505338659295 
2.58000000000102, -0.9834971089280671 
2.5900000000010412, -0.9831224141241862 
2.6000000000010624, -0.9829006378298613 
2.6100000000010835, -0.9825708464156269 
2.6200000000011046, -0.9823069498968315 
2.6300000000011257, -0.9820584001707494 
2.6400000000011468, -0.9817447653165993 
2.650000000001168, -0.9815565868719053 
2.660000000001189, -0.9812527631983493 
2.67000000000121, -0.9810605211184815 
2.680000000001231, -0.9808255550353382 
2.6900000000012523, -0.9805797445321295 
2.7000000000012734, -0.9804239884999659 
2.7100000000012945, -0.9801501268986733 
2.7200000000013156, -0.9800285388448136 
2.7300000000013367, -0.9798055476664307 
2.740000000001358, -0.979644717103502 
2.750000000001379, -0.9795230069226408 
2.7600000000014, -0.9792953099457817 
2.770000000001421, -0.9792572386167432 
2.780000000001442, -0.9790367464005073 
2.7900000000014633, -0.9789966802586969 
2.8000000000014844, -0.978896486701666 
2.8100000000015055, -0.97876044551596 
2.8200000000015266, -0.9788187127431524 
2.8300000000015477, -0.9786071863234937 
2.840000000001569, -0.9787519851187552 
2.85000000000159, -0.9786400560261478 
2.860000000001611, -0.9786894430605573 
2.870000000001632, -0.9788281261086463 
2.8800000000016532, -0.9786890228647664 
2.8900000000016743, -0.9790952800213156 
2.9000000000016954, -0.9789350464796881 
2.9100000000017165, -0.9793518330082243 
2.9200000000017377, -0.9795003280842851 
2.9300000000017588, -0.9796047842430937 
2.94000000000178, -0.9802841428426787 
2.950000000001801, -0.9801081168597799 
2.960000000001822, -0.9811667094179329 
2.970000000001843, -0.9811959658259829 
2.9800000000018643, -0.9819215902810171 
2.9900000000018854, -0.9827156008227493 
3.0000000000019065, -0.9827369728638066 
3.0100000000019276, -0.9845607199331888 
3.0200000000019487, -0.9844111793729325 
3.03000000000197, -0.9863569871356551 
3.040000000001991, -0.9868813062751158 
3.050000000002012, -0.9876876653662998 
3.060000000002033, -0.9898107903420533 
3.070000000002054, -0.9896487829433859 
3.0800000000020753, -0.9929362825916996 
3.0900000000020964, -0.992967346567507 
3.1000000000021175, -0.9953619342406261 
3.1100000000021386, -0.9967341614063463 
3.1200000000021597, -0.9971872994357309 
3.130000000002181, -1.0005761949974235 
3.140000000002202, -1.000360514744973 
3.150000000002223, -1.0039563746665388 
3.160000000002244, -1.0042422706490062 
3.1700000000022652, -1.0060573951884124 
3.1800000000022863, -1.0078856277959698 
3.1900000000023074, -1.0079991501198606 
3.2000000000023285, -1.0110308598333615 
3.2100000000023496, -1.0108520410813444 
3.2200000000023707, -1.0132718349765033 
3.230000000002392, -1.013645486591207 
3.240000000002413, -1.0145678748080504 
3.250000000002434, -1.0159148328617948 
3.260000000002455, -1.0158689650172366 
3.2700000000024763, -1.0175967418755338 
3.2800000000024974, -1.0174434405834905 
3.2900000000025185, -1.0185910338164714 
3.3000000000025396, -1.0188257183166478 
3.3100000000025607, -1.0191617589011266 
3.3200000000025818, -1.0198307747891817 
3.330000000002603, -1.0197013720323869 
3.340000000002624, -1.0204523547134265 
3.350000000002645, -1.0202894207783997 
3.360000000002666, -1.0207161074899416 
3.3700000000026873, -1.020769950549004 
3.3800000000027084, -1.0208092818564845 
3.3900000000027295, -1.0210457199567209 
3.4000000000027506, -1.0208612600000546 
3.4100000000027717, -1.0211066967015001 
3.420000000002793, -1.0209136012807152 
3.430000000002814, -1.0209972367519795 
3.440000000002835, -1.0209173489694519 
3.450000000002856, -1.0208080049858599 
3.460000000002877, -1.0208111139769067 
3.4700000000028983, -1.0205838323210472 
3.4800000000029194, -1.0205834922154888 
3.4900000000029405, -1.020352396175915 
3.5000000000029616, -1.020268784232284 
3.5100000000029827, -1.0200972411053115 
3.520000000003004, -1.0199040755906208 
3.530000000003025, -1.0197772466828676 
3.540000000003046, -1.0195099594175892 
3.550000000003067, -1.0193835786873848 
3.5600000000030882, -1.0191092586200619 
3.5700000000031094, -1.0189354856303454 
3.5800000000031305, -1.018694549118436 
3.5900000000031516, -1.0184435630779896 
3.6000000000031727, -1.0182363348719319 
3.6100000000031938, -1.0179244162174408 
3.620000000003215, -1.0177275016417118 
3.630000000003236, -1.0174018999386438 
3.640000000003257, -1.0171719113104427 
3.650000000003278, -1.0168699637560628 
3.6600000000032993, -1.0165676947211297 
3.6700000000033204, -1.0163047271864953 
3.6800000000033415, -1.015936688666292 
3.6900000000033626, -1.0156971423483658 
3.7000000000033837, -1.0153082192401064 
3.710000000003405, -1.0150354832738442 
3.720000000003426, -1.0146743797311037 
3.730000000003447, -1.014315417376442 
3.740000000003468, -1.0140118992867193 
3.750000000003489, -1.013570308957883 
3.7600000000035103, -1.013303840677013 
3.7700000000035314, -1.0128384606879728 
3.7800000000035525, -1.012524488855529 
3.7900000000035736, -1.0121070721493826 
3.8000000000035947, -1.0116776705506065 
3.810000000003616, -1.0113479802275278 
3.820000000003637, -1.0108135947647614 
3.830000000003658, -1.0105289738206047 
3.840000000003679, -1.0099810666573608 
3.8500000000037002, -1.0096187866662083 
3.8600000000037213, -1.0091569551906183 
3.8700000000037424, -1.008639956707806 
3.8800000000037635, -1.0083014026482973 
3.8900000000037847, -1.0076641578484666 
3.9000000000038058, -1.0073631916591341 
3.910000000003827, -1.0067460844547846 
3.920000000003848, -1.00632329399612 
3.930000000003869, -1.0058434759536103 
3.94000000000389, -1.005228912037921 
3.9500000000039113, -1.0048990508817646 
3.9600000000039324, -1.004175389949893 
3.9700000000039535, -1.003851692085083 
3.9800000000039746, -1.0032060101000657 
3.9900000000039957, -1.0027130315170258 
4.000000000004016, -1.0022522710053738 
4.010000000003993, -1.0015537584068397 
4.02000000000397, -1.0012420123751746 
4.030000000003946, -1.000485466758573 
4.040000000003923, -1.0001273124751358 
4.0500000000039, -0.9995115183223305 
4.0600000000038765, -0.998953520901423 
4.070000000003853, -0.9985439772092086 
4.08000000000383, -0.9978097901750029 
4.090000000003807, -0.9975108252940675 
4.100000000003783, -0.9967962848912244 
4.11000000000376, -0.9963967854650604 
4.120000000003737, -0.995860952188073 
4.130000000003713, -0.9952669254763756 
4.14000000000369, -0.9949198593787929 
4.150000000003667, -0.9942205975493632 
4.1600000000036434, -0.9939187831864938 
4.17000000000362, -0.9933055456368032 
4.180000000003597, -0.9928737370610776 
4.1900000000035735, -0.9924384746360887 
4.20000000000355, -0.9918557290740978 
4.210000000003527, -0.9915590894574635 
4.220000000003504, -0.9909531240205329 
4.23000000000348, -0.990637693054604 
4.240000000003457, -0.9901465341040334 
4.250000000003434, -0.9897069759704548 
4.26000000000341, -0.9893640346077988 
4.270000000003387, -0.9888384845680779 
4.280000000003364, -0.9885697254201813 
4.2900000000033405, -0.9880790120257045 
4.300000000003317, -0.9877542246849842 
4.310000000003294, -0.9873753610836188 
4.320000000003271, -0.9869569734286759 
4.330000000003247, -0.9866834946596656 
4.340000000003224, -0.9862400323356695 
4.350000000003201, -0.9859841572254497 
4.360000000003177, -0.9856021474696885 
4.370000000003154, -0.9852817712979777 
4.380000000003131, -0.9849948790725818 
4.390000000003107, -0.9846196844889652 
4.400000000003084, -0.9843938208720673 
4.410000000003061, -0.9840354136360905 
4.4200000000030375, -0.9837912591509377 
4.430000000003014, -0.9835047880324894 
4.440000000002991, -0.983202284358934 
4.450000000002968, -0.9829909513631568 
4.460000000002944, -0.9826690411216848 
4.470000000002921, -0.9824814554831297 
4.480000000002898, -0.9822066776312984 
4.490000000002874, -0.9819784628210028 
4.500000000002851, -0.9817834769512591 
4.510000000002828, -0.9815070237495253 
4.520000000002804, -0.9813684561982166 
4.530000000002781, -0.9811071167983558 
4.540000000002758, -0.9809594432822998 
4.5500000000027345, -0.9807806774107848 
4.560000000002711, -0.9805693473547196 
4.570000000002688, -0.980482896649154 
4.580000000002665, -0.9802377643540595 
4.590000000002641, -0.980188335566287 
4.600000000002618, -0.980013543752905 
4.610000000002595, -0.9799057990110726 
4.620000000002571, -0.9798679571027672 
4.630000000002548, -0.9796666633362993 
4.640000000002525, -0.9797447664347307 
4.6500000000025015, -0.9795549603993704 
4.660000000002478, -0.9796200851128668 
4.670000000002455, -0.9796040657639172 
4.6800000000024315, -0.9795209330366103 
4.690000000002408, -0.9797425088860872 
4.700000000002385, -0.979546351084464 
4.710000000002362, -0.9798967448065705 
4.720000000002338, -0.9798457490209461 
4.730000000002315, -0.9800327635145846 
4.740000000002292, -0.9803580683520234 
4.750000000002268, -0.9802506064255583 
4.760000000002245, -0.9809957696159157 
4.770000000002222, -0.9808556551156453 
4.7800000000021985, -0.9815981465878209 
4.790000000002175, -0.9818953295363281 
4.800000000002152, -0.9821347587408263 
4.810000000002129, -0.9832304723049751 
4.820000000002105, -0.9830547229054533 
4.830000000002082, -0.9846994959852179 
4.840000000002059, -0.9847759021324768 
4.850000000002035, -0.9858927154266004 
4.860000000002012, -0.9869903538416867 
4.870000000001989, -0.987078433388074 
4.880000000001965, -0.9895390322424413 
4.890000000001942, -0.9893760491254652 
4.900000000001919, -0.9919300890405357 
4.9100000000018955, -0.9924823293806442 
4.920000000001872, -0.9935629510993289 
4.930000000001849, -0.9958852269058381 
