t, s[1].omega / s[0].omega 
0, -0.5799897184961739 
0.009999999999999995, -0.5789922774215639 
0.019999999999999934, -0.5780678635862081 
0.029999999999999874, -0.5772191168540739 
0.04000000000000012, -0.5764358221473247 
0.050000000000000405, -0.5757051059284812 
0.06000000000000069, -0.5750190430955848 
0.07000000000000098, -0.5743788132028619 
0.08000000000000126, -0.573796658541068 
0.09000000000000155, -0.573297455118854 
0.10000000000000184, -0.572921204308651 
0.11000000000000212, -0.5727270268105717 
0.12000000000000241, -0.572798757470266 
0.130000000000002, -0.5732520069567275 
0.1400000000000009, -0.5742423196747274 
0.1499999999999998, -0.5759733343768052 
0.1599999999999987, -0.5787017396581305 
0.1699999999999976, -0.5827307966743831 
0.1799999999999965, -0.588374836919945 
0.1899999999999954, -0.5958662037344375 
0.1999999999999943, -0.6051819059027805 
0.2099999999999932, -0.6158322608764562 
0.2199999999999921, -0.6267907585185689 
0.229999999999991, -0.6367850177817035 
0.2399999999999899, -0.6448570977792277 
0.2499999999999888, -0.6507207842755536 
0.2599999999999877, -0.6546479763027258 
0.2699999999999866, -0.6571276114421987 
0.2799999999999855, -0.6586147962556165 
0.2899999999999844, -0.6594420458451091 
0.2999999999999833, -0.659822311696035 
0.3099999999999822, -0.6598773259199612 
0.3199999999999811, -0.6596619641681994 
0.32999999999998, -0.6591770765620617 
0.3399999999999789, -0.6583703825869113 
0.3499999999999778, -0.6571264891627868 
0.35999999999997667, -0.6552492738115419 
0.36999999999997557, -0.6524485186159108 
0.37999999999997447, -0.6483624508182302 
0.38999999999997337, -0.6426677544170376 
0.39999999999997227, -0.6352956833969314 
0.40999999999997117, -0.6266353328123093 
0.41999999999997006, -0.6174960010539546 
0.42999999999996896, -0.6087823034641552 
0.43999999999996786, -0.6011484597436275 
0.44999999999996676, -0.5948779056741522 
0.45999999999996566, -0.5899649829465121 
0.46999999999996456, -0.5862518956418233 
0.47999999999996346, -0.5835312777670958 
0.48999999999996235, -0.5816003153472854 
0.49999999999996125, -0.5802821071412783 
0.5099999999999602, -0.5794306407184611 
0.519999999999959, -0.5789292212097894 
0.529999999999958, -0.5786869176587515 
0.5399999999999568, -0.5786347672157184 
0.5499999999999557, -0.5787223186606314 
0.5599999999999546, -0.5789147540885223 
0.5699999999999535, -0.5791907281914209 
0.5799999999999524, -0.5795408563475939 
0.5899999999999513, -0.5799662845885373 
0.5999999999999502, -0.5804760739036743 
0.6099999999999491, -0.581081747486625 
0.619999999999948, -0.5817881060281496 
0.6299999999999469, -0.5825818150740221 
0.6399999999999458, -0.5834227091469164 
0.6499999999999447, -0.5842448445173092 
0.6599999999999436, -0.5849711426779597 
0.6699999999999425, -0.5855360244318134 
0.6799999999999414, -0.5859026506692996 
0.6899999999999403, -0.5860652289695085 
0.6999999999999392, -0.5860387469581585 
0.7099999999999381, -0.5858453653204403 
0.719999999999937, -0.5855044007348511 
0.7299999999999359, -0.5850276298402025 
0.7399999999999348, -0.5844188471740871 
0.7499999999999337, -0.5836765077873501 
0.7599999999999326, -0.5827991682078354 
0.7699999999999315, -0.5817936269747184 
0.7799999999999304, -0.580682835305282 
0.7899999999999293, -0.5795001967554343 
0.7999999999999282, -0.578234171094253 
0.8099999999999271, -0.5766703381846016 
0.819999999999926, -0.5741671417191665 
0.8299999999999249, -0.5697204586126983 
0.8399999999999238, -0.5627893710514652 
0.8499999999999227, -0.5542668774560459 
0.8599999999999216, -0.5460594121687213 
0.8699999999999205, -0.539631283357781 
0.8799999999999194, -0.535337994499575 
0.8899999999999183, -0.5328024204304403 
0.8999999999999172, -0.5314589787750562 
0.9099999999999161, -0.530831557909565 
0.919999999999915, -0.5305947379203884 
0.9299999999999139, -0.5305482885474077 
0.9399999999999128, -0.530575970745717 
0.9499999999999117, -0.5306120326733815 
0.9599999999999106, -0.5306187918144933 
0.9699999999999095, -0.5305731757126797 
0.9799999999999084, -0.5304597494524201 
0.9899999999999073, -0.5302686145392288 
0.9999999999999062, -0.5299970585064069 
1.0099999999999052, -0.5296532646831505 
1.019999999999904, -0.5292589503422338 
1.029999999999903, -0.5288471750984401 
1.039999999999902, -0.5284538450502104 
1.0499999999999008, -0.5281059542339609 
1.0599999999998997, -0.5278124402899027 
1.0699999999998986, -0.527562192758149 
1.0799999999998975, -0.5273298006789658 
1.0899999999998964, -0.5270857902048538 
1.0999999999998953, -0.5268062534058257 
1.1099999999998942, -0.5264780362320972 
1.119999999999893, -0.5260991498506016 
1.129999999999892, -0.5256769370197548 
1.1399999999998909, -0.5252270664463881 
1.1499999999998898, -0.5247755353227656 
1.1599999999998887, -0.5243651535841222 
1.1699999999998876, -0.5240681490621536 
1.1799999999998865, -0.5240073221749705 
1.1899999999998854, -0.5243886869482558 
1.1999999999998843, -0.5255464622120403 
1.2099999999998832, -0.5279906027189158 
1.219999999999882, -0.5324152387430685 
1.229999999999881, -0.5395624720873294 
1.2399999999998799, -0.5497894949591924 
1.2499999999998788, -0.5623864482301619 
1.2599999999998777, -0.5753283716742168 
1.2699999999998766, -0.5863009515102124 
1.2799999999998755, -0.5942172030660632 
1.2899999999998744, -0.5994338049617091 
1.2999999999998733, -0.6028274287989144 
1.3099999999998722, -0.6051006766229774 
1.319999999999871, -0.6066653999358893 
1.32999999999987, -0.6077465748775872 
1.3399999999998689, -0.6084751933787472 
1.3499999999998678, -0.6089342400150184 
1.3599999999998666, -0.6091771752511634 
1.3699999999998655, -0.609235007011203 
1.3799999999998644, -0.6091190393281053 
1.3899999999998633, -0.6088220325267804 
1.3999999999998622, -0.6083196035390224 
1.4099999999998611, -0.6075745024587759 
1.41999999999986, -0.6065473722924617 
1.429999999999859, -0.6052160774486779 
1.4399999999998578, -0.6035987532081654 
1.4499999999998567, -0.6017661926505389 
1.4599999999998556, -0.5998295610619905 
1.4699999999998545, -0.5979070172573204 
1.4799999999998534, -0.5960906986397513 
1.4899999999998523, -0.5944323793274475 
1.4999999999998512, -0.5929486694983538 
1.5099999999998501, -0.5916354682888496 
1.519999999999849, -0.5904820510398628 
1.529999999999848, -0.5894805421215861 
1.5399999999998468, -0.5886306849359173 
1.5499999999998457, -0.5879414806646817 
1.5599999999998446, -0.587431272495509 
1.5699999999998435, -0.5871272851484295 
1.5799999999998424, -0.5870651469738448 
1.5899999999998413, -0.587288697317245 
1.5999999999998402, -0.58785029610257 
1.6099999999998391, -0.5888116825767968 
1.619999999999838, -0.5902449308956166 
1.629999999999837, -0.5922319578624509 
1.6399999999998358, -0.594859113396092 
1.6499999999998347, -0.5982007811647673 
1.6599999999998336, -0.6022844178750258 
1.6699999999998325, -0.607034707401372 
1.6799999999998314, -0.612215400600167 
1.6899999999998303, -0.6174207899478772 
1.6999999999998292, -0.6221714138452703 
1.709999999999828, -0.6260879725112865 
1.719999999999827, -0.6290184093416615 
1.729999999999826, -0.63102740496357 
1.7399999999998248, -0.6322924293149492 
1.7499999999998237, -0.633003503290039 
1.7599999999998226, -0.633311240355681 
1.7699999999998215, -0.6333135976830128 
1.7799999999998204, -0.6330587361451819 
1.7899999999998193, -0.6325488490432666 
1.7999999999998182, -0.6317376284099228 
1.809999999999817, -0.6305173419737343 
1.819999999999816, -0.6286922989153226 
1.8299999999998149, -0.6259385356452508 
1.8399999999998138, -0.6217647998385787 
1.8499999999998127, -0.6155329160993703 
1.8599999999998116, -0.6066562132853968 
1.8699999999998105, -0.5950476361595396 
1.8799999999998094, -0.5815526363773185 
1.8899999999998083, -0.5677983291567539 
1.8999999999998072, -0.555401882611988 
1.909999999999806, -0.5452849305040444 
1.919999999999805, -0.5376020356438974 
1.9299999999998039, -0.5320501820549246 
1.9399999999998028, -0.5281770181409227 
1.9499999999998017, -0.5255508433411232 
1.9599999999998006, -0.5238206646121378 
1.9699999999997995, -0.5227218730605654 
1.9799999999997984, -0.5220628182986017 
1.9899999999997973, -0.521708080969302 
1.9999999999997962, -0.5215638933478401 
2.0099999999998173, -0.5215669192440854 
2.0199999999998384, -0.5216762287050984 
2.0299999999998595, -0.5218679948313654 
2.0399999999998806, -0.5221323588018183 
2.0499999999999017, -0.5224716598086279 
2.059999999999923, -0.5228986908438387 
2.069999999999944, -0.5234330693739138 
2.079999999999965, -0.5240938584193413 
2.089999999999986, -0.5248879597050508 
2.100000000000007, -0.5257968021314718 
2.1100000000000283, -0.5267677647930353 
2.1200000000000494, -0.5277186617525571 
2.1300000000000705, -0.5285583764810453 
2.1400000000000916, -0.5292143412525022 
2.1500000000001127, -0.5296500162361243 
2.160000000000134, -0.5298635214628586 
2.170000000000155, -0.5298732162525491 
2.180000000000176, -0.5297014606687718 
2.190000000000197, -0.5293629508413413 
2.2000000000002182, -0.5288577126314359 
2.2100000000002393, -0.5281658048941871 
2.2200000000002604, -0.5272400019888275 
2.2300000000002815, -0.5259917578215252 
2.2400000000003026, -0.5242628410728483 
2.2500000000003237, -0.5217700458390598 
2.260000000000345, -0.5180107659082112 
2.270000000000366, -0.5121571068901224 
2.280000000000387, -0.5031147633450961 
2.290000000000408, -0.4901096167944684 
2.3000000000004293, -0.473776697689138 
2.3100000000004504, -0.4565045528734445 
2.3200000000004715, -0.441053927570226 
2.3300000000004926, -0.42894611796747045 
2.3400000000005137, -0.42026240674105597 
2.3500000000005348, -0.414351222838292 
2.360000000000556, -0.41044038695055374 
2.370000000000577, -0.40789531409318813 
2.380000000000598, -0.40626233674381096 
2.390000000000619, -0.40523688780273465 
2.4000000000006403, -0.40462067210686686 
2.4100000000006614, -0.4042871298420672 
2.4200000000006825, -0.4041575881140119 
2.4300000000007036, -0.40418602702052525 
2.4400000000007247, -0.4043500165138356 
2.450000000000746, -0.4046459313426675 
2.460000000000767, -0.40508698820181016 
2.470000000000788, -0.40570265444123876 
2.480000000000809, -0.406537486972731 
2.49000000000083, -0.4076465796816763 
2.5000000000008513, -0.4090838792858406 
2.5100000000008724, -0.41087978323660684 
2.5200000000008935, -0.4130086842518936 
2.5300000000009146, -0.415359321350632 
2.5400000000009357, -0.4177357442500818 
2.550000000000957, -0.4199099350475313 
2.560000000000978, -0.42170338391770035 
2.570000000000999, -0.4230391742899659 
2.58000000000102, -0.4239337310051134 
2.5900000000010412, -0.42445230296545267 
2.6000000000010624, -0.4246664662843941 
2.6100000000010835, -0.4246297437741867 
2.6200000000011046, -0.4243676210254524 
2.6300000000011257, -0.4238732572749792 
2.6400000000011468, -0.423102758820147 
2.650000000001168, -0.42196795047435576 
2.660000000001189, -0.42033003287666854 
2.67000000000121, -0.41800705169822006 
2.680000000001231, -0.41482013456335676 
2.6900000000012523, -0.4106980701189545 
2.7000000000012734, -0.40580178128529454 
2.7100000000012945, -0.40054845680936735 
2.7200000000013156, -0.3954582417703474 
2.7300000000013367, -0.3909354239348157 
2.740000000001358, -0.38716200893604874 
2.750000000001379, -0.38413378336831006 
2.7600000000014, -0.38175001221893534 
2.770000000001421, -0.37988511229250693 
2.780000000001442, -0.3784260712633342 
2.7900000000014633, -0.3772857797025757 
2.8000000000014844, -0.37640464022875186 
2.8100000000015055, -0.37574825804453293 
2.8200000000015266, -0.3753051550772426 
2.8300000000015477, -0.37508636500629067 
2.840000000001569, -0.3751279418342612 
2.85000000000159, -0.3754973325973925 
2.860000000001611, -0.3763048755127979 
2.870000000001632, -0.37772200808780015 
2.8800000000016532, -0.3800072250320012 
2.8900000000016743, -0.38353693493588964 
2.9000000000016954, -0.3888249629373117 
2.9100000000017165, -0.3964807717589098 
2.9200000000017377, -0.40700236492667086 
2.9300000000017588, -0.42030431541132174 
2.94000000000178, -0.4351717093691847 
2.950000000001801, -0.4493754687085268 
2.960000000001822, -0.4608743478614124 
2.970000000001843, -0.46896537616848655 
2.9800000000018643, -0.4741594249901673 
2.9900000000018854, -0.47735433254412707 
3.0000000000019065, -0.4792979434383243 
3.0100000000019276, -0.4804762664320097 
3.0200000000019487, -0.4811748398818714 
3.03000000000197, -0.481555069245111 
3.040000000001991, -0.48170547855704726 
3.050000000002012, -0.48167055541529935 
3.060000000002033, -0.48146618438057853 
3.070000000002054, -0.4810886735482911 
3.0800000000020753, -0.4805224716595496 
3.0900000000020964, -0.4797505250352345 
3.1000000000021175, -0.4787690247790293 
3.1100000000021386, -0.47760311654864174 
3.1200000000021597, -0.47631393232616953 
3.130000000002181, -0.4749879768299793 
3.140000000002202, -0.4737118800818464 
3.150000000002223, -0.4725477370773383 
3.160000000002244, -0.47152236096245914 
3.1700000000022652, -0.47063168983252324 
3.1800000000022863, -0.4698532511468244 
3.1900000000023074, -0.4691592533174128 
3.2000000000023285, -0.46852613692342115 
3.2100000000023496, -0.46793967355374305 
3.2200000000023707, -0.46739690244246884 
3.230000000002392, -0.46690710907300276 
3.240000000002413, -0.4664939306237971 
3.250000000002434, -0.4662002337812964 
3.260000000002455, -0.46609727224625475 
3.2700000000024763, -0.4662999763789898 
3.2800000000024974, -0.4669908004631912 
3.2900000000025185, -0.46845443643903567 
3.3000000000025396, -0.4711221933546219 
3.3100000000025607, -0.47561086134889113 
3.3200000000025818, -0.4827026536919455 
3.330000000002603, -0.493143027441282 
3.340000000002624, -0.5071058195850552 
3.350000000002645, -0.5234613771295317 
3.360000000002666, -0.5396889895588914 
3.3700000000026873, -0.5531913113713852 
3.3800000000027084, -0.5628689507473561 
3.3900000000027295, -0.5691853216877988 
3.4000000000027506, -0.5731643319238608 
3.4100000000027717, -0.5756744161646803 
3.420000000002793, -0.5772747077613619 
3.430000000002814, -0.5782932570634717 
3.440000000002835, -0.5789201993174601 
3.450000000002856, -0.5792663715031743 
3.460000000002877, -0.5793943699750297 
3.4700000000028983, -0.5793341037954785 
3.4800000000029194, -0.5790904195082991 
3.4900000000029405, -0.5786473094771099 
3.5000000000029616, -0.5779724671462274 
3.5100000000029827, -0.577026417673814 
3.520000000003004, -0.5757797936128963 
3.530000000003025, -0.5742370485970051 
3.540000000003046, -0.5724547988531455 
3.550000000003067, -0.5705380702976599 
3.5600000000030882, -0.5686106392706222 
3.5700000000031094, -0.5667775632762523 
3.5800000000031305, -0.565102953024972 
3.5900000000031516, -0.5636100058546885 
3.6000000000031727, -0.5622946584098173 
3.6100000000031938, -0.5611415062694354 
3.620000000003215, -0.5601356959387119 
3.630000000003236, -0.5592696241184216 
3.640000000003257, -0.5585458485293464 
3.650000000003278, -0.5579780915325656 
3.6600000000032993, -0.5575917111632664 
3.6700000000033204, -0.5574243686882978 
3.6800000000033415, -0.5575272154029731 
3.6900000000033626, -0.5579667586350531 
3.7000000000033837, -0.5588274555267851 
3.710000000003405, -0.5602147252497038 
3.720000000003426, -0.5622570395043756 
3.730000000003447, -0.5651034455293709 
3.740000000003468, -0.5689087392599399 
3.750000000003489, -0.5737933750613753 
3.7600000000035103, -0.5797652439408448 
3.7700000000035314, -0.5866119534878946 
3.7800000000035525, -0.5938293548235813 
3.7900000000035736, -0.600700871351577 
3.8000000000035947, -0.6065592027265143 
3.810000000003616, -0.6110536488445706 
3.820000000003637, -0.6142046434452316 
3.830000000003658, -0.6162564160514192 
3.840000000003679, -0.6175011916246358 
3.8500000000037002, -0.6181810742353002 
3.8600000000037213, -0.6184623459611569 
3.8700000000037424, -0.6184424892270552 
3.8800000000037635, -0.6181627234940512 
3.8900000000037847, -0.6176147488973525 
3.9000000000038058, -0.6167381557284577 
3.910000000003827, -0.6154076550196281 
3.920000000003848, -0.613412294504243 
3.930000000003869, -0.6104386738056347 
3.94000000000389, -0.6060932592323814 
3.9500000000039113, -0.6000243257671569 
3.9600000000039324, -0.5921686959008495 
3.9700000000039535, -0.5829833049445926 
3.9800000000039746, -0.5733871885396834 
3.9900000000039957, -0.5643689062174012 
4.000000000004016, -0.5565959272946148 
4.010000000003993, -0.5503088257246312 
4.02000000000397, -0.5454427300161541 
4.030000000003946, -0.5417916400953199 
4.040000000003923, -0.5391194226875962 
4.0500000000039, -0.5372118051331769 
4.0600000000038765, -0.5358924719534932 
4.070000000003853, -0.5350230202702688 
4.08000000000383, -0.5344976015387248 
4.090000000003807, -0.5342369118478596 
4.100000000003783, -0.5341831091730124 
4.11000000000376, -0.5342959894966773 
4.120000000003737, -0.5345503575028223 
4.130000000003713, -0.5349343968035898 
4.14000000000369, -0.5354486372896325 
4.150000000003667, -0.5361046489780432 
4.1600000000036434, -0.5369219028016797 
4.17000000000362, -0.5379207421765948 
4.180000000003597, -0.539109940110314 
4.1900000000035735, -0.5404699556939421 
4.20000000000355, -0.5419382993985503 
4.210000000003527, -0.5434088387662755 
4.220000000003504, -0.5447543766746885 
4.23000000000348, -0.5458655643071287 
4.240000000003457, -0.5466821388149912 
4.250000000003434, -0.5471973632642949 
4.26000000000341, -0.5474394156802045 
4.270000000003387, -0.5474469954130056 
4.280000000003364, -0.5472513021889183 
4.2900000000033405, -0.5468660130569197 
4.300000000003317, -0.5462812937664248 
4.310000000003294, -0.5454569151557153 
4.320000000003271, -0.5443095423841668 
4.330000000003247, -0.5426879984473428 
4.340000000003224, -0.5403278433126757 
4.350000000003201, -0.5367784354526793 
4.360000000003177, -0.5313237019606759 
4.370000000003154, -0.5230171278665658 
4.380000000003131, -0.511094833620259 
4.390000000003107, -0.4958420383155483 
4.400000000003084, -0.4791081915871399 
4.410000000003061, -0.4634464825249867 
4.4200000000030375, -0.4506199954916883 
4.430000000003014, -0.4410643143414231 
4.440000000002991, -0.43435244298178144 
4.450000000002968, -0.4297942105725099 
4.460000000002944, -0.4267586693217672 
4.470000000002921, -0.42476702260241855 
4.480000000002898, -0.42348461663341574 
4.490000000002874, -0.4226866176653738 
4.500000000002851, -0.42222531342002706 
4.510000000002828, -0.4220057195629433 
4.520000000002804, -0.4219691408443321 
4.530000000002781, -0.4220828362188101 
4.540000000002758, -0.4223340830980665 
4.5500000000027345, -0.4227273033135438 
4.560000000002711, -0.4232830077801776 
4.570000000002688, -0.42403697019119946 
4.580000000002665, -0.42503727371966155 
4.590000000002641, -0.4263359408030281 
4.600000000002618, -0.4279714967037096 
4.610000000002595, -0.4299410837605201 
4.620000000002571, -0.43216925739430856 
4.630000000002548, -0.4344950478004398 
4.640000000002525, -0.4367031536240057 
4.6500000000025015, -0.43859612144941734 
4.660000000002478, -0.44006043607313394 
4.670000000002455, -0.4410807852655621 
4.6800000000024315, -0.441706734743049 
4.690000000002408, -0.44200822972478215 
4.700000000002385, -0.4420449200084393 
4.710000000002362, -0.44185167616516086 
4.720000000002338, -0.44143255841942075 
4.730000000002315, -0.4407558074150476 
4.740000000002292, -0.4397457135952577 
4.750000000002268, -0.4382713554328084 
4.760000000002245, -0.43613980333428426 
4.770000000002222, -0.43311587802615154 
4.7800000000021985, -0.4290041049453695 
4.790000000002175, -0.42380241293675436 
4.800000000002152, -0.41783438670330747 
4.810000000002129, -0.411693101496078 
4.820000000002105, -0.4059837938576936 
4.830000000002082, -0.40108651539882245 
4.840000000002059, -0.3971089160197962 
4.850000000002035, -0.3939780692844477 
4.860000000002012, -0.39154917621072477 
4.870000000001989, -0.3896738518222314 
4.880000000001965, -0.3882292189225106 
4.890000000001942, -0.3871248723826885 
4.900000000001919, -0.3863008718136274 
