t, s[1].omega / s[0].omega 
0, -1.5800416700218274 
0.009999999999999995, -1.5833440727041743 
0.019999999999999934, -1.5852535769690559 
0.029999999999999874, -1.5861920123389373 
0.04000000000000012, -1.5864713847349128 
0.050000000000000405, -1.5863030415599715 
0.06000000000000069, -1.5858324788301177 
0.07000000000000098, -1.5851790583699157 
0.08000000000000126, -1.5844620275702872 
0.09000000000000155, -1.5837962423332281 
0.10000000000000184, -1.5832727487682858 
0.11000000000000212, -1.5829481142391244 
0.12000000000000241, -1.582819594930963 
0.130000000000002, -1.582796918191143 
0.1400000000000009, -1.5827324726300145 
0.1499999999999998, -1.5824747927710714 
0.1599999999999987, -1.581866210159177 
0.1699999999999976, -1.5806817201304288 
0.1799999999999965, -1.5785358855660903 
0.1899999999999954, -1.5747741078227353 
0.1999999999999943, -1.5684109812907319 
0.2099999999999932, -1.5583754163463053 
0.2199999999999921, -1.5446621351347456 
0.229999999999991, -1.5304236874675938 
0.2399999999999899, -1.521451261970737 
0.2499999999999888, -1.519973223329345 
0.2599999999999877, -1.5224263628380397 
0.2699999999999866, -1.525098399741944 
0.2799999999999855, -1.5267922902260924 
0.2899999999999844, -1.5275897590362664 
0.2999999999999833, -1.5277727247957886 
0.3099999999999822, -1.5275260672497792 
0.3199999999999811, -1.5269393254975459 
0.32999999999998, -1.526101473240339 
0.3399999999999789, -1.5252867540887987 
0.3499999999999778, -1.5251514691526464 
0.35999999999997667, -1.5264991909499945 
0.36999999999997557, -1.5294558648427878 
0.37999999999997447, -1.5332135833048384 
0.38999999999997337, -1.5368145980998857 
0.39999999999997227, -1.539740565814816 
0.40999999999997117, -1.541868730159046 
0.41999999999997006, -1.5432587516916543 
0.42999999999996896, -1.5440222043081595 
0.43999999999996786, -1.5442708275922457 
0.44999999999996676, -1.5441007028980402 
0.45999999999996566, -1.5435913690510341 
0.46999999999996456, -1.542814261467796 
0.47999999999996346, -1.541847009952228 
0.48999999999996235, -1.5407862731340471 
0.49999999999996125, -1.5397549073638677 
0.5099999999999602, -1.5388995783321122 
0.519999999999959, -1.5383457698016996 
0.529999999999958, -1.5381024472954832 
0.5399999999999568, -1.5380307148065735 
0.5499999999999557, -1.5379351612081795 
0.5599999999999546, -1.53764490287319 
0.5699999999999535, -1.536994265968919 
0.5799999999999524, -1.5357357282747957 
0.5899999999999513, -1.5334133410505562 
0.5999999999999502, -1.5291972852994564 
0.6099999999999491, -1.5217644190251076 
0.619999999999948, -1.5096671626196239 
0.6299999999999469, -1.4931865941085531 
0.6399999999999458, -1.477275383120166 
0.6499999999999447, -1.4694614072802128 
0.6599999999999436, -1.4709024644550892 
0.6699999999999425, -1.475968213097325 
0.6799999999999414, -1.4802827970472845 
0.6899999999999403, -1.4828804068028814 
0.6999999999999392, -1.4841663184693934 
0.7099999999999381, -1.4846347868663385 
0.719999999999937, -1.4845915082616452 
0.7299999999999359, -1.4841915659767557 
0.7399999999999348, -1.4835340841355715 
0.7499999999999337, -1.4827945163951828 
0.7599999999999326, -1.482381928732288 
0.7699999999999315, -1.4829113968153178 
0.7799999999999304, -1.4847425934107048 
0.7899999999999293, -1.4875505172199288 
0.7999999999999282, -1.4906142181928228 
0.8099999999999271, -1.4933632867730677 
0.819999999999926, -1.495541903290295 
0.8299999999999249, -1.4971024639663197 
0.8399999999999238, -1.498087436452918 
0.8499999999999227, -1.4985670935763165 
0.8599999999999216, -1.498614396402149 
0.8699999999999205, -1.4982965400281225 
0.8799999999999194, -1.4976750765763653 
0.8899999999999183, -1.4968131335583676 
0.8999999999999172, -1.4957870065994334 
0.9099999999999161, -1.494695844872189 
0.919999999999915, -1.4936657926960968 
0.9299999999999139, -1.4928402731806787 
0.9399999999999128, -1.4923263936298867 
0.9499999999999117, -1.4921102072721735 
0.9599999999999106, -1.4920471759603045 
0.9699999999999095, -1.4919519332168745 
0.9799999999999084, -1.4916645145663097 
0.9899999999999073, -1.4910289060029067 
0.9999999999999062, -1.4898170352298519 
1.0099999999999052, -1.4876243089349432 
1.019999999999904, -1.4837420592275667 
1.029999999999903, -1.4770692094499442 
1.039999999999902, -1.4663427380231837 
1.0499999999999008, -1.4513108938316952 
1.0599999999998997, -1.4349309276181361 
1.0699999999998986, -1.423358879744521 
1.0799999999998975, -1.4201622258093483 
1.0899999999998964, -1.4225327838936546 
1.0999999999998953, -1.4260187373353483 
1.1099999999998942, -1.4285779422190594 
1.119999999999893, -1.4300140909923755 
1.129999999999892, -1.4306368372328824 
1.1399999999998909, -1.4307192892978158 
1.1499999999998898, -1.4304111313420962 
1.1599999999998887, -1.4297780015756087 
1.1699999999998876, -1.428889546061038 
1.1799999999998865, -1.427988898046833 
1.1899999999998854, -1.4277115694016909 
1.1999999999998843, -1.4289959851522653 
1.2099999999998832, -1.4323219276051107 
1.219999999999882, -1.437081688811716 
1.229999999999881, -1.4421006028329966 
1.2399999999998799, -1.446496624139809 
1.2499999999998788, -1.4499122608427308 
1.2599999999998777, -1.4523306615885576 
1.2699999999998766, -1.453879759555836 
1.2799999999998755, -1.4547262268519536 
1.2899999999998744, -1.4550290372561787 
1.2999999999998733, -1.454922084379217 
1.3099999999998722, -1.454514084846035 
1.319999999999871, -1.4539009660684843 
1.32999999999987, -1.4531819074312788 
1.3399999999998689, -1.452463682092264 
1.3499999999998678, -1.4518459734677422 
1.3599999999998666, -1.4514020215666061 
1.3699999999998655, -1.4511636304301474 
1.3799999999998644, -1.4511016506230812 
1.3899999999998633, -1.451121227275654 
1.3999999999998622, -1.4510946495418207 
1.4099999999998611, -1.4508970654706057 
1.41999999999986, -1.4504053308960212 
1.429999999999859, -1.4494666014876179 
1.4399999999998578, -1.4478606259484395 
1.4499999999998567, -1.4452737703503862 
1.4599999999998556, -1.4413057852837403 
1.4699999999998545, -1.435550812346106 
1.4799999999998534, -1.4278305151154524 
1.4899999999998523, -1.4186518917802844 
1.4999999999998512, -1.4096628969885916 
1.5099999999998501, -1.403183034282169 
1.519999999999849, -1.4003719988025394 
1.529999999999848, -1.4002517727365955 
1.5399999999998468, -1.4011062727575267 
1.5499999999998457, -1.401899458686329 
1.5599999999998446, -1.402318740871538 
1.5699999999998435, -1.4023486770998406 
1.5799999999998424, -1.4020101177888664 
1.5899999999998413, -1.4012675511518304 
1.5999999999998402, -1.4000131889277918 
1.6099999999998391, -1.3981368433179757 
1.619999999999838, -1.3958349487721264 
1.629999999999837, -1.3943233843404106 
1.6399999999998358, -1.3962643510721269 
1.6499999999998347, -1.4039136075402534 
1.6599999999998336, -1.4160118913979365 
1.6699999999998325, -1.428625771048651 
1.6799999999998314, -1.4387862770122264 
1.6899999999998303, -1.445738289990032 
1.6999999999998292, -1.4499994283558957 
1.709999999999828, -1.4523793921988613 
1.719999999999827, -1.4535531459314113 
1.729999999999826, -1.4539777756991255 
1.7399999999998248, -1.4539352512232422 
1.7499999999998237, -1.4536023131365177 
1.7599999999998226, -1.4531168791708287 
1.7699999999998215, -1.452625394654374 
1.7799999999998204, -1.4522824256000204 
1.7899999999998193, -1.4521922443265531 
1.7999999999998182, -1.4523567007475182 
1.809999999999817, -1.4526948320969093 
1.819999999999816, -1.4530959357184217 
1.8299999999998149, -1.4534504431169601 
1.8399999999998138, -1.453661782122609 
1.8499999999998127, -1.4536498107794105 
1.8599999999998116, -1.4533448834918852 
1.8699999999998105, -1.452678042174785 
1.8799999999998094, -1.45157560472377 
1.8899999999998083, -1.449961162682021 
1.8999999999998072, -1.4477656592874732 
1.909999999999806, -1.4449515193700981 
1.919999999999805, -1.4415669698086173 
1.9299999999998039, -1.4378453087411611 
1.9399999999998028, -1.4343000443828262 
1.9499999999998017, -1.4316172369143936 
1.9599999999998006, -1.430206315890652 
1.9699999999997995, -1.4298505107967587 
1.9799999999997984, -1.429977167442337 
1.9899999999997973, -1.4301269439904452 
1.9999999999997962, -1.4300764881312544 
2.0099999999998173, -1.4297199685980275 
2.0199999999998384, -1.4289367177219452 
2.0299999999998595, -1.427489906964652 
2.0399999999998806, -1.4249350910113388 
2.0499999999999017, -1.4206022568512073 
2.059999999999923, -1.4140165223690304 
2.069999999999944, -1.4064860534686328 
2.079999999999965, -1.4030597403307312 
2.089999999999986, -1.4094654213949611 
2.100000000000007, -1.4241257708808075 
2.1100000000000283, -1.4394458725475214 
2.1200000000000494, -1.4505460064516085 
2.1300000000000705, -1.4571372333323898 
2.1400000000000916, -1.4606311208048264 
2.1500000000001127, -1.4623132848354108 
2.160000000000134, -1.4629813955165367 
2.170000000000155, -1.4630668606832424 
2.180000000000176, -1.4627978574735734 
2.190000000000197, -1.462324204090192 
2.2000000000002182, -1.46181576084791 
2.2100000000002393, -1.4615147612957493 
2.2200000000002604, -1.4616660948702431 
2.2300000000002815, -1.4623433382275794 
2.2400000000003026, -1.4633873763203022 
2.2500000000003237, -1.4645435973147822 
2.260000000000345, -1.4656050455328984 
2.270000000000366, -1.4664470631291933 
2.280000000000387, -1.467004873991596 
2.290000000000408, -1.4672473742721643 
2.3000000000004293, -1.4671596121237889 
2.3100000000004504, -1.466733321032207 
2.3200000000004715, -1.4659635939165379 
2.3300000000004926, -1.464850536252633 
2.3400000000005137, -1.4634068309170642 
2.3500000000005348, -1.4616742891271197 
2.360000000000556, -1.4597530934978074 
2.370000000000577, -1.4578388163058276 
2.380000000000598, -1.4562221964789956 
2.390000000000619, -1.4551668439242689 
2.4000000000006403, -1.4547075398750475 
2.4100000000006614, -1.4546192854808193 
2.4200000000006825, -1.4546087851476455 
2.4300000000007036, -1.4544634674534327 
2.4400000000007247, -1.454038142741201 
2.450000000000746, -1.4531637252235758 
2.460000000000767, -1.451535196742733 
2.470000000000788, -1.4485688431947987 
2.480000000000809, -1.443242375736349 
2.49000000000083, -1.4341527709033408 
2.5000000000008513, -1.4205780921267965 
2.5100000000008724, -1.405251214802894 
2.5200000000008935, -1.3954775499577121 
2.5300000000009146, -1.3962618610580022 
2.5400000000009357, -1.4038846214104728 
2.550000000000957, -1.4118402219812616 
2.560000000000978, -1.4173004761154195 
2.570000000000999, -1.420382924124455 
2.58000000000102, -1.4219086999988964 
2.5900000000010412, -1.4225166541914551 
2.6000000000010624, -1.4225725488107404 
2.6100000000010835, -1.422262434319473 
2.6200000000011046, -1.4216945851143807 
2.6300000000011257, -1.4210096533386127 
2.6400000000011468, -1.4205092190498152 
2.650000000001168, -1.4206922216249114 
2.660000000001189, -1.4219888693613423 
2.67000000000121, -1.4243471189315322 
2.680000000001231, -1.4272421703756373 
2.6900000000012523, -1.4300933633331367 
2.7000000000012734, -1.4325408634599248 
2.7100000000012945, -1.4344436194662074 
2.7200000000013156, -1.4357860206367685 
2.7300000000013367, -1.4366080879201693 
2.740000000001358, -1.4369704983548224 
2.750000000001379, -1.4369390929185688 
2.7600000000014, -1.4365785004273879 
2.770000000001421, -1.4359522890510497 
2.780000000001442, -1.435129451497351 
2.7900000000014633, -1.4341930835890708 
2.8000000000014844, -1.4332432155840817 
2.8100000000015055, -1.4323906252066119 
2.8200000000015266, -1.4317407248119152 
2.8300000000015477, -1.4313553983844018 
2.840000000001569, -1.431204391724748 
2.85000000000159, -1.4311663146119908 
2.860000000001611, -1.4310888189989208 
2.870000000001632, -1.4308337613397832 
2.8800000000016532, -1.4302653403288645 
2.8900000000016743, -1.4292017266436137 
2.9000000000016954, -1.4273558478452304 
2.9100000000017165, -1.4242814241447301 
2.9200000000017377, -1.4193589194152136 
2.9300000000017588, -1.4119119361117352 
2.94000000000178, -1.4016193762814386 
2.950000000001801, -1.3893240425224092 
2.960000000001822, -1.377669109008133 
2.970000000001843, -1.3699519750505682 
2.9800000000018643, -1.367251690361598 
2.9900000000018854, -1.3677497021070684 
3.0000000000019065, -1.369152635585997 
3.0100000000019276, -1.3703011836386687 
3.0200000000019487, -1.3709354732473513 
3.03000000000197, -1.3711087063826013 
3.040000000001991, -1.370895909559103 
3.050000000002012, -1.3703103874147575 
3.060000000002033, -1.3692992950631964 
3.070000000002054, -1.367802920185399 
3.0800000000020753, -1.3659745507090433 
3.0900000000020964, -1.364679542352968 
3.1000000000021175, -1.3658915078021125 
3.1100000000021386, -1.3716479688078418 
3.1200000000021597, -1.3816687489256985 
3.130000000002181, -1.3931336512141663 
3.140000000002202, -1.403211561577787 
3.150000000002223, -1.4106718052349982 
3.160000000002244, -1.4155819329533754 
3.1700000000022652, -1.4185240673687733 
3.1800000000022863, -1.420113449897356 
3.1900000000023074, -1.420824867438392 
3.2000000000023285, -1.420976199609956 
3.2100000000023496, -1.4207695701668968 
3.2200000000023707, -1.420346301429975 
3.230000000002392, -1.4198378335175352 
3.240000000002413, -1.4193915529263503 
3.250000000002434, -1.4191446678260904 
3.260000000002455, -1.419162238553565 
3.2700000000024763, -1.4194118327807053 
3.2800000000024974, -1.4197998587124219 
3.2900000000025185, -1.4202162595278092 
3.3000000000025396, -1.420557011059529 
3.3100000000025607, -1.420733761518417 
3.3200000000025818, -1.4206748403281568 
3.330000000002603, -1.420318572622233 
3.340000000002624, -1.4196059930467277 
3.350000000002645, -1.4184787069721985 
3.360000000002666, -1.4168826299987156 
3.3700000000026873, -1.4147779041862258 
3.3800000000027084, -1.4121604006344382 
3.3900000000027295, -1.409106394309237 
3.4000000000027506, -1.4058455395568963 
3.4100000000027717, -1.4028144322262943 
3.420000000002793, -1.4005466665477866 
3.430000000002814, -1.3993332424274396 
3.440000000002835, -1.3989865879586625 
3.450000000002856, -1.3990477930483924 
3.460000000002877, -1.3991340770365315 
3.4700000000028983, -1.3990402815321585 
3.4800000000029194, -1.398652170330147 
3.4900000000029405, -1.3978339468280687 
3.5000000000029616, -1.3963272233964281 
3.5100000000029827, -1.3936383859159478 
3.520000000003004, -1.3889382888256532 
3.530000000003025, -1.3812214560180718 
3.540000000003046, -1.3704247809384231 
3.550000000003067, -1.3598136699038534 
3.5600000000030882, -1.3560964707388983 
3.5700000000031094, -1.3626076576503077 
3.5800000000031305, -1.3745490962072278 
3.5900000000031516, -1.3853660570671757 
3.6000000000031727, -1.392562703278724 
3.6100000000031938, -1.3966339128458756 
3.620000000003215, -1.3987074081249014 
3.630000000003236, -1.3996253622333867 
3.640000000003257, -1.3998735923733332 
3.650000000003278, -1.399704733754651 
3.6600000000032993, -1.3992555163725933 
3.6700000000033204, -1.3986489424054338 
3.6800000000033415, -1.3981012848228551 
3.6900000000033626, -1.3979849667691533 
3.7000000000033837, -1.3986990248448152 
3.710000000003405, -1.400353183243466 
3.720000000003426, -1.4026419603917701 
3.730000000003447, -1.4050902280369895 
3.740000000003468, -1.4073298371417042 
3.750000000003489, -1.409170180750945 
3.7600000000035103, -1.4105464051555485 
3.7700000000035314, -1.4114594033534191 
3.7800000000035525, -1.4119400943096798 
3.7900000000035736, -1.4120323514161754 
3.8000000000035947, -1.4117852982607968 
3.810000000003616, -1.4112507460978791 
3.820000000003637, -1.4104856929130611 
3.830000000003658, -1.409559260211717 
3.840000000003679, -1.408558968333485 
3.8500000000037002, -1.4075901612422397 
3.8600000000037213, -1.406766702963063 
3.8700000000037424, -1.406185935780755 
3.8800000000037635, -1.4058800421599416 
3.8900000000037847, -1.405780185063756 
3.9000000000038058, -1.4057459710180955 
3.910000000003827, -1.4056292789789626 
3.920000000003848, -1.4052997360688049 
3.930000000003869, -1.404618649853741 
3.94000000000389, -1.4033891514222396 
3.9500000000039113, -1.4013034007968945 
3.9600000000039324, -1.3979042491319622 
3.9700000000039535, -1.3926024011247229 
3.9800000000039746, -1.3848378947882953 
3.9900000000039957, -1.3745143374327533 
4.000000000004016, -1.362703313366014 
4.010000000003993, -1.3519789950945422 
4.02000000000397, -1.3451202819034693 
4.030000000003946, -1.3427520171538891 
4.040000000003923, -1.3431495888499128 
4.0500000000039, -1.3443365514969006 
4.0600000000038765, -1.3453169493146975 
4.070000000003853, -1.3458498237913585 
4.08000000000383, -1.3459637367729944 
4.090000000003807, -1.345708268778989 
4.100000000003783, -1.3450745606705001 
4.11000000000376, -1.3439813364047728 
4.120000000003737, -1.342315068201016 
4.130000000003713, -1.3401234020059405 
4.14000000000369, -1.3381375627792365 
4.150000000003667, -1.338419740208952 
4.1600000000036434, -1.3437135162278058 
4.17000000000362, -1.3546227658267191 
4.180000000003597, -1.3681999330804169 
4.1900000000035735, -1.380616140940043 
4.20000000000355, -1.3898923996081276 
4.210000000003527, -1.3959514687067618 
4.220000000003504, -1.3995412514115966 
4.23000000000348, -1.4014794007451854 
4.240000000003457, -1.4023825529846043 
4.250000000003434, -1.402647746802935 
4.26000000000341, -1.4025143598167498 
4.270000000003387, -1.4021366782330569 
4.280000000003364, -1.4016490057840492 
4.2900000000033405, -1.401209302268375 
4.300000000003317, -1.4009883089549224 
4.310000000003294, -1.401094192184629 
4.320000000003271, -1.4015094695388532 
4.330000000003247, -1.4021182111101138 
4.340000000003224, -1.4027794680289596 
4.350000000003201, -1.40337185447336 
4.360000000003177, -1.4038039005838239 
4.370000000003154, -1.4040108534915043 
4.380000000003131, -1.4039469199113723 
4.390000000003107, -1.4035774526050302 
4.400000000003084, -1.4028745497640824 
4.410000000003061, -1.4018166812524089 
4.4200000000030375, -1.4003921330149631 
4.430000000003014, -1.3986080966112753 
4.440000000002991, -1.3965096884243593 
4.450000000002968, -1.3942127607644048 
4.460000000002944, -1.3919413364912259 
4.470000000002921, -1.3900188031541716 
4.480000000002898, -1.3887344453039927 
4.490000000002874, -1.3881379526200353 
4.500000000002851, -1.3880029024693177 
4.510000000002828, -1.388016590026924 
4.520000000002804, -1.387946574975144 
4.530000000002781, -1.3876482340753349 
4.540000000002758, -1.3869873383019606 
4.5500000000027345, -1.3857466030032988 
4.560000000002711, -1.383516150939016 
4.570000000002688, -1.3795547588704018 
4.580000000002665, -1.3726920708409025 
4.590000000002641, -1.3616160896325948 
4.600000000002618, -1.3462623678430157 
4.610000000002595, -1.330150961602209 
4.620000000002571, -1.3198738340804472 
4.630000000002548, -1.3188349923097398 
4.640000000002525, -1.3237319315561564 
4.6500000000025015, -1.3295125667114795 
4.660000000002478, -1.3337647967838464 
4.670000000002455, -1.3362989641322152 
4.6800000000024315, -1.3376049820754299 
4.690000000002408, -1.3381345071475428 
4.700000000002385, -1.3381642561105074 
4.710000000002362, -1.3378323051426952 
4.720000000002338, -1.3372006172857713 
4.730000000002315, -1.3363372073335116 
4.740000000002292, -1.3354580737998283 
4.750000000002268, -1.3351165568812766 
4.760000000002245, -1.3361974122694 
4.770000000002222, -1.3393702067906168 
4.7800000000021985, -1.3443886782350674 
4.790000000002175, -1.3502042713295141 
4.800000000002152, -1.3557349308612694 
4.810000000002129, -1.3603437387257002 
4.820000000002105, -1.3638273023661738 
4.830000000002082, -1.3662390338892525 
4.840000000002059, -1.3677460616355894 
4.850000000002035, -1.3685448034421925 
4.860000000002012, -1.368815967875876 
4.870000000001989, -1.3687066175923062 
4.880000000001965, -1.3683332896400215 
4.890000000001942, -1.3677991978762665 
4.900000000001919, -1.3672128857742303 
4.9100000000018955, -1.3666893868857632 
4.920000000001872, -1.366324443124528 
4.930000000001849, -1.3661634219727312 
