t, s[1].omega / s[0].omega 
0, -1.1099981936928616 
0.009999999999999995, -1.1096992013464986 
0.019999999999999934, -1.1091701320348033 
0.029999999999999874, -1.1084517625354244 
0.04000000000000012, -1.107658798558519 
0.050000000000000405, -1.1069626507578776 
0.06000000000000069, -1.1065237022380945 
0.07000000000000098, -1.1063993289387994 
0.08000000000000126, -1.1064489965406936 
0.09000000000000155, -1.1064230259874814 
0.10000000000000184, -1.1061157436711626 
0.11000000000000212, -1.1054044099652707 
0.12000000000000241, -1.1042756376411536 
0.130000000000002, -1.1028032709214026 
0.1400000000000009, -1.101081418027553 
0.1499999999999998, -1.0992434765069226 
0.1599999999999987, -1.0975538796781146 
0.1699999999999976, -1.0964059750172301 
0.1799999999999965, -1.0959664588865654 
0.1899999999999954, -1.0959017513250342 
0.1999999999999943, -1.0957662042043967 
0.2099999999999932, -1.0952315405431625 
0.2199999999999921, -1.0939433258259605 
0.229999999999991, -1.0915539410821264 
0.2399999999999899, -1.0880195746560228 
0.2499999999999888, -1.0836496964985312 
0.2599999999999877, -1.0789425528787802 
0.2699999999999866, -1.074738098849217 
0.2799999999999855, -1.0721326564715605 
0.2899999999999844, -1.0713026312196205 
0.2999999999999833, -1.071260930253768 
0.3099999999999822, -1.0711881958455496 
0.3199999999999811, -1.0706877400389676 
0.32999999999998, -1.0692451000566507 
0.3399999999999789, -1.0658477000602093 
0.3499999999999778, -1.059368242827233 
0.35999999999997667, -1.049848034553065 
0.36999999999997557, -1.0388845501894133 
0.37999999999997447, -1.0290779822055738 
0.38999999999997337, -1.0231144877760285 
0.39999999999997227, -1.0212059392442365 
0.40999999999997117, -1.021113059630417 
0.41999999999997006, -1.0212122519004527 
0.42999999999996896, -1.0209822464576084 
0.43999999999996786, -1.0200688060544914 
0.44999999999996676, -1.0176053121583868 
0.45999999999996566, -1.0118902933346188 
0.46999999999996456, -1.0015253641495792 
0.47999999999996346, -0.987688108752517 
0.48999999999996235, -0.9737614375446082 
0.49999999999996125, -0.9633295283249187 
0.5099999999999602, -0.9581796394080828 
0.519999999999959, -0.9568579912111242 
0.529999999999958, -0.956863711714921 
0.5399999999999568, -0.9569264401660214 
0.5499999999999557, -0.9566550577741075 
0.5599999999999546, -0.955727822337714 
0.5699999999999535, -0.953477249537502 
0.5799999999999524, -0.9490135365190074 
0.5899999999999513, -0.9422492353494794 
0.5999999999999502, -0.9344004639681778 
0.6099999999999491, -0.9269433028408475 
0.619999999999948, -0.9210320726752382 
0.6299999999999469, -0.9174214824767035 
0.6399999999999458, -0.9159645097497106 
0.6499999999999447, -0.9156798950785087 
0.6599999999999436, -0.9156770887626376 
0.6699999999999425, -0.9155194776041602 
0.6799999999999414, -0.9149589777614395 
0.6899999999999403, -0.9137306582211877 
0.6999999999999392, -0.9116759028554555 
0.7099999999999381, -0.909002776266124 
0.719999999999937, -0.9061394318467585 
0.7299999999999359, -0.9034061046071332 
0.7399999999999348, -0.901011351240906 
0.7499999999999337, -0.8991671305920224 
0.7599999999999326, -0.8980450764025739 
0.7699999999999315, -0.8975964988156536 
0.7799999999999304, -0.8975291645007443 
0.7899999999999293, -0.8975215308979206 
0.7999999999999282, -0.8973584949481876 
0.8099999999999271, -0.8969238879996849 
0.819999999999926, -0.8962115159995915 
0.8299999999999249, -0.895321626620075 
0.8399999999999238, -0.8943602873698633 
0.8499999999999227, -0.8933808747436722 
0.8599999999999216, -0.8924352465380688 
0.8699999999999205, -0.8916218804723839 
0.8799999999999194, -0.8910624253696202 
0.8899999999999183, -0.8908323811111143 
0.8999999999999172, -0.8909035418087571 
0.9099999999999161, -0.8911497931918091 
0.919999999999915, -0.8914244477188141 
0.9299999999999139, -0.8916360890354379 
0.9399999999999128, -0.8917639856466234 
0.9499999999999117, -0.8918099900690224 
0.9599999999999106, -0.8917406610087115 
0.9699999999999095, -0.8915105189179974 
0.9799999999999084, -0.8911365107400662 
0.9899999999999073, -0.8907289191584729 
0.9999999999999062, -0.8904799600965261 
1.0099999999999052, -0.8905930744880902 
1.019999999999904, -0.8911563261097016 
1.029999999999903, -0.8921040447585428 
1.039999999999902, -0.8933029810322699 
1.0499999999999008, -0.8946377748838661 
1.0599999999998997, -0.8960125606311904 
1.0699999999998986, -0.8972724685461922 
1.0799999999998975, -0.8981852855737266 
1.0899999999998964, -0.8986105932210047 
1.0999999999998953, -0.8986123982653906 
1.1099999999998942, -0.8983608576749263 
1.119999999999893, -0.8980991801834204 
1.129999999999892, -0.8982675082006938 
1.1399999999998909, -0.8994810434667528 
1.1499999999998898, -0.9021088782724845 
1.1599999999998887, -0.9059927023366093 
1.1699999999998876, -0.9106914004883496 
1.1799999999998865, -0.9156383414477164 
1.1899999999998854, -0.9199953307612968 
1.1999999999998843, -0.9229262004453034 
1.2099999999998832, -0.9243403150945115 
1.219999999999882, -0.9247558385966126 
1.229999999999881, -0.9246348635972232 
1.2399999999998799, -0.9242498912256183 
1.2499999999998788, -0.9240292421311599 
1.2599999999998777, -0.925241388978 
1.2699999999998766, -0.9301350826868016 
1.2799999999998755, -0.9400108140442097 
1.2899999999998744, -0.9534990823069718 
1.2999999999998733, -0.9673664210617398 
1.3099999999998722, -0.9779902923524456 
1.319999999999871, -0.9837910844804827 
1.32999999999987, -0.986113356205815 
1.3399999999998689, -0.9867715465337472 
1.3499999999998678, -0.9866983281103459 
1.3599999999998666, -0.9862371505969831 
1.3699999999998655, -0.9857824199557887 
1.3799999999998644, -0.9869437957024904 
1.3899999999998633, -0.993314908644421 
1.3999999999998622, -1.0069034986273138 
1.4099999999998611, -1.024397842989269 
1.41999999999986, -1.0402219664778856 
1.429999999999859, -1.0505488801914433 
1.4399999999998578, -1.0554018691897948 
1.4499999999998567, -1.0571158203840125 
1.4599999999998556, -1.0574825734309234 
1.4699999999998545, -1.0572628060105524 
1.4799999999998534, -1.0568095944837426 
1.4899999999998523, -1.0568871165995737 
1.4999999999998512, -1.0593114302991788 
1.5099999999998501, -1.0652610911892044 
1.519999999999849, -1.0732655158246753 
1.529999999999848, -1.0811038548391703 
1.5399999999998468, -1.0873018039217828 
1.5499999999998457, -1.091157391232052 
1.5599999999998446, -1.0929381594256735 
1.5699999999998435, -1.0934631935952428 
1.5799999999998424, -1.0933708727847753 
1.5899999999998413, -1.0930460787075837 
1.5999999999998402, -1.0929870498539402 
1.6099999999998391, -1.0939163806827972 
1.619999999999838, -1.096014792989866 
1.629999999999837, -1.0986651861011958 
1.6399999999998358, -1.1012606349808896 
1.6499999999998347, -1.1034850184246494 
1.6599999999998336, -1.105134414157239 
1.6699999999998325, -1.1060782554793032 
1.6799999999998314, -1.1063723945482766 
1.6899999999998303, -1.1062255982634441 
1.6999999999998292, -1.105891439535655 
1.709999999999828, -1.1056874978365572 
1.719999999999827, -1.1059027830087886 
1.729999999999826, -1.1065341379513836 
1.7399999999998248, -1.1073535093798819 
1.7499999999998237, -1.108143965205139 
1.7599999999998226, -1.1087726325014047 
1.7699999999998215, -1.109176330343548 
1.7799999999998204, -1.1093160281735825 
1.7899999999998193, -1.109165733412977 
1.7999999999998182, -1.1087567608766808 
1.809999999999817, -1.1082083372764269 
1.819999999999816, -1.107709540874739 
1.8299999999998149, -1.1074267474827144 
1.8399999999998138, -1.107410472436828 
1.8499999999998127, -1.1075789679149044 
1.8599999999998116, -1.1077488947460103 
1.8699999999998105, -1.1077425556641631 
1.8799999999998094, -1.1074626587120797 
1.8899999999998083, -1.1068966850209652 
1.8999999999998072, -1.1060774348332594 
1.909999999999806, -1.1050467054572006 
1.919999999999805, -1.1038807272972666 
1.9299999999998039, -1.10273228769216 
1.9399999999998028, -1.1018305614976618 
1.9499999999998017, -1.1013717087638861 
1.9599999999998006, -1.1012806590324675 
1.9699999999997995, -1.1012422256016994 
1.9799999999997984, -1.1009601670081375 
1.9899999999997973, -1.1001967541477848 
1.9999999999997962, -1.0987800117879976 
2.0099999999998173, -1.0967138814105104 
2.0199999999998384, -1.094155521531817 
2.0299999999998595, -1.0913109479131067 
2.0399999999998806, -1.0885170948966263 
2.0499999999999017, -1.0863762348715962 
2.059999999999923, -1.085364801991288 
2.069999999999944, -1.0851697171700252 
2.079999999999965, -1.085121827067877 
2.089999999999986, -1.084787579855033 
2.100000000000007, -1.0837800791128132 
2.1100000000000283, -1.0814904720380183 
2.1200000000000494, -1.077318458065824 
2.1300000000000705, -1.0713015032036717 
2.1400000000000916, -1.064184882435817 
2.1500000000001127, -1.0572133659650411 
2.160000000000134, -1.0521522139972903 
2.170000000000155, -1.0500045106837173 
2.180000000000176, -1.0496913256303622 
2.190000000000197, -1.0497555862737795 
2.2000000000002182, -1.0495667509166426 
2.2100000000002393, -1.0487619877034156 
2.2200000000002604, -1.0465758502245701 
2.2300000000002815, -1.041509272875886 
2.2400000000003026, -1.0322240521638588 
2.2500000000003237, -1.019472879844062 
2.260000000000345, -1.0061187196095327 
2.270000000000366, -0.9957690878517509 
2.280000000000387, -0.9906537321994076 
2.290000000000408, -0.9894428176162496 
2.3000000000004293, -0.9895093171569681 
2.3100000000004504, -0.9895682328041514 
2.3200000000004715, -0.9892422974676779 
2.3300000000004926, -0.9881507170459619 
2.3400000000005137, -0.9853841120334719 
2.3500000000005348, -0.9795172663125189 
2.360000000000556, -0.9700382042570532 
2.370000000000577, -0.9586074067648009 
2.380000000000598, -0.9478073501756076 
2.390000000000619, -0.9398717898211314 
2.4000000000006403, -0.9358177968071226 
2.4100000000006614, -0.9346446409074343 
2.4200000000006825, -0.934578280960182 
2.4300000000007036, -0.9345978944165267 
2.4400000000007247, -0.9343276290130589 
2.450000000000746, -0.9334760525760132 
2.460000000000767, -0.9315782401337797 
2.470000000000788, -0.9282365488561893 
2.480000000000809, -0.9237127120387062 
2.49000000000083, -0.9188075667899933 
2.5000000000008513, -0.914214626445864 
2.5100000000008724, -0.9104341880755287 
2.5200000000008935, -0.9078815648952742 
2.5300000000009146, -0.9066482065934112 
2.5400000000009357, -0.9063083805933084 
2.550000000000957, -0.9062762420952336 
2.560000000000978, -0.9061662467750952 
2.570000000000999, -0.9057566155508969 
2.58000000000102, -0.9048878885777499 
2.5900000000010412, -0.9035350929795694 
2.6000000000010624, -0.9018775478738442 
2.6100000000010835, -0.9001421668844242 
2.6200000000011046, -0.8984681818067124 
2.6300000000011257, -0.8969570993930347 
2.6400000000011468, -0.8957390822089771 
2.650000000001168, -0.8949462025390433 
2.660000000001189, -0.89460967426937 
2.67000000000121, -0.8945936039731306 
2.680000000001231, -0.8946770052435021 
2.6900000000012523, -0.8946808074063207 
2.7000000000012734, -0.894516311338882 
2.7100000000012945, -0.8941881188144973 
2.7200000000013156, -0.8937511511330908 
2.7300000000013367, -0.893235658958617 
2.740000000001358, -0.8926441218702489 
2.750000000001379, -0.8920148200416644 
2.7600000000014, -0.8914563004298223 
2.770000000001421, -0.8911138638259962 
2.780000000001442, -0.8910871053477669 
2.7900000000014633, -0.8913707438591948 
2.8000000000014844, -0.8918685535169449 
2.8100000000015055, -0.892458261692936 
2.8200000000015266, -0.8930553136830657 
2.8300000000015477, -0.8936190322886692 
2.840000000001569, -0.8940937662576386 
2.85000000000159, -0.8943746033015625 
2.860000000001611, -0.8943849752515133 
2.870000000001632, -0.894158302923805 
2.8800000000016532, -0.8938307283225466 
2.8900000000016743, -0.893641290961039 
2.9000000000016954, -0.8939107851995595 
2.9100000000017165, -0.894866513961653 
2.9200000000017377, -0.896484039959522 
2.9300000000017588, -0.8985788777025916 
2.94000000000178, -0.9009597593583785 
2.950000000001801, -0.9034184253574016 
2.960000000001822, -0.9056084665289463 
2.970000000001843, -0.9071225688420415 
2.9800000000018643, -0.9078388058144563 
2.9900000000018854, -0.9079580832924475 
3.0000000000019065, -0.9077333246099499 
3.0100000000019276, -0.9074242771222887 
3.0200000000019487, -0.9075551960640268 
3.03000000000197, -0.9091283328132429 
3.040000000001991, -0.9130911304819037 
3.050000000002012, -0.9194396916454562 
3.060000000002033, -0.9273022640589869 
3.070000000002054, -0.9353455653633653 
3.0800000000020753, -0.9418643801675828 
3.0900000000020964, -0.9457481827442139 
3.1000000000021175, -0.9474206214892538 
3.1100000000021386, -0.9478790097396642 
3.1200000000021597, -0.947743087746057 
3.130000000002181, -0.9472976331269537 
3.140000000002202, -0.9469942836834201 
3.150000000002223, -0.9484359818116485 
3.160000000002244, -0.9547877232534276 
3.1700000000022652, -0.9678341112122426 
3.1800000000022863, -0.98505254102033 
3.1900000000023074, -1.0013711644117187 
3.2000000000023285, -1.0124699974848517 
3.2100000000023496, -1.0178251045135964 
3.2200000000023707, -1.019762776137023 
3.230000000002392, -1.0202253448280265 
3.240000000002413, -1.0200454039126905 
3.250000000002434, -1.019541897460905 
3.260000000002455, -1.0193192101750466 
3.2700000000024763, -1.0214517822139308 
3.2800000000024974, -1.0288436949660857 
3.2900000000025185, -1.0410832860918153 
3.3000000000025396, -1.0544056563338446 
3.3100000000025607, -1.0652513842650817 
3.3200000000025818, -1.0718647694590329 
3.330000000002603, -1.074839043900229 
3.340000000002624, -1.0758071375116343 
3.350000000002645, -1.0758805297176048 
3.360000000002666, -1.0755555573203635 
3.3700000000026873, -1.075265869358787 
3.3800000000027084, -1.076005578580828 
3.3900000000027295, -1.0788894698468026 
3.4000000000027506, -1.0835426741913423 
3.4100000000027717, -1.088616709878373 
3.420000000002793, -1.0931448846086405 
3.430000000002814, -1.096559880819888 
3.440000000002835, -1.0985929432972592 
3.450000000002856, -1.0994399014597127 
3.460000000002877, -1.0995490485030182 
3.4700000000028983, -1.0992956024249434 
3.4800000000029194, -1.0990342247805767 
3.4900000000029405, -1.0992575744753696 
3.5000000000029616, -1.1002679106643352 
3.5100000000029827, -1.1018063293851021 
3.520000000003004, -1.1034432058302754 
3.530000000003025, -1.1049193515720823 
3.540000000003046, -1.1061027344678676 
3.550000000003067, -1.1068904294014401 
3.5600000000030882, -1.1072179102004907 
3.5700000000031094, -1.1071323049101796 
3.5800000000031305, -1.1067865195339288 
3.5900000000031516, -1.106409296021784 
3.6000000000031727, -1.1062568653248934 
3.6100000000031938, -1.1064384236480647 
3.620000000003215, -1.1068591020889298 
3.630000000003236, -1.107343467931447 
3.640000000003257, -1.1077278454151702 
3.650000000003278, -1.107915258440391 
3.6600000000032993, -1.1078748021802147 
3.6700000000033204, -1.1075991988971705 
3.6800000000033415, -1.1070916495642518 
3.6900000000033626, -1.1064045277196957 
3.7000000000033837, -1.1056683802112204 
3.710000000003405, -1.1050578499356707 
3.720000000003426, -1.104713863406907 
3.730000000003447, -1.1046594399367593 
3.740000000003468, -1.1047356388081944 
3.750000000003489, -1.1047055976533244 
3.7600000000035103, -1.1043873242632487 
3.7700000000035314, -1.1036882547702995 
3.7800000000035525, -1.1026194683948052 
3.7900000000035736, -1.101253010116955 
3.8000000000035947, -1.0996723153691077 
3.810000000003616, -1.098010279027851 
3.820000000003637, -1.096524847868189 
3.830000000003658, -1.0955637092230353 
3.840000000003679, -1.0952264883263279 
3.8500000000037002, -1.095178134430818 
3.8600000000037213, -1.0950149461254706 
3.8700000000037424, -1.0944294243755393 
3.8800000000037635, -1.0930991120820448 
3.8900000000037847, -1.0907737616720028 
3.9000000000038058, -1.0875049994792747 
3.910000000003827, -1.0835917244316393 
3.920000000003848, -1.0794649582924303 
3.930000000003869, -1.0758718107344742 
3.94000000000389, -1.0737332331544749 
3.9500000000039113, -1.073096023783602 
3.9600000000039324, -1.073067531111755 
3.9700000000039535, -1.0729498523433896 
3.9800000000039746, -1.0723657597841634 
3.9900000000039957, -1.070775255002412 
4.000000000004016, -1.0672320542907887 
4.010000000003993, -1.060932419829731 
4.02000000000397, -1.0522216731778942 
4.030000000003946, -1.0425760564906363 
4.040000000003923, -1.034225177990077 
4.0500000000039, -1.029380797216641 
4.0600000000038765, -1.0279579130852494 
4.070000000003853, -1.0279372316046909 
4.08000000000383, -1.0279883389301827 
4.090000000003807, -1.0276695596999923 
4.100000000003783, -1.0265748448590826 
4.11000000000376, -1.023718711559065 
4.120000000003737, -1.0174019991210284 
4.130000000003713, -1.0066653161853083 
4.14000000000369, -0.9931204929136952 
4.150000000003667, -0.9800920109580578 
4.1600000000036434, -0.9709003652399483 
4.17000000000362, -0.9668042192052141 
4.180000000003597, -0.96595401338294 
4.1900000000035735, -0.9660374241829874 
4.20000000000355, -0.966046705521313 
4.210000000003527, -0.9656571818987413 
4.220000000003504, -0.9644790716273915 
4.23000000000348, -0.9617021592136751 
4.240000000003457, -0.9563979807928057 
4.250000000003434, -0.9487308092956155 
4.26000000000341, -0.9401821351042013 
4.270000000003387, -0.9323610758806141 
4.280000000003364, -0.9265393340441124 
4.2900000000033405, -0.9233704385421234 
4.300000000003317, -0.9223197571794276 
4.310000000003294, -0.9221973192928816 
4.320000000003271, -0.9221866189382598 
4.330000000003247, -0.9219294386576183 
4.340000000003224, -0.9211672136699957 
4.350000000003201, -0.9195897290388144 
4.360000000003177, -0.9170635302233804 
4.370000000003154, -0.913904553312704 
4.380000000003131, -0.9106144460049244 
4.390000000003107, -0.9075458416485246 
4.400000000003084, -0.9049552507672983 
4.410000000003061, -0.9030998264531561 
4.4200000000030375, -0.9021081631589694 
4.430000000003014, -0.9017916757076032 
4.440000000002991, -0.9017626926509088 
4.450000000002968, -0.9017000600805021 
4.460000000002944, -0.9014086033366626 
4.470000000002921, -0.9007844321378058 
4.480000000002898, -0.8998497120784944 
4.490000000002874, -0.8987393226680369 
4.500000000002851, -0.8975764962687063 
4.510000000002828, -0.8964271808102984 
4.520000000002804, -0.8953621012582966 
4.530000000002781, -0.8944935707253995 
4.540000000002758, -0.8939379200215439 
4.5500000000027345, -0.8937396428565556 
4.560000000002711, -0.8938201490040817 
4.570000000002688, -0.8940166356886946 
4.580000000002665, -0.8941809036939505 
4.590000000002641, -0.8942401179029362 
4.600000000002618, -0.8941944136682779 
4.610000000002595, -0.8940597084411714 
4.620000000002571, -0.8938158888644582 
4.630000000002548, -0.8934399923459815 
4.640000000002525, -0.8929737559558723 
4.6500000000025015, -0.8925457173020345 
4.660000000002478, -0.8923389821378341 
4.670000000002455, -0.8924955917966629 
4.6800000000024315, -0.8930283555428253 
4.690000000002408, -0.8938401113706456 
4.700000000002385, -0.8948070521565278 
4.710000000002362, -0.8958378113502717 
4.720000000002338, -0.8968586491542287 
4.730000000002315, -0.8977413693266882 
4.740000000002292, -0.8983095332285906 
4.750000000002268, -0.8984824396167821 
4.760000000002245, -0.898336387066699 
4.770000000002222, -0.8980394544222926 
4.7800000000021985, -0.8978685100210019 
4.790000000002175, -0.8982636639904337 
4.800000000002152, -0.8996401208489537 
4.810000000002129, -0.9020624142507323 
4.820000000002105, -0.9052771820201104 
4.830000000002082, -0.9089539050100108 
4.840000000002059, -0.912679934299032 
4.850000000002035, -0.9158252503367853 
4.860000000002012, -0.9178329411242351 
4.870000000001989, -0.9187226905338124 
4.880000000001965, -0.9188868386028686 
4.890000000001942, -0.9186549619600693 
4.900000000001919, -0.9182969066999749 
4.9100000000018955, -0.9184111946340363 
4.920000000001872, -0.9203797696133452 
4.930000000001849, -0.9257882074860322 
