t, s[1].omega / s[0].omega 
0, -0.5099977551457704 
0.009999999999999995, -0.5097978345539926 
0.019999999999999934, -0.5096375482130886 
0.029999999999999874, -0.5094935101733048 
0.04000000000000012, -0.5093366026271806 
0.050000000000000405, -0.5091413256706896 
0.06000000000000069, -0.5088916204050922 
0.07000000000000098, -0.508581794299108 
0.08000000000000126, -0.5082143029695836 
0.09000000000000155, -0.5077972225592691 
0.10000000000000184, -0.5073435065226845 
0.11000000000000212, -0.5068731107438287 
0.12000000000000241, -0.506418705006323 
0.130000000000002, -0.5060358589991805 
0.1400000000000009, -0.5058185114092529 
0.1499999999999998, -0.5059184847982091 
0.1599999999999987, -0.5065600122387035 
0.1699999999999976, -0.5080204837432107 
0.1799999999999965, -0.5105175050274815 
0.1899999999999954, -0.5139469365512558 
0.1999999999999943, -0.5175924072161637 
0.2099999999999932, -0.5202683254795175 
0.2199999999999921, -0.5211642029919518 
0.229999999999991, -0.520533756105531 
0.2399999999999899, -0.5192943705939355 
0.2499999999999888, -0.5181933256763285 
0.2599999999999877, -0.5175058018502042 
0.2699999999999866, -0.5171972671066842 
0.2799999999999855, -0.5171356287382667 
0.2899999999999844, -0.5171987727750917 
0.2999999999999833, -0.5173025473724656 
0.3099999999999822, -0.5173962889667727 
0.3199999999999811, -0.5174512018251751 
0.32999999999998, -0.5174503778389123 
0.3399999999999789, -0.5173822630458611 
0.3499999999999778, -0.5172374305102668 
0.35999999999997667, -0.5170083752193885 
0.36999999999997557, -0.5166920718192287 
0.37999999999997447, -0.5162943479949764 
0.38999999999997337, -0.5158336051779048 
0.39999999999997227, -0.5153403509628104 
0.40999999999997117, -0.5148505173846467 
0.41999999999997006, -0.5143946786143182 
0.42999999999996896, -0.5139885810098298 
0.43999999999996786, -0.5136297235431722 
0.44999999999996676, -0.5133010569665306 
0.45999999999996566, -0.5129792299386416 
0.46999999999996456, -0.5126431193472571 
0.47999999999996346, -0.5122792292104241 
0.48999999999996235, -0.5118831698673476 
0.49999999999996125, -0.5114588355523129 
0.5099999999999602, -0.5110176582505883 
0.519999999999959, -0.5105797962504853 
0.529999999999958, -0.5101784742766411 
0.5399999999999568, -0.5098685688340641 
0.5499999999999557, -0.5097408226350072 
0.5599999999999546, -0.5099431064740908 
0.5699999999999535, -0.5107083421774152 
0.5799999999999524, -0.5123813532301901 
0.5899999999999513, -0.5154171379475434 
0.5999999999999502, -0.520286657300879 
0.6099999999999491, -0.5272044894251142 
0.619999999999948, -0.5357110835195937 
0.6299999999999469, -0.5445029694720753 
0.6399999999999458, -0.5520285123718367 
0.6499999999999447, -0.55747639372458 
0.6599999999999436, -0.5610333948587193 
0.6699999999999425, -0.5633166969902306 
0.6799999999999414, -0.5648474725513639 
0.6899999999999403, -0.565925116661146 
0.6999999999999392, -0.5666982782005856 
0.7099999999999381, -0.5672431758872821 
0.719999999999937, -0.5676046204894541 
0.7299999999999359, -0.5678115999086198 
0.7399999999999348, -0.5678818777369719 
0.7499999999999337, -0.5678229329480138 
0.7599999999999326, -0.5676321533537849 
0.7699999999999315, -0.5672977250429747 
0.7799999999999304, -0.5668016574142425 
0.7899999999999293, -0.5661265251622554 
0.7999999999999282, -0.5652663058629324 
0.8099999999999271, -0.5642380797211128 
0.819999999999926, -0.5630872116805637 
0.8299999999999249, -0.5618795944834709 
0.8399999999999238, -0.5606831721732263 
0.8499999999999227, -0.5595495548605507 
0.8599999999999216, -0.5585055317634461 
0.8699999999999205, -0.5575559229821202 
0.8799999999999194, -0.556692737230572 
0.8899999999999183, -0.5559048402479843 
0.8999999999999172, -0.5551849109227096 
0.9099999999999161, -0.5545332814182142 
0.919999999999915, -0.5539598529728597 
0.9299999999999139, -0.5534855534068978 
0.9399999999999128, -0.5531443586551575 
0.9499999999999117, -0.5529863678370386 
0.9599999999999106, -0.5530820804603711 
0.9699999999999095, -0.5535278282382579 
0.9799999999999084, -0.5544520141880176 
0.9899999999999073, -0.5560209565790515 
0.9999999999999062, -0.5584409438583351 
1.0099999999999052, -0.5619484782938428 
1.019999999999904, -0.5667732290288698 
1.029999999999903, -0.5730524225705773 
1.039999999999902, -0.5806890933811228 
1.0499999999999008, -0.5892090886934311 
1.0599999999998997, -0.5977657715579315 
1.0699999999998986, -0.6054151951749762 
1.0799999999998975, -0.6115199006229124 
1.0899999999998964, -0.6159427708277259 
1.0999999999998953, -0.6189194028541289 
1.1099999999998942, -0.6208142871654572 
1.119999999999893, -0.6219572397554591 
1.129999999999892, -0.6225888148453962 
1.1399999999998909, -0.6228640455561073 
1.1499999999998898, -0.6228717745213079 
1.1599999999998887, -0.622651051399253 
1.1699999999998876, -0.6221998491331524 
1.1799999999998865, -0.621476244667912 
1.1899999999998854, -0.6203940288120879 
1.1999999999998843, -0.6188176207517369 
1.2099999999998832, -0.6165678222178121 
1.219999999999882, -0.6134586957872724 
1.229999999999881, -0.6093824118583826 
1.2399999999998799, -0.6044189718427948 
1.2499999999998788, -0.5988857595934373 
1.2599999999998777, -0.5932518684687935 
1.2699999999998766, -0.5879642130659379 
1.2799999999998755, -0.5833164405279259 
1.2899999999998744, -0.5794260868453392 
1.2999999999998733, -0.5762838004763015 
1.3099999999998722, -0.5738149416618283 
1.319999999999871, -0.5719234167357632 
1.32999999999987, -0.5705147647988552 
1.3399999999998689, -0.5695053778848089 
1.3499999999998678, -0.5688247081137606 
1.3599999999998666, -0.5684147428011431 
1.3699999999998655, -0.5682288401854837 
1.3799999999998644, -0.5682307278983061 
1.3899999999998633, -0.5683938568428452 
1.3999999999998622, -0.5687010658992057 
1.4099999999998611, -0.5691443848831063 
1.41999999999986, -0.5697245772500578 
1.429999999999859, -0.5704495909010732 
1.4399999999998578, -0.571330564046321 
1.4499999999998567, -0.5723739306066562 
1.4599999999998556, -0.5735693756559245 
1.4699999999998545, -0.5748766981321266 
1.4799999999998534, -0.5762192922352998 
1.4899999999998523, -0.5774935412626727 
1.4999999999998512, -0.5785956077611132 
1.5099999999998501, -0.5794522066366268 
1.519999999999849, -0.5800360298617558 
1.529999999999848, -0.5803590217510137 
1.5399999999998468, -0.5804532286268338 
1.5499999999998457, -0.5803524107504127 
1.5599999999998446, -0.5800804256063319 
1.5699999999998435, -0.5796454744997452 
1.5799999999998424, -0.5790368460952596 
1.5899999999998413, -0.5782209417410658 
1.5999999999998402, -0.5771336746212634 
1.6099999999998391, -0.5756655891349263 
1.619999999999838, -0.5736342542506299 
1.629999999999837, -0.5707387687841714 
1.6399999999998358, -0.5665070529928908 
1.6499999999998347, -0.560307338510546 
1.6599999999998336, -0.551592008190158 
1.6699999999998325, -0.5404570880151043 
1.6799999999998314, -0.5280696494283307 
1.6899999999998303, -0.5162393928825765 
1.6999999999998292, -0.5063967335771514 
1.709999999999828, -0.4990428846579243 
1.719999999999827, -0.4939524843654821 
1.729999999999826, -0.49060968517649 
1.7399999999998248, -0.48849770051655456 
1.7499999999998237, -0.48720752768154363 
1.7599999999998226, -0.4864485942763531 
1.7699999999998215, -0.48602576848450224 
1.7799999999998204, -0.48581212173933885 
1.7899999999998193, -0.4857267838143783 
1.7999999999998182, -0.4857192363137961 
1.809999999999817, -0.4857590536749846 
1.819999999999816, -0.4858297966636244 
1.8299999999998149, -0.4859259229589806 
1.8399999999998138, -0.48605157199098264 
1.8499999999998127, -0.4862197396645108 
1.8599999999998116, -0.4864499612129157 
1.8699999999998105, -0.48676283953188787 
1.8799999999998094, -0.48717114765930986 
1.8899999999998083, -0.4876696237380592 
1.8999999999998072, -0.48822803882358723 
1.909999999999806, -0.4887929586143714 
1.919999999999805, -0.48930040722703155 
1.9299999999998039, -0.48969430431818617 
1.9399999999998028, -0.4899402607684026 
1.9499999999998017, -0.49002775318365377 
1.9599999999998006, -0.4899624866870793 
1.9699999999997995, -0.4897556034375179 
1.9799999999997984, -0.489414666268624 
1.9899999999997973, -0.4889374000199117 
1.9999999999997962, -0.48830658646717523 
2.0099999999998173, -0.48748339827223547 
2.0199999999998384, -0.4863954617421921 
2.0299999999998595, -0.4849140089483672 
2.0399999999998806, -0.48281234577202337 
2.0499999999999017, -0.47970273820649334 
2.059999999999923, -0.47498460063813647 
2.069999999999944, -0.4679342216657151 
2.079999999999965, -0.4581363184155453 
2.089999999999986, -0.44613991075895687 
2.100000000000007, -0.43356316154814634 
2.1100000000000283, -0.422208556620415 
2.1200000000000494, -0.41310651194657055 
2.1300000000000705, -0.4063780149721249 
2.1400000000000916, -0.4016415192205221 
2.1500000000001127, -0.39839712935373284 
2.160000000000134, -0.3962099701501046 
2.170000000000155, -0.3947553571931694 
2.180000000000176, -0.39380763653037565 
2.190000000000197, -0.3932159075421595 
2.2000000000002182, -0.39288217211690674 
2.2100000000002393, -0.39274539070244835 
2.2200000000002604, -0.3927710129340798 
2.2300000000002815, -0.3929447506792968 
2.2400000000003026, -0.39326945019255716 
2.2500000000003237, -0.3937640461567411 
2.260000000000345, -0.3944634045654461 
2.270000000000366, -0.39541722529316947 
2.280000000000387, -0.39668505337893883 
2.290000000000408, -0.39832316922214595 
2.3000000000004293, -0.4003592020212262 
2.3100000000004504, -0.4027556928006434 
2.3200000000004715, -0.4053787373322777 
2.3300000000004926, -0.40800424363547216 
2.3400000000005137, -0.41038249977260355 
2.3500000000005348, -0.41232916282365145 
2.360000000000556, -0.4137760693787345 
2.370000000000577, -0.4147545077299366 
2.380000000000598, -0.41534373414992876 
2.390000000000619, -0.415626435918193 
2.4000000000006403, -0.41566560226211324 
2.4100000000006614, -0.415497063635319 
2.4200000000006825, -0.4151284219956749 
2.4300000000007036, -0.4145387095921471 
2.4400000000007247, -0.41367736063813815 
2.450000000000746, -0.412465218582201 
2.460000000000767, -0.41080524185587636 
2.470000000000788, -0.4086140710940267 
2.480000000000809, -0.40587787509698714 
2.49000000000083, -0.40270717495969544 
2.5000000000008513, -0.39933765324944626 
2.5100000000008724, -0.3960525095125465 
2.5200000000008935, -0.39307843580921625 
2.5300000000009146, -0.3905303811840739 
2.5400000000009357, -0.3884220456391187 
2.550000000000957, -0.38670738613174027 
2.560000000000978, -0.3853191852288037 
2.570000000000999, -0.38419275503803924 
2.58000000000102, -0.38327678050243064 
2.5900000000010412, -0.38253668799160434 
2.6000000000010624, -0.3819549254347506 
2.6100000000010835, -0.38153092469643635 
2.6200000000011046, -0.3812823895768698 
2.6300000000011257, -0.3812490226867996 
2.6400000000011468, -0.3814997455590138 
2.650000000001168, -0.382144663230728 
2.660000000001189, -0.38335304115023877 
2.67000000000121, -0.3853772557224837 
2.680000000001231, -0.3885770588258004 
2.6900000000012523, -0.39342211232625823 
2.7000000000012734, -0.4004159738207175 
2.7100000000012945, -0.40984731063963953 
2.7200000000013156, -0.42134142225613785 
2.7300000000013367, -0.43352987654405134 
2.740000000001358, -0.444481556649248 
2.750000000001379, -0.45283994865829486 
2.7600000000014, -0.4584577384524353 
2.770000000001421, -0.4619728033898949 
2.780000000001442, -0.46412771362228467 
2.7900000000014633, -0.46546006062158324 
2.8000000000014844, -0.4662926525076174 
2.8100000000015055, -0.46680665118395936 
2.8200000000015266, -0.4671025566557385 
2.8300000000015477, -0.4672358641466577 
2.840000000001569, -0.4672355995358042 
2.85000000000159, -0.4671138816905824 
2.860000000001611, -0.46687163845475776 
2.870000000001632, -0.466503672374275 
2.8800000000016532, -0.4660051347172831 
2.8900000000016743, -0.4653799185718602 
2.9000000000016954, -0.46464872275354885 
2.9100000000017165, -0.4638518025243886 
2.9200000000017377, -0.46304225631733065 
2.9300000000017588, -0.46227159355539804 
2.94000000000178, -0.4615752663553894 
2.950000000001801, -0.46096552566325866 
2.960000000001822, -0.4604334618358939 
2.970000000001843, -0.45995720538912777 
2.9800000000018643, -0.45951166917696984 
2.9900000000018854, -0.45907608989876164 
3.0000000000019065, -0.45863777816343837 
3.0100000000019276, -0.45819276773486556 
3.0200000000019487, -0.45774531399732565 
3.03000000000197, -0.45730818935579876 
3.040000000001991, -0.45690518804432545 
3.050000000002012, -0.4565769354132339 
3.060000000002033, -0.4563911797337819 
3.070000000002054, -0.4564588064506386 
3.0800000000020753, -0.45695558059581726 
3.0900000000020964, -0.45814386876935875 
3.1000000000021175, -0.4603715806630898 
3.1100000000021386, -0.463990519842187 
3.1200000000021597, -0.469106256724798 
3.130000000002181, -0.47517283627857515 
3.140000000002202, -0.4808358058991831 
3.150000000002223, -0.48463720625170376 
3.160000000002244, -0.4861563257481186 
3.1700000000022652, -0.4861399595137857 
3.1800000000022863, -0.4855889265116041 
3.1900000000023074, -0.4850942736780057 
3.2000000000023285, -0.48482666856112855 
3.2100000000023496, -0.48475409651524065 
3.2200000000023707, -0.48479576189385953 
3.230000000002392, -0.48488250257783694 
3.240000000002413, -0.48496832565082537 
3.250000000002434, -0.4850256680230802 
3.260000000002455, -0.4850382005239425 
3.2700000000024763, -0.4849953646701798 
3.2800000000024974, -0.484889448888944 
3.2900000000025185, -0.48471521499316167 
3.3000000000025396, -0.4844718791991777 
3.3100000000025607, -0.48416663477572125 
3.3200000000025818, -0.48381765467907467 
3.330000000002603, -0.4834535774110975 
3.340000000002624, -0.4831075634894414 
3.350000000002645, -0.48280736795855794 
3.360000000002666, -0.4825659427539405 
3.3700000000026873, -0.4823771659573947 
3.3800000000027084, -0.48221863940622856 
3.3900000000027295, -0.48206004668799485 
3.4000000000027506, -0.4818729413197212 
3.4100000000027717, -0.48163752557693684 
3.420000000002793, -0.48134443948143557 
3.430000000002814, -0.4809928077436746 
3.440000000002835, -0.4805872775956484 
3.450000000002856, -0.4801362514698776 
3.460000000002877, -0.47965239959556294 
3.4700000000028983, -0.479155895532568 
3.4800000000029194, -0.4786806522385385 
3.4900000000029405, -0.47828334547061446 
3.5000000000029616, -0.47805244407821634 
3.5100000000029827, -0.47810626229905184 
3.520000000003004, -0.47855050824489476 
3.530000000003025, -0.4793436296093089 
3.540000000003046, -0.4800540362620607 
3.550000000003067, -0.4797195504587771 
3.5600000000030882, -0.4773023050155481 
3.5700000000031094, -0.4727039196255949 
3.5800000000031305, -0.4670850777003109 
3.5900000000031516, -0.4618981681528405 
3.6000000000031727, -0.45793457179476843 
3.6100000000031938, -0.45526459629697086 
3.620000000003215, -0.45361444764400705 
3.630000000003236, -0.4526593723925291 
3.640000000003257, -0.45213967141572303 
3.650000000003278, -0.4518771880328155 
3.6600000000032993, -0.4517585529892386 
3.6700000000033204, -0.4517144304101004 
3.6800000000033415, -0.45170334759095015 
3.6900000000033626, -0.4517010487732258 
3.7000000000033837, -0.4516943742787867 
3.710000000003405, -0.45167853713951905 
3.720000000003426, -0.45165675343389616 
3.730000000003447, -0.4516409095616118 
3.740000000003468, -0.45165138911221137 
3.750000000003489, -0.4517140169101335 
3.7600000000035103, -0.4518531133459189 
3.7700000000035314, -0.45208182384139245 
3.7800000000035525, -0.4523931179051914 
3.7900000000035736, -0.4527560322923029 
3.8000000000035947, -0.4531208094020103 
3.810000000003616, -0.45343239197184876 
3.820000000003637, -0.4536458417824395 
3.830000000003658, -0.45373532439593517 
3.840000000003679, -0.4536932491574609 
3.8500000000037002, -0.45352277620736003 
3.8600000000037213, -0.4532289585231769 
3.8700000000037424, -0.45281146097460107 
3.8800000000037635, -0.4522587528072025 
3.8900000000037847, -0.45154177319511984 
3.9000000000038058, -0.4506038243987664 
3.910000000003827, -0.44934172744935036 
3.920000000003848, -0.4475709434232556 
3.930000000003869, -0.44496860635929647 
3.94000000000389, -0.4410104106414627 
3.9500000000039113, -0.4349933358319354 
3.9600000000039324, -0.4263397692240883 
3.9700000000039535, -0.41522861906265895 
3.9800000000039746, -0.4029648509675091 
3.9900000000039957, -0.391371902084536 
4.000000000004016, -0.381737883837202 
4.010000000003993, -0.37442061605132915 
4.02000000000397, -0.3691554340925819 
4.030000000003946, -0.3654728971115823 
4.040000000003923, -0.3629322189692478 
4.0500000000039, -0.3611940126339408 
4.0600000000038765, -0.3600192569192138 
4.070000000003853, -0.35924742594401804 
4.08000000000383, -0.35877458241114857 
4.090000000003807, -0.3585369414522425 
4.100000000003783, -0.35850010146281786 
4.11000000000376, -0.3586528769565839 
4.120000000003737, -0.3590046746069961 
4.130000000003713, -0.35958554469278015 
4.14000000000369, -0.3604479576394167 
4.150000000003667, -0.36166865378225443 
4.1600000000036434, -0.3633471502499401 
4.17000000000362, -0.3655942634862062 
4.180000000003597, -0.3685002763240671 
4.1900000000035735, -0.3720742327153431 
4.20000000000355, -0.3761672518642657 
4.210000000003527, -0.3804380171018984 
4.220000000003504, -0.38443559468200483 
4.23000000000348, -0.38778259518930247 
4.240000000003457, -0.39031534025802495 
4.250000000003434, -0.39207699056339973 
4.26000000000341, -0.3932160033372608 
4.270000000003387, -0.3938927068031502 
4.280000000003364, -0.39423427116180837 
4.2900000000033405, -0.3943253186973596 
4.300000000003317, -0.3942128622433954 
4.310000000003294, -0.3939135482052311 
4.320000000003271, -0.39341959401626936 
4.330000000003247, -0.39270445686910577 
4.340000000003224, -0.39173183334956085 
4.350000000003201, -0.390472270610563 
4.360000000003177, -0.38892781365236256 
4.370000000003154, -0.38715471058351614 
4.380000000003131, -0.38526502067000556 
4.390000000003107, -0.38339696055309247 
4.400000000003084, -0.3816701480821509 
4.410000000003061, -0.3801549990467327 
4.4200000000030375, -0.3788694238281541 
4.430000000003014, -0.3777941080542181 
4.440000000002991, -0.3768919441303169 
4.450000000002968, -0.37612322552208066 
4.460000000002944, -0.3754546442693806 
4.470000000002921, -0.374863270691692 
4.480000000002898, -0.37433764517382817 
4.490000000002874, -0.3738780902298229 
4.500000000002851, -0.3734979500255815 
4.510000000002828, -0.3732270948582862 
4.520000000002804, -0.37311894725231864 
4.530000000002781, -0.37326245047487394 
4.540000000002758, -0.3738002496222095 
4.5500000000027345, -0.37495209832413023 
4.560000000002711, -0.37703328672510905 
4.570000000002688, -0.380431664575554 
4.580000000002665, -0.38545663069997715 
4.590000000002641, -0.39195297253952843 
4.600000000002618, -0.3988068522080294 
4.610000000002595, -0.4040791227625154 
4.620000000002571, -0.40635287322154856 
4.630000000002548, -0.4059340102797452 
4.640000000002525, -0.4042367988903191 
4.6500000000025015, -0.40245488374627475 
4.660000000002478, -0.4010961723731034 
4.670000000002455, -0.40021373231069407 
4.6800000000024315, -0.3996970325187898 
4.690000000002408, -0.3994197283636913 
4.700000000002385, -0.39928482413425626 
4.710000000002362, -0.3992278405021256 
4.720000000002338, -0.3992088752307237 
4.730000000002315, -0.3992044837216496 
4.740000000002292, -0.3992021087550902 
4.750000000002268, -0.39919722270473323 
4.760000000002245, -0.3991926923701869 
4.770000000002222, -0.39919953966572186 
4.7800000000021985, -0.3992377406134259 
4.790000000002175, -0.39933518651549144 
4.800000000002152, -0.399523087991292 
4.810000000002129, -0.39982735673435216 
4.820000000002105, -0.40025748704967945 
4.830000000002082, -0.4007965942283812 
4.840000000002059, -0.40139805532203754 
4.850000000002035, -0.4019936419483906 
4.860000000002012, -0.4025122181362321 
4.870000000001989, -0.40289957736766596 
4.880000000001965, -0.4031281425678723 
