t, s[1].omega / s[0].omega 
0, -1.4199964977127912 
0.009999999999999995, -1.4194197632913748 
0.019999999999999934, -1.4183944234705328 
0.029999999999999874, -1.4169205609869344 
0.04000000000000012, -1.414999993122293 
0.050000000000000405, -1.4126388344082401 
0.06000000000000069, -1.4098508164286356 
0.07000000000000098, -1.4066619503966755 
0.08000000000000126, -1.4031194731781658 
0.09000000000000155, -1.3993108554453144 
0.10000000000000184, -1.3953953866112825 
0.11000000000000212, -1.3916326579539755 
0.12000000000000241, -1.388365132716147 
0.130000000000002, -1.3859148124173548 
0.1400000000000009, -1.3844278843472488 
0.1499999999999998, -1.383789521948403 
0.1599999999999987, -1.3836909178544123 
0.1699999999999976, -1.383779059706449 
0.1799999999999965, -1.3837605719509245 
0.1899999999999954, -1.3834125007615854 
0.1999999999999943, -1.3825313300449351 
0.2099999999999932, -1.3808561862061948 
0.2199999999999921, -1.37797306771713 
0.229999999999991, -1.373183000268332 
0.2399999999999899, -1.3653063136625117 
0.2499999999999888, -1.352402232001625 
0.2599999999999877, -1.3314333565894394 
0.2699999999999866, -1.2980575884431462 
0.2799999999999855, -1.2470420778078726 
0.2899999999999844, -1.1740988867219853 
0.2999999999999833, -1.0794057111774567 
0.3099999999999822, -0.9706818909719903 
0.3199999999999811, -0.8616366037392137 
0.32999999999998, -0.7653863812800861 
0.3399999999999789, -0.6888355948132523 
0.3499999999999778, -0.6323482472621815 
0.35999999999997667, -0.5926676316700634 
0.36999999999997557, -0.5656429638867809 
0.37999999999997447, -0.5476037723024029 
0.38999999999997337, -0.5357420652889964 
0.39999999999997227, -0.5280528204106028 
0.40999999999997117, -0.5231521956527817 
0.41999999999997006, -0.5201006299763289 
0.42999999999996896, -0.5182649733992994 
0.43999999999996786, -0.5172198511281368 
0.44999999999996676, -0.5166796799747784 
0.45999999999996566, -0.5164525699399172 
0.46999999999996456, -0.5164093171126504 
0.47999999999996346, -0.5164627289886973 
0.48999999999996235, -0.5165541084585604 
0.49999999999996125, -0.516644831440629 
0.5099999999999602, -0.5167116537675633 
0.519999999999959, -0.5167447275150581 
0.529999999999958, -0.5167473393511598 
0.5399999999999568, -0.5167362080347051 
0.5499999999999557, -0.5167410229685228 
0.5599999999999546, -0.5168020702643684 
0.5699999999999535, -0.5169654253005606 
0.5799999999999524, -0.5172760692678617 
0.5899999999999513, -0.5177699351541739 
0.5999999999999502, -0.5184660486178426 
0.6099999999999491, -0.51935987884538 
0.619999999999948, -0.5204192415419792 
0.6299999999999469, -0.5215845708677018 
0.6399999999999458, -0.5227752328297964 
0.6499999999999447, -0.5239018152697875 
0.6599999999999436, -0.5248813422871413 
0.6699999999999425, -0.5256502390328655 
0.6799999999999414, -0.5261706845884422 
0.6899999999999403, -0.5264293632418108 
0.6999999999999392, -0.526430988878005 
0.7099999999999381, -0.5261902461255803 
0.719999999999937, -0.5257250108041317 
0.7299999999999359, -0.525052229022877 
0.7399999999999348, -0.5241867794195327 
0.7499999999999337, -0.5231433765666512 
0.7599999999999326, -0.5219419883230639 
0.7699999999999315, -0.5206181803688831 
0.7799999999999304, -0.5192412453686038 
0.7899999999999293, -0.5179449640866165 
0.7999999999999282, -0.5169780858943847 
0.8099999999999271, -0.5167821960701066 
0.819999999999926, -0.5180962483707264 
0.8299999999999249, -0.5220471448342453 
0.8399999999999238, -0.5300575430183591 
0.8499999999999227, -0.54308677706155 
0.8599999999999216, -0.5592087908446384 
0.8699999999999205, -0.5684448008962325 
0.8799999999999194, -0.5460021990469771 
0.8899999999999183, -0.45193809748504116 
0.8999999999999172, -0.25766827414512294 
0.9099999999999161, -0.007954317141636563 
0.919999999999915, 0.19255432915744733 
0.9299999999999139, 0.307227493338515 
0.9399999999999128, 0.3644827859622715 
0.9499999999999117, 0.3930450722023416 
0.9599999999999106, 0.4079750693197463 
0.9699999999999095, 0.4161820578669921 
0.9799999999999084, 0.42086237132018006 
0.9899999999999073, 0.4235698442177441 
0.9999999999999062, 0.4251046499296983 
1.0099999999999052, 0.42590239766495486 
1.019999999999904, 0.42621352263091106 
1.029999999999903, 0.42619238155472294 
1.039999999999902, 0.4259477203124095 
1.0499999999999008, 0.4255801325107536 
1.0599999999998997, 0.42522367745734824 
1.0699999999998986, 0.42510847599494167 
1.0799999999998975, 0.4256614417700916 
1.0899999999998964, 0.42764480116912146 
1.0999999999998953, 0.43225089941345035 
1.1099999999998942, 0.44088665046003195 
1.119999999999893, 0.4542958214743435 
1.129999999999892, 0.4713492902463287 
1.1399999999998909, 0.48904601202675035 
1.1499999999998898, 0.5043581667511582 
1.1599999999998887, 0.5158797601980583 
1.1699999999998876, 0.5237559102364197 
1.1799999999998865, 0.5287834769602716 
1.1899999999998854, 0.5317683278705421 
1.1999999999998843, 0.5333015407622846 
1.2099999999998832, 0.5337485712882618 
1.219999999999882, 0.5332977875349199 
1.229999999999881, 0.5320114695925462 
1.2399999999998799, 0.5298718416223354 
1.2499999999998788, 0.5268323364397004 
1.2599999999998777, 0.5228851916455314 
1.2699999999998766, 0.5181410505682019 
1.2799999999998755, 0.5128852928684471 
1.2899999999998744, 0.5075555742746887 
1.2999999999998733, 0.5026213699322871 
1.3099999999998722, 0.49843064973549855 
1.319999999999871, 0.49512491969142414 
1.32999999999987, 0.49265934443259074 
1.3399999999998689, 0.490881750079709 
1.3499999999998678, 0.4896082296957795 
1.3599999999998666, 0.4886667133557748 
1.3699999999998655, 0.4879107040766341 
1.3799999999998644, 0.4872152324751834 
1.3899999999998633, 0.48646424080584605 
1.3999999999998622, 0.48553275358797876 
1.4099999999998611, 0.48426169796820934 
1.41999999999986, 0.48241706549223823 
1.429999999999859, 0.4796143220603645 
1.4399999999998578, 0.4751645782192794 
1.4499999999998567, 0.4677383294938175 
1.4599999999998556, 0.4545866104521123 
1.4699999999998545, 0.4296771321317986 
1.4799999999998534, 0.3794595368687297 
1.4899999999998523, 0.276490377999084 
1.4999999999998512, 0.0892045338536149 
1.5099999999998501, -0.1521868195792451 
1.519999999999849, -0.345968423109612 
1.529999999999848, -0.4512077056509122 
1.5399999999998468, -0.49678015485592103 
1.5499999999998457, -0.5149860652696688 
1.5599999999998446, -0.522885228113948 
1.5699999999998435, -0.5272934171738164 
1.5799999999998424, -0.5304961555613601 
1.5899999999998413, -0.5331437808791477 
1.5999999999998402, -0.5353871734149823 
1.6099999999998391, -0.5372571205741842 
1.619999999999838, -0.5387704042486896 
1.629999999999837, -0.5399496914056483 
1.6399999999998358, -0.5408209645636151 
1.6499999999998347, -0.5414076456637283 
1.6599999999998336, -0.5417260337486868 
1.6699999999998325, -0.5417825624466077 
1.6799999999998314, -0.5415726307617499 
1.6899999999998303, -0.541081014191386 
1.6999999999998292, -0.5402843505247877 
1.709999999999828, -0.5391565456429606 
1.719999999999827, -0.5376777446874255 
1.729999999999826, -0.5358462843712537 
1.7399999999998248, -0.5336907137131252 
1.7499999999998237, -0.5312766703969357 
1.7599999999998226, -0.5287034709689993 
1.7699999999998215, -0.5260892763813383 
1.7799999999998204, -0.5235497236060096 
1.7899999999998193, -0.521178310424243 
1.7999999999998182, -0.5190349243732674 
1.809999999999817, -0.5171439110107151 
1.819999999999816, -0.5154991388221314 
1.8299999999998149, -0.5140725095209384 
1.8399999999998138, -0.5128232905684977 
1.8499999999998127, -0.5117068138590459 
1.8599999999998116, -0.5106817205601265 
1.8699999999998105, -0.509715228977516 
1.8799999999998094, -0.5087862713628482 
1.8899999999998083, -0.5078868731581093 
1.8999999999998072, -0.5070226120446796 
1.909999999999806, -0.5062131875754731 
1.919999999999805, -0.50549406593713 
1.9299999999998039, -0.5049200084325651 
1.9399999999998028, -0.5045712208588824 
1.9499999999998017, -0.5045629714206338 
1.9599999999998006, -0.50505984970723 
1.9699999999997995, -0.5062963878589571 
1.9799999999997984, -0.5086065376450778 
1.9899999999997973, -0.5124654348363425 
1.9999999999997962, -0.5185476908592916 
2.0099999999998173, -0.527806150011292 
2.0199999999998384, -0.5415709311988544 
2.0299999999998595, -0.5616541568687998 
2.0399999999998806, -0.5904080884595355 
2.0499999999999017, -0.6306056519981149 
2.059999999999923, -0.6848963676093767 
2.069999999999944, -0.7545534071754819 
2.079999999999965, -0.8376101499352664 
2.089999999999986, -0.9275568448130871 
2.100000000000007, -1.0145462195713804 
2.1100000000000283, -1.0893596131004109 
2.1200000000000494, -1.1471503099514522 
2.1300000000000705, -1.188050134930424 
2.1400000000000916, -1.2151843482549787 
2.1500000000001127, -1.2324057135336428 
2.160000000000134, -1.2430109102914575 
2.170000000000155, -1.2493809344474476 
2.180000000000176, -1.2530819845413144 
2.190000000000197, -1.2550902519028122 
2.2000000000002182, -1.2559956722211179 
2.2100000000002393, -1.2561508434841073 
2.2200000000002604, -1.2557746468975757 
2.2300000000002815, -1.2550309430504252 
2.2400000000003026, -1.2541006681603704 
2.2500000000003237, -1.2532538644597937 
2.260000000000345, -1.2529016572669582 
2.270000000000366, -1.253573890556794 
2.280000000000387, -1.2557715635026132 
2.290000000000408, -1.2597375511947395 
2.3000000000004293, -1.265309732005138 
2.3100000000004504, -1.2719881344036863 
2.3200000000004715, -1.279156229312051 
2.3300000000004926, -1.286283850188214 
2.3400000000005137, -1.2930128909343155 
2.3500000000005348, -1.299144723519614 
2.360000000000556, -1.3045896708376572 
2.370000000000577, -1.309319370658093 
2.380000000000598, -1.3133350661933834 
2.390000000000619, -1.3166506111961025 
2.4000000000006403, -1.3192857013938042 
2.4100000000006614, -1.321265347557235 
2.4200000000006825, -1.3226222121511575 
2.4300000000007036, -1.323398868700963 
2.4400000000007247, -1.323648147287803 
2.450000000000746, -1.3234316176353744 
2.460000000000767, -1.3228178900184069 
2.470000000000788, -1.3218824871144625 
2.480000000000809, -1.3207091813998653 
2.49000000000083, -1.3193900304216526 
2.5000000000008513, -1.3180204955064327 
2.5100000000008724, -1.3166895733882058 
2.5200000000008935, -1.3154711222740283 
2.5300000000009146, -1.3144237019212845 
2.5400000000009357, -1.3135971071378543 
2.550000000000957, -1.3130330371988461 
2.560000000000978, -1.312750316360041 
2.570000000000999, -1.3127225649067662 
2.58000000000102, -1.312868651385078 
2.5900000000010412, -1.3130664138022337 
2.6000000000010624, -1.313178523155359 
2.6100000000010835, -1.3130712414642562 
2.6200000000011046, -1.3126172889911039 
2.6300000000011257, -1.3116872391994019 
2.6400000000011468, -1.3101387520153849 
2.650000000001168, -1.307811195762089 
2.660000000001189, -1.304529430692438 
2.67000000000121, -1.3001164049062326 
2.680000000001231, -1.294410191299645 
2.6900000000012523, -1.2872790240669214 
2.7000000000012734, -1.2786302052876266 
2.7100000000012945, -1.2684153158866274 
2.7200000000013156, -1.2566414313617638 
2.7300000000013367, -1.2434017737773266 
2.740000000001358, -1.2289360492796912 
2.750000000001379, -1.2137155903247199 
2.7600000000014, -1.1985149521794713 
2.770000000001421, -1.1843878221926503 
2.780000000001442, -1.1724605432008652 
2.7900000000014633, -1.163562767162323 
2.8000000000014844, -1.1578979860590313 
2.8100000000015055, -1.1550035881498235 
2.8200000000015266, -1.1540292589523153 
2.8300000000015477, -1.1541055258962125 
2.840000000001569, -1.1545718183022466 
2.85000000000159, -1.155016596060085 
2.860000000001611, -1.155210235484973 
2.870000000001632, -1.1550145687390942 
2.8800000000016532, -1.1543058937057566 
2.8900000000016743, -1.1529124634106114 
2.9000000000016954, -1.1505529093155002 
2.9100000000017165, -1.1467590579243416 
2.9200000000017377, -1.1407689041174327 
2.9300000000017588, -1.1313863188057776 
2.94000000000178, -1.1168371939328139 
2.950000000001801, -1.0947273706742957 
2.960000000001822, -1.062322537902131 
2.970000000001843, -1.0174173053679947 
2.9800000000018643, -0.9597753525025093 
2.9900000000018854, -0.8923730908258064 
3.0000000000019065, -0.8211622552838206 
3.0100000000019276, -0.7529835274102422 
3.0200000000019487, -0.6930627526683084 
3.03000000000197, -0.6438304906738596 
3.040000000001991, -0.6053104744305996 
3.050000000002012, -0.5761673569421053 
3.060000000002033, -0.5546121904306657 
3.070000000002054, -0.5389197628623946 
3.0800000000020753, -0.5276361800597268 
3.0900000000020964, -0.5196162565286016 
3.1000000000021175, -0.5139896990068757 
3.1100000000021386, -0.5101076472113576 
3.1200000000021597, -0.5074912329230787 
3.130000000002181, -0.505789023022764 
3.140000000002202, -0.5047440485135941 
3.150000000002223, -0.5041690532617571 
3.160000000002244, -0.5039282233942347 
3.1700000000022652, -0.5039238789520397 
3.1800000000022863, -0.50408696695271 
3.1900000000023074, -0.5043705168220984 
3.2000000000023285, -0.5047454417769616 
3.2100000000023496, -0.5051981656610395 
3.2200000000023707, -0.5057295165510526 
3.230000000002392, -0.5063541873171846 
3.240000000002413, -0.507099911753486 
3.250000000002434, -0.5080054760367372 
3.260000000002455, -0.5091168613786783 
3.2700000000024763, -0.5104811314382177 
3.2800000000024974, -0.5121379830952674 
3.2900000000025185, -0.5141091780893915 
3.3000000000025396, -0.5163867369578358 
3.3100000000025607, -0.5189222887386489 
3.3200000000025818, -0.521622076816447 
3.330000000002603, -0.5243530196435902 
3.340000000002624, -0.5269623070767557 
3.350000000002645, -0.529306007814273 
3.360000000002666, -0.5312756680340649 
3.3700000000026873, -0.5328120674955278 
3.3800000000027084, -0.5339026928424376 
3.3900000000027295, -0.5345677701367849 
3.4000000000027506, -0.5348428785804121 
3.4100000000027717, -0.5347640610318032 
3.420000000002793, -0.534357494241508 
3.430000000002814, -0.533632987387395 
3.440000000002835, -0.532579409127344 
3.450000000002856, -0.5311598981526605 
3.460000000002877, -0.5293044904441901 
3.4700000000028983, -0.5268967566959247 
3.4800000000029194, -0.5237479726628123 
3.4900000000029405, -0.5195445973597039 
3.5000000000029616, -0.5137361601635703 
3.5100000000029827, -0.5052873323405446 
3.520000000003004, -0.4921265557833411 
3.530000000003025, -0.46998076293579816 
3.540000000003046, -0.4303194510648808 
3.550000000003067, -0.35860671317962495 
3.5600000000030882, -0.23988874067583657 
3.5700000000031094, -0.08214269323946055 
3.5800000000031305, 0.06922289179366928 
3.5900000000031516, 0.17564258939501198 
3.6000000000031727, 0.23777133714751306 
3.6100000000031938, 0.27183005434215624 
3.620000000003215, 0.2906225705888786 
3.630000000003236, 0.3013143647529648 
3.640000000003257, 0.3075929148117211 
3.650000000003278, 0.31136266504109666 
3.6600000000032993, 0.3136428010561833 
3.6700000000033204, 0.3150054599626319 
3.6800000000033415, 0.31578971801074934 
3.6900000000033626, 0.31620927633620177 
3.7000000000033837, 0.31640931309867276 
3.710000000003405, 0.31649890073959236 
3.720000000003426, 0.3165721856519475 
3.730000000003447, 0.31672549487005597 
3.740000000003468, 0.31707463731895397 
3.750000000003489, 0.3177746843801886 
3.7600000000035103, 0.3190413733144045 
3.7700000000035314, 0.3211661422383813 
3.7800000000035525, 0.32450314077457926 
3.7900000000035736, 0.3293912347890155 
3.8000000000035947, 0.33598388390176465 
3.810000000003616, 0.3440384103209359 
3.820000000003637, 0.3528379393070651 
3.830000000003658, 0.36140187030578746 
3.840000000003679, 0.36887904718959286 
3.8500000000037002, 0.3748177110266551 
3.8600000000037213, 0.3791619011936565 
3.8700000000037424, 0.38208540969117066 
3.8800000000037635, 0.38382609931003175 
3.8900000000037847, 0.38458833740815296 
3.9000000000038058, 0.3845053514221602 
3.910000000003827, 0.38363529134188556 
3.920000000003848, 0.38197430234007473 
3.930000000003869, 0.3794826160452441 
3.94000000000389, 0.376126733045811 
3.9500000000039113, 0.371937923103885 
3.9600000000039324, 0.36707149186085053 
3.9700000000039535, 0.36183026581687294 
3.9800000000039746, 0.3566166586178445 
3.9900000000039957, 0.3518219344235299 
4.000000000004016, 0.34771611797719554 
4.010000000003993, 0.34440252427569235 
4.02000000000397, 0.3418448502016286 
4.030000000003946, 0.3399277587008457 
4.040000000003923, 0.3385110610363182 
4.0500000000039, 0.33746131468784063 
4.0600000000038765, 0.33666317760859327 
4.070000000003853, 0.3360186185281172 
4.08000000000383, 0.33544060539478593 
4.090000000003807, 0.3348447468838116 
4.100000000003783, 0.3341397248972356 
4.11000000000376, 0.33321531341487093 
4.120000000003737, 0.3319246837956643 
4.130000000003713, 0.330054568447169 
4.14000000000369, 0.32727102157958365 
4.150000000003667, 0.3230166352452154 
4.1600000000036434, 0.316310614759301 
4.17000000000362, 0.3053564829501944 
4.180000000003597, 0.2867991897758913 
4.1900000000035735, 0.254540430795336 
4.20000000000355, 0.19900709138532122 
4.210000000003527, 0.11144576514344484 
4.220000000003504, -0.0008316982689929488 
4.23000000000348, -0.10612699083236017 
4.240000000003457, -0.17870096661870724 
4.250000000003434, -0.21845881283134908 
4.26000000000341, -0.23766476593991678 
4.270000000003387, -0.24655953388002366 
4.280000000003364, -0.2507654118785469 
4.2900000000033405, -0.2529002277873496 
4.300000000003317, -0.2541041696489034 
4.310000000003294, -0.2548638373197251 
4.320000000003271, -0.255387841441743 
4.330000000003247, -0.25576754700218113 
4.340000000003224, -0.25604455184506075 
4.350000000003201, -0.2562391451542532 
4.360000000003177, -0.2563627078161075 
4.370000000003154, -0.25642367189303844 
4.380000000003131, -0.256431104680772 
4.390000000003107, -0.25639763232756346 
4.400000000003084, -0.2563423251389791 
4.410000000003061, -0.256293546177728 
4.4200000000030375, -0.2562913644978414 
4.430000000003014, -0.2563889683477752 
4.440000000002991, -0.2566526654831218 
4.450000000002968, -0.2571604633259491 
4.460000000002944, -0.2579995438230721 
4.470000000002921, -0.2592627186519636 
4.480000000002898, -0.26104294969760594 
4.490000000002874, -0.2634236177416155 
4.500000000002851, -0.26646152306353066 
4.510000000002828, -0.2701613873827968 
4.520000000002804, -0.2744465963500991 
4.530000000002781, -0.27914006600167685 
4.540000000002758, -0.28397422004786377 
4.5500000000027345, -0.28863933914122286 
4.560000000002711, -0.29285488098338186 
4.570000000002688, -0.29642914353634414 
4.580000000002665, -0.2992800361784401 
4.590000000002641, -0.30141671185828045 
4.600000000002618, -0.3029019217266279 
4.610000000002595, -0.3038154205919093 
4.620000000002571, -0.30422810058849137 
4.630000000002548, -0.3041869576850966 
4.640000000002525, -0.30370686298345423 
4.6500000000025015, -0.30276493591322584 
4.660000000002478, -0.30129476948765055 
4.670000000002455, -0.29917981505075464 
4.6800000000024315, -0.2962481688966476 
4.690000000002408, -0.29227567049487246 
4.700000000002385, -0.2870105617395004 
4.710000000002362, -0.2802367480830322 
4.720000000002338, -0.271882072116083 
4.730000000002315, -0.262140012057927 
4.740000000002292, -0.2515232433901138 
4.750000000002268, -0.24077052257624584 
4.760000000002245, -0.23062851483465238 
4.770000000002222, -0.22164030765902196 
4.7800000000021985, -0.21405857704744866 
4.790000000002175, -0.2078879399926854 
4.800000000002152, -0.20298362161629682 
4.810000000002129, -0.19914085716054747 
4.820000000002105, -0.19615056298242511 
4.830000000002082, -0.19382503379810115 
4.840000000002059, -0.19200561856269444 
4.850000000002035, -0.1905622634506518 
4.860000000002012, -0.18939052409934556 
4.870000000001989, -0.1884083360932476 
4.880000000001965, -0.18755304098924566 
4.890000000001942, -0.18677854374358557 
4.900000000001919, -0.1860524852985237 
4.9100000000018955, -0.18535348987522154 
4.920000000001872, -0.18466862226898048 
4.930000000001849, -0.1839910746319519 
