t, s[1].omega / s[0].omega 
0, -0.7198269413860088 
0.009999999999999995, -0.7030027523640364 
0.019999999999999934, -0.6886275958822954 
0.029999999999999874, -0.6779501876645037 
0.04000000000000012, -0.6709253303993106 
0.050000000000000405, -0.6667745755483682 
0.06000000000000069, -0.6645722911035726 
0.07000000000000098, -0.6635509942188776 
0.08000000000000126, -0.6631759775537921 
0.09000000000000155, -0.6631126390766131 
0.10000000000000184, -0.6631665293029829 
0.11000000000000212, -0.663229822190385 
0.12000000000000241, -0.6632427587694862 
0.130000000000002, -0.6631688281011194 
0.1400000000000009, -0.6629802743478931 
0.1499999999999998, -0.6626513580464968 
0.1599999999999987, -0.6621582895383875 
0.1699999999999976, -0.6614852657009875 
0.1799999999999965, -0.6606342301880852 
0.1899999999999954, -0.6596323316041712 
0.1999999999999943, -0.6585298056434405 
0.2099999999999932, -0.6573866072397743 
0.2199999999999921, -0.6562551117273732 
0.229999999999991, -0.6551690402494449 
0.2399999999999899, -0.6541429424566865 
0.2499999999999888, -0.6531792751987175 
0.2599999999999877, -0.6522774465927974 
0.2699999999999866, -0.6514408634639106 
0.2799999999999855, -0.6506809068913044 
0.2899999999999844, -0.6500185933685534 
0.2999999999999833, -0.6494849866360576 
0.3099999999999822, -0.6491209181007407 
0.3199999999999811, -0.6489760919696665 
0.32999999999998, -0.6491075661555002 
0.3399999999999789, -0.6495778187851907 
0.3499999999999778, -0.6504527993936072 
0.35999999999997667, -0.6518001487258206 
0.36999999999997557, -0.65368687880875 
0.37999999999997447, -0.6561741735178594 
0.38999999999997337, -0.6593049571011304 
0.39999999999997227, -0.6630789197735536 
0.40999999999997117, -0.667413480032349 
0.41999999999997006, -0.6721031443115314 
0.42999999999996896, -0.6768122199835266 
0.43999999999996786, -0.6811409010069416 
0.44999999999996676, -0.6847553626648052 
0.45999999999996566, -0.6874979482635101 
0.46999999999996456, -0.689397967139631 
0.47999999999996346, -0.6905970773860268 
0.48999999999996235, -0.6912623127110662 
0.49999999999996125, -0.6915334047753764 
0.5099999999999602, -0.6915050265383781 
0.519999999999959, -0.6912267190756 
0.529999999999958, -0.6907064196629292 
0.5399999999999568, -0.6899102630462446 
0.5499999999999557, -0.6887549726064622 
0.5599999999999546, -0.6870897328453853 
0.5699999999999535, -0.6846636232014237 
0.5799999999999524, -0.6810759244836261 
0.5899999999999513, -0.6757208189134212 
0.5999999999999502, -0.6677920457454821 
0.6099999999999491, -0.656520435736822 
0.619999999999948, -0.6418140340536926 
0.6299999999999469, -0.6249612543848178 
0.6399999999999458, -0.6084102361163805 
0.6499999999999447, -0.594436252817175 
0.6599999999999436, -0.5840544668982228 
0.6699999999999425, -0.5770692988715588 
0.6799999999999414, -0.5727137296647015 
0.6899999999999403, -0.5701650373152296 
0.6999999999999392, -0.5687647599911497 
0.7099999999999381, -0.5680526526877245 
0.719999999999937, -0.5677302819208337 
0.7299999999999359, -0.5676127112861689 
0.7399999999999348, -0.567588299209789 
0.7499999999999337, -0.5675901213731687 
0.7599999999999326, -0.5675773639102694 
0.7699999999999315, -0.5675242890689157 
0.7799999999999304, -0.5674149235229162 
0.7899999999999293, -0.5672420938481217 
0.7999999999999282, -0.5670091362233223 
0.8099999999999271, -0.5667315271048441 
0.819999999999926, -0.5664350281255676 
0.8299999999999249, -0.5661485440701168 
0.8399999999999238, -0.565893716536934 
0.8499999999999227, -0.5656763282915531 
0.8599999999999216, -0.5654841374609287 
0.8699999999999205, -0.5652922607790984 
0.8799999999999194, -0.5650731033760795 
0.8899999999999183, -0.5648056318764036 
0.8999999999999172, -0.5644801182274792 
0.9099999999999161, -0.564098217949825 
0.919999999999915, -0.5636711554877886 
0.9299999999999139, -0.563219188643237 
0.9399999999999128, -0.5627745103876751 
0.9499999999999117, -0.562388997259441 
0.9599999999999106, -0.5621483205391107 
0.9699999999999095, -0.5621945435601845 
0.9799999999999084, -0.5627595327518267 
0.9899999999999073, -0.5642093816081579 
0.9999999999999062, -0.567090993107988 
1.0099999999999052, -0.5721467739406481 
1.019999999999904, -0.5802129579564966 
1.029999999999903, -0.5918686156223365 
1.039999999999902, -0.6068048137458109 
1.0499999999999008, -0.623341683950121 
1.0599999999998997, -0.6389188643896386 
1.0699999999998986, -0.6515186890791861 
1.0799999999998975, -0.6605798616638947 
1.0899999999998964, -0.6666418019441029 
1.0999999999998953, -0.6705562498755518 
1.1099999999998942, -0.6730428223923605 
1.119999999999893, -0.6745978505342588 
1.129999999999892, -0.6755375853837277 
1.1399999999998909, -0.6760561445043541 
1.1499999999998898, -0.6762672287349291 
1.1599999999998887, -0.6762290747514071 
1.1699999999998876, -0.675957200322087 
1.1799999999998865, -0.6754287457482222 
1.1899999999998854, -0.6745817326146956 
1.1999999999998843, -0.6733142690226619 
1.2099999999998832, -0.671493291178482 
1.219999999999882, -0.6689869645364163 
1.229999999999881, -0.6657282983537238 
1.2399999999998799, -0.661787391930642 
1.2499999999998788, -0.657395029558234 
1.2599999999998777, -0.6528791936326582 
1.2699999999998766, -0.6485533197034596 
1.2799999999998755, -0.6446353337292485 
1.2899999999998744, -0.6412322928194207 
1.2999999999998733, -0.6383682966101191 
1.3099999999998722, -0.6360209468832216 
1.319999999999871, -0.6341480491283008 
1.32999999999987, -0.6327019224576904 
1.3399999999998689, -0.6316351133654847 
1.3499999999998678, -0.6309018727040075 
1.3599999999998666, -0.6304583752318654 
1.3699999999998655, -0.6302631675120525 
1.3799999999998644, -0.6302782535528448 
1.3899999999998633, -0.6304706317551452 
1.3999999999998622, -0.6308138969188796 
1.4099999999998611, -0.6312895356227615 
1.41999999999986, -0.6318875189783177 
1.429999999999859, -0.6326055259335782 
1.4399999999998578, -0.6334456759997212 
1.4499999999998567, -0.6344075585572636 
1.4599999999998556, -0.6354775429232002 
1.4699999999998545, -0.6366174357248258 
1.4799999999998534, -0.637759433981876 
1.4899999999998523, -0.6388149764954705 
1.4999999999998512, -0.6396978000675958 
1.5099999999998501, -0.640349248248886 
1.519999999999849, -0.6407499909205024 
1.529999999999848, -0.6409133704805685 
1.5399999999998468, -0.6408690632428302 
1.5499999999998457, -0.6406482200840076 
1.5599999999998446, -0.6402753081999522 
1.5699999999998435, -0.6397665498283794 
1.5799999999998424, -0.6391335866869753 
1.5899999999998413, -0.6383923974015443 
1.5999999999998402, -0.6375796531597729 
1.6099999999998391, -0.636780164559813 
1.619999999999838, -0.6361671054918467 
1.629999999999837, -0.6360444309571952 
1.6399999999998358, -0.6368473611973411 
1.6499999999998347, -0.6390068430519057 
1.6599999999998336, -0.6426050934720717 
1.6699999999998325, -0.6470257974479657 
1.6799999999998314, -0.6511666812639403 
1.6899999999998303, -0.6542913518830595 
1.6999999999998292, -0.6564850425101102 
1.709999999999828, -0.6581961563207259 
1.719999999999827, -0.6597022441269942 
1.729999999999826, -0.6610439130878444 
1.7399999999998248, -0.6621745369094769 
1.7499999999998237, -0.6630606699046543 
1.7599999999998226, -0.6637024491341725 
1.7699999999998215, -0.6641203674414163 
1.7799999999998204, -0.6643387183860626 
1.7899999999998193, -0.6643743087344095 
1.7999999999998182, -0.6642299319392715 
1.809999999999817, -0.6638906152969026 
1.819999999999816, -0.6633220319712503 
1.8299999999998149, -0.6624728761015765 
1.8399999999998138, -0.661285347347085 
1.8499999999998127, -0.6597174282201472 
1.8599999999998116, -0.6577731027835468 
1.8699999999998105, -0.6555235278741153 
1.8799999999998094, -0.6530987070846528 
1.8899999999998083, -0.650649099983183 
1.8999999999998072, -0.6483022623038723 
1.909999999999806, -0.6461401140432871 
1.919999999999805, -0.6442010491791735 
1.9299999999998039, -0.6424950536964829 
1.9399999999998028, -0.6410194881648257 
1.9499999999998017, -0.6397697157231399 
1.9599999999998006, -0.6387440542782051 
1.9699999999997995, -0.637944710005576 
1.9799999999997984, -0.6373765724265225 
1.9899999999997973, -0.637045320270182 
1.9999999999997962, -0.636955826248953 
2.0099999999998173, -0.6371114664719311 
2.0199999999998384, -0.6375145685539536 
2.0299999999998595, -0.6381678267770357 
2.0399999999998806, -0.6390760689689601 
2.0499999999999017, -0.6402472537953994 
2.059999999999923, -0.6416909779067085 
2.069999999999944, -0.6434122522725468 
2.079999999999965, -0.6453986349574707 
2.089999999999986, -0.647601582120584 
2.100000000000007, -0.6499195147366914 
2.1100000000000283, -0.6521979230995912 
2.1200000000000494, -0.6542599652877559 
2.1300000000000705, -0.6559596678493697 
2.1400000000000916, -0.6572247496714261 
2.1500000000001127, -0.6580610940809342 
2.160000000000134, -0.6585240883130112 
2.170000000000155, -0.6586829163171545 
2.180000000000176, -0.6585961991293463 
2.190000000000197, -0.6583012760485747 
2.2000000000002182, -0.6578116399178702 
2.2100000000002393, -0.6571171481874052 
2.2200000000002604, -0.656184091810409 
2.2300000000002815, -0.6549540386512576 
2.2400000000003026, -0.6533406403912332 
2.2500000000003237, -0.6512211516049689 
2.260000000000345, -0.6484124666916832 
2.270000000000366, -0.6446147332671905 
2.280000000000387, -0.639335389821093 
2.290000000000408, -0.6319459664058237 
2.3000000000004293, -0.6221640250909515 
2.3100000000004504, -0.6108048399870641 
2.3200000000004715, -0.5997514863685367 
2.3300000000004926, -0.5907707276816017 
2.3400000000005137, -0.5845352958219804 
2.3500000000005348, -0.5807332646802488 
2.360000000000556, -0.5786678509045369 
2.370000000000577, -0.5776809010477966 
2.380000000000598, -0.5772958990720334 
2.390000000000619, -0.5772112574364765 
2.4000000000006403, -0.5772506775140891 
2.4100000000006614, -0.5773158102940464 
2.4200000000006825, -0.577352342636219 
2.4300000000007036, -0.577328542580412 
2.4400000000007247, -0.5772229290400217 
2.450000000000746, -0.577018499773046 
2.460000000000767, -0.57670216982818 
2.470000000000788, -0.5762684812185604 
2.480000000000809, -0.5757255041307172 
2.49000000000083, -0.5750986715018164 
2.5000000000008513, -0.5744277746486659 
2.5100000000008724, -0.5737561760338046 
2.5200000000008935, -0.5731173475084392 
2.5300000000009146, -0.5725261449128156 
2.5400000000009357, -0.5719787048461445 
2.550000000000957, -0.5714594577298161 
2.560000000000978, -0.5709506484593956 
2.570000000000999, -0.5704399951715889 
2.58000000000102, -0.569924656702409 
2.5900000000010412, -0.5694124732874297 
2.6000000000010624, -0.5689227735373175 
2.6100000000010835, -0.5684888012355408 
2.6200000000011046, -0.5681630281345118 
2.6300000000011257, -0.5680260824235731 
2.6400000000011468, -0.568199830381246 
2.650000000001168, -0.5688649389399498 
2.660000000001189, -0.5702823258497832 
2.67000000000121, -0.572814870561388 
2.680000000001231, -0.576937756166856 
2.6900000000012523, -0.5832085986367506 
2.7000000000012734, -0.5921423775401948 
2.7100000000012945, -0.60392890370938 
2.7200000000013156, -0.6180299541769954 
2.7300000000013367, -0.63296608117415 
2.740000000001358, -0.646749973051537 
2.750000000001379, -0.657856452576717 
2.7600000000014, -0.6658447004234472 
2.770000000001421, -0.67114449719112 
2.780000000001442, -0.6744861453018393 
2.7900000000014633, -0.6765211919250419 
2.8000000000014844, -0.6777114384822849 
2.8100000000015055, -0.6783493903354787 
2.8200000000015266, -0.6786068382930627 
2.8300000000015477, -0.6785736937890642 
2.840000000001569, -0.6782806971902391 
2.85000000000159, -0.6777081863920372 
2.860000000001611, -0.6767839167901016 
2.870000000001632, -0.6753735079176483 
2.8800000000016532, -0.6732717554990187 
2.8900000000016743, -0.6702147329020465 
2.9000000000016954, -0.6659458726286921 
2.9100000000017165, -0.6603551659759689 
2.9200000000017377, -0.6536332870314074 
2.9300000000017588, -0.6462973668423164 
2.94000000000178, -0.6390144607523791 
2.950000000001801, -0.6323510495940274 
2.960000000001822, -0.6266337011406602 
2.970000000001843, -0.621960028996319 
2.9800000000018643, -0.6182803551386128 
2.9900000000018854, -0.6154757980043735 
3.0000000000019065, -0.6134073993865324 
3.0100000000019276, -0.6119402121358903 
3.0200000000019487, -0.6109528642868305 
3.03000000000197, -0.6103404791688213 
3.040000000001991, -0.610015064051125 
3.050000000002012, -0.6099049885351223 
3.060000000002033, -0.6099540281827076 
3.070000000002054, -0.6101201483491367 
3.0800000000020753, -0.6103742398642649 
3.0900000000020964, -0.6106990006422545 
3.1000000000021175, -0.6110878347408476 
3.1100000000021386, -0.611542986066728 
3.1200000000021597, -0.612071516507675 
3.130000000002181, -0.6126779837067384 
3.140000000002202, -0.6133544755396435 
3.150000000002223, -0.6140717071142726 
3.160000000002244, -0.6147772390422148 
3.1700000000022652, -0.6154052691994948 
3.1800000000022863, -0.6158952624513007 
3.1900000000023074, -0.6162089296000965 
3.2000000000023285, -0.6163357204060985 
3.2100000000023496, -0.6162863134927663 
3.2200000000023707, -0.6160813127849372 
3.230000000002392, -0.6157422728468165 
3.240000000002413, -0.6152880326542794 
3.250000000002434, -0.6147365273725275 
3.260000000002455, -0.6141121322225706 
3.2700000000024763, -0.6134600571255661 
3.2800000000024974, -0.6128709747554258 
3.2900000000025185, -0.6125190660471158 
3.3000000000025396, -0.6127105249705289 
3.3100000000025607, -0.6139175640629554 
3.3200000000025818, -0.6167247186593674 
3.330000000002603, -0.6215672024266099 
3.340000000002624, -0.6282463140783989 
3.350000000002645, -0.6356371461195488 
3.360000000002666, -0.6422427608842292 
3.3700000000026873, -0.6472534541094315 
3.3800000000027084, -0.6508176729478501 
3.3900000000027295, -0.6534289252519682 
3.4000000000027506, -0.6554342174336667 
3.4100000000027717, -0.6569887045016873 
3.420000000002793, -0.6581626893748489 
3.430000000002814, -0.6590084383031221 
3.440000000002835, -0.6595760902121097 
3.450000000002856, -0.6599098162217012 
3.460000000002877, -0.6600416234580997 
3.4700000000028983, -0.6599871203047973 
3.4800000000029194, -0.6597428606172724 
3.4900000000029405, -0.659284674072772 
3.5000000000029616, -0.6585680231976059 
3.5100000000029827, -0.657533863427716 
3.520000000003004, -0.6561250498895234 
3.530000000003025, -0.6543149484237336 
3.540000000003046, -0.6521381544177858 
3.550000000003067, -0.6497009485817502 
3.5600000000030882, -0.6471562020435068 
3.5700000000031094, -0.6446560212027728 
3.5800000000031305, -0.6423134695534676 
3.5900000000031516, -0.6401914175614752 
3.6000000000031727, -0.6383130506701058 
3.6100000000031938, -0.6366794325312396 
3.620000000003215, -0.6352840096618573 
3.630000000003236, -0.6341209566710939 
3.640000000003257, -0.6331882731911626 
3.650000000003278, -0.6324876537793775 
3.6600000000032993, -0.6320229130798142 
3.6700000000033204, -0.6317982197292291 
3.6800000000033415, -0.6318169390927457 
3.6900000000033626, -0.6320815050165025 
3.7000000000033837, -0.6325943629429597 
3.710000000003405, -0.6333596208614909 
3.720000000003426, -0.6343845903125492 
3.730000000003447, -0.6356798464203377 
3.740000000003468, -0.6372557990105839 
3.750000000003489, -0.6391134367412998 
3.7600000000035103, -0.6412280554593222 
3.7700000000035314, -0.6435292674782318 
3.7800000000035525, -0.6458887835040055 
3.7900000000035736, -0.6481330976418842 
3.8000000000035947, -0.6500878641728711 
3.810000000003616, -0.6516329046669523 
3.820000000003637, -0.6527308954711312 
3.830000000003658, -0.6534144615206277 
3.840000000003679, -0.6537502480426851 
3.8500000000037002, -0.6538061782754243 
3.8600000000037213, -0.6536330658144511 
3.8700000000037424, -0.6532580098584337 
3.8800000000037635, -0.6526832434408655 
3.8900000000037847, -0.651885800928601 
3.9000000000038058, -0.6508156301300777 
3.910000000003827, -0.6493907424396934 
3.920000000003848, -0.6474869477599013 
3.930000000003869, -0.6449155633925387 
3.94000000000389, -0.6413764350119989 
3.9500000000039113, -0.6363844118426664 
3.9600000000039324, -0.6292548227358887 
3.9700000000039535, -0.6194104033715475 
3.9800000000039746, -0.6071494346455446 
3.9900000000039957, -0.5941293179944378 
4.000000000004016, -0.5825544391301597 
4.010000000003993, -0.5738006377882449 
4.02000000000397, -0.5679936717028858 
4.030000000003946, -0.5645228966794408 
4.040000000003923, -0.5626302596822961 
4.0500000000039, -0.5616972178675481 
4.0600000000038765, -0.5613010452549798 
4.070000000003853, -0.5611791321917134 
4.08000000000383, -0.561177243021526 
4.090000000003807, -0.561207401345517 
4.100000000003783, -0.5612192473482731 
4.11000000000376, -0.5611823451910788 
4.120000000003737, -0.5610763712450964 
4.130000000003713, -0.5608871060554781 
4.14000000000369, -0.5606069640988509 
4.150000000003667, -0.5602385647304017 
4.1600000000036434, -0.5597984331400122 
4.17000000000362, -0.5593167014956619 
4.180000000003597, -0.5588301676985068 
4.1900000000035735, -0.5583706665867951 
4.20000000000355, -0.5579546569496775 
4.210000000003527, -0.5575794328876393 
4.220000000003504, -0.557227269091076 
4.23000000000348, -0.5568745808030162 
4.240000000003457, -0.5565012378995657 
4.250000000003434, -0.5560962989224534 
4.26000000000341, -0.5556595822848892 
4.270000000003387, -0.5552011833855641 
4.280000000003364, -0.5547417336207427 
4.2900000000033405, -0.5543155057511092 
4.300000000003317, -0.5539777643794651 
4.310000000003294, -0.5538176712741311 
4.320000000003271, -0.5539783876876218 
4.330000000003247, -0.5546860698369954 
4.340000000003224, -0.5562877493653298 
4.350000000003201, -0.5592911601359278 
4.360000000003177, -0.56438026459359 
4.370000000003154, -0.5723400019880751 
4.380000000003131, -0.5837765751162715 
4.390000000003107, -0.5985698412510055 
4.400000000003084, -0.6153384617816837 
4.410000000003061, -0.6316549811549734 
4.4200000000030375, -0.6452818172082063 
4.430000000003014, -0.6553001892823961 
4.440000000002991, -0.6620533588942686 
4.450000000002968, -0.6663913155376917 
4.460000000002944, -0.66911150007668 
4.470000000002921, -0.6707861119540518 
4.480000000002898, -0.6717824614266513 
4.490000000002874, -0.672324100617397 
4.500000000002851, -0.6725403537659453 
4.510000000002828, -0.6724971468100363 
4.520000000002804, -0.672213071851373 
4.530000000002781, -0.6716650987319078 
4.540000000002758, -0.6707876895462773 
4.5500000000027345, -0.6694704948911135 
4.560000000002711, -0.6675646874942427 
4.570000000002688, -0.664914232091839 
4.580000000002665, -0.6614244917265111 
4.590000000002641, -0.6571491856441335 
4.600000000002618, -0.6523311254482118 
4.610000000002595, -0.647340921783994 
4.620000000002571, -0.6425467875856599 
4.630000000002548, -0.6382107353991768 
4.640000000002525, -0.6344627216005573 
4.6500000000025015, -0.6313309814355461 
4.660000000002478, -0.6287857976571853 
4.670000000002455, -0.62677259973948 
4.6800000000024315, -0.6252302207762386 
4.690000000002408, -0.6240986191818465 
4.700000000002385, -0.623321243623183 
4.710000000002362, -0.6228455658488952 
4.720000000002338, -0.6226235294307563 
4.730000000002315, -0.6226124346760458 
4.740000000002292, -0.6227761421322279 
4.750000000002268, -0.6230862866859845 
4.760000000002245, -0.6235232251998216 
4.770000000002222, -0.6240764212365225 
4.7800000000021985, -0.6247436871647504 
4.790000000002175, -0.6255282026381856 
4.800000000002152, -0.6264320197561062 
4.810000000002129, -0.6274457511154351 
4.820000000002105, -0.6285369763966748 
4.830000000002082, -0.6296437909037732 
4.840000000002059, -0.6306812870103662 
4.850000000002035, -0.6315627265293983 
4.860000000002012, -0.6322251583766592 
4.870000000001989, -0.6326435286980557 
4.880000000001965, -0.6328265134224826 
4.890000000001942, -0.6328011997012916 
4.900000000001919, -0.632597866099925 
4.9100000000018955, -0.6322409085231296 
4.920000000001872, -0.6317463051536599 
