t, s[1].omega / s[0].omega 
0, -0.9999975530472682 
0.009999999999999995, -0.9996724300274155 
0.019999999999999934, -0.9991871349374097 
0.029999999999999874, -0.9985423748175449 
0.04000000000000012, -0.9977484842507511 
0.050000000000000405, -0.9968330477774344 
0.06000000000000069, -0.9958450674564349 
0.07000000000000098, -0.9948546206960376 
0.08000000000000126, -0.9939464781036307 
0.09000000000000155, -0.9932065466246129 
0.10000000000000184, -0.9927042177366477 
0.11000000000000212, -0.99247746863021 
0.12000000000000241, -0.9925254364277253 
0.130000000000002, -0.9928088530582742 
0.1400000000000009, -0.9932580733018044 
0.1499999999999998, -0.9937880055079985 
0.1599999999999987, -0.9943153886232488 
0.1699999999999976, -0.9947719379487425 
0.1799999999999965, -0.9951104132527944 
0.1899999999999954, -0.9953045859892405 
0.1999999999999943, -0.9953445621521697 
0.2099999999999932, -0.9952288081191497 
0.2199999999999921, -0.9949563126533933 
0.229999999999991, -0.9945238076229318 
0.2399999999999899, -0.9939301219677518 
0.2499999999999888, -0.9931845910566462 
0.2599999999999877, -0.9923145081900578 
0.2699999999999866, -0.9913689496776306 
0.2799999999999855, -0.9904183376069138 
0.2899999999999844, -0.9895482446014144 
0.2999999999999833, -0.9888458743617765 
0.3099999999999822, -0.9883819329119243 
0.3199999999999811, -0.9881951500903933 
0.32999999999998, -0.9882850109522943 
0.3399999999999789, -0.988613027576396 
0.3499999999999778, -0.9891112118210504 
0.35999999999997667, -0.9896965267876388 
0.36999999999997557, -0.9902874381745856 
0.37999999999997447, -0.9908167914178018 
0.38999999999997337, -0.9912378933848404 
0.39999999999997227, -0.9915242533663008 
0.40999999999997117, -0.991664399663633 
0.41999999999997006, -0.9916536361663688 
0.42999999999996896, -0.9914866617019309 
0.43999999999996786, -0.9911558920185278 
0.44999999999996676, -0.9906569195763717 
0.45999999999996566, -0.9899973543565261 
0.46999999999996456, -0.9892039174250578 
0.47999999999996346, -0.988325708132944 
0.48999999999996235, -0.9874337449958039 
0.49999999999996125, -0.9866153642269211 
0.5099999999999602, -0.9859610503098242 
0.519999999999959, -0.9855454953958127 
0.529999999999958, -0.9854106432141954 
0.5399999999999568, -0.9855579137280017 
0.5499999999999557, -0.9859503623985028 
0.5599999999999546, -0.9865219575991897 
0.5699999999999535, -0.9871916958745641 
0.5799999999999524, -0.9878793826435984 
0.5899999999999513, -0.9885182522473677 
0.5999999999999502, -0.9890611406977603 
0.6099999999999491, -0.9894800363088325 
0.619999999999948, -0.9897604005902887 
0.6299999999999469, -0.9898927442635899 
0.6399999999999458, -0.9898659191396371 
0.6499999999999447, -0.9896668314662611 
0.6599999999999436, -0.9892872324396913 
0.6699999999999425, -0.9887329889924595 
0.6799999999999414, -0.9880305756768619 
0.6899999999999403, -0.9872295101772502 
0.6999999999999392, -0.9864018578471822 
0.7099999999999381, -0.9856375794761247 
0.719999999999937, -0.9850321583489796 
0.7299999999999359, -0.9846667835884377 
0.7399999999999348, -0.984589053052668 
0.7499999999999337, -0.9848036482618074 
0.7599999999999326, -0.9852750897126746 
0.7699999999999315, -0.9859383711607472 
0.7799999999999304, -0.9867134187929463 
0.7899999999999293, -0.987520378939263 
0.7999999999999282, -0.988291930890181 
0.8099999999999271, -0.9889794506930327 
0.819999999999926, -0.9895523511218414 
0.8299999999999249, -0.9899919674671411 
0.8399999999999238, -0.9902830681836333 
0.8499999999999227, -0.9904079725243357 
0.8599999999999216, -0.9903478202925763 
0.8699999999999205, -0.9900907809419562 
0.8799999999999194, -0.9896416565198616 
0.8899999999999183, -0.9890275074105521 
0.8999999999999172, -0.9882989891206921 
0.9099999999999161, -0.9875297231391018 
0.919999999999915, -0.9868127648349454 
0.9299999999999139, -0.986249410840881 
0.9399999999999128, -0.9859287308047504 
0.9499999999999117, -0.9859055114485106 
0.9599999999999106, -0.9861884618236292 
0.9699999999999095, -0.9867430116946503 
0.9799999999999084, -0.9875036598010313 
0.9899999999999073, -0.988389596538324 
0.9999999999999062, -0.9893200231670267 
1.0099999999999052, -0.990226182959753 
1.019999999999904, -0.9910573458407441 
1.029999999999903, -0.9917798602450055 
1.039999999999902, -0.9923706638709653 
1.0499999999999008, -0.9928088333017243 
1.0599999999998997, -0.9930705949069694 
1.0699999999998986, -0.9931321426901549 
1.0799999999998975, -0.9929791490928727 
1.0899999999998964, -0.9926164915623336 
1.0999999999998953, -0.992072819153878 
1.1099999999998942, -0.9914006862457502 
1.119999999999893, -0.9906757104540189 
1.129999999999892, -0.9899940523338675 
1.1399999999998909, -0.9894623957826616 
1.1499999999998898, -0.9891770571330177 
1.1599999999998887, -0.9891994223475666 
1.1699999999998876, -0.9895415972689244 
1.1799999999998865, -0.9901689429697699 
1.1899999999998854, -0.9910141176420894 
1.1999999999998843, -0.9919942646072355 
1.2099999999998832, -0.9930267781935489 
1.219999999999882, -0.994041142922193 
1.229999999999881, -0.9949846106879427 
1.2399999999998799, -0.9958208896933047 
1.2499999999998788, -0.9965233406734416 
1.2599999999998777, -0.9970666434342619 
1.2699999999998766, -0.9974226486876269 
1.2799999999998755, -0.9975644943523554 
1.2899999999998744, -0.9974770392376339 
1.2999999999998733, -0.9971664269197916 
1.3099999999998722, -0.9966636043152638 
1.319999999999871, -0.996023471632631 
1.32999999999987, -0.9953238807984196 
1.3399999999998689, -0.9946637328321088 
1.3499999999998678, -0.9941535191038259 
1.3599999999998666, -0.9938939024527464 
1.3699999999998655, -0.993949483456922 
1.3799999999998644, -0.9943330552322885 
1.3899999999998633, -0.9950083513167989 
1.3999999999998622, -0.9959054903723998 
1.4099999999998611, -0.9969393747232832 
1.41999999999986, -0.9980258320689996 
1.429999999999859, -0.9990932708135605 
1.4399999999998578, -1.0000879979285826 
1.4499999999998567, -1.0009725391766549 
1.4599999999998556, -1.001718612078163 
1.4699999999998545, -1.0022989559826014 
1.4799999999998534, -1.0026838286234314 
1.4899999999998523, -1.0028459195993074 
1.4999999999998512, -1.002771116595024 
1.5099999999998501, -1.002467651070681 
1.519999999999849, -1.001968872931141 
1.529999999999848, -1.0013319711998991 
1.5399999999998468, -1.000636975828091 
1.5499999999998457, -0.9999848205962139 
1.5599999999998446, -0.9994873211361164 
1.5699999999998435, -0.9992448424692212 
1.5799999999998424, -0.999319708574466 
1.5899999999998413, -0.9997212361990305 
1.5999999999998402, -1.0004097857500556 
1.6099999999998391, -1.0013130586242434 
1.619999999999838, -1.0023446919050292 
1.629999999999837, -1.0034202607560225 
1.6399999999998358, -1.0044686546929624 
1.6499999999998347, -1.0054370428308836 
1.6599999999998336, -1.0062888908612972 
1.6699999999998325, -1.0069968291603335 
1.6799999999998314, -1.0075346520509183 
1.6899999999998303, -1.007874149822492 
1.6999999999998292, -1.007990190166768 
1.709999999999828, -1.0078712058799026 
1.719999999999827, -1.007527820453323 
1.729999999999826, -1.0069954086980206 
1.7399999999998248, -1.00633305760399 
1.7499999999998237, -1.0056226498241165 
1.7599999999998226, -1.0049660341411888 
1.7699999999998215, -1.0044732295878682 
1.7799999999998204, -1.0042390607526108 
1.7899999999998193, -1.0043179887478075 
1.7999999999998182, -1.004712229326901 
1.809999999999817, -1.0053778252290682 
1.819999999999816, -1.0062408251492276 
1.8299999999998149, -1.007214953004167 
1.8399999999998138, -1.008217042038765 
1.8499999999998127, -1.0091781031021883 
1.8599999999998116, -1.010047962144597 
1.8699999999998105, -1.0107930430326129 
1.8799999999998094, -1.0113892284390327 
1.8899999999998083, -1.0118139856760253 
1.8999999999998072, -1.0120432017514074 
1.909999999999806, -1.0120558836753473 
1.919999999999805, -1.01184395036529 
1.9299999999998039, -1.0114204189751295 
1.9399999999998028, -1.0108222839800016 
1.9499999999998017, -1.0101101733943367 
1.9599999999998006, -1.00936731882526 
1.9699999999997995, -1.008694957607452 
1.9799999999997984, -1.0081980789546177 
1.9899999999997973, -1.007961717190227 
1.9999999999997962, -1.008029081097471 
2.0099999999998173, -1.008393962809277 
2.0199999999998384, -1.0090083153329898 
2.0299999999998595, -1.0097971918080861 
2.0399999999998806, -1.010675053173427 
2.0499999999999017, -1.0115607613375883 
2.059999999999923, -1.0123884181167473 
2.069999999999944, -1.0131116254319665 
2.079999999999965, -1.0137010408787905 
2.089999999999986, -1.0141372769404735 
2.100000000000007, -1.014403076559256 
2.1100000000000283, -1.0144798887604458 
2.1200000000000494, -1.0143518682222843 
2.1300000000000705, -1.014014836942859 
2.1400000000000916, -1.0134842124447974 
2.1500000000001127, -1.0127985192014528 
2.160000000000134, -1.012019790952213 
2.170000000000155, -1.0112319956157205 
2.180000000000176, -1.0105341301441537 
2.190000000000197, -1.0100237649310575 
2.2000000000002182, -1.0097743275741444 
2.2100000000002393, -1.0098175920075443 
2.2200000000002604, -1.0101397897754647 
2.2300000000002815, -1.0106893039640095 
2.2400000000003026, -1.0113899433047886 
2.2500000000003237, -1.0121564930979972 
2.260000000000345, -1.0129097621866079 
2.270000000000366, -1.0135871485646235 
2.280000000000387, -1.0141463439860314 
2.290000000000408, -1.0145626309305058 
2.3000000000004293, -1.0148218345254088 
2.3100000000004504, -1.0149124657787782 
2.3200000000004715, -1.014821890455495 
2.3300000000004926, -1.0145395570565394 
2.3400000000005137, -1.0140652218483794 
2.3500000000005348, -1.013416791306743 
2.360000000000556, -1.0126344927758768 
2.370000000000577, -1.0117817483604743 
2.380000000000598, -1.0109426533587444 
2.390000000000619, -1.0102128339688417 
2.4000000000006403, -1.009681774634381 
2.4100000000006614, -1.0094121808619807 
2.4200000000006825, -1.0094264338366894 
2.4300000000007036, -1.0097046648343897 
2.4400000000007247, -1.0101915766951683 
2.450000000000746, -1.0108087475596546 
2.460000000000767, -1.0114704937153804 
2.470000000000788, -1.0120992208682615 
2.480000000000809, -1.0126354211756765 
2.49000000000083, -1.0130406321200927 
2.5000000000008513, -1.0132944847426508 
2.5100000000008724, -1.0133877121353128 
2.5200000000008935, -1.0133141917100255 
2.5300000000009146, -1.0130666793506857 
2.5400000000009357, -1.0126393856626235 
2.550000000000957, -1.0120356792484446 
2.560000000000978, -1.0112759484362166 
2.570000000000999, -1.010402258955283 
2.58000000000102, -1.0094793430276647 
2.5900000000010412, -1.0085910087013468 
2.6000000000010624, -1.0078293302542645 
2.6100000000010835, -1.0072767594056315 
2.6200000000011046, -1.0069877225709398 
2.6300000000011257, -1.0069776586922714 
2.6400000000011468, -1.0072215629472452 
2.650000000001168, -1.0076600313575432 
2.660000000001189, -1.0082117514394429 
2.67000000000121, -1.0087902896573133 
2.680000000001231, -1.0093195120215925 
2.6900000000012523, -1.0097426927603845 
2.7000000000012734, -1.010024695656194 
2.7100000000012945, -1.010148828151992 
2.7200000000013156, -1.0101098729906353 
2.7300000000013367, -1.0099059850038594 
2.740000000001358, -1.0095340837633553 
2.750000000001379, -1.0089920317918146 
2.7600000000014, -1.0082860731008745 
2.770000000001421, -1.007438751518214 
2.780000000001442, -1.0064938203401121 
2.7900000000014633, -1.0055171034570662 
2.8000000000014844, -1.004592007304751 
2.8100000000015055, -1.0038077193342154 
2.8200000000015266, -1.003241585700094 
2.8300000000015477, -1.0029423365800534 
2.840000000001569, -1.00292040205824 
2.85000000000159, -1.0031464214028722 
2.860000000001611, -1.0035571895627444 
2.870000000001632, -1.0040689747854032 
2.8800000000016532, -1.0045950741613772 
2.8900000000016743, -1.0050609104163155 
2.9000000000016954, -1.0054122029101196 
2.9100000000017165, -1.005616512413175 
2.9200000000017377, -1.0056599129937036 
2.9300000000017588, -1.0055399456217686 
2.94000000000178, -1.0052573736053971 
2.950000000001801, -1.0048114582242298 
2.960000000001822, -1.004202091371226 
2.970000000001843, -1.003437229154902 
2.9800000000018643, -1.002540856697557 
2.9900000000018854, -1.0015579354886996 
3.0000000000019065, -1.0005550488391397 
3.0100000000019276, -0.9996153340810332 
3.0200000000019487, -0.9988261830354181 
3.03000000000197, -0.9982618569535715 
3.040000000001991, -0.9979675575070756 
3.050000000002012, -0.9979503504613968 
3.060000000002033, -0.9981778478252952 
3.070000000002054, -0.9985845324299906 
3.0800000000020753, -0.9990857249876506 
3.0900000000020964, -0.9995953355491254 
3.1000000000021175, -1.0000404557234566 
3.1100000000021386, -1.0003688489536529 
3.1200000000021597, -1.0005500541750671 
3.130000000002181, -1.0005717902049471 
3.140000000002202, -1.0004326899241462 
3.150000000002223, -1.000133998077859 
3.160000000002244, -0.9996750728301288 
3.1700000000022652, -0.9990558843744355 
3.1800000000022863, -0.9982846818537991 
3.1900000000023074, -0.9973859559929543 
3.2000000000023285, -0.996405239978668 
3.2100000000023496, -0.995409553338163 
3.2200000000023707, -0.994482103997537 
3.230000000002392, -0.9937097971931259 
3.240000000002413, -0.9931658075545334 
3.250000000002434, -0.9928938056246357 
3.260000000002455, -0.9928992421298665 
3.2700000000024763, -0.9931485682993422 
3.2800000000024974, -0.9935760414729782 
3.2900000000025185, -0.9940977604491747 
3.3000000000025396, -0.9946290500129298 
3.3100000000025607, -0.9950986048111897 
3.3200000000025818, -0.9954556762737674 
3.330000000002603, -0.9956708937562302 
3.340000000002624, -0.9957322701820368 
3.350000000002645, -0.9956376089470653 
3.360000000002666, -0.9953863095316778 
3.3700000000026873, -0.9949754960611928 
3.3800000000027084, -0.9944032926453789 
3.3900000000027295, -0.9936769161030888 
3.4000000000027506, -0.9928205426571584 
3.4100000000027717, -0.9918797762229078 
3.420000000002793, -0.9909219389022302 
3.430000000002814, -0.9900309052167977 
3.440000000002835, -0.989294683788953 
3.450000000002856, -0.988787614723494 
3.460000000002877, -0.9885540348851738 
3.4700000000028983, -0.9885996063542815 
3.4800000000029194, -0.9888913123610268 
3.4900000000029405, -0.9893648251454381 
3.5000000000029616, -0.9899382075687528 
3.5100000000029827, -0.9905285716168917 
3.520000000003004, -0.991065866762125 
3.530000000003025, -0.9915000539209874 
3.540000000003046, -0.9918017503095126 
3.550000000003067, -0.991957753170278 
3.5600000000030882, -0.991963099907918 
3.5700000000031094, -0.991813189201004 
3.5800000000031305, -0.9915009126385573 
3.5900000000031516, -0.9910210576906422 
3.6000000000031727, -0.9903789531353789 
3.6100000000031938, -0.9895980894702088 
3.620000000003215, -0.9887240266714551 
3.630000000003236, -0.9878245499584777 
3.640000000003257, -0.9869850062342632 
3.650000000003278, -0.9862963155297916 
3.6600000000032993, -0.9858365651735547 
3.6700000000033204, -0.9856532728674348 
3.6800000000033415, -0.9857540451256067 
3.6900000000033626, -0.986107322375763 
3.7000000000033837, -0.9866506433031331 
3.710000000003405, -0.9873041543408944 
3.720000000003426, -0.9879864820538616 
3.730000000003447, -0.9886281679398283 
3.740000000003468, -0.9891789204032364 
3.750000000003489, -0.9896081332136063 
3.7600000000035103, -0.9898999293002527 
3.7700000000035314, -0.9900449393874273 
3.7800000000035525, -0.9900329360958576 
3.7900000000035736, -0.989851259961273 
3.8000000000035947, -0.989490602999077 
3.810000000003616, -0.9889542531406839 
3.820000000003637, -0.9882652588692601 
3.830000000003658, -0.9874694932242253 
3.840000000003679, -0.9866356133579405 
3.8500000000037002, -0.9858512099676924 
3.8600000000037213, -0.9852117078024337 
3.8700000000037424, -0.9848013845129427 
3.8800000000037635, -0.9846734634472663 
3.8900000000037847, -0.9848390441040997 
3.9000000000038058, -0.9852681886134953 
3.910000000003827, -0.9858995389342564 
3.920000000003848, -0.9866543057197574 
3.930000000003869, -0.9874516702245826 
3.94000000000389, -0.9882218443133588 
3.9500000000039113, -0.9889133071569409 
3.9600000000039324, -0.9894931693852165 
3.9700000000039535, -0.9899417847401649 
3.9800000000039746, -0.9902443531731775 
3.9900000000039957, -0.9903842194889763 
4.000000000004016, -0.9903427692385292 
4.010000000003993, -0.9901067114507592 
4.02000000000397, -0.9896778650922053 
4.030000000003946, -0.9890796237376138 
4.040000000003923, -0.9883588955037883 
4.0500000000039, -0.9875857386279506 
4.0600000000038765, -0.9868504659744319 
4.070000000003853, -0.986253811692027 
4.08000000000383, -0.985887643800659 
4.090000000003807, -0.9858125440674561 
4.100000000003783, -0.9860440987385808 
4.11000000000376, -0.9865536723516142 
4.120000000003737, -0.9872796228204669 
4.130000000003713, -0.9881425717913291 
4.14000000000369, -0.9890609207560029 
4.150000000003667, -0.9899636159276474 
4.1600000000036434, -0.9907972079461305 
4.17000000000362, -0.9915259655314479 
4.180000000003597, -0.9921260991591094 
4.1900000000035735, -0.9925772931594248 
4.20000000000355, -0.9928567509212118 
4.210000000003527, -0.9929405798036296 
4.220000000003504, -0.9928124919581313 
4.23000000000348, -0.9924739445179963 
4.240000000003457, -0.9919496966643399 
4.250000000003434, -0.9912884933878792 
4.26000000000341, -0.9905622939970261 
4.270000000003387, -0.989864242644191 
4.280000000003364, -0.9893001006009323 
4.2900000000033405, -0.98896886241515 
4.300000000003317, -0.9889380556728025 
4.310000000003294, -0.9892272919130148 
4.320000000003271, -0.9898083833288199 
4.330000000003247, -0.9906180853919138 
4.340000000003224, -0.991575043855857 
4.350000000003201, -0.9925958900702143 
4.360000000003177, -0.9936078536082669 
4.370000000003154, -0.9945555271440402 
4.380000000003131, -0.9954006326202472 
4.390000000003107, -0.9961158997757551 
4.400000000003084, -0.9966766141995727 
4.410000000003061, -0.997055392822207 
4.4200000000030375, -0.9972248582307583 
4.430000000003014, -0.997167410805557 
4.440000000002991, -0.9968854138084344 
4.450000000002968, -0.9964057888322314 
4.460000000002944, -0.9957796224565616 
4.470000000002921, -0.9950810773229486 
4.480000000002898, -0.9944059223878391 
4.490000000002874, -0.9938636606803944 
4.500000000002851, -0.9935578548596136 
4.510000000002828, -0.9935598188620313 
4.520000000002804, -0.9938905136320836 
4.530000000002781, -0.9945205448165193 
4.540000000002758, -0.9953842255221487 
4.5500000000027345, -0.9963978732820806 
4.560000000002711, -0.9974764241218734 
4.570000000002688, -0.9985459198122998 
4.580000000002665, -0.9995499277310692 
4.590000000002641, -1.0004489319781376 
4.600000000002618, -1.0012139441067078 
4.610000000002595, -1.0018181357158755 
4.620000000002571, -1.0022322059196918 
4.630000000002548, -1.0024279051545213 
4.640000000002525, -1.0023882947079847 
4.6500000000025015, -1.0021176432491237 
4.660000000002478, -1.0016452616753146 
4.670000000002455, -1.0010245600034346 
4.6800000000024315, -1.0003318940647226 
4.690000000002408, -0.9996651500036824 
4.700000000002385, -0.9991354927505991 
4.710000000002362, -0.9988468335261784 
4.720000000002338, -0.998868932031064 
4.730000000002315, -0.9992197299401331 
4.740000000002292, -0.999866532198396 
4.750000000002268, -1.0007410579467144 
4.760000000002245, -1.0017581039198251 
4.770000000002222, -1.0028321036749626 
4.7800000000021985, -1.0038893644109976 
4.790000000002175, -1.004874138533988 
4.800000000002152, -1.0057476880788987 
4.810000000002129, -1.006481742198463 
4.820000000002105, -1.0070502549215208 
4.830000000002082, -1.0074251204565816 
4.840000000002059, -1.0075799633659641 
4.850000000002035, -1.007500239902377 
4.860000000002012, -1.0071926303771472 
4.870000000001989, -1.006688546614213 
4.880000000001965, -1.006043327718186 
4.890000000001942, -1.0053352402760147 
4.900000000001919, -1.004663412546928 
4.9100000000018955, -1.0041379711140601 
4.920000000001872, -1.0038582393487114 
4.930000000001849, -1.0038867220086178 
