t, s[1].omega / s[0].omega 
0, -1.2099974256299137 
0.009999999999999995, -1.2095869421243932 
0.019999999999999934, -1.2088753975173243 
0.029999999999999874, -1.2078719057170593 
0.04000000000000012, -1.2066005391155932 
0.050000000000000405, -1.2051084239612235 
0.06000000000000069, -1.2034698394665904 
0.07000000000000098, -1.2017846722279066 
0.08000000000000126, -1.200175700719832 
0.09000000000000155, -1.1987872255483094 
0.10000000000000184, -1.1977638260705705 
0.11000000000000212, -1.1971840654469106 
0.12000000000000241, -1.1969909646765773 
0.130000000000002, -1.1970038986738873 
0.1400000000000009, -1.1970029641262983 
0.1499999999999998, -1.196790669391333 
0.1599999999999987, -1.196189421544561 
0.1699999999999976, -1.1950094232141586 
0.1799999999999965, -1.193032293265046 
0.1899999999999954, -1.1900341830657462 
0.1999999999999943, -1.1858416014713589 
0.2099999999999932, -1.1803812771767013 
0.2199999999999921, -1.1736880198525126 
0.229999999999991, -1.1658848547296528 
0.2399999999999899, -1.1571915979455922 
0.2499999999999888, -1.148003457254291 
0.2599999999999877, -1.13901000427249 
0.2699999999999866, -1.1311995968630593 
0.2799999999999855, -1.1255281666034933 
0.2899999999999844, -1.122339157548139 
0.2999999999999833, -1.1211344562876735 
0.3099999999999822, -1.1210085662814029 
0.3199999999999811, -1.121204791685665 
0.32999999999998, -1.1212889945095217 
0.3399999999999789, -1.121031499696305 
0.3499999999999778, -1.120234784802499 
0.35999999999997667, -1.1185841751280343 
0.36999999999997557, -1.1154965861945827 
0.37999999999997447, -1.1099495259899324 
0.38999999999997337, -1.1003713157578647 
0.39999999999997227, -1.0848455420001246 
0.40999999999997117, -1.0619083978460933 
0.41999999999997006, -1.0317128179663446 
0.42999999999996896, -0.9966427645944205 
0.43999999999996786, -0.9607364667952979 
0.44999999999996676, -0.928306403277712 
0.45999999999996566, -0.9025473906617251 
0.46999999999996456, -0.8846981406597813 
0.47999999999996346, -0.8740533583685437 
0.48999999999996235, -0.8687278750550105 
0.49999999999996125, -0.8666417046969214 
0.5099999999999602, -0.8661728572690752 
0.519999999999959, -0.8663196386049016 
0.529999999999958, -0.8665616795452115 
0.5399999999999568, -0.8666537882538646 
0.5499999999999557, -0.8664667333111693 
0.5599999999999546, -0.8658893745777834 
0.5699999999999535, -0.8647740140594884 
0.5799999999999524, -0.8629152472491514 
0.5899999999999513, -0.8600741639535621 
0.5999999999999502, -0.8560669541852232 
0.6099999999999491, -0.8508941076404678 
0.619999999999948, -0.8448099186233688 
0.6299999999999469, -0.8382448367630808 
0.6399999999999458, -0.831636979753207 
0.6499999999999447, -0.8253113098146706 
0.6599999999999436, -0.8194623242608914 
0.6699999999999425, -0.8141974002530713 
0.6799999999999414, -0.8095846478587116 
0.6899999999999403, -0.8056789456693128 
0.6999999999999392, -0.80252350013205 
0.7099999999999381, -0.8001346736608517 
0.719999999999937, -0.7984824658982463 
0.7299999999999359, -0.7974804938663247 
0.7399999999999348, -0.7969944723490562 
0.7499999999999337, -0.7968667588032182 
0.7599999999999326, -0.7969445150204119 
0.7699999999999315, -0.7970991380392911 
0.7799999999999304, -0.7972333971573785 
0.7899999999999293, -0.797281151993821 
0.7999999999999282, -0.797206336003114 
0.8099999999999271, -0.7970032626313748 
0.819999999999926, -0.7966938858665576 
0.8299999999999249, -0.7963162895136875 
0.8399999999999238, -0.7959055949243228 
0.8499999999999227, -0.7954769281566044 
0.8599999999999216, -0.7950205256328408 
0.8699999999999205, -0.7945113215652109 
0.8799999999999194, -0.7939265595352387 
0.8899999999999183, -0.7932615930739049 
0.8999999999999172, -0.792538212058963 
0.9099999999999161, -0.7918067311129451 
0.919999999999915, -0.7911454088215661 
0.9299999999999139, -0.7906575470591506 
0.9399999999999128, -0.7904630510247718 
0.9499999999999117, -0.7906821443697198 
0.9599999999999106, -0.7914145017011613 
0.9699999999999095, -0.7927223720184862 
0.9799999999999084, -0.7946256073051129 
0.9899999999999073, -0.7971098328432327 
0.9999999999999062, -0.8001420033208039 
1.0099999999999052, -0.8036846714747723 
1.019999999999904, -0.8077006862508753 
1.029999999999903, -0.8121414500507649 
1.039999999999902, -0.816915372283504 
1.0499999999999008, -0.8218442520962617 
1.0599999999998997, -0.8266378464568298 
1.0699999999998986, -0.8309338913971998 
1.0799999999998975, -0.8344164836013176 
1.0899999999998964, -0.8369381603738224 
1.0999999999998953, -0.8385445036506225 
1.1099999999998942, -0.8393973485220376 
1.119999999999893, -0.8396791754091097 
1.129999999999892, -0.839540039923196 
1.1399999999998909, -0.8390929590631521 
1.1499999999998898, -0.8384451675194498 
1.1599999999998887, -0.8377645642623932 
1.1699999999998876, -0.8373959088994745 
1.1799999999998865, -0.838037762296144 
1.1899999999998854, -0.8409432427408647 
1.1999999999998843, -0.8480051412132639 
1.2099999999998832, -0.86149715097553 
1.219999999999882, -0.8833234248550612 
1.229999999999881, -0.9139467012131813 
1.2399999999998799, -0.951526364376452 
1.2499999999998788, -0.991897963429454 
1.2599999999998777, -1.0297352013527612 
1.2699999999998766, -1.0605723947992305 
1.2799999999998755, -1.082516090495506 
1.2899999999998744, -1.096375671158071 
1.2999999999998733, -1.1043433290587905 
1.3099999999998722, -1.1085974123421078 
1.319999999999871, -1.110686909903284 
1.32999999999987, -1.111533751677443 
1.3399999999998689, -1.1116341225867619 
1.3499999999998678, -1.1112488838812609 
1.3599999999998666, -1.110557733144242 
1.3699999999998655, -1.1098225677044204 
1.3799999999998644, -1.1095875743540171 
1.3899999999998633, -1.1108014461128322 
1.3999999999998622, -1.1145562698152465 
1.4099999999998611, -1.1213762632218705 
1.41999999999986, -1.1307338993065044 
1.429999999999859, -1.1413991668792574 
1.4399999999998578, -1.1521525736268787 
1.4499999999998567, -1.1621531488160581 
1.4599999999998556, -1.1709130274923802 
1.4699999999998545, -1.1781624021970516 
1.4799999999998534, -1.1837792806683778 
1.4899999999998523, -1.1877926096572051 
1.4999999999998512, -1.1903852944220672 
1.5099999999998501, -1.1918420803123886 
1.519999999999849, -1.1924640719876634 
1.529999999999848, -1.1925084082729303 
1.5399999999998468, -1.1921814507042492 
1.5499999999998457, -1.19167429277916 
1.5599999999998446, -1.1912066647338986 
1.5699999999998435, -1.191026680412964 
1.5799999999998424, -1.191330181400701 
1.5899999999998413, -1.1921588830851548 
1.5999999999998402, -1.1933944888888723 
1.6099999999998391, -1.1948507471396368 
1.619999999999838, -1.196356539092465 
1.629999999999837, -1.1977807903098827 
1.6399999999998358, -1.1990289003899872 
1.6499999999998347, -1.2000377556016126 
1.6599999999998336, -1.2007707803499068 
1.6699999999998325, -1.2012098390008987 
1.6799999999998314, -1.2013460928911566 
1.6899999999998303, -1.2011746090678115 
1.6999999999998292, -1.2006958666140526 
1.709999999999828, -1.1999227819181366 
1.719999999999827, -1.1988888511605595 
1.729999999999826, -1.197653785203046 
1.7399999999998248, -1.1963037235309244 
1.7499999999998237, -1.1949434521544728 
1.7599999999998226, -1.1936847498855223 
1.7699999999998215, -1.192639309138676 
1.7799999999998204, -1.1919061604901406 
1.7899999999998193, -1.1915309176812061 
1.7999999999998182, -1.191458042230194 
1.809999999999817, -1.1915362499782707 
1.819999999999816, -1.1915786695385528 
1.8299999999998149, -1.1914124254025729 
1.8399999999998138, -1.1908836007147499 
1.8499999999998127, -1.1898416430802887 
1.8599999999998116, -1.1881374635467266 
1.8699999999998105, -1.1856467724829822 
1.8799999999998094, -1.1823019632661365 
1.8899999999998083, -1.1781040064423478 
1.8999999999998072, -1.1731067787343443 
1.909999999999806, -1.167399055919995 
1.919999999999805, -1.1611174592362585 
1.9299999999998039, -1.1545057680378268 
1.9399999999998028, -1.148000966723331 
1.9499999999998017, -1.1422572085333162 
1.9599999999998006, -1.1379592526732492 
1.9699999999997995, -1.1354306311255318 
1.9799999999997984, -1.1344020117948483 
1.9899999999997973, -1.1342393568352986 
1.9999999999997962, -1.134348261766845 
2.0099999999998173, -1.1343491366843024 
2.0199999999998384, -1.134013495907029 
2.0299999999998595, -1.133127829842588 
2.0399999999998806, -1.1313625886553216 
2.0499999999999017, -1.1281462815099086 
2.059999999999923, -1.122559440809939 
2.069999999999944, -1.1133488838200036 
2.079999999999965, -1.0992343028693061 
2.089999999999986, -1.079536059371847 
2.100000000000007, -1.0547752902306005 
2.1100000000000283, -1.0267989309034902 
2.1200000000000494, -0.9984017838891477 
2.1300000000000705, -0.9726785290576873 
2.1400000000000916, -0.9521991389992712 
2.1500000000001127, -0.9381803420252852 
2.160000000000134, -0.9301598378602554 
2.170000000000155, -0.9265077538470281 
2.180000000000176, -0.9253736570604479 
2.190000000000197, -0.9253569879958568 
2.2000000000002182, -0.9256468822143503 
2.2100000000002393, -0.9258537665945082 
2.2200000000002604, -0.9257975080903014 
2.2300000000002815, -0.925356798186135 
2.2400000000003026, -0.9243770798279579 
2.2500000000003237, -0.9226128987044804 
2.260000000000345, -0.9197032676960042 
2.270000000000366, -0.9152162400671996 
2.280000000000387, -0.9088094547308432 
2.290000000000408, -0.9004655213811915 
2.3000000000004293, -0.8906124533671029 
2.3100000000004504, -0.8799795826980625 
2.3200000000004715, -0.8693128909725172 
2.3300000000004926, -0.8591889853938437 
2.3400000000005137, -0.8499956440048816 
2.3500000000005348, -0.8419911348593001 
2.360000000000556, -0.8353518321584547 
2.370000000000577, -0.8301750898287615 
2.380000000000598, -0.8264504405315132 
2.390000000000619, -0.8240360686500898 
2.4000000000006403, -0.8226745676620071 
2.4100000000006614, -0.8220511750305943 
2.4200000000006825, -0.8218636451083174 
2.4300000000007036, -0.8218680869530344 
2.4400000000007247, -0.8218888227680559 
2.450000000000746, -0.8218043118814162 
2.460000000000767, -0.8215283385799002 
2.470000000000788, -0.8210004727495495 
2.480000000000809, -0.820190456556956 
2.49000000000083, -0.819109798992313 
2.5000000000008513, -0.8178146354009203 
2.5100000000008724, -0.8163881999002838 
2.5200000000008935, -0.8149102815838875 
2.5300000000009146, -0.8134339334914019 
2.5400000000009357, -0.8119819375546428 
2.550000000000957, -0.8105596177539764 
2.560000000000978, -0.8091727859470066 
2.570000000000999, -0.8078414744014288 
2.58000000000102, -0.8066056029074484 
2.5900000000010412, -0.805522772252788 
2.6000000000010624, -0.804659790973506 
2.6100000000010835, -0.8040802206709922 
2.6200000000011046, -0.8038314149501797 
2.6300000000011257, -0.80393508339817 
2.6400000000011468, -0.804384135761673 
2.650000000001168, -0.8051462711230876 
2.660000000001189, -0.8061729254312027 
2.67000000000121, -0.8074110319076115 
2.680000000001231, -0.8088142633979505 
2.6900000000012523, -0.8103500914204362 
2.7000000000012734, -0.8119992554630064 
2.7100000000012945, -0.8137454214445894 
2.7200000000013156, -0.8155561248943792 
2.7300000000013367, -0.8173625644361202 
2.740000000001358, -0.8190530868501528 
2.750000000001379, -0.8204943500264514 
2.7600000000014, -0.8215755608716855 
2.770000000001421, -0.8222467033746025 
2.780000000001442, -0.8225241076530623 
2.7900000000014633, -0.8224682307213467 
2.8000000000014844, -0.822159921353145 
2.8100000000015055, -0.8216950740302276 
2.8200000000015266, -0.8212026835460782 
2.8300000000015477, -0.8208820905237365 
2.840000000001569, -0.8210469769505904 
2.85000000000159, -0.822150319650652 
2.860000000001611, -0.8247551069459119 
2.870000000001632, -0.8294331567813288 
2.8800000000016532, -0.8366237979347038 
2.8900000000016743, -0.8465214905238181 
2.9000000000016954, -0.8590351991638832 
2.9100000000017165, -0.873792025954468 
2.9200000000017377, -0.8901204945507942 
2.9300000000017588, -0.9069974843152668 
2.94000000000178, -0.9230655598266166 
2.950000000001801, -0.9369054031217201 
2.960000000001822, -0.9475549728822031 
2.970000000001843, -0.9548780121658071 
2.9800000000018643, -0.9594269414834077 
2.9900000000018854, -0.9619941174003405 
3.0000000000019065, -0.9632644958142622 
3.0100000000019276, -0.9637035374605105 
3.0200000000019487, -0.963585884640141 
3.03000000000197, -0.9630666711664906 
3.040000000001991, -0.9622669583489751 
3.050000000002012, -0.9613971034957963 
3.060000000002033, -0.9609621393476507 
3.070000000002054, -0.9620447978243675 
3.0800000000020753, -0.9664752944034032 
3.0900000000020964, -0.9764695781757359 
3.1000000000021175, -0.993534708282386 
3.1100000000021386, -1.0173072194448853 
3.1200000000021597, -1.0453993739192673 
3.130000000002181, -1.0743697921742448 
3.140000000002202, -1.100934038289062 
3.150000000002223, -1.1227719789492108 
3.160000000002244, -1.1389027532706 
3.1700000000022652, -1.1496490032341444 
3.1800000000022863, -1.1561637058095682 
3.1900000000023074, -1.1597822173183847 
3.2000000000023285, -1.1615875013563168 
3.2100000000023496, -1.1622970084164144 
3.2200000000023707, -1.1623356908332831 
3.230000000002392, -1.1619601500020296 
3.240000000002413, -1.1613877546204008 
3.250000000002434, -1.160926577058151 
3.260000000002455, -1.1610560690142182 
3.2700000000024763, -1.1623230253097372 
3.2800000000024974, -1.1650186189524734 
3.2900000000025185, -1.16894394690464 
3.3000000000025396, -1.173559572558165 
3.3100000000025607, -1.1783190593687585 
3.3200000000025818, -1.1828509742539686 
3.330000000002603, -1.1869531149492603 
3.340000000002624, -1.1905221397786963 
3.350000000002645, -1.193496937942701 
3.360000000002666, -1.19583447330495 
3.3700000000026873, -1.1975139405943653 
3.3800000000027084, -1.1985533341176853 
3.3900000000027295, -1.1990167826444202 
3.4000000000027506, -1.1990035715122676 
3.4100000000027717, -1.1986314246207268 
3.420000000002793, -1.198031325834257 
3.430000000002814, -1.1973531355317415 
3.440000000002835, -1.1967592116987824 
3.450000000002856, -1.1963869674312102 
3.460000000002877, -1.1963035493406837 
3.4700000000028983, -1.1964991932207494 
3.4800000000029194, -1.1969165516961635 
3.4900000000029405, -1.197472263613577 
3.5000000000029616, -1.1980618899961852 
3.5100000000029827, -1.198571253764166 
3.520000000003004, -1.1988965972545826 
3.530000000003025, -1.1989583420509238 
3.540000000003046, -1.1987045046069846 
3.550000000003067, -1.1981091099190213 
3.5600000000030882, -1.1971673829595963 
3.5700000000031094, -1.195887573610558 
3.5800000000031305, -1.1942835533740834 
3.5900000000031516, -1.192374070584829 
3.6000000000031727, -1.1901899886578202 
3.6100000000031938, -1.1877860188032163 
3.620000000003215, -1.1852541266392616 
3.630000000003236, -1.1827395422486382 
3.640000000003257, -1.1804524623339616 
3.650000000003278, -1.1786393005840083 
3.6600000000032993, -1.1774760148351862 
3.6700000000033204, -1.1769430932527527 
3.6800000000033415, -1.1768219342355093 
3.6900000000033626, -1.1768222999647333 
3.7000000000033837, -1.1766928507249579 
3.710000000003405, -1.1762298741270878 
3.720000000003426, -1.1752228056818554 
3.730000000003447, -1.1733971634164313 
3.740000000003468, -1.1703945505996427 
3.750000000003489, -1.1658184917673924 
3.7600000000035103, -1.1593463994946318 
3.7700000000035314, -1.1508473618042538 
3.7800000000035525, -1.1404285686606515 
3.7900000000035736, -1.1284194512349766 
3.8000000000035947, -1.1153872151141935 
3.810000000003616, -1.1022300675070293 
3.820000000003637, -1.0902254146477628 
3.830000000003658, -1.0807614447061458 
3.840000000003679, -1.0746729693235417 
3.8500000000037002, -1.0717189674245724 
3.8600000000037213, -1.070841091530516 
3.8700000000037424, -1.0709086670049195 
3.8800000000037635, -1.0711744451734926 
3.8900000000037847, -1.0712646496117615 
3.9000000000038058, -1.0709887333441475 
3.910000000003827, -1.0701673974136328 
3.920000000003848, -1.068500413018492 
3.930000000003869, -1.0654377492822549 
3.94000000000389, -1.0600477496107694 
3.9500000000039113, -1.0509760085161708 
3.9600000000039324, -1.0367214372434523 
3.9700000000039535, -1.016385216140484 
3.9800000000039746, -0.9905220356838802 
3.9900000000039957, -0.9613049606141881 
4.000000000004016, -0.9317994850719549 
4.010000000003993, -0.9049769612000367 
4.02000000000397, -0.8830061448520452 
4.030000000003946, -0.8668934726667237 
4.040000000003923, -0.8564452747329014 
4.0500000000039, -0.850570138161246 
4.0600000000038765, -0.8478107321034525 
4.070000000003853, -0.8468383449087653 
4.08000000000383, -0.8467026150681413 
4.090000000003807, -0.8468355720212477 
4.100000000003783, -0.8469356669839406 
4.11000000000376, -0.8468418940733831 
4.120000000003737, -0.8464423682711498 
4.130000000003713, -0.8456204792898225 
4.14000000000369, -0.8442344971257416 
4.150000000003667, -0.8421350318237188 
4.1600000000036434, -0.8392248079567949 
4.17000000000362, -0.8355356377295637 
4.180000000003597, -0.8312579058973124 
4.1900000000035735, -0.826679646007686 
4.20000000000355, -0.8220796238327983 
4.210000000003527, -0.8176568391910394 
4.220000000003504, -0.8135250165766779 
4.23000000000348, -0.8097440893678554 
4.240000000003457, -0.8063540579395315 
4.250000000003434, -0.8033946425330818 
4.26000000000341, -0.8009087335870708 
4.270000000003387, -0.7989337165969578 
4.280000000003364, -0.7974865907101648 
4.2900000000033405, -0.796549867953311 
4.300000000003317, -0.7960655058892645 
4.310000000003294, -0.7959412319348848 
4.320000000003271, -0.796067207237778 
4.330000000003247, -0.7963354455315625 
4.340000000003224, -0.7966546107884211 
4.350000000003201, -0.7969578874704923 
4.360000000003177, -0.7972059867233151 
4.370000000003154, -0.7973871241252009 
4.380000000003131, -0.7975124418441284 
4.390000000003107, -0.7976041737993457 
4.400000000003084, -0.7976782308419239 
4.410000000003061, -0.7977291607895456 
4.4200000000030375, -0.7977267514236018 
4.430000000003014, -0.7976275688274849 
4.440000000002991, -0.797395096988722 
4.450000000002968, -0.797016694904645 
4.460000000002944, -0.796510414971044 
4.470000000002921, -0.7959247709937697 
4.480000000002898, -0.7953386523297262 
4.490000000002874, -0.7948640327359878 
4.500000000002851, -0.7946469297724562 
4.510000000002828, -0.7948585624178948 
4.520000000002804, -0.7956724081990288 
4.530000000002781, -0.7972330036940456 
4.540000000002758, -0.7996310562679483 
4.5500000000027345, -0.802897384238082 
4.560000000002711, -0.8070158572107562 
4.570000000002688, -0.8119433431253105 
4.580000000002665, -0.8176203599009867 
4.590000000002641, -0.8239585748513327 
4.600000000002618, -0.8307986924273678 
4.610000000002595, -0.8378507092519947 
4.620000000002571, -0.8446643563947951 
4.630000000002548, -0.8507026551674814 
4.640000000002525, -0.8555298939945466 
4.6500000000025015, -0.8589846377780802 
4.660000000002478, -0.8611874074316648 
4.670000000002455, -0.8624043430361965 
4.6800000000024315, -0.8629051374202448 
4.690000000002408, -0.8628944093249771 
4.700000000002385, -0.8625083512935445 
4.710000000002362, -0.8618491673270853 
4.720000000002338, -0.861052052179512 
4.730000000002315, -0.8604057140810137 
4.740000000002292, -0.8605571084126927 
4.750000000002268, -0.8627916124534007 
4.760000000002245, -0.869248176690015 
4.770000000002222, -0.8827419649339328 
4.7800000000021985, -0.9058561237317742 
4.790000000002175, -0.939405037254032 
4.800000000002152, -0.9811168944782072 
4.810000000002129, -1.025704458101021 
4.820000000002105, -1.066747072892007 
4.830000000002082, -1.099389919938925 
4.840000000002059, -1.1220493139564531 
4.850000000002035, -1.1360546508940577 
4.860000000002012, -1.1439645406191774 
4.870000000001989, -1.1481226984643558 
4.880000000001965, -1.150128595739891 
4.890000000001942, -1.150911582651692 
4.900000000001919, -1.1509662336331983 
4.9100000000018955, -1.150557994365244 
4.920000000001872, -1.149889228400466 
4.930000000001849, -1.1492703719179436 
