t, s[1].omega / s[0].omega 
0, -1.049998407315372 
0.009999999999999995, -1.049740897743085 
0.019999999999999934, -1.0492994350353317 
0.029999999999999874, -1.048784554124949 
0.04000000000000012, -1.0484160323849432 
0.050000000000000405, -1.0483254957035226 
0.06000000000000069, -1.0483905157181805 
0.07000000000000098, -1.048351384074613 
0.08000000000000126, -1.0480709437852709 
0.09000000000000155, -1.0475672379913739 
0.10000000000000184, -1.0468983187658445 
0.11000000000000212, -1.0461744967386977 
0.12000000000000241, -1.04561835450566 
0.130000000000002, -1.0454090365215565 
0.1400000000000009, -1.0453947007947544 
0.1499999999999998, -1.045244005448917 
0.1599999999999987, -1.0447618157183538 
0.1699999999999976, -1.0439625533444317 
0.1799999999999965, -1.042970412821747 
0.1899999999999954, -1.0419344554135346 
0.1999999999999943, -1.0411341608207756 
0.2099999999999932, -1.0408208666136818 
0.2199999999999921, -1.0407640266426779 
0.229999999999991, -1.04053968720177 
0.2399999999999899, -1.0398697499682583 
0.2499999999999888, -1.0387128762049 
0.2599999999999877, -1.0372724222929006 
0.2699999999999866, -1.035791456082903 
0.2799999999999855, -1.0346711347220978 
0.2899999999999844, -1.034254052162833 
0.2999999999999833, -1.0341797219607893 
0.3099999999999822, -1.0339181411893454 
0.3199999999999811, -1.033097391524651 
0.32999999999998, -1.0315488294389739 
0.3399999999999789, -1.029541660064062 
0.3499999999999778, -1.0274808646283833 
0.35999999999997667, -1.0259527880048178 
0.36999999999997557, -1.025411459817094 
0.37999999999997447, -1.025333880111366 
0.38999999999997337, -1.0250732286365423 
0.39999999999997227, -1.0241806950556325 
0.40999999999997117, -1.0223058637079454 
0.41999999999997006, -1.0197170611437678 
0.42999999999996896, -1.0170238132275455 
0.43999999999996786, -1.0150203540692717 
0.44999999999996676, -1.0143038819844445 
0.45999999999996566, -1.0142220866618146 
0.46999999999996456, -1.013998200318109 
0.47999999999996346, -1.0131468706493834 
0.48999999999996235, -1.011160902168691 
0.49999999999996125, -1.008202828452011 
0.5099999999999602, -1.0050353932641916 
0.519999999999959, -1.002584525002715 
0.529999999999958, -1.0016137319764622 
0.5399999999999568, -1.0015008639025254 
0.5499999999999557, -1.00133793250497 
0.5599999999999546, -1.000631833194672 
0.5699999999999535, -0.9988320159689534 
0.5799999999999524, -0.9959368682126385 
0.5899999999999513, -0.9927056954072063 
0.5999999999999502, -0.9900225250538527 
0.6099999999999491, -0.9887413072018779 
0.619999999999948, -0.9885331378684483 
0.6299999999999469, -0.9884334256436094 
0.6399999999999458, -0.9879246793613387 
0.6499999999999447, -0.986525352361624 
0.6599999999999436, -0.9841115202763956 
0.6699999999999425, -0.9812864208168174 
0.6799999999999414, -0.9787440792495059 
0.6899999999999403, -0.977226019192747 
0.6999999999999392, -0.9768358324554886 
0.7099999999999381, -0.9767708353174478 
0.719999999999937, -0.9764549341416667 
0.7299999999999359, -0.9755007765439538 
0.7399999999999348, -0.9737449496290214 
0.7499999999999337, -0.9715846793393142 
0.7599999999999326, -0.9694990159809228 
0.7699999999999315, -0.9679761518046065 
0.7799999999999304, -0.9673701799014256 
0.7899999999999293, -0.9672800907665274 
0.7999999999999282, -0.9671184427407896 
0.8099999999999271, -0.9665399377444635 
0.819999999999926, -0.965389262667151 
0.8299999999999249, -0.9638915784437354 
0.8399999999999238, -0.9623580914108859 
0.8499999999999227, -0.9610621677568624 
0.8599999999999216, -0.9603327907470114 
0.8699999999999205, -0.960157569715447 
0.8799999999999194, -0.9600966109791423 
0.8899999999999183, -0.9597988873748854 
0.8999999999999172, -0.9591147176796949 
0.9099999999999161, -0.9581525184876144 
0.919999999999915, -0.9571031988375955 
0.9299999999999139, -0.9561190775817999 
0.9399999999999128, -0.9554210389900174 
0.9499999999999117, -0.9551604952894948 
0.9599999999999106, -0.9551464333548362 
0.9699999999999095, -0.9550537453898787 
0.9799999999999084, -0.9547138580932087 
0.9899999999999073, -0.9541582127884704 
0.9999999999999062, -0.9534898061607138 
1.0099999999999052, -0.9527885867176539 
1.019999999999904, -0.9522099221116225 
1.029999999999903, -0.9519293516898377 
1.039999999999902, -0.9519355128466099 
1.0499999999999008, -0.9520002302304365 
1.0599999999998997, -0.9519317982138578 
1.0699999999998986, -0.9517016597745949 
1.0799999999998975, -0.9513448496546285 
1.0899999999998964, -0.9508810166621134 
1.0999999999998953, -0.9504242337598743 
1.1099999999998942, -0.950175275360879 
1.119999999999893, -0.95021832339131 
1.129999999999892, -0.950426137292167 
1.1399999999998909, -0.950608045824974 
1.1499999999998898, -0.9506812109625402 
1.1599999999998887, -0.9506200624277974 
1.1699999999998876, -0.9503823336658197 
1.1799999999998865, -0.9500339714105618 
1.1899999999998854, -0.9498039993787576 
1.1999999999998843, -0.9498994325338692 
1.2099999999998832, -0.9502743256958164 
1.219999999999882, -0.9507390792101738 
1.229999999999881, -0.9511581921227065 
1.2399999999998799, -0.9514402774888158 
1.2499999999998788, -0.9514655388403669 
1.2599999999998777, -0.9512461624931055 
1.2699999999998766, -0.9510043712715169 
1.2799999999998755, -0.9510964822074734 
1.2899999999998744, -0.9516633049629085 
1.2999999999998733, -0.95250148952026 
1.3099999999998722, -0.9533893010993504 
1.319999999999871, -0.9541462479169327 
1.32999999999987, -0.9545355780523976 
1.3399999999998689, -0.9545047544011038 
1.3499999999998678, -0.9542705080675606 
1.3599999999998666, -0.9542511630282332 
1.3699999999998655, -0.9549314656520298 
1.3799999999998644, -0.9562539682846575 
1.3899999999998633, -0.9578269868644689 
1.3999999999998622, -0.9593024550681375 
1.4099999999998611, -0.9602502048688215 
1.41999999999986, -0.9605068952354177 
1.429999999999859, -0.9603479437541825 
1.4399999999998578, -0.9601786050781513 
1.4499999999998567, -0.9607399956367694 
1.4599999999998556, -0.9625219458086128 
1.4699999999998545, -0.9650304222199508 
1.4799999999998534, -0.9675654725442356 
1.4899999999998523, -0.9693673363327406 
1.4999999999998512, -0.970058450020539 
1.5099999999998501, -0.970049424192299 
1.519999999999849, -0.9698038608880718 
1.529999999999848, -0.9700434768453992 
1.5399999999998468, -0.9719469005608545 
1.5499999999998457, -0.9754153396525492 
1.5599999999998446, -0.9792493816542168 
1.5699999999998435, -0.9821781959885019 
1.5799999999998424, -0.9834649605258209 
1.5899999999998413, -0.9836650012327205 
1.5999999999998402, -0.983436632049014 
1.6099999999998391, -0.9833789661304135 
1.619999999999838, -0.9849436589043606 
1.629999999999837, -0.9888624856730777 
1.6399999999998358, -0.9936894740068787 
1.6499999999998347, -0.9976328197766888 
1.6599999999998336, -0.9995449503923789 
1.6699999999998325, -0.9999757300542419 
1.6799999999998314, -0.9998109208524977 
1.6899999999998303, -0.9996046987269922 
1.6999999999998292, -1.0006663854562348 
1.709999999999828, -1.0042394166358888 
1.719999999999827, -1.0090768945374455 
1.729999999999826, -1.0132814344142986 
1.7399999999998248, -1.0155423341625873 
1.7499999999998237, -1.016152252852883 
1.7599999999998226, -1.0160515937211785 
1.7699999999998215, -1.0158069118327884 
1.7799999999998204, -1.0164821030470184 
1.7899999999998193, -1.0192402004362595 
1.7999999999998182, -1.0231459941192191 
1.809999999999817, -1.0266991724524734 
1.819999999999816, -1.028826814771731 
1.8299999999998149, -1.0294903784240133 
1.8399999999998138, -1.0294274796775122 
1.8499999999998127, -1.0291879666909507 
1.8599999999998116, -1.029621851662426 
1.8699999999998105, -1.0315353081374188 
1.8799999999998094, -1.0342277019755444 
1.8899999999998083, -1.036736305867781 
1.8999999999998072, -1.0383868584729676 
1.909999999999806, -1.0389679811395964 
1.919999999999805, -1.0389064163893158 
1.9299999999998039, -1.0386762222531727 
1.9399999999998028, -1.0389471828298718 
1.9499999999998017, -1.040182850241014 
1.9599999999998006, -1.0418683182897603 
1.9699999999997995, -1.0434453276013373 
1.9799999999997984, -1.0445494904240165 
1.9899999999997973, -1.0449629788968393 
1.9999999999997962, -1.0448677864588118 
2.0099999999998173, -1.0446320227036001 
2.0199999999998384, -1.0447691684451197 
2.0299999999998595, -1.0455156461413997 
2.0399999999998806, -1.046510805203535 
2.0499999999999017, -1.04742528537819 
2.059999999999923, -1.048068190934998 
2.069999999999944, -1.048284506740541 
2.079999999999965, -1.0481252724302847 
2.089999999999986, -1.047858768729682 
2.100000000000007, -1.0478692761673918 
2.1100000000000283, -1.0482765912420833 
2.1200000000000494, -1.0488340351531504 
2.1300000000000705, -1.0493138790854346 
2.1400000000000916, -1.04960454458255 
2.1500000000001127, -1.0496209945842163 
2.160000000000134, -1.0493677464806435 
2.170000000000155, -1.0490370578429506 
2.180000000000176, -1.0489180594039653 
2.190000000000197, -1.0490907575353516 
2.2000000000002182, -1.0493771986848188 
2.2100000000002393, -1.0495725656518937 
2.2200000000002604, -1.049590333862172 
2.2300000000002815, -1.0494036859908051 
2.2400000000003026, -1.0490190436893383 
2.2500000000003237, -1.0485802276304532 
2.260000000000345, -1.0483203346188537 
2.270000000000366, -1.048326975214637 
2.280000000000387, -1.0484464821606272 
2.290000000000408, -1.0484483058579335 
2.3000000000004293, -1.0482360418273393 
2.3100000000004504, -1.0478263029006545 
2.3200000000004715, -1.0472561074174813 
2.3300000000004926, -1.0466492807647643 
2.3400000000005137, -1.0462261507560253 
2.3500000000005348, -1.0461103457210137 
2.360000000000556, -1.0461285125298334 
2.370000000000577, -1.0459927138889529 
2.380000000000598, -1.045566366206337 
2.390000000000619, -1.0448896944468273 
2.4000000000006403, -1.044053732514544 
2.4100000000006614, -1.0431958715154939 
2.4200000000006825, -1.0425728699021182 
2.4300000000007036, -1.0423610667068444 
2.4400000000007247, -1.0423212284791252 
2.450000000000746, -1.0420875634625242 
2.460000000000767, -1.0414525079433752 
2.470000000000788, -1.0404445411392491 
2.480000000000809, -1.0392324041496377 
2.49000000000083, -1.0380129729766012 
2.5000000000008513, -1.0371364970450596 
2.5100000000008724, -1.0368410839827205 
2.5200000000008935, -1.0367734531001298 
2.5300000000009146, -1.0364785047998029 
2.5400000000009357, -1.0356527968461038 
2.550000000000957, -1.034252741375534 
2.560000000000978, -1.0325396667833664 
2.570000000000999, -1.0308313885296017 
2.58000000000102, -1.0296316412724962 
2.5900000000010412, -1.0292484975452816 
2.6000000000010624, -1.0291739520330347 
2.6100000000010835, -1.0288578050543924 
2.6200000000011046, -1.0278985760552122 
2.6300000000011257, -1.0261070541888837 
2.6400000000011468, -1.02381578806271 
2.650000000001168, -1.0215233505565933 
2.660000000001189, -1.0199266017117021 
2.67000000000121, -1.0194269836463348 
2.680000000001231, -1.0193560630654563 
2.6900000000012523, -1.0190610177338995 
2.7000000000012734, -1.018075042499948 
2.7100000000012945, -1.0160279468192557 
2.7200000000013156, -1.013242465541754 
2.7300000000013367, -1.0104035965807838 
2.740000000001358, -1.0083735069069428 
2.750000000001379, -1.0076958583461442 
2.7600000000014, -1.007622288516232 
2.770000000001421, -1.007384191381239 
2.780000000001442, -1.006498998657979 
2.7900000000014633, -1.0044728487136576 
2.8000000000014844, -1.0015139520186225 
2.8100000000015055, -0.9983953200828182 
2.8200000000015266, -0.9960146651608152 
2.8300000000015477, -0.99507875803676 
2.840000000001569, -0.994967730300318 
2.85000000000159, -0.9948049901704972 
2.860000000001611, -0.9941132270363041 
2.870000000001632, -0.9923955797292395 
2.8800000000016532, -0.9897046303892116 
2.8900000000016743, -0.9867425458005336 
2.9000000000016954, -0.9842728650142826 
2.9100000000017165, -0.9830506619826594 
2.9200000000017377, -0.9828320829537598 
2.9300000000017588, -0.9827372577104131 
2.94000000000178, -0.982265768399723 
2.950000000001801, -0.9810015492316583 
2.960000000001822, -0.9788868014838007 
2.970000000001843, -0.9764465875590592 
2.9800000000018643, -0.9742303250080392 
2.9900000000018854, -0.9728397317721855 
3.0000000000019065, -0.9724383102948709 
3.0100000000019276, -0.9723732230499845 
3.0200000000019487, -0.9720973260608629 
3.03000000000197, -0.9712707601325615 
3.040000000001991, -0.9697917675668398 
3.050000000002012, -0.9679968745829495 
3.060000000002033, -0.9662497444332312 
3.070000000002054, -0.9649208924699535 
3.0800000000020753, -0.9643365967437271 
3.0900000000020964, -0.964239771811062 
3.1000000000021175, -0.964111432557548 
3.1100000000021386, -0.9636321810588232 
3.1200000000021597, -0.9626895283706784 
3.130000000002181, -0.9614730264939733 
3.140000000002202, -0.9602146759512946 
3.150000000002223, -0.9591211153935845 
3.160000000002244, -0.9584645892516861 
3.1700000000022652, -0.9582911058039939 
3.1800000000022863, -0.9582557400671295 
3.1900000000023074, -0.9580333196638544 
3.2000000000023285, -0.9574961587819245 
3.2100000000023496, -0.9567337764380501 
3.2200000000023707, -0.9558835229017972 
3.230000000002392, -0.9550623423903347 
3.240000000002413, -0.9544618676762873 
3.250000000002434, -0.9542310475521769 
3.260000000002455, -0.9542430313092695 
3.2700000000024763, -0.9542136238589813 
3.2800000000024974, -0.9539850387682915 
3.2900000000025185, -0.9535766176325685 
3.3000000000025396, -0.9530532413790989 
3.3100000000025607, -0.9524698136802643 
3.3200000000025818, -0.9519758155477623 
3.330000000002603, -0.9517482535650469 
3.340000000002624, -0.9517958333288047 
3.350000000002645, -0.9519261592730103 
3.360000000002666, -0.9519589024672612 
3.3700000000026873, -0.9518548553278432 
3.3800000000027084, -0.9516179533853037 
3.3900000000027295, -0.9512444421347762 
3.4000000000027506, -0.9508470591130171 
3.4100000000027717, -0.9506471661144938 
3.420000000002793, -0.950751477963467 
3.430000000002814, -0.951044501051887 
3.440000000002835, -0.9513420366951667 
3.450000000002856, -0.9515503631805307 
3.460000000002877, -0.9516125227328771 
3.4700000000028983, -0.9514590561013545 
3.4800000000029194, -0.9511556024675849 
3.4900000000029405, -0.9509514562561827 
3.5000000000029616, -0.9511070078267845 
3.5100000000029827, -0.9515983108556906 
3.520000000003004, -0.9522200500687418 
3.530000000003025, -0.9528163410247487 
3.540000000003046, -0.9532567048749931 
3.550000000003067, -0.9533816007625464 
3.5600000000030882, -0.9532078102400462 
3.5700000000031094, -0.9529752803894067 
3.5800000000031305, -0.9530944896041044 
3.5900000000031516, -0.9537926147995895 
3.6000000000031727, -0.9548525860623808 
3.6100000000031938, -0.955997881855034 
3.620000000003215, -0.9569864684909482 
3.630000000003236, -0.9575156192216447 
3.640000000003257, -0.9575414005361689 
3.650000000003278, -0.9573173563338883 
3.6600000000032993, -0.9572884081876493 
3.6700000000033204, -0.9580628302873361 
3.6800000000033415, -0.9596609554514883 
3.6900000000033626, -0.9615996813499096 
3.7000000000033837, -0.9634152177304829 
3.710000000003405, -0.9645664540266863 
3.720000000003426, -0.9648961218897325 
3.730000000003447, -0.9647541143838286 
3.740000000003468, -0.9645676434408088 
3.750000000003489, -0.9651530049113154 
3.7600000000035103, -0.9671841669016589 
3.7700000000035314, -0.9701246533587687 
3.7800000000035525, -0.9730860953392076 
3.7900000000035736, -0.975142252582934 
3.8000000000035947, -0.9759134338646569 
3.810000000003616, -0.9759206804449556 
3.820000000003637, -0.9756677132317216 
3.830000000003658, -0.9759009042187006 
3.840000000003679, -0.977944452166003 
3.8500000000037002, -0.9817432379798973 
3.8600000000037213, -0.9859153979208335 
3.8700000000037424, -0.9890273486964984 
3.8800000000037635, -0.9903511577478369 
3.8900000000037847, -0.990549778194271 
3.9000000000038058, -0.9903165611287522 
3.910000000003827, -0.9902684941531487 
3.920000000003848, -0.9919004686625913 
3.930000000003869, -0.9958875120804407 
3.94000000000389, -1.0006921124978492 
3.9500000000039113, -1.004528870519603 
3.9600000000039324, -1.0063417732465643 
3.9700000000039535, -1.006728922638818 
3.9800000000039746, -1.0065500654830666 
3.9900000000039957, -1.006370932646678 
4.000000000004016, -1.0075010583657087 
4.010000000003993, -1.0109269599019428 
4.02000000000397, -1.0153430120992206 
4.030000000003946, -1.0190896216838146 
4.040000000003923, -1.0210693942739646 
4.0500000000039, -1.0215774877428845 
4.0600000000038765, -1.0214476461200255 
4.070000000003853, -1.0212337632098305 
4.08000000000383, -1.0219849814213813 
4.090000000003807, -1.0245255142432286 
4.100000000003783, -1.0278713918259084 
4.11000000000376, -1.03083556281462 
4.120000000003737, -1.032584999060699 
4.130000000003713, -1.0331015503080458 
4.14000000000369, -1.0329953498380455 
4.150000000003667, -1.0327815479597169 
4.1600000000036434, -1.0332761311957963 
4.17000000000362, -1.034989121774009 
4.180000000003597, -1.0372122039890945 
4.1900000000035735, -1.039226742056395 
4.20000000000355, -1.0405275139953971 
4.210000000003527, -1.040949970434512 
4.220000000003504, -1.0408362131996818 
4.23000000000348, -1.040622336858144 
4.240000000003457, -1.0409273760480144 
4.250000000003434, -1.0420074765337448 
4.26000000000341, -1.0433735051815676 
4.270000000003387, -1.044612757424662 
4.280000000003364, -1.0454523768006185 
4.2900000000033405, -1.0457220597053671 
4.300000000003317, -1.0455707541598767 
4.310000000003294, -1.045339376026556 
4.320000000003271, -1.0454860753245976 
4.330000000003247, -1.0461222178381497 
4.340000000003224, -1.0469186346287882 
4.350000000003201, -1.0476183919698836 
4.360000000003177, -1.048075595813815 
4.370000000003154, -1.0481708070738167 
4.380000000003131, -1.0479532151564854 
4.390000000003107, -1.047677224946396 
4.400000000003084, -1.047679552567118 
4.410000000003061, -1.0480133536205933 
4.4200000000030375, -1.0484505730863274 
4.430000000003014, -1.048791786930106 
4.440000000002991, -1.0489486913987593 
4.450000000002968, -1.0488612915678228 
4.460000000002944, -1.048545181655741 
4.470000000002921, -1.0481891242518109 
4.480000000002898, -1.0480504003134958 
4.490000000002874, -1.048177641826928 
4.500000000002851, -1.0483912353575149 
4.510000000002828, -1.0484898828897442 
4.520000000002804, -1.0484007010394092 
4.530000000002781, -1.0481163885685174 
4.540000000002758, -1.0476587692613364 
4.5500000000027345, -1.0471760328803055 
4.560000000002711, -1.0468891512610297 
4.570000000002688, -1.0468720007367482 
4.580000000002665, -1.0469468966575501 
4.590000000002641, -1.0468734920391833 
4.600000000002618, -1.0465628968226217 
4.610000000002595, -1.0460493118158432 
4.620000000002571, -1.0453880237381488 
4.630000000002548, -1.044715244322702 
4.640000000002525, -1.0442608304944905 
4.6500000000025015, -1.0441389064642486 
4.660000000002478, -1.0441297644875551 
4.670000000002455, -1.0439298052258232 
4.6800000000024315, -1.043402766667743 
4.690000000002408, -1.0426051574346438 
4.700000000002385, -1.04165157857685 
4.710000000002362, -1.040702612377608 
4.720000000002338, -1.0400467759295318 
4.730000000002315, -1.039843898717675 
4.740000000002292, -1.0397880658919743 
4.750000000002268, -1.039497951926195 
4.760000000002245, -1.0387572015069242 
4.770000000002222, -1.037606536855165 
4.7800000000021985, -1.036246836263326 
4.790000000002175, -1.034912490896891 
4.800000000002152, -1.034005228467931 
4.810000000002129, -1.033731120543192 
4.820000000002105, -1.033655587534316 
4.830000000002082, -1.0333134224695244 
4.840000000002059, -1.0323850104984755 
4.850000000002035, -1.0308312529599597 
4.860000000002012, -1.028953992424784 
4.870000000001989, -1.0271216280280733 
4.880000000001965, -1.0258989048640637 
4.890000000001942, -1.025545360891811 
4.900000000001919, -1.0254689868476765 
4.9100000000018955, -1.0251184976297145 
4.920000000001872, -1.024077130144894 
4.930000000001849, -1.0221554009128162 
