t, s[1].omega / s[0].omega 
0, -1.0199975432445485 
0.009999999999999995, -1.0196784834807269 
0.019999999999999934, -1.0192171561687664 
0.029999999999999874, -1.0186233418600148 
0.04000000000000012, -1.0179154126523915 
0.050000000000000405, -1.0171223446924524 
0.06000000000000069, -1.016285083945962 
0.07000000000000098, -1.0154563279246716 
0.08000000000000126, -1.0146970334281078 
0.09000000000000155, -1.014068215025898 
0.10000000000000184, -1.0136189747869306 
0.11000000000000212, -1.0133746798455436 
0.12000000000000241, -1.0133301107336126 
0.130000000000002, -1.013450613737453 
0.1400000000000009, -1.013680957123784 
0.1499999999999998, -1.0139580761711355 
0.1599999999999987, -1.0142223836458508 
0.1699999999999976, -1.0144243462694078 
0.1799999999999965, -1.0145266162070645 
0.1899999999999954, -1.014503804509755 
0.1999999999999943, -1.014341323140685 
0.2099999999999932, -1.0140336022110832 
0.2199999999999921, -1.0135820597547036 
0.229999999999991, -1.012993889720149 
0.2399999999999899, -1.0122825238070963 
0.2499999999999888, -1.0114694928935344 
0.2599999999999877, -1.0105866354628739 
0.2699999999999866, -1.0096775117661472 
0.2799999999999855, -1.0087966812384972 
0.2899999999999844, -1.0080051906743073 
0.2999999999999833, -1.0073614610624952 
0.3099999999999822, -1.0069092089153264 
0.3199999999999811, -1.0066664566663828 
0.32999999999998, -1.0066201595285427 
0.3399999999999789, -1.0067291377186194 
0.3499999999999778, -1.006934399014367 
0.35999999999997667, -1.0071722153587614 
0.36999999999997557, -1.0073845064652425 
0.37999999999997447, -1.0075240788380673 
0.38999999999997337, -1.0075559239623675 
0.39999999999997227, -1.0074568782564417 
0.40999999999997117, -1.0072146979206242 
0.41999999999997006, -1.0068264106707416 
0.42999999999996896, -1.006296162067852 
0.43999999999996786, -1.0056337518928966 
0.44999999999996676, -1.0048549207214688 
0.45999999999996566, -1.003983201980633 
0.46999999999996456, -1.0030521980222842 
0.47999999999996346, -1.002106926124836 
0.48999999999996235, -1.001202731845844 
0.49999999999996125, -1.0004002183208949 
0.5099999999999602, -0.9997557391283513 
0.519999999999959, -0.9993094126356354 
0.529999999999958, -0.9990747602308279 
0.5399999999999568, -0.9990343474919973 
0.5499999999999557, -0.9991438145665607 
0.5599999999999546, -0.999342864148514 
0.5699999999999535, -0.999568190662586 
0.5799999999999524, -0.9997631243017452 
0.5899999999999513, -0.9998821410169405 
0.5999999999999502, -0.9998918141507517 
0.6099999999999491, -0.9997704396834706 
0.619999999999948, -0.9995071285263833 
0.6299999999999469, -0.999100086660872 
0.6399999999999458, -0.9985543586467127 
0.6499999999999447, -0.9978803404143498 
0.6599999999999436, -0.9970941314924264 
0.6699999999999425, -0.996219462345745 
0.6799999999999414, -0.9952899836978316 
0.6899999999999403, -0.9943505468409602 
0.6999999999999392, -0.9934560076760608 
0.7099999999999381, -0.9926660835809716 
0.719999999999937, -0.9920359077256519 
0.7299999999999359, -0.9916042939360613 
0.7399999999999348, -0.9913837748850746 
0.7499999999999337, -0.9913566256726141 
0.7599999999999326, -0.9914790151070397 
0.7699999999999315, -0.9916917467624659 
0.7799999999999304, -0.9919327695357978 
0.7899999999999293, -0.9921465438916798 
0.7999999999999282, -0.9922885164487925 
0.8099999999999271, -0.9923261163710869 
0.819999999999926, -0.9922382953471678 
0.8299999999999249, -0.9920143667434488 
0.8399999999999238, -0.9916520463686199 
0.8499999999999227, -0.9911551982202524 
0.8599999999999216, -0.9905326192534147 
0.8699999999999205, -0.9897987211595589 
0.8799999999999194, -0.9889756145834486 
0.8899999999999183, -0.9880953616165318 
0.8999999999999172, -0.9872012154048738 
0.9099999999999161, -0.9863465874286245 
0.919999999999915, -0.9855902967828655 
0.9299999999999139, -0.9849875621574646 
0.9399999999999128, -0.9845785412442749 
0.9499999999999117, -0.9843783888894189 
0.9599999999999106, -0.984372959547722 
0.9699999999999095, -0.9845222086542499 
0.9799999999999084, -0.9847699968804564 
0.9899999999999073, -0.985056054184964 
0.9999999999999062, -0.9853254970223961 
1.0099999999999052, -0.985533836561323 
1.019999999999904, -0.9856483263606822 
1.029999999999903, -0.9856473845464573 
1.039999999999902, -0.9855190155379979 
1.0499999999999008, -0.985258574782317 
1.0599999999998997, -0.9848667079824936 
1.0699999999998986, -0.9843487149173589 
1.0799999999998975, -0.9837157793785971 
1.0899999999998964, -0.98298722227926 
1.0999999999998953, -0.9821925922009676 
1.1099999999998942, -0.9813728139187484 
1.119999999999893, -0.9805795265684919 
1.129999999999892, -0.9798711522443432 
1.1399999999998909, -0.9793046612961656 
1.1499999999998898, -0.9789242852630491 
1.1599999999998887, -0.9787510360536981 
1.1699999999998876, -0.9787773885104694 
1.1799999999998865, -0.9789693851325636 
1.1899999999998854, -0.979275194971693 
1.1999999999998843, -0.9796364882567368 
1.2099999999998832, -0.9799983257369661 
1.219999999999882, -0.9803150417770601 
1.229999999999881, -0.9805521933199757 
1.2399999999998799, -0.9806859475616948 
1.2499999999998788, -0.9807011105021859 
1.2599999999998777, -0.9805887311751489 
1.2699999999998766, -0.9803444809071354 
1.2799999999998755, -0.9799688691103986 
1.2899999999998744, -0.9794691558877373 
1.2999999999998733, -0.9788616776889741 
1.3099999999998722, -0.9781735204983504 
1.319999999999871, -0.9774433744140192 
1.32999999999987, -0.9767213138618145 
1.3399999999998689, -0.9760660843618986 
1.3499999999998678, -0.9755380978542991 
1.3599999999998666, -0.9751883337875784 
1.3699999999998655, -0.9750466706751366 
1.3799999999998644, -0.9751146738087048 
1.3899999999998633, -0.9753659275733447 
1.3999999999998622, -0.9757533598240637 
1.4099999999998611, -0.9762201909944123 
1.41999999999986, -0.9767103318077248 
1.429999999999859, -0.9771752939344784 
1.4399999999998578, -0.977576928517105 
1.4499999999998567, -0.9778869651674986 
1.4599999999998556, -0.9780848359721361 
1.4699999999998545, -0.9781553529166149 
1.4799999999998534, -0.9780878050110118 
1.4899999999998523, -0.977877260629409 
1.4999999999998512, -0.977527215642182 
1.5099999999998501, -0.9770517833342245 
1.519999999999849, -0.9764765546153473 
1.529999999999848, -0.9758387773119945 
1.5399999999998468, -0.975187448743754 
1.5499999999998457, -0.9745821216606461 
1.5599999999998446, -0.9740877829003125 
1.5699999999998435, -0.9737644095336353 
1.5799999999998424, -0.9736537423741252 
1.5899999999998413, -0.9737690733301644 
1.5999999999998402, -0.974092892877699 
1.6099999999998391, -0.9745828785759227 
1.619999999999838, -0.9751828113568051 
1.629999999999837, -0.9758338234652673 
1.6399999999998358, -0.9764825146540943 
1.6499999999998347, -0.9770846389554938 
1.6599999999998336, -0.9776050128145816 
1.6699999999998325, -0.9780154024158925 
1.6799999999998314, -0.9782925721007226 
1.6899999999998303, -0.9784183935725517 
1.6999999999998292, -0.9783824330190136 
1.709999999999828, -0.9781853042642981 
1.719999999999827, -0.977840411188625 
1.729999999999826, -0.9773735069256487 
1.7399999999998248, -0.9768217119998417 
1.7499999999998237, -0.9762336027088836 
1.7599999999998226, -0.9756695950569345 
1.7699999999998215, -0.9751993238985263 
1.7799999999998204, -0.9748927798866521 
1.7899999999998193, -0.9748058873368898 
1.7999999999998182, -0.9749664602643818 
1.809999999999817, -0.975367769680979 
1.819999999999816, -0.9759724638400635 
1.8299999999998149, -0.9767237028861127 
1.8399999999998138, -0.977557859667136 
1.8499999999998127, -0.9784142711586362 
1.8599999999998116, -0.9792401195695133 
1.8699999999998105, -0.97999093285356 
1.8799999999998094, -0.9806288041004407 
1.8899999999998083, -0.9811211062630119 
1.8999999999998072, -0.9814418697584507 
1.909999999999806, -0.9815757559826063 
1.919999999999805, -0.981521954226434 
1.9299999999998039, -0.9812950820258136 
1.9399999999998028, -0.9809229847755411 
1.9499999999998017, -0.980444197168296 
1.9599999999998006, -0.9799076946109041 
1.9699999999997995, -0.9793746414728288 
1.9799999999997984, -0.9789184634133686 
1.9899999999997973, -0.9786183857628856 
1.9999999999997962, -0.9785447846559521 
2.0099999999998173, -0.9787414034165819 
2.0199999999998384, -0.9792137987716115 
2.0299999999998595, -0.9799300590149247 
2.0399999999998806, -0.9808319111316095 
2.0499999999999017, -0.9818493646543338 
2.059999999999923, -0.9829126625608202 
2.069999999999944, -0.9839587042566601 
2.079999999999965, -0.9849323596348458 
2.089999999999986, -0.9857852309013169 
2.100000000000007, -0.9864752266719092 
2.1100000000000283, -0.9869692886754745 
2.1200000000000494, -0.9872486163935754 
2.1300000000000705, -0.9873127614789607 
2.1400000000000916, -0.9871793054872688 
2.1500000000001127, -0.986879686951734 
2.160000000000134, -0.9864550577072475 
2.170000000000155, -0.9859555976880456 
2.180000000000176, -0.9854433009960483 
2.190000000000197, -0.984994341355927 
2.2000000000002182, -0.9846950214583228 
2.2100000000002393, -0.9846275963718499 
2.2200000000002604, -0.984849652318186 
2.2300000000002815, -0.9853777482374803 
2.2400000000003026, -0.9861846242823555 
2.2500000000003237, -0.9872099820154533 
2.260000000000345, -0.9883771059797966 
2.270000000000366, -0.9896071847465111 
2.280000000000387, -0.9908273794646763 
2.290000000000408, -0.991973001620084 
2.3000000000004293, -0.9929868542029394 
2.3100000000004504, -0.9938196121506223 
2.3200000000004715, -0.9944336297003351 
2.3300000000004926, -0.9948089325541755 
2.3400000000005137, -0.9949470410903869 
2.3500000000005348, -0.994869289886398 
2.360000000000556, -0.9946109762202899 
2.370000000000577, -0.9942160890861518 
2.380000000000598, -0.9937364448747774 
2.390000000000619, -0.9932352240599721 
2.4000000000006403, -0.9927907445290179 
2.4100000000006614, -0.992493767853731 
2.4200000000006825, -0.9924334448716744 
2.4300000000007036, -0.9926748366884015 
2.4400000000007247, -0.9932396415546139 
2.450000000000746, -0.9941015167889651 
2.460000000000767, -0.9951971085220975 
2.470000000000788, -0.9964443061666076 
2.480000000000809, -0.9977582209160876 
2.49000000000083, -0.9990602567781822 
2.5000000000008513, -1.0002807362306556 
2.5100000000008724, -1.001358537167159 
2.5200000000008935, -1.002241891296184 
2.5300000000009146, -1.002892626631072 
2.5400000000009357, -1.0032921950682343 
2.550000000000957, -1.0034448642573248 
2.560000000000978, -1.0033750243391986 
2.570000000000999, -1.003120553674679 
2.58000000000102, -1.0027273569251198 
2.5900000000010412, -1.0022488072007116 
2.6000000000010624, -1.0017497322729565 
2.6100000000010835, -1.001310349315871 
2.6200000000011046, -1.0010230756310765 
2.6300000000011257, -1.0009773658238799 
2.6400000000011468, -1.0012362791209106 
2.650000000001168, -1.0018173853155445 
2.660000000001189, -1.002689470425183 
2.67000000000121, -1.0037851690289787 
2.680000000001231, -1.005020102842984 
2.6900000000012523, -1.0063089026777587 
2.7000000000012734, -1.007573900136246 
2.7100000000012945, -1.00874736963014 
2.7200000000013156, -1.009770948042468 
2.7300000000013367, -1.0105962840983036 
2.740000000001358, -1.0111889521792206 
2.750000000001379, -1.0115338496345532 
2.7600000000014, -1.0116377114046833 
2.770000000001421, -1.0115261778428 
2.780000000001442, -1.0112375932288575 
2.7900000000014633, -1.010818391728976 
2.8000000000014844, -1.010323244812346 
2.8100000000015055, -1.0098189714747687 
2.8200000000015266, -1.0093870845765904 
2.8300000000015477, -1.0091180634000823 
2.840000000001569, -1.0090940963252941 
2.85000000000159, -1.0093663138453304 
2.860000000001611, -1.009939563120994 
2.870000000001632, -1.0107736050256553 
2.8800000000016532, -1.0117979322509816 
2.8900000000016743, -1.0129303427498817 
2.9000000000016954, -1.0140911261679029 
2.9100000000017165, -1.0152100553093062 
2.9200000000017377, -1.0162275718779923 
2.9300000000017588, -1.0170936220718656 
2.94000000000178, -1.0177677456340273 
2.950000000001801, -1.018222135096075 
2.960000000001822, -1.018446056860101 
2.970000000001843, -1.0184479066124585 
2.9800000000018643, -1.0182528564513817 
2.9900000000018854, -1.0178981032520193 
3.0000000000019065, -1.017429801536406 
3.0100000000019276, -1.016903919209342 
3.0200000000019487, -1.0163891750729566 
3.03000000000197, -1.0159665880777211 
3.040000000001991, -1.0157199234899252 
3.050000000002012, -1.0157169190866457 
3.060000000002033, -1.0159899024046657 
3.070000000002054, -1.0165272751008207 
3.0800000000020753, -1.0172799755842963 
3.0900000000020964, -1.0181772714397144 
3.1000000000021175, -1.0191431235455044 
3.1100000000021386, -1.0201074619553894 
3.1200000000021597, -1.0210110320101902 
3.130000000002181, -1.0218054297854116 
3.140000000002202, -1.0224513385024427 
3.150000000002223, -1.022917955078899 
3.160000000002244, -1.0231850307824237 
3.1700000000022652, -1.023246285603684 
3.1800000000022863, -1.0231112717804143 
3.1900000000023074, -1.0228041009411533 
3.2000000000023285, -1.0223606048936396 
3.2100000000023496, -1.0218269186064093 
3.2200000000023707, -1.021260534013624 
3.230000000002392, -1.0207311552354184 
3.240000000002413, -1.0203162324032602 
3.250000000002434, -1.0200879714958795 
3.260000000002455, -1.0200953356770013 
3.2700000000024763, -1.0203504753652148 
3.2800000000024974, -1.0208271455251774 
3.2900000000025185, -1.0214706087326977 
3.3000000000025396, -1.0222126128496045 
3.3100000000025607, -1.0229849129713657 
3.3200000000025818, -1.0237277751997498 
3.330000000002603, -1.0243929990717913 
3.340000000002624, -1.0249430879822108 
3.350000000002645, -1.0253490829923817 
3.360000000002666, -1.0255894318143888 
3.3700000000026873, -1.0256510921264725 
3.3800000000027084, -1.0255320756216273 
3.3900000000027295, -1.0252432961862183 
3.4000000000027506, -1.0248084812086673 
3.4100000000027717, -1.0242631369246655 
3.420000000002793, -1.0236543281841308 
3.430000000002814, -1.0230411009063323 
3.440000000002835, -1.022492453247305 
3.450000000002856, -1.022079089255123 
3.460000000002877, -1.0218589220962089 
3.4700000000028983, -1.0218621820103242 
3.4800000000029194, -1.0220839216403914 
3.4900000000029405, -1.022487226646513 
3.5000000000029616, -1.023014348096778 
3.5100000000029827, -1.0236002488919365 
3.520000000003004, -1.0241837705869705 
3.530000000003025, -1.0247139820746647 
3.540000000003046, -1.0251518323105255 
3.550000000003067, -1.0254687967543588 
3.5600000000030882, -1.0256445534676237 
3.5700000000031094, -1.0256654665535174 
3.5800000000031305, -1.0255249202815184 
3.5900000000031516, -1.0252251660823846 
3.6000000000031727, -1.0247792226491135 
3.6100000000031938, -1.0242117957332115 
3.620000000003215, -1.023559572530114 
3.630000000003236, -1.022871471338052 
3.640000000003257, -1.0222077257625999 
3.650000000003278, -1.021634957223088 
3.6600000000032993, -1.0212154639012638 
3.6700000000033204, -1.020993212057484 
3.6800000000033415, -1.0209826856182507 
3.6900000000033626, -1.021165827517905 
3.7000000000033837, -1.021497875165352 
3.710000000003405, -1.0219189448702959 
3.720000000003426, -1.0223665723238873 
3.730000000003447, -1.0227850930002407 
3.740000000003468, -1.0231302209238056 
3.750000000003489, -1.0233696820726412 
3.7600000000035103, -1.0234816666695934 
3.7700000000035314, -1.0234525771939178 
3.7800000000035525, -1.0232752780038004 
3.7900000000035736, -1.022948816527556 
3.8000000000035947, -1.0224797186722994 
3.810000000003616, -1.0218839298415079 
3.820000000003637, -1.021188439728726 
3.830000000003658, -1.0204323250798202 
3.840000000003679, -1.0196668313179251 
3.8500000000037002, -1.018952880007576 
3.8600000000037213, -1.0183539077012806 
3.8700000000037424, -1.017924080481385 
3.8800000000037635, -1.017695592347992 
3.8900000000037847, -1.0176704327841726 
3.9000000000038058, -1.0178201384951762 
3.910000000003827, -1.0180934521237073 
3.920000000003848, -1.0184285438292298 
3.930000000003869, -1.0187648450594342 
3.94000000000389, -1.019050771631767 
3.9500000000039113, -1.019246755230975 
3.9600000000039324, -1.019325216404528 
3.9700000000039535, -1.0192691228728297 
3.9800000000039746, -1.0190699592530539 
3.9900000000039957, -1.0187258271978288 
4.000000000004016, -1.01824067164352 
4.010000000003993, -1.0176251393310412 
4.02000000000397, -1.0168985180724424 
4.030000000003946, -1.0160907621631883 
4.040000000003923, -1.0152438110807884 
4.0500000000039, -1.0144111737695582 
4.0600000000038765, -1.01365406143626 
4.070000000003853, -1.013032797180276 
4.08000000000383, -1.0125947199859788 
4.090000000003807, -1.0123626419598941 
4.100000000003783, -1.012328591434669 
4.11000000000376, -1.0124556614322422 
4.120000000003737, -1.0126873865246577 
4.130000000003713, -1.012960580463881 
4.14000000000369, -1.0132163174930544 
4.150000000003667, -1.0134060535984706 
4.1600000000036434, -1.0134934602238768 
4.17000000000362, -1.013454100478376 
4.180000000003597, -1.0132742548928915 
4.1900000000035735, -1.0129491187840716 
4.20000000000355, -1.01248077071896 
4.210000000003527, -1.0118770163343236 
4.220000000003504, -1.011151934429504 
4.23000000000348, -1.010327792731367 
4.240000000003457, -1.0094372506635154 
4.250000000003434, -1.0085246833596855 
4.26000000000341, -1.00764524518677 
4.270000000003387, -1.0068600382266402 
4.280000000003364, -1.00622671922382 
4.2900000000033405, -1.0057873784759965 
4.300000000003317, -1.005557837618388 
4.310000000003294, -1.0055228244585201 
4.320000000003271, -1.005639508115545 
4.330000000003247, -1.0058481887687907 
4.340000000003224, -1.0060853218154562 
4.350000000003201, -1.006293546623882 
4.360000000003177, -1.0064265663974874 
4.370000000003154, -1.0064502622206182 
4.380000000003131, -1.0063423013222867 
4.390000000003107, -1.0060911707023537 
4.400000000003084, -1.005694466963844 
4.410000000003061, -1.0051567325859008 
4.4200000000030375, -1.0044880800728573 
4.430000000003014, -1.003704604707388 
4.440000000002991, -1.0028303094612674 
4.450000000002968, -1.0018993644464418 
4.460000000002944, -1.00095734859845 
4.470000000002921, -1.0000599697343762 
4.480000000002898, -0.9992677431410929 
4.490000000002874, -0.99863629036282 
4.500000000002851, -0.9982043636508141 
4.510000000002828, -0.9979837646275816 
4.520000000002804, -0.9979554571650013 
4.530000000002781, -0.9980740508283246 
4.540000000002758, -0.9982789859920297 
4.5500000000027345, -0.9985073293131375 
4.560000000002711, -0.9987031166269535 
4.570000000002688, -0.998821620415009 
4.580000000002665, -0.9988301950942547 
4.590000000002641, -0.9987078513035303 
4.600000000002618, -0.9984442636885437 
4.610000000002595, -0.9980379600560981 
4.620000000002571, -0.9974940717284699 
4.630000000002548, -0.9968229816168043 
4.640000000002525, -0.996040842120191 
4.6500000000025015, -0.9951715842956903 
4.660000000002478, -0.9942491799365161 
4.670000000002455, -0.9933188196627466 
4.6800000000024315, -0.9924355636716322 
4.690000000002408, -0.9916590178912552 
4.700000000002385, -0.9910437548148099 
4.710000000002362, -0.9906276020926432 
4.720000000002338, -0.990421913884558 
4.730000000002315, -0.9904079569442498 
4.740000000002292, -0.9905413663381516 
4.750000000002268, -0.9907629678376588 
4.760000000002245, -0.9910111439669924 
4.770000000002222, -0.9912309813292446 
4.7800000000021985, -0.9913785952864325 
4.790000000002175, -0.991422056984551 
4.800000000002152, -0.9913408621897751 
4.810000000002129, -0.991124654075979 
4.820000000002105, -0.9907711753831189 
4.830000000002082, -0.9902840648739909 
4.840000000002059, -0.9896718301453855 
4.850000000002035, -0.9889487198179066 
4.860000000002012, -0.9881368788580381 
4.870000000001989, -0.9872685530857414 
4.880000000001965, -0.9863872314945967 
4.890000000001942, -0.9855465065189403 
4.900000000001919, -0.9848052069426376 
4.9100000000018955, -0.9842182886865001 
4.920000000001872, -0.9838253639685156 
4.930000000001849, -0.9836409022845858 
4.940000000001826, -0.9836501846862366 
