t, s[1].omega / s[0].omega 
0, -1.759888292200732 
0.009999999999999995, -1.7465254929399332 
0.019999999999999934, -1.7321446499067101 
0.029999999999999874, -1.7248145136613384 
0.04000000000000012, -1.7263052119622828 
0.050000000000000405, -1.7303835710853885 
0.06000000000000069, -1.7332547212038232 
0.07000000000000098, -1.7346537100806039 
0.08000000000000126, -1.7351111813066467 
0.09000000000000155, -1.7350083088916342 
0.10000000000000184, -1.734550001328215 
0.11000000000000212, -1.7339178612297128 
0.12000000000000241, -1.7334424513466682 
0.130000000000002, -1.7335748753885856 
0.1400000000000009, -1.7344689472049137 
0.1499999999999998, -1.7357735244212176 
0.1599999999999987, -1.7370343789271494 
0.1699999999999976, -1.7380011911352777 
0.1799999999999965, -1.738587404335504 
0.1899999999999954, -1.7387669472304388 
0.1999999999999943, -1.7385187889944043 
0.2099999999999932, -1.7378012385544177 
0.2199999999999921, -1.7365395667684258 
0.229999999999991, -1.7346245935756435 
0.2399999999999899, -1.7319385292357707 
0.2499999999999888, -1.7284680182427028 
0.2599999999999877, -1.724593718296737 
0.2699999999999866, -1.7213463912728795 
0.2799999999999855, -1.719759742078858 
0.2899999999999844, -1.719653555568734 
0.2999999999999833, -1.7200360259403493 
0.3099999999999822, -1.7202560930101807 
0.3199999999999811, -1.7201203558238238 
0.32999999999998, -1.7195680617076274 
0.3399999999999789, -1.718497677518012 
0.3499999999999778, -1.7168193301549817 
0.35999999999997667, -1.714948367865767 
0.36999999999997557, -1.7147509002686412 
0.37999999999997447, -1.7186606911891609 
0.38999999999997337, -1.7259404766425774 
0.39999999999997227, -1.733287128341527 
0.40999999999997117, -1.738772649468801 
0.41999999999997006, -1.7422714287295886 
0.42999999999996896, -1.7442616469455205 
0.43999999999996786, -1.7452134572821418 
0.44999999999996676, -1.7454596823722568 
0.45999999999996566, -1.7452125407118433 
0.46999999999996456, -1.7446074844425759 
0.47999999999996346, -1.743747709106211 
0.48999999999996235, -1.7427378454773457 
0.49999999999996125, -1.7417061803372493 
0.5099999999999602, -1.7408267062315552 
0.519999999999959, -1.74027491482789 
0.529999999999958, -1.7400630072859375 
0.5399999999999568, -1.7399898226128698 
0.5499999999999557, -1.7398067047823855 
0.5599999999999546, -1.7393082373421902 
0.5699999999999535, -1.7382418042255239 
0.5799999999999524, -1.73611672971251 
0.5899999999999513, -1.731942091986965 
0.5999999999999502, -1.7241680208827297 
0.6099999999999491, -1.7124795535595563 
0.619999999999948, -1.7034170743698933 
0.6299999999999469, -1.7079818680710712 
0.6399999999999458, -1.722692616504456 
0.6499999999999447, -1.7355930906375872 
0.6599999999999436, -1.7430568097686936 
0.6699999999999425, -1.7466700339271874 
0.6799999999999414, -1.7482102666093078 
0.6899999999999403, -1.748687786579961 
0.6999999999999392, -1.748595835334483 
0.7099999999999381, -1.7481909141556866 
0.719999999999937, -1.7476701690538274 
0.7299999999999359, -1.7472410863253063 
0.7399999999999348, -1.7470514340340322 
0.7499999999999337, -1.7470978854713515 
0.7599999999999326, -1.7472791375329169 
0.7699999999999315, -1.7474786969190461 
0.7799999999999304, -1.747574309396213 
0.7899999999999293, -1.7474391392570616 
0.7999999999999282, -1.7469346033744482 
0.8099999999999271, -1.7458638802670479 
0.819999999999926, -1.7438951911008096 
0.8299999999999249, -1.7404721723454564 
0.8399999999999238, -1.7347690850570394 
0.8499999999999227, -1.7259675954852676 
0.8599999999999216, -1.7145645390304078 
0.8699999999999205, -1.704411444737668 
0.8799999999999194, -1.700329731322666 
0.8899999999999183, -1.7014865510150503 
0.8999999999999172, -1.7037890286238528 
0.9099999999999161, -1.705321018873823 
0.919999999999915, -1.7059814350076312 
0.9299999999999139, -1.7060350429178661 
0.9399999999999128, -1.7056653337700716 
0.9499999999999117, -1.7049875469839268 
0.9599999999999106, -1.7042177696070095 
0.9699999999999095, -1.7038822821135884 
0.9799999999999084, -1.704633330713164 
0.9899999999999073, -1.7065004446030592 
0.9999999999999062, -1.708781512589694 
1.0099999999999052, -1.7108092375754265 
1.019999999999904, -1.712309252551186 
1.029999999999903, -1.7132507647089696 
1.039999999999902, -1.7136772549057924 
1.0499999999999008, -1.713633835006154 
1.0599999999998997, -1.7131453639428451 
1.0699999999998986, -1.7122132678296107 
1.0799999999998975, -1.7108228050464809 
1.0899999999998964, -1.7089673722434644 
1.0999999999998953, -1.7067143861413343 
1.1099999999998942, -1.7043392480665553 
1.119999999999893, -1.7024024933482547 
1.129999999999892, -1.7014032209440106 
1.1399999999998909, -1.7012292337719104 
1.1499999999998898, -1.7013405429737354 
1.1599999999998887, -1.701324986145036 
1.1699999999998876, -1.7009924335057711 
1.1799999999998865, -1.7001942089389985 
1.1899999999998854, -1.6986692121608502 
1.1999999999998843, -1.696024928129826 
1.2099999999998832, -1.6922718387021376 
1.219999999999882, -1.6897147166081576 
1.229999999999881, -1.693615717474722 
1.2399999999998799, -1.7051048655763843 
1.2499999999998788, -1.717955169832407 
1.2599999999998777, -1.7274033201577197 
1.2699999999998766, -1.7330579455641204 
1.2799999999998755, -1.736069242832651 
1.2899999999998744, -1.7374826493324953 
1.2999999999998733, -1.7379585709953207 
1.3099999999998722, -1.7378705257335727 
1.319999999999871, -1.737433268429476 
1.32999999999987, -1.7367996159714783 
1.3399999999998689, -1.7361101231504865 
1.3499999999998678, -1.7354864833506993 
1.3599999999998666, -1.7350149641385417 
1.3699999999998655, -1.7347464429095634 
1.3799999999998644, -1.7346528609982657 
1.3899999999998633, -1.734597223084561 
1.3999999999998622, -1.734397804814098 
1.4099999999998611, -1.7338702104016561 
1.41999999999986, -1.7327607803373546 
1.429999999999859, -1.730590533363768 
1.4399999999998578, -1.726412253456901 
1.4499999999998567, -1.7185721074316114 
1.4599999999998556, -1.7052750416488958 
1.4699999999998545, -1.6881949030114378 
1.4799999999998534, -1.676851808872149 
1.4899999999998523, -1.6783804052580753 
1.4999999999998512, -1.6860141584058668 
1.5099999999998501, -1.6921614498799187 
1.519999999999849, -1.6955098294247744 
1.529999999999848, -1.697006750672036 
1.5399999999998468, -1.697489160444699 
1.5499999999998457, -1.6974069531118634 
1.5599999999998446, -1.696991961347901 
1.5699999999998435, -1.6964364461481591 
1.5799999999998424, -1.6960215467529487 
1.5899999999998413, -1.6960614424566596 
1.5999999999998402, -1.6966314601912995 
1.6099999999998391, -1.6974928499192146 
1.619999999999838, -1.6983491604289995 
1.629999999999837, -1.699014572188511 
1.6399999999998358, -1.6993934550527754 
1.6499999999998347, -1.6994273503908275 
1.6599999999998336, -1.6990604673543284 
1.6699999999998325, -1.6982160459138398 
1.6799999999998314, -1.6967809680964414 
1.6899999999998303, -1.694601364165638 
1.6999999999998292, -1.6915075049989614 
1.709999999999828, -1.6874334882200657 
1.719999999999827, -1.6827412235922257 
1.729999999999826, -1.6785791806228763 
1.7399999999998248, -1.6763055586800941 
1.7499999999998237, -1.6759701774461433 
1.7599999999998226, -1.6764395763899818 
1.7699999999998215, -1.6768363811295095 
1.7799999999998204, -1.676881596558078 
1.7899999999998193, -1.6765302770085664 
1.7999999999998182, -1.6757302269705048 
1.809999999999817, -1.674391474370643 
1.819999999999816, -1.6726324197168736 
1.8299999999998149, -1.6715013661228775 
1.8399999999998138, -1.6732707708492938 
1.8499999999998127, -1.6789769142171882 
1.8599999999998116, -1.6863888936501066 
1.8699999999998105, -1.692830700538638 
1.8799999999998094, -1.6973692798971398 
1.8899999999998083, -1.7001956012225108 
1.8999999999998072, -1.701759719041273 
1.909999999999806, -1.7024474239388059 
1.919999999999805, -1.702528022767846 
1.9299999999998039, -1.7021769959726623 
1.9399999999998028, -1.7015143539248405 
1.9499999999998017, -1.7006425657076332 
1.9599999999998006, -1.6996713509594006 
1.9699999999997995, -1.698730502671479 
1.9799999999997984, -1.6979777633341797 
1.9899999999997973, -1.6975402886842008 
1.9999999999997962, -1.6973831295837953 
2.0099999999998173, -1.697307597376339 
2.0199999999998384, -1.697092786944045 
2.0299999999998595, -1.6965455667133011 
2.0399999999998806, -1.6954065835933936 
2.0499999999999017, -1.6931698221538383 
2.059999999999923, -1.688820996681974 
2.069999999999944, -1.6806783627983417 
2.079999999999965, -1.6675826429015654 
2.089999999999986, -1.6537593751915036 
2.100000000000007, -1.6505045343242668 
2.1100000000000283, -1.6602279185125344 
2.1200000000000494, -1.6722655731061806 
2.1300000000000705, -1.680217105570445 
2.1400000000000916, -1.6843145190540443 
2.1500000000001127, -1.6861531578769575 
2.160000000000134, -1.6868078206148822 
2.170000000000155, -1.68682732772454 
2.180000000000176, -1.686486638997089 
2.190000000000197, -1.6859784784057932 
2.2000000000002182, -1.6855302630928413 
2.2100000000002393, -1.685380335781391 
2.2200000000002604, -1.6856093338135143 
2.2300000000002815, -1.6860847210562642 
2.2400000000003026, -1.6866108547472716 
2.2500000000003237, -1.6870366671016623 
2.260000000000345, -1.6872537914124017 
2.270000000000366, -1.6871739013674492 
2.280000000000387, -1.686705644529558 
2.290000000000408, -1.685726427476863 
2.3000000000004293, -1.684056469244155 
2.3100000000004504, -1.6814442002671488 
2.3200000000004715, -1.6775887312658213 
2.3300000000004926, -1.6722926774712594 
2.3400000000005137, -1.6659272800545044 
2.3500000000005348, -1.6600512025857488 
2.360000000000556, -1.6567421162796883 
2.370000000000577, -1.6562625042399421 
2.380000000000598, -1.6570106992078828 
2.390000000000619, -1.6577085497640414 
2.4000000000006403, -1.6579823067079116 
2.4100000000006614, -1.6578272199604753 
2.4200000000006825, -1.6572617579356177 
2.4300000000007036, -1.6562632876923882 
2.4400000000007247, -1.6549180977788036 
2.450000000000746, -1.6538758653012855 
2.460000000000767, -1.6546731392130973 
2.470000000000788, -1.658417541319824 
2.480000000000809, -1.6640004738607577 
2.49000000000083, -1.669378766160181 
2.5000000000008513, -1.6734918374114247 
2.5100000000008724, -1.6762443329317247 
2.5200000000008935, -1.677887814291677 
2.5300000000009146, -1.6787003808346939 
2.5400000000009357, -1.6788999870682502 
2.550000000000957, -1.678639657670439 
2.560000000000978, -1.6780257919319734 
2.570000000000999, -1.6771445534523362 
2.58000000000102, -1.676087965940977 
2.5900000000010412, -1.6749750744846998 
2.6000000000010624, -1.6739727325295584 
2.6100000000010835, -1.6732718843613228 
2.6200000000011046, -1.672947968665651 
2.6300000000011257, -1.6728577255132737 
2.6400000000011468, -1.672756082225814 
2.650000000001168, -1.672434606592858 
2.660000000001189, -1.6716961435901792 
2.67000000000121, -1.6702186837214121 
2.680000000001231, -1.6673504061350861 
2.6900000000012523, -1.6618631800842483 
2.7000000000012734, -1.652138396833348 
2.7100000000012945, -1.6386622069397685 
2.7200000000013156, -1.6291576933532852 
2.7300000000013367, -1.6332082965420365 
2.740000000001358, -1.6462071016228212 
2.750000000001379, -1.65763872328775 
2.7600000000014, -1.664376930997527 
2.770000000001421, -1.667703304164148 
2.780000000001442, -1.6691440687480064 
2.7900000000014633, -1.6695961087736542 
2.8000000000014844, -1.6695062764836315 
2.8100000000015055, -1.6691096305692503 
2.8200000000015266, -1.6685962150439568 
2.8300000000015477, -1.6681976976456045 
2.840000000001569, -1.6681243595021225 
2.85000000000159, -1.6684057928187515 
2.860000000001611, -1.6688903076633685 
2.870000000001632, -1.6693955271180143 
2.8800000000016532, -1.6697834531755666 
2.8900000000016743, -1.669951326420095 
2.9000000000016954, -1.669812401193677 
2.9100000000017165, -1.6692736055359627 
2.9200000000017377, -1.6682089181153288 
2.9300000000017588, -1.666437148381252 
2.94000000000178, -1.663713262642279 
2.950000000001801, -1.6597616676642672 
2.960000000001822, -1.6544464684249107 
2.970000000001843, -1.6482345578548359 
2.9800000000018643, -1.6427042411645054 
2.9900000000018854, -1.6397256989528795 
3.0000000000019065, -1.639355243346858 
3.0100000000019276, -1.6400596785240409 
3.0200000000019487, -1.6406909689835174 
3.03000000000197, -1.640916996925964 
3.040000000001991, -1.6407276645912237 
3.050000000002012, -1.640126965142103 
3.060000000002033, -1.6390750965931793 
3.070000000002054, -1.6376372615713577 
3.0800000000020753, -1.6364607248105851 
3.0900000000020964, -1.637190729993577 
3.1000000000021175, -1.641172313152974 
3.1100000000021386, -1.647342132077073 
3.1200000000021597, -1.6534045677069305 
3.130000000002181, -1.6580816292918985 
3.140000000002202, -1.661225953351528 
3.150000000002223, -1.663121853127235 
3.160000000002244, -1.664095853014556 
3.1700000000022652, -1.6644060593281182 
3.1800000000022863, -1.6642337376153455 
3.1900000000023074, -1.663703757682096 
3.2000000000023285, -1.6629140153966897 
3.2100000000023496, -1.661962816470652 
3.2200000000023707, -1.6609647010679816 
3.230000000002392, -1.6600610262150248 
3.240000000002413, -1.6594086564492212 
3.250000000002434, -1.6590837924318205 
3.260000000002455, -1.6589824271309237 
3.2700000000024763, -1.6588893180982116 
3.2800000000024974, -1.6586029410098235 
3.2900000000025185, -1.6579335177075194 
3.3000000000025396, -1.6565895932663413 
3.3100000000025607, -1.6539935641890389 
3.3200000000025818, -1.64902723618268 
3.330000000002603, -1.6399503275174723 
3.340000000002624, -1.625787857643303 
3.350000000002645, -1.6110080141494092 
3.360000000002666, -1.6063130101253922 
3.3700000000026873, -1.6140105307236365 
3.3800000000027084, -1.6245942025337032 
3.3900000000027295, -1.631905772432906 
3.4000000000027506, -1.6357861285054658 
3.4100000000027717, -1.6375649979157316 
3.420000000002793, -1.638212061802251 
3.430000000002814, -1.6382386993566702 
3.440000000002835, -1.637902534438227 
3.450000000002856, -1.637383268406871 
3.460000000002877, -1.6369103182678462 
3.4700000000028983, -1.636771022722948 
3.4800000000029194, -1.6371229263019687 
3.4900000000029405, -1.6378445359895 
3.5000000000029616, -1.638674852211783 
3.5100000000029827, -1.6394044294657846 
3.520000000003004, -1.6399103607302599 
3.530000000003025, -1.6401200843406514 
3.540000000003046, -1.639979579486059 
3.550000000003067, -1.6394309002545238 
3.5600000000030882, -1.6383971296066295 
3.5700000000031094, -1.6367759507232413 
3.5800000000031305, -1.63444634862193 
3.5900000000031516, -1.6313099441438361 
3.6000000000031727, -1.6274234516245794 
3.6100000000031938, -1.6232653956527767 
3.620000000003215, -1.619869574471147 
3.630000000003236, -1.618153489746831 
3.640000000003257, -1.6179286142412281 
3.650000000003278, -1.618276166672303 
3.6600000000032993, -1.618539901716333 
3.6700000000033204, -1.6184919617277589 
3.6800000000033415, -1.6180630805576608 
3.6900000000033626, -1.6171549163641186 
3.7000000000033837, -1.6155922207823576 
3.710000000003405, -1.6133065661974857 
3.720000000003426, -1.6111113612127592 
3.730000000003447, -1.6117402663319003 
3.740000000003468, -1.617977318404726 
3.750000000003489, -1.6282071288006612 
3.7600000000035103, -1.638111673236222 
3.7700000000035314, -1.6453731554699016 
3.7800000000035525, -1.649945077941981 
3.7900000000035736, -1.6525362308390115 
3.8000000000035947, -1.6538252293402789 
3.810000000003616, -1.6542865039811765 
3.820000000003637, -1.654217096536435 
3.830000000003658, -1.6538024388209678 
3.840000000003679, -1.6531793334364693 
3.8500000000037002, -1.652476655117947 
3.8600000000037213, -1.6518158087301689 
3.8700000000037424, -1.65129078833729 
3.8800000000037635, -1.6509616285543625 
3.8900000000037847, -1.6508284512514801 
3.9000000000038058, -1.650794397850595 
3.910000000003827, -1.6506993689566722 
3.920000000003848, -1.650379174218252 
3.930000000003869, -1.6496521875546388 
3.94000000000389, -1.6482320681002922 
3.9500000000039113, -1.645589647831931 
3.9600000000039324, -1.640776815221145 
3.9700000000039535, -1.632356617502299 
3.9800000000039746, -1.6191046779037404 
3.9900000000039957, -1.6027059525673841 
4.000000000004016, -1.5902549299092017 
4.010000000003993, -1.5876950766711395 
4.02000000000397, -1.5915863008494404 
4.030000000003946, -1.5959526426472779 
4.040000000003923, -1.598704103630029 
4.0500000000039, -1.6000475761556507 
4.0600000000038765, -1.600512982965364 
4.070000000003853, -1.6004431500311678 
4.08000000000383, -1.6000165235211803 
4.090000000003807, -1.5993693747161026 
4.100000000003783, -1.5987549606459424 
4.11000000000376, -1.598640866583946 
4.120000000003737, -1.5994602709033392 
4.130000000003713, -1.601137725740213 
4.14000000000369, -1.6031424139200354 
4.150000000003667, -1.6049811217847911 
4.1600000000036434, -1.6064153963302779 
4.17000000000362, -1.6073838794836353 
4.180000000003597, -1.6078966967005162 
4.1900000000035735, -1.6079809577220736 
4.20000000000355, -1.6076599109500538 
4.210000000003527, -1.6069474401176098 
4.220000000003504, -1.6058511092275123 
4.23000000000348, -1.6043845645600385 
4.240000000003457, -1.6025959079132548 
4.250000000003434, -1.6006233368034433 
4.26000000000341, -1.5987619284980406 
4.270000000003387, -1.597410808389283 
4.280000000003364, -1.5967774519937916 
4.2900000000033405, -1.5966632949996291 
4.300000000003317, -1.596686280870193 
4.310000000003294, -1.5965660262094437 
4.320000000003271, -1.5961355961544492 
4.330000000003247, -1.5952112383611794 
4.340000000003224, -1.593445877360356 
4.350000000003201, -1.5901875724891381 
4.360000000003177, -1.5845455574884357 
4.370000000003154, -1.5765992255467212 
4.380000000003131, -1.5706886182205841 
4.390000000003107, -1.574931966920585 
4.400000000003084, -1.5896122517397702 
4.410000000003061, -1.6053730325066844 
4.4200000000030375, -1.6162605877035356 
4.430000000003014, -1.6223334931368327 
4.440000000002991, -1.6253510975233845 
4.450000000002968, -1.6266819676882445 
4.460000000002944, -1.6271003563104594 
4.470000000002921, -1.6270050183584832 
4.480000000002898, -1.6266161940712736 
4.490000000002874, -1.6261089091171368 
4.500000000002851, -1.6256771871963909 
4.510000000002828, -1.6254886649398024 
4.520000000002804, -1.6255812887483603 
4.530000000002781, -1.6258636958451287 
4.540000000002758, -1.6262060273549288 
4.5500000000027345, -1.6264867892999202 
4.560000000002711, -1.6265964058839426 
4.570000000002688, -1.626434949963405 
4.580000000002665, -1.6258967040713088 
4.590000000002641, -1.624842659101659 
4.600000000002618, -1.6230748380586775 
4.610000000002595, -1.6203240268987305 
4.620000000002571, -1.6162750028591844 
4.630000000002548, -1.6107081494847708 
4.640000000002525, -1.6039113660446733 
4.6500000000025015, -1.5972797537693748 
4.660000000002478, -1.5929630376018267 
4.670000000002455, -1.591748968158155 
4.6800000000024315, -1.5923010781039553 
4.690000000002408, -1.5931088724013514 
4.700000000002385, -1.5935655538714895 
4.710000000002362, -1.5935943686158172 
4.720000000002338, -1.5932214909481708 
4.730000000002315, -1.5924282681847934 
4.740000000002292, -1.591178841318134 
4.750000000002268, -1.589669618950897 
4.760000000002245, -1.5888864130052285 
4.770000000002222, -1.590679764277168 
4.7800000000021985, -1.5958856042173033 
4.790000000002175, -1.6028265836461428 
4.800000000002152, -1.6092222775391138 
4.810000000002129, -1.6140270379752082 
4.820000000002105, -1.617219135926522 
4.830000000002082, -1.619129145106562 
4.840000000002059, -1.6201052666719362 
4.850000000002035, -1.6204200537993239 
4.860000000002012, -1.6202655095089231 
4.870000000001989, -1.619775692878663 
4.880000000001965, -1.6190581643575421 
4.890000000001942, -1.618220242543972 
4.900000000001919, -1.6173761599801082 
4.9100000000018955, -1.6166424162053759 
4.920000000001872, -1.6161264145843375 
4.930000000001849, -1.615870885826045 
4.940000000001826, -1.6157899803313156 
