t, s[1].omega / s[0].omega 
0, -0.5999977282244051 
0.009999999999999995, -0.5997845422306435 
0.019999999999999934, -0.5995901587630567 
0.029999999999999874, -0.5993919740945761 
0.04000000000000012, -0.5991632852408404 
0.050000000000000405, -0.5988832041519174 
0.06000000000000069, -0.5985423910736938 
0.07000000000000098, -0.5981438835698013 
0.08000000000000126, -0.5977016971765887 
0.09000000000000155, -0.5972406299025386 
0.10000000000000184, -0.5967996606548418 
0.11000000000000212, -0.5964403128780567 
0.12000000000000241, -0.5962610897163901 
0.130000000000002, -0.5964192220567448 
0.1400000000000009, -0.5971606757142363 
0.1499999999999998, -0.5988572695917026 
0.1599999999999987, -0.60204303032485 
0.1699999999999976, -0.6074249687264907 
0.1799999999999965, -0.6158097288822136 
0.1899999999999954, -0.6278471524189679 
0.1999999999999943, -0.6435236613872762 
0.2099999999999932, -0.6616089013636592 
0.2199999999999921, -0.6796985777908835 
0.229999999999991, -0.6952852457759753 
0.2399999999999899, -0.7070367772267124 
0.2499999999999888, -0.7150471965953371 
0.2599999999999877, -0.7201640779553972 
0.2699999999999866, -0.7233079236022391 
0.2799999999999855, -0.7251819367435154 
0.2899999999999844, -0.7262474779401213 
0.2999999999999833, -0.7267838217487046 
0.3099999999999822, -0.726948102634529 
0.3199999999999811, -0.7268149123388364 
0.32999999999998, -0.7263961284528707 
0.3399999999999789, -0.7256446502334244 
0.3499999999999778, -0.7244445359957277 
0.35999999999997667, -0.7225906388373807 
0.36999999999997557, -0.7197685084616963 
0.37999999999997447, -0.7155658799192125 
0.38999999999997337, -0.709573515743414 
0.39999999999997227, -0.7016142570650467 
0.40999999999997117, -0.6920025236034066 
0.41999999999997006, -0.6815799844378739 
0.42999999999996896, -0.671403979817513 
0.43999999999996786, -0.6623303158265778 
0.44999999999996676, -0.6548059885120782 
0.45999999999996566, -0.6489117224138637 
0.46999999999996456, -0.6445057000907449 
0.47999999999996346, -0.6413501740918977 
0.48999999999996235, -0.6391883977584253 
0.49999999999996125, -0.6377824108512308 
0.5099999999999602, -0.6369284841417662 
0.519999999999959, -0.6364613303472119 
0.529999999999958, -0.6362526508618151 
0.5399999999999568, -0.6362066951755443 
0.5499999999999557, -0.6362544726512744 
0.5599999999999546, -0.6363479566969692 
0.5699999999999535, -0.636455391828417 
0.5799999999999524, -0.6365583527932404 
0.5899999999999513, -0.6366503529259477 
0.5999999999999502, -0.6367356260023805 
0.6099999999999491, -0.6368258954252535 
0.619999999999948, -0.6369336769078386 
0.6299999999999469, -0.6370632944540524 
0.6399999999999458, -0.6372036922770151 
0.6499999999999447, -0.6373277144797099 
0.6599999999999436, -0.6373995026601975 
0.6699999999999425, -0.6373864603244378 
0.6799999999999414, -0.6372690342882156 
0.6899999999999403, -0.637043782765996 
0.6999999999999392, -0.6367207296272124 
0.7099999999999381, -0.6363194971348587 
0.719999999999937, -0.6358683295466203 
0.7299999999999359, -0.6354082356431466 
0.7399999999999348, -0.6350034097867601 
0.7499999999999337, -0.6347591211512212 
0.7599999999999326, -0.6348484808663545 
0.7699999999999315, -0.6355486432400455 
0.7799999999999304, -0.6372832361493945 
0.7899999999999293, -0.6406577873817498 
0.7999999999999282, -0.6464530956220981 
0.8099999999999271, -0.6555049297424722 
0.819999999999926, -0.6683716340425702 
0.8299999999999249, -0.6847771371917947 
0.8399999999999238, -0.7031528232398356 
0.8499999999999227, -0.7209419914999231 
0.8599999999999216, -0.7358204604898875 
0.8699999999999205, -0.7467858350862647 
0.8799999999999194, -0.7541448496392678 
0.8899999999999183, -0.758792081642572 
0.8999999999999172, -0.7616138510435406 
0.9099999999999161, -0.7632658868322946 
0.919999999999915, -0.7641718899304274 
0.9299999999999139, -0.7645846200784079 
0.9399999999999128, -0.7646417269461677 
0.9499999999999117, -0.7644008916351026 
0.9599999999999106, -0.7638552042458686 
0.9699999999999095, -0.7629313317809584 
0.9799999999999084, -0.7614711673432591 
0.9899999999999073, -0.7591978612509124 
0.9999999999999062, -0.7556763494574992 
1.0099999999999052, -0.7503079914016223 
1.019999999999904, -0.742448842623355 
1.029999999999903, -0.7317440712814223 
1.039999999999902, -0.7185783971359874 
1.0499999999999008, -0.7042218451745575 
1.0599999999998997, -0.6903582249174862 
1.0699999999998986, -0.6783478471950354 
1.0799999999998975, -0.6688350087946628 
1.0899999999998964, -0.661826956769149 
1.0999999999998953, -0.6569699451529758 
1.1099999999998942, -0.6537883759401172 
1.119999999999893, -0.6518229291840543 
1.129999999999892, -0.650689676513243 
1.1399999999998909, -0.6500942477868924 
1.1499999999998898, -0.6498244321607018 
1.1599999999998887, -0.649734283514708 
1.1699999999998876, -0.6497266647144305 
1.1799999999998865, -0.6497378131546614 
1.1899999999998854, -0.6497256336976278 
1.1999999999998843, -0.6496623815625372 
1.2099999999998832, -0.6495316916413356 
1.219999999999882, -0.6493289449844586 
1.229999999999881, -0.6490624780999661 
1.2399999999998799, -0.6487520857442547 
1.2499999999998788, -0.6484225447710585 
1.2599999999998777, -0.6480937802638351 
1.2699999999998766, -0.6477727378787187 
1.2799999999998755, -0.6474516423019981 
1.2899999999998744, -0.6471133877884356 
1.2999999999998733, -0.6467405649886618 
1.3099999999998722, -0.6463232151231734 
1.319999999999871, -0.6458625944758587 
1.32999999999987, -0.6453717756363103 
1.3399999999998689, -0.644875842677827 
1.3499999999998678, -0.6444140760272212 
1.3599999999998666, -0.6440451892982214 
1.3699999999998655, -0.6438555382763701 
1.3799999999998644, -0.6439694567945099 
1.3899999999998633, -0.6445602109092038 
1.3999999999998622, -0.6458592221256328 
1.4099999999998611, -0.6481597695287634 
1.41999999999986, -0.651808325573584 
1.429999999999859, -0.6571704829453688 
1.4399999999998578, -0.6645494979138886 
1.4499999999998567, -0.6740339552652213 
1.4599999999998556, -0.6852877044345138 
1.4699999999998545, -0.6974028078244704 
1.4799999999998534, -0.7090410004720289 
1.4899999999998523, -0.7189417883596854 
1.4999999999998512, -0.7264529764193141 
1.5099999999998501, -0.7316350386346577 
1.519999999999849, -0.7349617792669042 
1.529999999999848, -0.7369774058838351 
1.5399999999998468, -0.7381190591212354 
1.5499999999998457, -0.7386818971449378 
1.5599999999998446, -0.7388429116018335 
1.5699999999998435, -0.7386920298301118 
1.5799999999998424, -0.7382523361859549 
1.5899999999998413, -0.7374855489516441 
1.5999999999998402, -0.7362816287603766 
1.6099999999998391, -0.7344301468873591 
1.619999999999838, -0.7315713125420088 
1.629999999999837, -0.7271355818721992 
1.6399999999998358, -0.7203215453334354 
1.6499999999998347, -0.7102446112061739 
1.6599999999998336, -0.6964243200149962 
1.6699999999998325, -0.6794895329599069 
1.6799999999998314, -0.6613923252597596 
1.6899999999998303, -0.6445707883315344 
1.6999999999998292, -0.6307468619412945 
1.709999999999828, -0.6204518912249746 
1.719999999999827, -0.6133445931563613 
1.729999999999826, -0.6087256225703002 
1.7399999999998248, -0.6058805068929459 
1.7499999999998237, -0.6042226282938811 
1.7599999999998226, -0.6033199304080428 
1.7699999999998215, -0.6028742491239601 
1.7799999999998204, -0.6026886325109952 
1.7899999999998193, -0.602636796912372 
1.7999999999998182, -0.6026390076930421 
1.809999999999817, -0.6026448391976469 
1.819999999999816, -0.602622099261177 
1.8299999999998149, -0.6025510290313865 
1.8399999999998138, -0.6024227499222039 
1.8499999999998127, -0.6022402030106209 
1.8599999999998116, -0.6020186157171695 
1.8699999999998105, -0.6017821928286973 
1.8799999999998094, -0.601555885029266 
1.8899999999998083, -0.6013550589137061 
1.8999999999998072, -0.6011783996217763 
1.909999999999806, -0.6010081153325519 
1.919999999999805, -0.6008174107983651 
1.9299999999998039, -0.6005810419119234 
1.9399999999998028, -0.6002834814372804 
1.9499999999998017, -0.5999218796785802 
1.9599999999998006, -0.599505137368643 
1.9699999999997995, -0.5990525700418929 
1.9799999999997984, -0.5985952160202428 
1.9899999999997973, -0.5981815966891542 
1.9999999999997962, -0.5978890962822082 
2.0099999999998173, -0.5978421767689042 
2.0199999999998384, -0.5982387153096906 
2.0299999999998595, -0.599384778597331 
2.0399999999998806, -0.6017341320094254 
2.0499999999999017, -0.6059175163301092 
2.059999999999923, -0.6127212171176972 
2.069999999999944, -0.6229324706911317 
2.079999999999965, -0.63694844579055 
2.089999999999986, -0.654181844675366 
2.100000000000007, -0.6727118752727976 
2.1100000000000283, -0.6898749983547906 
2.1200000000000494, -0.7036374509058712 
2.1300000000000705, -0.7134436854497059 
2.1400000000000916, -0.7198825747498558 
2.1500000000001127, -0.7239058488628312 
2.160000000000134, -0.7263412327132964 
2.170000000000155, -0.727765434092984 
2.180000000000176, -0.7285398876085936 
2.190000000000197, -0.7288761764867048 
2.2000000000002182, -0.7288863509233059 
2.2100000000002393, -0.7286120883409816 
2.2200000000002604, -0.7280359949020976 
2.2300000000002815, -0.7270781906271259 
2.2400000000003026, -0.7255804220986247 
2.2500000000003237, -0.7232833135859884 
2.260000000000345, -0.7198160149841154 
2.270000000000366, -0.7147440410976263 
2.280000000000387, -0.7077352391312849 
2.290000000000408, -0.6988307741859549 
2.3000000000004293, -0.6886287148184953 
2.3100000000004504, -0.6781393954538542 
2.3200000000004715, -0.6683719261821381 
2.3300000000004926, -0.6599927542214672 
2.3400000000005137, -0.6532540185822103 
2.3500000000005348, -0.6481069177081932 
2.360000000000556, -0.6443469132428601 
2.370000000000577, -0.6417169280918137 
2.380000000000598, -0.6399633843788137 
2.390000000000619, -0.6388615602165121 
2.4000000000006403, -0.6382247026973895 
2.4100000000006614, -0.6379049932537917 
2.4200000000006825, -0.6377902514350411 
2.4300000000007036, -0.6377984577564206 
2.4400000000007247, -0.6378716150201786 
2.450000000000746, -0.6379702364806925 
2.460000000000767, -0.6380694066258565 
2.470000000000788, -0.6381566978478127 
2.480000000000809, -0.6382311578091471 
2.49000000000083, -0.6383014384454393 
2.5000000000008513, -0.638380952934414 
2.5100000000008724, -0.6384797222831871 
2.5200000000008935, -0.6385956816632399 
2.5300000000009146, -0.6387102368499632 
2.5400000000009357, -0.6387916181835932 
2.550000000000957, -0.6388051134574292 
2.560000000000978, -0.6387245619576013 
2.570000000000999, -0.6385389239594466 
2.58000000000102, -0.6382521600184068 
2.5900000000010412, -0.6378796031550946 
2.6000000000010624, -0.6374454067164587 
2.6100000000010835, -0.6369841733124281 
2.6200000000011046, -0.6365482647648887 
2.6300000000011257, -0.6362218098762293 
2.6400000000011468, -0.6361425943133613 
2.650000000001168, -0.6365327367683352 
2.660000000001189, -0.6377369326990957 
2.67000000000121, -0.6402608056271898 
2.680000000001231, -0.6447874461633603 
2.6900000000012523, -0.652122566714987 
2.7000000000012734, -0.6629836879687323 
2.7100000000012945, -0.6775607640782606 
2.7200000000013156, -0.6949677213792103 
2.7300000000013367, -0.7130953478877706 
2.740000000001358, -0.7293967615485495 
2.750000000001379, -0.7421688899471961 
2.7600000000014, -0.751124015397224 
2.770000000001421, -0.7569361402658702 
2.780000000001442, -0.7605271858655767 
2.7900000000014633, -0.762666869402048 
2.8000000000014844, -0.7638828556124146 
2.8100000000015055, -0.7645018800851501 
2.8200000000015266, -0.7647110471184237 
2.8300000000015477, -0.7646030573116076 
2.840000000001569, -0.7642006636013979 
2.85000000000159, -0.7634627893146403 
2.860000000001611, -0.7622737992706851 
2.870000000001632, -0.7604158844117854 
2.8800000000016532, -0.7575279948293543 
2.8900000000016743, -0.753072916841134 
2.9000000000016954, -0.7463779304345112 
2.9100000000017165, -0.7368604677966161 
2.9200000000017377, -0.724473914524171 
2.9300000000017588, -0.7100946812834474 
2.94000000000178, -0.6953618234004318 
2.950000000001801, -0.6819522691447581 
2.960000000001822, -0.6709211234164769 
2.970000000001843, -0.6625599890002082 
2.9800000000018643, -0.6566325691839402 
2.9900000000018854, -0.652669289070388 
3.0000000000019065, -0.650166366359565 
3.0100000000019276, -0.6486823960304653 
3.0200000000019487, -0.6478699092172626 
3.03000000000197, -0.6474740859027077 
3.040000000001991, -0.647317663058082 
3.050000000002012, -0.6472820384701305 
3.060000000002033, -0.6472895860585913 
3.070000000002054, -0.647289520058637 
3.0800000000020753, -0.6472482268102332 
3.0900000000020964, -0.6471442262192064 
3.1000000000021175, -0.6469672119221016 
3.1100000000021386, -0.6467193892479142 
3.1200000000021597, -0.6464158487016722 
3.130000000002181, -0.64608063418836 
3.140000000002202, -0.6457380026899315 
3.150000000002223, -0.6454026185340687 
3.160000000002244, -0.6450741725524913 
3.1700000000022652, -0.6447394064356737 
3.1800000000022863, -0.6443799490517776 
3.1900000000023074, -0.6439812796111204 
3.2000000000023285, -0.6435386394383544 
3.2100000000023496, -0.6430589807498561 
3.2200000000023707, -0.6425610356680312 
3.230000000002392, -0.6420762948049937 
3.240000000002413, -0.641652659243239 
3.250000000002434, -0.6413612310614889 
3.260000000002455, -0.6413057942380235 
3.2700000000024763, -0.6416338777711214 
3.2800000000024974, -0.6425475781498317 
3.2900000000025185, -0.6443112235290814 
3.3000000000025396, -0.6472507885328136 
3.3100000000025607, -0.6517353067863872 
3.3200000000025818, -0.658122201457281 
3.330000000002603, -0.6666404059137268 
3.340000000002624, -0.6771975659788946 
3.350000000002645, -0.6891707557223159 
3.360000000002666, -0.7013731217806278 
3.3700000000026873, -0.7124019910113275 
3.3800000000027084, -0.7212386399177778 
3.3900000000027295, -0.7276062441195029 
3.4000000000027506, -0.7318292841169076 
3.4100000000027717, -0.7344603122263578 
3.420000000002793, -0.7360079694120079 
3.430000000002814, -0.7368413329497561 
3.440000000002835, -0.7371945298345278 
3.450000000002856, -0.7371989072424027 
3.460000000002877, -0.7369101680593895 
3.4700000000028983, -0.7363216329099518 
3.4800000000029194, -0.7353621369805119 
3.4900000000029405, -0.7338770712719289 
3.5000000000029616, -0.7315899141884267 
3.5100000000029827, -0.7280458210515216 
3.520000000003004, -0.7225622471697498 
3.530000000003025, -0.7142744140428945 
3.540000000003046, -0.7024419721537589 
3.550000000003067, -0.6870864222367433 
3.5600000000030882, -0.6695328259052592 
3.5700000000031094, -0.6520825536820702 
3.5800000000031305, -0.6368680593227686 
3.5900000000031516, -0.6249742412853891 
3.6000000000031727, -0.6164314581568775 
3.6100000000031938, -0.610685584414963 
3.620000000003215, -0.6070270298422344 
3.630000000003236, -0.6048162493240672 
3.640000000003257, -0.6035564461653424 
3.650000000003278, -0.6028920663886659 
3.6600000000032993, -0.6025816596440885 
3.6700000000033204, -0.6024671278861827 
3.6800000000033415, -0.6024473588257873 
3.6900000000033626, -0.6024582482460014 
3.7000000000033837, -0.6024589516528244 
3.710000000003405, -0.6024236415480938 
3.720000000003426, -0.6023379316117988 
3.730000000003447, -0.6021987082817964 
3.740000000003468, -0.602015059741202 
3.750000000003489, -0.6018070177716054 
3.7600000000035103, -0.6015996270681585 
3.7700000000035314, -0.601413147756412 
3.7800000000035525, -0.6012538023583172 
3.7900000000035736, -0.6011101916445066 
3.8000000000035947, -0.6009575989964107 
3.810000000003616, -0.6007678734919395 
3.820000000003637, -0.600519479600665 
3.830000000003658, -0.600203075882981 
3.840000000003679, -0.5998219614399682 
3.8500000000037002, -0.5993902588806193 
3.8600000000037213, -0.5989324182187301 
3.8700000000037424, -0.598486491211209 
3.8800000000037635, -0.5981125851780298 
3.8900000000037847, -0.5979077037012761 
3.9000000000038058, -0.5980284206439748 
3.910000000003827, -0.598722620809055 
3.920000000003848, -0.6003693915830419 
3.930000000003869, -0.6035189716662843 
3.94000000000389, -0.6089063454765375 
3.9500000000039113, -0.6173754331644884 
3.9600000000039324, -0.6296072400474326 
3.9700000000039535, -0.6455820342467895 
3.9800000000039746, -0.6640020891101199 
3.9900000000039957, -0.6823648858858651 
4.000000000004016, -0.6981100658494547 
4.010000000003993, -0.7099262837266732 
4.02000000000397, -0.7179558764245987 
4.030000000003946, -0.7230788738742955 
4.040000000003923, -0.7262277324054373 
4.0500000000039, -0.7281076983761543 
4.0600000000038765, -0.7291796273828965 
4.070000000003853, -0.729722289277652 
4.08000000000383, -0.729892738478243 
4.090000000003807, -0.7297658237206028 
4.100000000003783, -0.7293539415843341 
4.11000000000376, -0.7286108270549153 
4.120000000003737, -0.7274219218567757 
4.130000000003713, -0.725584491944091 
4.14000000000369, -0.7227883077549266 
4.150000000003667, -0.7186278892026479 
4.1600000000036434, -0.7127027190887044 
4.17000000000362, -0.7048420109074297 
4.180000000003597, -0.6953567284719178 
4.1900000000035735, -0.6850719075654926 
4.20000000000355, -0.6750225997836979 
4.210000000003527, -0.6660488054192611 
4.220000000003504, -0.6585934854855091 
4.23000000000348, -0.6527420620005457 
4.240000000003457, -0.6483606584836725 
4.250000000003434, -0.6452189041745522 
4.26000000000341, -0.6430653230346499 
4.270000000003387, -0.6416650154409014 
4.280000000003364, -0.6408156213770534 
4.2900000000033405, -0.6403521788786768 
4.300000000003317, -0.6401462056365734 
4.310000000003294, -0.6401015985222945 
4.320000000003271, -0.6401490040075021 
4.330000000003247, -0.6402400588038855 
4.340000000003224, -0.6403426794914693 
4.350000000003201, -0.640438106293765 
4.360000000003177, -0.6405195317320433 
4.370000000003154, -0.6405909434260305 
4.380000000003131, -0.6406639740170218 
4.390000000003107, -0.6407512805160966 
4.400000000003084, -0.640857631168492 
4.410000000003061, -0.6409727830067459 
4.4200000000030375, -0.6410707689380676 
4.430000000003014, -0.6411171518864789 
4.440000000002991, -0.6410806924513018 
4.450000000002968, -0.6409428489527396 
4.460000000002944, -0.640700784358858 
4.470000000002921, -0.640364925321415 
4.480000000002898, -0.6399554535433023 
4.490000000002874, -0.6395017139084879 
4.500000000002851, -0.639046693307409 
4.510000000002828, -0.6386576541605842 
4.520000000002804, -0.6384439267360168 
4.530000000002781, -0.6385828734071957 
4.540000000002758, -0.639353933081118 
4.5500000000027345, -0.641176786095863 
4.560000000002711, -0.6446401463369534 
4.570000000002688, -0.6504878797118049 
4.580000000002665, -0.6594972449838975 
4.590000000002641, -0.6721632442536604 
4.600000000002618, -0.688185043827243 
4.610000000002595, -0.7060529478482713 
4.620000000002571, -0.7233361742180022 
4.630000000002548, -0.7378154089185667 
4.640000000002525, -0.7485125411013013 
4.6500000000025015, -0.7557033731745337 
4.660000000002478, -0.760244280506757 
4.670000000002455, -0.7629957027799588 
4.6800000000024315, -0.7645986708566886 
4.690000000002408, -0.7654684449600194 
4.700000000002385, -0.7658524146384021 
4.710000000002362, -0.765884302675557 
4.720000000002338, -0.7656183592434946 
4.730000000002315, -0.7650439340525328 
4.740000000002292, -0.764082627835929 
4.750000000002268, -0.7625683096602411 
4.760000000002245, -0.7602103031205085 
4.770000000002222, -0.7565492634114652 
4.7800000000021985, -0.7509463032204792 
4.790000000002175, -0.7427017431425107 
4.800000000002152, -0.7314118250732377 
4.810000000002129, -0.717470043501446 
4.820000000002105, -0.7022503877562828 
4.830000000002082, -0.6875962134429064 
4.840000000002059, -0.6749903595850804 
4.850000000002035, -0.665110951878249 
4.860000000002012, -0.6579283462471788 
4.870000000001989, -0.6530248360093208 
4.880000000001965, -0.6498653558242128 
4.890000000001942, -0.6479482003404737 
4.900000000001919, -0.6468646715038973 
4.9100000000018955, -0.6463088852993459 
4.920000000001872, -0.6460652675915133 
