t, s[1].omega / s[0].omega 
0, -0.7099976880749882 
0.009999999999999995, -0.7097523975852585 
0.019999999999999934, -0.7094755441094568 
0.029999999999999874, -0.7091585189252653 
0.04000000000000012, -0.7087931069863973 
0.050000000000000405, -0.7083766388731919 
0.06000000000000069, -0.7079147598288092 
0.07000000000000098, -0.7074220738927597 
0.08000000000000126, -0.7069223901978257 
0.09000000000000155, -0.7064500546685902 
0.10000000000000184, -0.7060527183189377 
0.11000000000000212, -0.705794800366188 
0.12000000000000241, -0.7057602099507994 
0.130000000000002, -0.7060526697491085 
0.1400000000000009, -0.7067922677185591 
0.1499999999999998, -0.7081074585996282 
0.1599999999999987, -0.7101220363441458 
0.1699999999999976, -0.7129359187651907 
0.1799999999999965, -0.7165972325437467 
0.1899999999999954, -0.7210638285458124 
0.1999999999999943, -0.7261603078458921 
0.2099999999999932, -0.7315551115483041 
0.2199999999999921, -0.7367984709723923 
0.229999999999991, -0.7414406052167986 
0.2399999999999899, -0.7451779679064585 
0.2499999999999888, -0.7479280775414843 
0.2599999999999877, -0.7497906921537152 
0.2699999999999866, -0.7509495553087966 
0.2799999999999855, -0.7515889777756004 
0.2899999999999844, -0.751853210771224 
0.2999999999999833, -0.7518378102534691 
0.3099999999999822, -0.7515944395430033 
0.3199999999999811, -0.7511372905870201 
0.32999999999998, -0.7504461724628938 
0.3399999999999789, -0.7494648996919249 
0.3499999999999778, -0.7480951171914565 
0.35999999999997667, -0.7461868440480403 
0.36999999999997557, -0.7435293891938335 
0.37999999999997447, -0.7398522460016146 
0.38999999999997337, -0.7348593667748224 
0.39999999999997227, -0.7283417648934715 
0.40999999999997117, -0.7204041825023774 
0.41999999999997006, -0.711703534750627 
0.42999999999996896, -0.7033861889166396 
0.43999999999996786, -0.6965727336965858 
0.44999999999996676, -0.6918085692840978 
0.45999999999996566, -0.6889719082008099 
0.46999999999996456, -0.6875692947775613 
0.47999999999996346, -0.6870587675436546 
0.48999999999996235, -0.6870166651472608 
0.49999999999996125, -0.6871684324474748 
0.5099999999999602, -0.6873576973302409 
0.519999999999959, -0.6875036390341032 
0.529999999999958, -0.6875664453694235 
0.5399999999999568, -0.6875241919720492 
0.5499999999999557, -0.6873588150784211 
0.5599999999999546, -0.6870483962097128 
0.5699999999999535, -0.6865644172324799 
0.5799999999999524, -0.6858743696052405 
0.5899999999999513, -0.6849507475544596 
0.5999999999999502, -0.6837852962291007 
0.6099999999999491, -0.6824021998639611 
0.619999999999948, -0.6808603526004096 
0.6299999999999469, -0.6792399563314196 
0.6399999999999458, -0.6776205563290051 
0.6499999999999447, -0.6760637531505849 
0.6599999999999436, -0.6746080413785158 
0.6699999999999425, -0.6732736673202222 
0.6799999999999414, -0.672071155183138 
0.6899999999999403, -0.6710085849417537 
0.6999999999999392, -0.6700957740643002 
0.7099999999999381, -0.6693455703395629 
0.719999999999937, -0.668773173843673 
0.7299999999999359, -0.6683944197181979 
0.7399999999999348, -0.6682238181939371 
0.7499999999999337, -0.6682730187161351 
0.7599999999999326, -0.6685501658560187 
0.7699999999999315, -0.6690602706214357 
0.7799999999999304, -0.6698062519072766 
0.7899999999999293, -0.6707897848851443 
0.7999999999999282, -0.6720106043870342 
0.8099999999999271, -0.6734626128920432 
0.819999999999926, -0.675125524253734 
0.8299999999999249, -0.6769527924245702 
0.8399999999999238, -0.6788609372520634 
0.8499999999999227, -0.6807302089599478 
0.8599999999999216, -0.6824253031674923 
0.8699999999999205, -0.6838317877033331 
0.8799999999999194, -0.6848876088436366 
0.8899999999999183, -0.685589825147974 
0.8999999999999172, -0.6859767997205766 
0.9099999999999161, -0.6861022206317171 
0.919999999999915, -0.6860153258566632 
0.9299999999999139, -0.6857512331074371 
0.9399999999999128, -0.6853286592014035 
0.9499999999999117, -0.6847515167730507 
0.9599999999999106, -0.6840126982668872 
0.9699999999999095, -0.6831004260651861 
0.9799999999999084, -0.6820089709786525 
0.9899999999999073, -0.6807553383398484 
0.9999999999999062, -0.6793991418478896 
1.0099999999999052, -0.6780508779975253 
1.019999999999904, -0.6768387361036226 
1.029999999999903, -0.6758189124357785 
1.039999999999902, -0.6749050376685444 
1.0499999999999008, -0.6739679103763062 
1.0599999999998997, -0.6730580544284981 
1.0699999999998986, -0.6724231010223538 
1.0799999999998975, -0.6722594853264203 
1.0899999999998964, -0.6725450609331661 
1.0999999999998953, -0.6731043433038787 
1.1099999999998942, -0.6737455501371872 
1.119999999999893, -0.6743350144806208 
1.129999999999892, -0.674804370407201 
1.1399999999998909, -0.6751296639209253 
1.1499999999998898, -0.6753085845003135 
1.1599999999998887, -0.6753442027199221 
1.1699999999998876, -0.6752350420333967 
1.1799999999998865, -0.6749693421700999 
1.1899999999998854, -0.6745221849326013 
1.1999999999998843, -0.6738559258038197 
1.2099999999998832, -0.6729262015743607 
1.219999999999882, -0.6716960873670808 
1.229999999999881, -0.6701571240121671 
1.2399999999998799, -0.6683476828629387 
1.2499999999998788, -0.666354192545483 
1.2599999999998777, -0.664289696783502 
1.2699999999998766, -0.6622621174972612 
1.2799999999998755, -0.6603514759169985 
1.2899999999998744, -0.6586047141175608 
1.2999999999998733, -0.6570433154471611 
1.3099999999998722, -0.6556746422799603 
1.319999999999871, -0.6545009851011575 
1.32999999999987, -0.6535245459494596 
1.3399999999998689, -0.6527490011021896 
1.3499999999998678, -0.6521789883498104 
1.3599999999998666, -0.6518187536936588 
1.3699999999998655, -0.6516708783455724 
1.3799999999998644, -0.6517356768776612 
1.3899999999998633, -0.6520115093302862 
1.3999999999998622, -0.6524958779535027 
1.4099999999998611, -0.653186807820156 
1.41999999999986, -0.6540836485471371 
1.429999999999859, -0.6551860757513853 
1.4399999999998578, -0.656489842398381 
1.4499999999998567, -0.6579782450680104 
1.4599999999998556, -0.6596102760118618 
1.4699999999998545, -0.6613105834239685 
1.4799999999998534, -0.6629705972864267 
1.4899999999998523, -0.6644683089006597 
1.4999999999998512, -0.6657016440598442 
1.5099999999998501, -0.666616168516433 
1.519999999999849, -0.6672100041780352 
1.529999999999848, -0.6675172847239679 
1.5399999999998468, -0.6675850108811681 
1.5499999999998457, -0.6674556678134818 
1.5599999999998446, -0.6671587150252181 
1.5699999999998435, -0.6667084780365374 
1.5799999999998424, -0.6661053850458374 
1.5899999999998413, -0.6653390668848183 
1.5999999999998402, -0.664393524086474 
1.6099999999998391, -0.6632554777009122 
1.619999999999838, -0.6619260591965235 
1.629999999999837, -0.6604308354307495 
1.6399999999998358, -0.6588123296850942 
1.6499999999998347, -0.6570833959543994 
1.6599999999998336, -0.6551577601350888 
1.6699999999998325, -0.6528736111817954 
1.6799999999998314, -0.6502165964412321 
1.6899999999998303, -0.6475274969582991 
1.6999999999998292, -0.6453316195843628 
1.709999999999828, -0.6439496668685822 
1.719999999999827, -0.6433519587154415 
1.729999999999826, -0.6433016563433924 
1.7399999999998248, -0.643539034112525 
1.7499999999998237, -0.6438719858559585 
1.7599999999998226, -0.6441866454625365 
1.7699999999998215, -0.6444259893814817 
1.7799999999998204, -0.644565230857857 
1.7899999999998193, -0.6445934574730852 
1.7999999999998182, -0.6445020084751661 
1.809999999999817, -0.644277835206901 
1.819999999999816, -0.6439006253748496 
1.8299999999998149, -0.6433438337776057 
1.8399999999998138, -0.6425807964504258 
1.8499999999998127, -0.641596366087651 
1.8599999999998116, -0.6404007344615962 
1.8699999999998105, -0.6390371676745052 
1.8799999999998094, -0.6375757069568155 
1.8899999999998083, -0.6360941310311453 
1.8999999999998072, -0.6346575628125453 
1.909999999999806, -0.633307847133473 
1.919999999999805, -0.6320648784461187 
1.9299999999998039, -0.6309347647480991 
1.9399999999998028, -0.6299187819270496 
1.9499999999998017, -0.6290198212967344 
1.9599999999998006, -0.628245794401556 
1.9699999999997995, -0.6276107838587027 
1.9799999999997984, -0.6271348773511416 
1.9899999999997973, -0.6268433288134917 
1.9999999999997962, -0.6267654464817592 
2.0099999999998173, -0.6269335188940779 
2.0199999999998384, -0.6273820352679381 
2.0299999999998595, -0.6281472612369676 
2.0399999999998806, -0.6292667615484508 
2.0499999999999017, -0.6307776584813418 
2.059999999999923, -0.6327113587147501 
2.069999999999944, -0.6350816558140471 
2.079999999999965, -0.6378639631463564 
2.089999999999986, -0.6409686336484156 
2.100000000000007, -0.6442224575745846 
2.1100000000000283, -0.6473824885556305 
2.1200000000000494, -0.6501958718429661 
2.1300000000000705, -0.6524804892786282 
2.1400000000000916, -0.6541724920525545 
2.1500000000001127, -0.6553128898242984 
2.160000000000134, -0.6559970560875498 
2.170000000000155, -0.6563268238630766 
2.180000000000176, -0.6563835835974031 
2.190000000000197, -0.6562192112613083 
2.2000000000002182, -0.65585523536575 
2.2100000000002393, -0.6552829067698354 
2.2200000000002604, -0.6544600292146601 
2.2300000000002815, -0.6533019798907593 
2.2400000000003026, -0.6516647089649835 
2.2500000000003237, -0.6493185870235503 
2.260000000000345, -0.6459187299641084 
2.270000000000366, -0.6410004973413679 
2.280000000000387, -0.6340748178005212 
2.290000000000408, -0.6249151146834351 
2.3000000000004293, -0.6139603121389596 
2.3100000000004504, -0.6024256667436024 
2.3200000000004715, -0.5918009615557123 
2.3300000000004926, -0.5831301633404784 
2.3400000000005137, -0.57671916794608 
2.3500000000005348, -0.5723290833708201 
2.360000000000556, -0.5695002154615866 
2.370000000000577, -0.56777129201905 
2.380000000000598, -0.5667697149978559 
2.390000000000619, -0.5662256223854513 
2.4000000000006403, -0.5659555985517033 
2.4100000000006614, -0.5658398247158806 
2.4200000000006825, -0.5658018417564745 
2.4300000000007036, -0.5657932901785704 
2.4400000000007247, -0.5657835077726754 
2.450000000000746, -0.5657532541171413 
2.460000000000767, -0.5656918036867257 
2.470000000000788, -0.5655965112038233 
2.480000000000809, -0.5654733903020555 
2.49000000000083, -0.5653365507105442 
2.5000000000008513, -0.5652045114772533 
2.5100000000008724, -0.5650932571024309 
2.5200000000008935, -0.5650086200930183 
2.5300000000009146, -0.5649419970855349 
2.5400000000009357, -0.5648721454934643 
2.550000000000957, -0.5647724536201236 
2.560000000000978, -0.5646198031547469 
2.570000000000999, -0.5644005220345002 
2.58000000000102, -0.5641115542019045 
2.5900000000010412, -0.5637583581728279 
2.6000000000010624, -0.5633524638148181 
2.6100000000010835, -0.562910986892261 
2.6200000000011046, -0.5624593329944563 
2.6300000000011257, -0.5620379018944509 
2.6400000000011468, -0.561713832431041 
2.650000000001168, -0.5615990941740477 
2.660000000001189, -0.5618753991873653 
2.67000000000121, -0.5628221378152378 
2.680000000001231, -0.5648313989905399 
2.6900000000012523, -0.5683695452785613 
2.7000000000012734, -0.5738180668654651 
2.7100000000012945, -0.5811600979685416 
2.7200000000013156, -0.5896784442832744 
2.7300000000013367, -0.5980782666688772 
2.740000000001358, -0.6051724985565172 
2.750000000001379, -0.6104916043075448 
2.7600000000014, -0.6142241186898247 
2.770000000001421, -0.6167887888368415 
2.780000000001442, -0.6185501566490123 
2.7900000000014633, -0.6197563912533876 
2.8000000000014844, -0.6205666867508254 
2.8100000000015055, -0.6210842574146532 
2.8200000000015266, -0.6213764004658839 
2.8300000000015477, -0.6214847811471024 
2.840000000001569, -0.6214304707700318 
2.85000000000159, -0.6212162699144963 
2.860000000001611, -0.6208278451687074 
2.870000000001632, -0.6202354537687162 
2.8800000000016532, -0.6193990521171643 
2.8900000000016743, -0.6182801755141956 
2.9000000000016954, -0.6168615844909687 
2.9100000000017165, -0.6151682960421792 
2.9200000000017377, -0.6132757595366759 
2.9300000000017588, -0.6112944120018539 
2.94000000000178, -0.6093374147909969 
2.950000000001801, -0.60749190525896 
2.960000000001822, -0.6058081187867513 
2.970000000001843, -0.6043051108929325 
2.9800000000018643, -0.6029835107947384 
2.9900000000018854, -0.6018373157261887 
3.0000000000019065, -0.6008615392590034 
3.0100000000019276, -0.6000558747889304 
3.0200000000019487, -0.5994257189851963 
3.03000000000197, -0.5989818385166861 
3.040000000001991, -0.5987395513075401 
3.050000000002012, -0.5987179542368505 
3.060000000002033, -0.5989395168715997 
3.070000000002054, -0.5994301717976188 
3.0800000000020753, -0.6002197405604449 
3.0900000000020964, -0.6013420326093591 
3.1000000000021175, -0.602833165289147 
3.1100000000021386, -0.6047256309418853 
3.1200000000021597, -0.6070349213082648 
3.130000000002181, -0.6097367663360613 
3.140000000002202, -0.6127391699436421 
3.150000000002223, -0.6158654951047066 
3.160000000002244, -0.6188736682899462 
3.1700000000022652, -0.6215212578115661 
3.1800000000022863, -0.6236444393928507 
3.1900000000023074, -0.6251966908901013 
3.2000000000023285, -0.6262276829404873 
3.2100000000023496, -0.6268320247502258 
3.2200000000023707, -0.6271052289810506 
3.230000000002392, -0.6271206685658165 
3.240000000002413, -0.6269223307242139 
3.250000000002434, -0.6265239636244293 
3.260000000002455, -0.6259078787111145 
3.2700000000024763, -0.6250194581965575 
3.2800000000024974, -0.6237546158656093 
3.2900000000025185, -0.6219381366451713 
3.3000000000025396, -0.6192943161824213 
3.3100000000025607, -0.6154252362862972 
3.3200000000025818, -0.609846145409801 
3.330000000002603, -0.6021651055574012 
3.340000000002624, -0.592432564626419 
3.350000000002645, -0.5814241443498288 
3.360000000002666, -0.57045556458595 
3.3700000000026873, -0.5607618120035863 
3.3800000000027084, -0.5530059843573398 
3.3900000000027295, -0.5472524931276029 
3.4000000000027506, -0.5432153840475407 
3.4100000000027717, -0.5405006624570625 
3.420000000002793, -0.5387408597641212 
3.430000000002814, -0.5376424127206472 
3.440000000002835, -0.5369886997214505 
3.450000000002856, -0.5366270701082981 
3.460000000002877, -0.5364531129800459 
3.4700000000028983, -0.5363969859338444 
3.4800000000029194, -0.5364129907374399 
3.4900000000029405, -0.5364723109147211 
3.5000000000029616, -0.5365584784987293 
3.5100000000029827, -0.5366649873593635 
3.520000000003004, -0.5367941592225776 
3.530000000003025, -0.5369558559693663 
3.540000000003046, -0.5371643255249873 
3.550000000003067, -0.5374320820677105 
3.5600000000030882, -0.5377615787913599 
3.5700000000031094, -0.5381378278503147 
3.5800000000031305, -0.5385264758698061 
3.5900000000031516, -0.5388803516600127 
3.6000000000031727, -0.5391526287885171 
3.6100000000031938, -0.5393096463154323 
3.620000000003215, -0.5393364680103336 
3.630000000003236, -0.5392339252302139 
3.640000000003257, -0.5390112363250728 
3.650000000003278, -0.5386789612068353 
3.6600000000032993, -0.5382446026811905 
3.6700000000033204, -0.5377109200449899 
3.6800000000033415, -0.5370761677566741 
3.6900000000033626, -0.5363353852675122 
3.7000000000033837, -0.5354814042100476 
3.710000000003405, -0.5345019971138595 
3.720000000003426, -0.5333637835332853 
3.730000000003447, -0.5319646921735596 
3.740000000003468, -0.5300405833535097 
3.750000000003489, -0.5270787258451947 
3.7600000000035103, -0.5224474777201289 
3.7700000000035314, -0.515932926037992 
3.7800000000035525, -0.5082645463906945 
3.7900000000035736, -0.5008149088820726 
3.8000000000035947, -0.49469367741310855 
3.810000000003616, -0.49027083761711304 
3.820000000003637, -0.48735836851825887 
3.830000000003658, -0.4855666495356159 
3.840000000003679, -0.4845242498210755 
3.8500000000037002, -0.48395071824319447 
3.8600000000037213, -0.48365630264280546 
3.8700000000037424, -0.4835199036013852 
3.8800000000037635, -0.48346667393700926 
3.8900000000037847, -0.4834511225781732 
3.9000000000038058, -0.48344593805119684 
3.910000000003827, -0.4834353938799046 
3.920000000003848, -0.48341220505489463 
3.930000000003869, -0.4833768242979207 
3.94000000000389, -0.48333791677398275 
3.9500000000039113, -0.48331219697465144 
3.9600000000039324, -0.48332162599184364 
3.9700000000039535, -0.48338700226168674 
3.9800000000039746, -0.483519207745681 
3.9900000000039957, -0.48371155454042636 
4.000000000004016, -0.4839374002646025 
4.010000000003993, -0.48415558085812094 
4.02000000000397, -0.4843221269616997 
4.030000000003946, -0.4844023925724376 
4.040000000003923, -0.4843773335400449 
4.0500000000039, -0.4842421477966069 
4.0600000000038765, -0.4840002872236312 
4.070000000003853, -0.4836569274641498 
4.08000000000383, -0.4832140913539674 
4.090000000003807, -0.48266747967075807 
4.100000000003783, -0.4820038572241717 
4.11000000000376, -0.4811970699554401 
4.120000000003737, -0.48019929631421 
4.130000000003713, -0.47892079024678696 
4.14000000000369, -0.4771863657122255 
4.150000000003667, -0.47465867419833846 
4.1600000000036434, -0.4707596568036766 
4.17000000000362, -0.4647465180320697 
4.180000000003597, -0.4561837071588557 
4.1900000000035735, -0.44563942699663334 
4.20000000000355, -0.43471236449942774 
4.210000000003527, -0.4250622964261576 
4.220000000003504, -0.4175323604172996 
4.23000000000348, -0.4121281285006756 
4.240000000003457, -0.40844404303935855 
4.250000000003434, -0.4060085531014613 
4.26000000000341, -0.4044312134574867 
4.270000000003387, -0.40342975995785546 
4.280000000003364, -0.40281306340862955 
4.2900000000033405, -0.4024563045109345 
4.300000000003317, -0.40228025844812343 
4.310000000003294, -0.4022367126808267 
4.320000000003271, -0.4022991269084145 
4.330000000003247, -0.40245719870105845 
4.340000000003224, -0.40271414857957577 
4.350000000003201, -0.4030855966324955 
4.360000000003177, -0.4035986539205648 
4.370000000003154, -0.4042893423784567 
4.380000000003131, -0.40519597550446207 
4.390000000003107, -0.40634628304091586 
4.400000000003084, -0.40773807144372026 
4.410000000003061, -0.40931882481047055 
4.4200000000030375, -0.41097794370322865 
4.430000000003014, -0.41256686240754903 
4.440000000002991, -0.413944995350894 
4.450000000002968, -0.4150238487126826 
4.460000000002944, -0.4157805589187095 
4.470000000002921, -0.4162399694306386 
4.480000000002898, -0.41644586778012316 
4.490000000002874, -0.41643853346766047 
4.500000000002851, -0.4162424531658968 
4.510000000002828, -0.41586039543649045 
4.520000000002804, -0.41526914489947486 
4.530000000002781, -0.41441412811110345 
4.540000000002758, -0.41320321361509904 
4.5500000000027345, -0.41150519584524714 
4.560000000002711, -0.4091669456716584 
4.570000000002688, -0.4060688630735284 
4.580000000002665, -0.4022196871707829 
4.590000000002641, -0.39783412073985386 
4.600000000002618, -0.39330007317785254 
4.610000000002595, -0.389026156016969 
4.620000000002571, -0.385289834666723 
4.630000000002548, -0.3821921627613424 
4.640000000002525, -0.3797044298548734 
4.6500000000025015, -0.37773709643620074 
4.660000000002478, -0.37618925181963553 
4.670000000002455, -0.3749731678558071 
4.6800000000024315, -0.3740225839835198 
4.690000000002408, -0.3732933597592373 
4.700000000002385, -0.37276179999638337 
4.710000000002362, -0.3724233483946825 
4.720000000002338, -0.37229295362897225 
4.730000000002315, -0.37240786806526216 
4.740000000002292, -0.3728335562782039 
4.750000000002268, -0.3736734224244492 
4.760000000002245, -0.3750826945432862 
4.770000000002222, -0.3772848678630728 
4.7800000000021985, -0.38058298745375135 
4.790000000002175, -0.3853432787237172 
4.800000000002152, -0.3919038267539443 
4.810000000002129, -0.4003511913394268 
4.820000000002105, -0.4102009823586103 
4.830000000002082, -0.4202747603874874 
4.840000000002059, -0.42914779375622303 
4.850000000002035, -0.43592935584864145 
4.860000000002012, -0.44057659537121807 
4.870000000001989, -0.4435593112352338 
4.880000000001965, -0.44541898796179613 
4.890000000001942, -0.4465656354471436 
4.900000000001919, -0.4472608478083669 
