t, s[1].omega / s[0].omega 
0, -0.9999977808993592 
0.009999999999999995, -0.9997038155512017 
0.019999999999999934, -0.9995032675938191 
0.029999999999999874, -0.9993328957715512 
0.04000000000000012, -0.9990280966224272 
0.050000000000000405, -0.9988609979089357 
0.06000000000000069, -0.9986670668207214 
0.07000000000000098, -0.9983635641325319 
0.08000000000000126, -0.9982211561293626 
0.09000000000000155, -0.9980029269507359 
0.10000000000000184, -0.9977142203181592 
0.11000000000000212, -0.9975850302956062 
0.12000000000000241, -0.997343648867479 
0.130000000000002, -0.9970822791265108 
0.1400000000000009, -0.9969550917460718 
0.1499999999999998, -0.9966933477473572 
0.1599999999999987, -0.9964683202854093 
0.1699999999999976, -0.9963343413489535 
0.1799999999999965, -0.996057080551235 
0.1899999999999954, -0.9958719345920575 
0.1999999999999943, -0.9957254835150249 
0.2099999999999932, -0.9954403986457077 
0.2199999999999921, -0.9952927362542976 
0.229999999999991, -0.9951305888510544 
0.2399999999999899, -0.9948484969281942 
0.2499999999999888, -0.9947312271702544 
0.2599999999999877, -0.9945515425868803 
0.2699999999999866, -0.9942853580664982 
0.2799999999999855, -0.9941891192563133 
0.2899999999999844, -0.9939908051117833 
0.2999999999999833, -0.9937534035642533 
0.3099999999999822, -0.9936690440677997 
0.3199999999999811, -0.9934518848443482 
0.32999999999998, -0.9932537524627757 
0.3399999999999789, -0.9931737623377178 
0.3499999999999778, -0.9929394370487693 
0.35999999999997667, -0.9927868872508991 
0.36999999999997557, -0.9927053494660573 
0.37999999999997447, -0.9924590962499874 
0.38999999999997337, -0.9923534886414274 
0.39999999999997227, -0.9922650876516357 
0.40999999999997117, -0.9920169401559944 
0.41999999999997006, -0.9919551253173916 
0.42999999999996896, -0.9918542761748168 
0.43999999999996786, -0.9916186160819839 
0.44999999999996676, -0.9915944750681324 
0.45999999999996566, -0.9914752462809394 
0.46999999999996456, -0.9912686377440465 
0.47999999999996346, -0.9912748932074751 
0.48999999999996235, -0.9911318172568563 
0.49999999999996125, -0.9909703669754316 
0.5099999999999602, -0.9909994372078217 
0.519999999999959, -0.9908293217581591 
0.529999999999958, -0.99072663111995 
0.5399999999999568, -0.9907699832897302 
0.5499999999999557, -0.9905747030982471 
0.5599999999999546, -0.9905405459534001 
0.5699999999999535, -0.9905874209145651 
0.5799999999999524, -0.9903766355949901 
0.5899999999999513, -0.9904161246392963 
0.5999999999999502, -0.9904531582600277 
0.6099999999999491, -0.9902451043217642 
0.619999999999948, -0.9903583110329514 
0.6299999999999469, -0.9903706159251016 
0.6399999999999458, -0.9901902067699861 
0.6499999999999447, -0.9903721328579409 
0.6599999999999436, -0.9903454068127705 
0.6699999999999425, -0.9902208764530837 
0.6799999999999414, -0.9904610535161762 
0.6899999999999403, -0.9903847157953342 
0.6999999999999392, -0.9903444973921394 
0.7099999999999381, -0.9906256146408154 
0.719999999999937, -0.9904971586306845 
0.7299999999999359, -0.9905674445746171 
0.7399999999999348, -0.9908643052622915 
0.7499999999999337, -0.9906935548614544 
0.7599999999999326, -0.990895629326349 
0.7699999999999315, -0.9911768104027342 
0.7799999999999304, -0.9909878843923897 
0.7899999999999293, -0.9913339980879851 
0.7999999999999282, -0.9915662587832852 
0.8099999999999271, -0.9913967339775734 
0.819999999999926, -0.991884339429743 
0.8299999999999249, -0.992038078153798 
0.8399999999999238, -0.9919358834260623 
0.8499999999999227, -0.9925418939279753 
0.8599999999999216, -0.9925974588935833 
0.8699999999999205, -0.992615390487035 
0.8799999999999194, -0.9932937703818244 
0.8899999999999183, -0.9932481543946968 
0.8999999999999172, -0.9934365638175795 
0.9099999999999161, -0.9941231609360599 
0.919999999999915, -0.9939934955577701 
0.9299999999999139, -0.9943918155594815 
0.9399999999999128, -0.9950168946845142 
0.9499999999999117, -0.9948392186021364 
0.9599999999999106, -0.9954649018342402 
0.9699999999999095, -0.9959675062868374 
0.9799999999999084, -0.9957953980587594 
0.9899999999999073, -0.9966295015816319 
0.9999999999999062, -0.9969685528743563 
1.0099999999999052, -0.9968714349382602 
1.019999999999904, -0.997848067328278 
1.029999999999903, -0.99801020697582 
1.039999999999902, -0.9980626200793971 
1.0499999999999008, -0.9990767280837631 
1.0599999999998997, -0.9990790237484596 
1.0699999999998986, -0.9993408392769312 
1.0799999999998975, -1.0002778643173338 
1.0899999999998964, -1.0001616312100845 
1.0999999999998953, -1.0006603437066295 
1.1099999999998942, -1.0014291985934076 
1.119999999999893, -1.0012509793319693 
1.129999999999892, -1.0019702658265128 
1.1399999999998909, -1.0025200237831435 
1.1499999999998898, -1.002349244577362 
1.1599999999998887, -1.0032224473833005 
1.1699999999998876, -1.0035426301581298 
1.1799999999998865, -1.0034563239257603 
1.1899999999998854, -1.0043752884751413 
1.1999999999998843, -1.004488853886924 
1.2099999999998832, -1.0045503517063257 
1.219999999999882, -1.0053992099550886 
1.229999999999881, -1.0053521956190505 
1.2399999999998799, -1.0055892821650374 
1.2499999999998788, -1.006282306083341 
1.2599999999998777, -1.0061328110260257 
1.2699999999998766, -1.0065324639073743 
1.2799999999998755, -1.0070285366745757 
1.2899999999998744, -1.0068409396616076 
1.2999999999998733, -1.0073537181826255 
1.3099999999998722, -1.0076488884578416 
1.319999999999871, -1.0074893582200894 
1.32999999999987, -1.0080401661266514 
1.3399999999998689, -1.0081544182313416 
1.3499999999998678, -1.00807629520502 
1.3599999999998666, -1.008587734945403 
1.3699999999998655, -1.0085552082566425 
1.3799999999998644, -1.0085835747764407 
1.3899999999998633, -1.0089995156558083 
1.3999999999998622, -1.008863145155522 
1.4099999999998611, -1.008993318191397 
1.41999999999986, -1.0092855449665152 
1.429999999999859, -1.0090943207192369 
1.4399999999998578, -1.0092981543432997 
1.4499999999998567, -1.0094604036951615 
1.4599999999998556, -1.0092648131671589 
1.4699999999998545, -1.0094992264732328 
1.4799999999998534, -1.0095391944907923 
1.4899999999998523, -1.0093806956580402 
1.4999999999998512, -1.0096014524169903 
1.5099999999998501, -1.0095354304554973 
1.519999999999849, -1.0094367982532297 
1.529999999999848, -1.0096109122682986 
1.5399999999998468, -1.0094619328310843 
1.5499999999998457, -1.0094263706959132 
1.5599999999998446, -1.0095345601927967 
1.5699999999998435, -1.0093323653976647 
1.5799999999998424, -1.0093472862889308 
1.5899999999998413, -1.0093807569167725 
1.5999999999998402, -1.0091593785623456 
1.6099999999998391, -1.0092014521827624 
1.619999999999838, -1.009158967299932 
1.629999999999837, -1.0089495398782005 
1.6399999999998358, -1.0089926474350994 
1.6499999999998347, -1.0088787880900536 
1.6599999999998336, -1.0087023964512698 
1.6699999999998325, -1.0087250690575982 
1.6799999999998314, -1.008549705605911 
1.6899999999998303, -1.0084152086121658 
1.6999999999998292, -1.0084026929765142 
1.709999999999828, -1.0081815435627433 
1.719999999999827, -1.0080864408113683 
1.729999999999826, -1.0080294538400976 
1.7399999999998248, -1.0077836351395024 
1.7499999999998237, -1.0077161304752815 
1.7599999999998226, -1.0076098491310324 
1.7699999999998215, -1.0073621900007843 
1.7799999999998204, -1.0073055368202823 
1.7899999999998193, -1.007149251563024 
1.7999999999998182, -1.006919145976207 
1.809999999999817, -1.006856811040817 
1.819999999999816, -1.0066538710228663 
1.8299999999998149, -1.0064539842126268 
1.8399999999998138, -1.0063724991874037 
1.8499999999998127, -1.0061307293015056 
1.8599999999998116, -1.0059655587662295 
1.8699999999998105, -1.0058551148085335 
1.8799999999998094, -1.0055872084802069 
1.8899999999998083, -1.0054527950096386 
1.8999999999998072, -1.0053071887329297 
1.909999999999806, -1.0050295880704816 
1.919999999999805, -1.004915285922356 
1.9299999999998039, -1.0047317616082376 
1.9399999999998028, -1.0044617143197265 
1.9499999999998017, -1.0043537690160447 
1.9599999999998006, -1.004132849310229 
1.9699999999997995, -1.0038851341026231 
1.9799999999997984, -1.0037700745683045 
1.9899999999997973, -1.00351561809007 
1.9999999999997962, -1.0032998278373269 
2.0099999999998173, -1.0031666284909433 
2.0199999999998384, -1.0028862135709895 
2.0299999999998595, -1.002704796062769 
2.0399999999998806, -1.0025459159277361 
2.0499999999999017, -1.002250983623853 
2.059999999999923, -1.002098968772589 
2.069999999999944, -1.001910395922031 
2.079999999999965, -1.0016152460721017 
2.089999999999986, -1.0014821888302237 
2.100000000000007, -1.0012629353936249 
2.1100000000000283, -1.0009824961751497 
2.1200000000000494, -1.0008556395136383 
2.1300000000000705, -1.0006073163114209 
2.1400000000000916, -1.0003543507387411 
2.1500000000001127, -1.000221644074743 
2.160000000000134, -0.9999484392192691 
2.170000000000155, -0.999730823937424 
2.180000000000176, -0.9995830236138996 
2.190000000000197, -0.9992920899248087 
2.2000000000002182, -0.9991110363009896 
2.2100000000002393, -0.9989424354096709 
2.2200000000002604, -0.9986441683795525 
2.2300000000002815, -0.9984943265851546 
2.2400000000003026, -0.9983022585911658 
2.2500000000003237, -0.9980096225806205 
2.260000000000345, -0.9978811081880049 
2.270000000000366, -0.9976650863894205 
2.280000000000387, -0.9973917301562323 
2.290000000000408, -0.9972730903022121 
2.3000000000004293, -0.9970343016227724 
2.3100000000004504, -0.9967919993514063 
2.3200000000004715, -0.996672903288513 
2.3300000000004926, -0.9964143226747837 
2.3400000000005137, -0.9962105438263154 
2.3500000000005348, -0.996083310773626 
2.360000000000556, -0.9958104502665395 
2.370000000000577, -0.9956468776685033 
2.380000000000598, -0.9955065327333703 
2.390000000000619, -0.9952282673053505 
2.4000000000006403, -0.9951008928888452 
2.4100000000006614, -0.9949442838458343 
2.4200000000006825, -0.9946726952609187 
2.4300000000007036, -0.9945735298211504 
2.4400000000007247, -0.9943984719842962 
2.450000000000746, -0.9941472277773055 
2.460000000000767, -0.9940668584954484 
2.470000000000788, -0.9938718919766721 
2.480000000000809, -0.9936538037273147 
2.49000000000083, -0.9935835541343938 
2.5000000000008513, -0.9933685111102971 
2.5100000000008724, -0.9931932663449478 
2.5200000000008935, -0.9931260144531666 
2.5300000000009146, -0.9928934623719149 
2.5400000000009357, -0.9927661299751837 
2.550000000000957, -0.9926957733426858 
2.560000000000978, -0.9924527867879395 
2.570000000000999, -0.9923733861476038 
2.58000000000102, -0.99229384297062 
2.5900000000010412, -0.992052743569629 
2.6000000000010624, -0.9920170324084429 
2.6100000000010835, -0.9919217741680613 
2.6200000000011046, -0.9916988519376704 
2.6300000000011257, -0.9917000348637091 
2.6400000000011468, -0.9915824898528345 
2.650000000001168, -0.9913953154521142 
2.660000000001189, -0.9914256212036381 
2.67000000000121, -0.9912804528406051 
2.680000000001231, -0.9911452445311629 
2.6900000000012523, -0.9911962137211597 
2.7000000000012734, -0.9910216436844653 
2.7100000000012945, -0.9909514283691041 
2.7200000000013156, -0.9910128877060702 
2.7300000000013367, -0.9908137400875102 
2.740000000001358, -0.9908171423236893 
2.750000000001379, -0.990876235026187 
2.7600000000014, -0.990666144749808 
2.770000000001421, -0.990746566606026 
2.780000000001442, -0.9907881587193824 
2.7900000000014633, -0.9905892153072999 
2.8000000000014844, -0.9907444612926117 
2.8100000000015055, -0.990752873116894 
2.8200000000015266, -0.9905927569298199 
2.8300000000015477, -0.9908148955143912 
2.840000000001569, -0.9907765012167118 
2.85000000000159, -0.9906848279515833 
2.860000000001611, -0.990959487772873 
2.870000000001632, -0.9908664465091788 
2.8800000000016532, -0.9908717079427806 
2.8900000000016743, -0.9911768077500961 
2.9000000000016954, -0.9910316367926871 
2.9100000000017165, -0.9911586141861001 
2.9200000000017377, -0.9914645807403281 
2.9300000000017588, -0.9912835737649561 
2.94000000000178, -0.9915500002769965 
2.950000000001801, -0.9918231142467091 
2.960000000001822, -0.9916369312131291 
2.970000000001843, -0.9920484541963862 
2.9800000000018643, -0.9922560757731699 
2.9900000000018854, -0.9921077502326207 
3.0000000000019065, -0.992651931256006 
3.0100000000019276, -0.9927682567698188 
3.0200000000019487, -0.9927087679234579 
3.03000000000197, -0.9933508006820644 
3.040000000001991, -0.9933633698077597 
3.050000000002012, -0.9934447894356345 
3.060000000002033, -0.994128651730146 
3.070000000002054, -0.9940438653508721 
3.0800000000020753, -0.9943112899698603 
3.0900000000020964, -0.994968895730709 
3.1000000000021175, -0.9948129741467479 
3.1100000000021386, -0.9952953741433848 
3.1200000000021597, -0.995860822587382 
3.130000000002181, -0.9956777274075682 
3.140000000002202, -0.9963759431760646 
3.150000000002223, -0.9967981479869878 
3.160000000002244, -0.9966484551613857 
3.1700000000022652, -0.9975223191209747 
3.1800000000022863, -0.997773684787236 
3.1900000000023074, -0.9977293265355475 
3.2000000000023285, -0.9986950390147169 
3.2100000000023496, -0.998776720456567 
3.2200000000023707, -0.9989052409364273 
3.230000000002392, -0.9998539520006644 
3.240000000002413, -0.9997946241217701 
3.250000000002434, -1.0001400644022245 
3.260000000002455, -1.0009701811758864 
3.2700000000024763, -1.0008177900823305 
3.2800000000024974, -1.0013874841501296 
3.2900000000025185, -1.0020294509225323 
3.3000000000025396, -1.0018451259567902 
3.3100000000025607, -1.0026014522171782 
3.3200000000025818, -1.0030249377664926 
3.330000000002603, -1.0028810975972677 
3.340000000002624, -1.0037405678191527 
3.350000000002645, -1.003950505897596 
3.360000000002666, -1.003918420202796 
3.3700000000026873, -1.0047711767212557 
3.3800000000027084, -1.0047998809968552 
3.3900000000027295, -1.0049264035766388 
3.4000000000027506, -1.0056729150637522 
3.4100000000027717, -1.0055701440125484 
3.420000000002793, -1.0058642964267752 
3.430000000002814, -1.0064419179140263 
3.440000000002835, -1.0062665850320744 
3.450000000002856, -1.0067001572125076 
3.460000000002877, -1.0070859365861942 
3.4700000000028983, -1.00690226342985 
3.4800000000029194, -1.007415786506373 
3.4900000000029405, -1.007615976049309 
3.5000000000029616, -1.007484944794113 
3.5100000000029827, -1.008002937457362 
3.520000000003004, -1.0080420580433935 
3.530000000003025, -1.0080046500912745 
3.540000000003046, -1.0084601641246302 
3.550000000003067, -1.008374139243786 
3.5600000000030882, -1.0084420471943611 
3.5700000000031094, -1.0087925567605418 
3.5800000000031305, -1.0086252459963871 
3.5900000000031516, -1.008783875420558 
3.6000000000031727, -1.0090112575955665 
3.6100000000031938, -1.0088117282033269 
3.620000000003215, -1.009026719252459 
3.630000000003236, -1.0091303636622093 
3.640000000003257, -1.0089457726664446 
3.650000000003278, -1.0091731232187136 
3.6600000000032993, -1.0091634840939665 
3.6700000000033204, -1.009027670137416 
3.6800000000033415, -1.009227850914444 
3.6900000000033626, -1.009122930832287 
3.7000000000033837, -1.009050280912507 
3.710000000003405, -1.0091964877550983 
3.720000000003426, -1.0090212260660911 
3.730000000003447, -1.0090083330998603 
3.740000000003468, -1.0090857912836093 
3.750000000003489, -1.0088716416981167 
3.7600000000035103, -1.008901250512266 
3.7700000000035314, -1.0089040666475453 
3.7800000000035525, -1.008684570771062 
3.7900000000035736, -1.008731507419648 
3.8000000000035947, -1.0086604723235135 
3.810000000003616, -1.0084632454986682 
3.820000000003637, -1.0085027837706386 
3.830000000003658, -1.0083641806364767 
3.840000000003679, -1.0082055231540972 
3.8500000000037002, -1.008218866521987 
3.8600000000037213, -1.0080245202216247 
3.8700000000037424, -1.0079087742427966 
3.8800000000037635, -1.0078833516878933 
3.8900000000037847, -1.0076511782473918 
3.9000000000038058, -1.0075719445410747 
3.910000000003827, -1.007500092516398 
3.920000000003848, -1.0072525096289133 
3.930000000003869, -1.0071954446147526 
3.94000000000389, -1.0070737637719085 
3.9500000000039113, -1.006832962666554 
3.9600000000039324, -1.00678082089177 
3.9700000000039535, -1.006609971322577 
3.9800000000039746, -1.0063931459510624 
3.9900000000039957, -1.0063303409528899 
4.000000000004016, -1.0061151729129663 
4.010000000003993, -1.0059320351727927 
4.02000000000397, -1.0058464543860333 
4.030000000003946, -1.0055965969261413 
4.040000000003923, -1.005448367682682 
4.0500000000039, -1.0053315241292256 
4.0600000000038765, -1.005061422057705 
4.070000000003853, -1.0049412277235255 
4.08000000000383, -1.0047881139551866 
4.090000000003807, -1.0045151000606272 
4.100000000003783, -1.0044106202273588 
4.11000000000376, -1.0042195401506244 
4.120000000003737, -1.003960458810666 
4.130000000003713, -1.0038577279660437 
4.14000000000369, -1.0036302148878766 
4.150000000003667, -1.0033982572518105 
4.1600000000036434, -1.0032846269764006 
4.17000000000362, -1.0030256900108703 
4.180000000003597, -1.0028279534877491 
4.1900000000035735, -1.0026937008038384 
4.20000000000355, -1.0024123027724692 
4.210000000003527, -1.00224839269762 
4.220000000003504, -1.002087252663507 
4.23000000000348, -1.001796154757478 
4.240000000003457, -1.0016587754371336 
4.250000000003434, -1.0014676905672169 
4.26000000000341, -1.0011818823928003 
4.270000000003387, -1.0010594356609261 
4.280000000003364, -1.0008380743401377 
4.2900000000033405, -1.0005721486104437 
4.300000000003317, -1.0004519929032845 
4.310000000003294, -1.0002025231200957 
4.320000000003271, -0.999967822140988 
4.330000000003247, -0.9998389293042141 
4.340000000003224, -0.9995662599187585 
4.350000000003201, -0.9993684424649824 
4.360000000003177, -0.9992228706965057 
4.370000000003154, -0.9989351976556848 
4.380000000003131, -0.9987730929561334 
4.390000000003107, -0.9986061230071839 
4.400000000003084, -0.9983149941748306 
4.410000000003061, -0.9981814444081634 
4.4200000000030375, -0.9979908827552669 
4.430000000003014, -0.9977099994672306 
4.440000000002991, -0.9975943671379726 
4.450000000002968, -0.9973798605125023 
4.460000000002944, -0.9971227585420168 
4.470000000002921, -0.9970139010362383 
4.480000000002898, -0.9967767452204697 
4.490000000002874, -0.9965541549216208 
4.500000000002851, -0.9964426711447896 
4.510000000002828, -0.996186291106547 
4.520000000002804, -0.9960039754918142 
4.530000000002781, -0.9958830724140186 
4.540000000002758, -0.9956140220105351 
4.5500000000027345, -0.995471792735663 
4.560000000002711, -0.9953368694097706 
4.570000000002688, -0.9950654757908086 
4.580000000002665, -0.9949578476842238 
4.590000000002641, -0.9948056027588384 
4.600000000002618, -0.9945452085025264 
4.610000000002595, -0.9944635018803231 
4.620000000002571, -0.9942913945670077 
4.630000000002548, -0.9940561845490031 
4.640000000002525, -0.9939910670234401 
4.6500000000025015, -0.9937974742601641 
4.660000000002478, -0.9935998943839756 
4.670000000002455, -0.99354307815546 
4.6800000000024315, -0.9933283018276935 
4.690000000002408, -0.9931769868327954 
4.700000000002385, -0.9931214408180616 
4.710000000002362, -0.9928894931231169 
4.720000000002338, -0.9927880894875669 
4.730000000002315, -0.9927272081237117 
4.740000000002292, -0.9924874442863748 
4.750000000002268, -0.9924345354767449 
4.760000000002245, -0.9923613529489883 
4.770000000002222, -0.9921284641312993 
4.7800000000021985, -0.9921186862073572 
4.790000000002175, -0.9920258806765795 
4.800000000002152, -0.9918177867821572 
4.810000000002129, -0.9918436077183793 
4.820000000002105, -0.9917243515215693 
4.830000000002082, -0.9915592054932706 
4.840000000002059, -0.9916121280223512 
4.850000000002035, -0.9914618380999646 
4.860000000002012, -0.9913555516803295 
4.870000000001989, -0.9914258435663637 
4.880000000001965, -0.9912449644535964 
4.890000000001942, -0.9912095707059373 
4.900000000001919, -0.9912851302899273 
4.9100000000018955, -0.9910821434253213 
4.920000000001872, -0.9911246397878152 
4.930000000001849, -0.9911906329617748 
