t, s[1].omega / s[0].omega 
0, -0.7599976682704777 
0.009999999999999995, -0.7597426467506343 
0.019999999999999934, -0.7594408182724944 
0.029999999999999874, -0.7590841664248303 
0.04000000000000012, -0.758666187361501 
0.050000000000000405, -0.7581875749331382 
0.06000000000000069, -0.7576592770161112 
0.07000000000000098, -0.7571033738260315 
0.08000000000000126, -0.7565536117440667 
0.09000000000000155, -0.7560567107193055 
0.10000000000000184, -0.7556739387993621 
0.11000000000000212, -0.7554812272078374 
0.12000000000000241, -0.7555659828752321 
0.130000000000002, -0.7560199095637755 
0.1400000000000009, -0.7569290524044621 
0.1499999999999998, -0.7583636345075317 
0.1599999999999987, -0.7603697571285133 
0.1699999999999976, -0.7629626207609043 
0.1799999999999965, -0.7661181718278278 
0.1899999999999954, -0.7697595750259946 
0.1999999999999943, -0.7737394261697927 
0.2099999999999932, -0.7778292503507184 
0.2199999999999921, -0.7817383603674551 
0.229999999999991, -0.7851767603579682 
0.2399999999999899, -0.7879404590080743 
0.2499999999999888, -0.7899643098313436 
0.2599999999999877, -0.7913078257507176 
0.2699999999999866, -0.7920958581992064 
0.2799999999999855, -0.7924602319214775 
0.2899999999999844, -0.7925070030140197 
0.2999999999999833, -0.7923072677732598 
0.3099999999999822, -0.791900622816913 
0.3199999999999811, -0.7913039313842984 
0.32999999999998, -0.7905243484536708 
0.3399999999999789, -0.7895812273176638 
0.3499999999999778, -0.7885464473511037 
0.35999999999997667, -0.7876149320426669 
0.36999999999997557, -0.7872081061747125 
0.37999999999997447, -0.78807507518163 
0.38999999999997337, -0.791276553531305 
0.39999999999997227, -0.7978647553665199 
0.40999999999997117, -0.8081951826406565 
0.41999999999997006, -0.8212853244121445 
0.42999999999996896, -0.8350033397125932 
0.43999999999996786, -0.8471876638542406 
0.44999999999996676, -0.8566621934225447 
0.45999999999996566, -0.8633419737669129 
0.46999999999996456, -0.867740942435421 
0.47999999999996346, -0.8704985392056935 
0.48999999999996235, -0.8721489020269526 
0.49999999999996125, -0.8730680642957231 
0.5099999999999602, -0.8734947634390157 
0.519999999999959, -0.8735652622310963 
0.529999999999958, -0.873339841409736 
0.5399999999999568, -0.872815380202441 
0.5499999999999557, -0.8719230224790492 
0.5599999999999546, -0.8705097302744946 
0.5699999999999535, -0.8683023467813769 
0.5799999999999524, -0.8648585378057622 
0.5899999999999513, -0.8595319862267103 
0.5999999999999502, -0.8515323618742116 
0.6099999999999491, -0.8402178359359178 
0.619999999999948, -0.8256711772471664 
0.6299999999999469, -0.8092095737602282 
0.6399999999999458, -0.7931427484009312 
0.6499999999999447, -0.7796843216930675 
0.6599999999999436, -0.7699493991809823 
0.6699999999999425, -0.7638228212148155 
0.6799999999999414, -0.7604787106352624 
0.6899999999999403, -0.7589490027808627 
0.6999999999999392, -0.7584412056192924 
0.7099999999999381, -0.7584213118610965 
0.719999999999937, -0.7585750560065202 
0.7299999999999359, -0.7587357541190316 
0.7399999999999348, -0.7588205997945645 
0.7499999999999337, -0.7587863360285321 
0.7599999999999326, -0.7586018373049412 
0.7699999999999315, -0.7582323429071106 
0.7799999999999304, -0.7576319675617442 
0.7899999999999293, -0.7567444330260714 
0.7999999999999282, -0.7555143553745276 
0.8099999999999271, -0.7539095434547574 
0.819999999999926, -0.7519462851591018 
0.8299999999999249, -0.7497005193686614 
0.8399999999999238, -0.7472924226152863 
0.8499999999999227, -0.7448522675546465 
0.8599999999999216, -0.7424897352346393 
0.8699999999999205, -0.7402814749408886 
0.8799999999999194, -0.7382750950550939 
0.8899999999999183, -0.7364996004242036 
0.8999999999999172, -0.7349742268604499 
0.9099999999999161, -0.7337126209085387 
0.919999999999915, -0.7327228424507435 
0.9299999999999139, -0.7320051483907407 
0.9399999999999128, -0.7315497179595362 
0.9499999999999117, -0.7313359775668482 
0.9599999999999106, -0.7313342471327285 
0.9699999999999095, -0.7315093680585845 
0.9799999999999084, -0.731825217339518 
0.9899999999999073, -0.7322488595569993 
0.9999999999999062, -0.7327534244481116 
1.0099999999999052, -0.7333191702193651 
1.019999999999904, -0.7339322607205576 
1.029999999999903, -0.7345807943697003 
1.039999999999902, -0.735248376640018 
1.0499999999999008, -0.7359074956200893 
1.0599999999998997, -0.7365170464908968 
1.0699999999998986, -0.7370278637368322 
1.0799999999998975, -0.7373953431555997 
1.0899999999998964, -0.7375922097234036 
1.0999999999998953, -0.7376137712331851 
1.1099999999998942, -0.7374741979015723 
1.119999999999893, -0.7371988932337172 
1.129999999999892, -0.7368191425845088 
1.1399999999998909, -0.73637246693367 
1.1499999999998898, -0.735909561009559 
1.1599999999998887, -0.7355077160155442 
1.1699999999998876, -0.7352900623898494 
1.1799999999998865, -0.7354482448773236 
1.1899999999998854, -0.7362624659649134 
1.1999999999998843, -0.7381076746054027 
1.2099999999998832, -0.7414296904095458 
1.219999999999882, -0.7466724066996365 
1.229999999999881, -0.7541406383583505 
1.2399999999998799, -0.7638041277255365 
1.2499999999998788, -0.7751079950560816 
1.2599999999998777, -0.7869457922913452 
1.2699999999998766, -0.7979536649334508 
1.2799999999998755, -0.8070418543919731 
1.2899999999998744, -0.813778405521618 
1.2999999999998733, -0.8183490417105801 
1.3099999999998722, -0.8212421079414461 
1.319999999999871, -0.8229631330011109 
1.32999999999987, -0.8239040623209994 
1.3399999999998689, -0.824325464365689 
1.3499999999998678, -0.8243815325863204 
1.3599999999998666, -0.824148353184991 
1.3699999999998655, -0.8236422267395019 
1.3799999999998644, -0.8228261268050913 
1.3899999999998633, -0.8216053475746339 
1.3999999999998622, -0.8198141732917872 
1.4099999999998611, -0.8171978044429432 
1.41999999999986, -0.8134010400149577 
1.429999999999859, -0.8079904302352547 
1.4399999999998578, -0.8005591475621111 
1.4499999999998567, -0.7909740648667059 
1.4599999999998556, -0.7797464765692604 
1.4699999999998545, -0.7682450360522414 
1.4799999999998534, -0.758281992800895 
1.4899999999998523, -0.7511579202391918 
1.4999999999998512, -0.7470592186121819 
1.5099999999998501, -0.7453067279584655 
1.519999999999849, -0.7449760481519501 
1.529999999999848, -0.7453166593819971 
1.5399999999998468, -0.7458619957010115 
1.5499999999998457, -0.746374186732374 
1.5599999999998446, -0.7467537368957802 
1.5699999999998435, -0.7469686080459319 
1.5799999999998424, -0.747010533657259 
1.5899999999998413, -0.7468708252583933 
1.5999999999998402, -0.7465270006670398 
1.6099999999998391, -0.74593502880114 
1.619999999999838, -0.745026376896459 
1.629999999999837, -0.7437136370457413 
1.6399999999998358, -0.741911378647857 
1.6499999999998347, -0.7395743818652616 
1.6599999999998336, -0.7367391352254803 
1.6699999999998325, -0.7335383885691207 
1.6799999999998314, -0.7301695812112977 
1.6899999999998303, -0.7268355842729698 
1.6999999999998292, -0.7236969478253836 
1.709999999999828, -0.7208563520834732 
1.719999999999827, -0.7183677542691589 
1.729999999999826, -0.716253130224424 
1.7399999999998248, -0.7145156672770102 
1.7499999999998237, -0.7131465133929714 
1.7599999999998226, -0.7121267891462477 
1.7699999999998215, -0.7114277922832315 
1.7799999999998204, -0.7110117617319033 
1.7899999999998193, -0.7108343050667145 
1.7999999999998182, -0.7108482992028062 
1.809999999999817, -0.7110082566281613 
1.819999999999816, -0.7112740636322779 
1.8299999999998149, -0.7116134685587938 
1.8399999999998138, -0.7120032143960998 
1.8499999999998127, -0.7124287877890486 
1.8599999999998116, -0.7128823639291957 
1.8699999999998105, -0.7133582988586447 
1.8799999999998094, -0.7138464013087519 
1.8899999999998083, -0.7143253722249098 
1.8999999999998072, -0.7147606765027545 
1.909999999999806, -0.7151101018979649 
1.919999999999805, -0.7153354577697091 
1.9299999999998039, -0.7154137820042618 
1.9399999999998028, -0.7153416355891188 
1.9499999999998017, -0.7151318768156955 
1.9599999999998006, -0.714807614261235 
1.9699999999997995, -0.714398588586923 
1.9799999999997984, -0.7139428240953258 
1.9899999999997973, -0.713494343104689 
1.9999999999997962, -0.7131369354138462 
2.0099999999998173, -0.7130033785446559 
2.0199999999998384, -0.7132978271350806 
2.0299999999998595, -0.7143156409992876 
2.0399999999998806, -0.7164498005138096 
2.0499999999999017, -0.7201669744861628 
2.059999999999923, -0.7259307071766591 
2.069999999999944, -0.7340496622170064 
2.079999999999965, -0.7444540567949802 
2.089999999999986, -0.7564835645275939 
2.100000000000007, -0.7688847786696107 
2.1100000000000283, -0.7801915598210986 
2.1200000000000494, -0.789329340149555 
2.1300000000000705, -0.7959711898174315 
2.1400000000000916, -0.8004095070310662 
2.1500000000001127, -0.8031905836671115 
2.160000000000134, -0.8048347715684141 
2.170000000000155, -0.8057286571245175 
2.180000000000176, -0.806122655346341 
2.190000000000197, -0.8061617210899229 
2.2000000000002182, -0.8059141388025541 
2.2100000000002393, -0.8053882022509745 
2.2200000000002604, -0.8045356019335351 
2.2300000000002815, -0.8032416831129698 
2.2400000000003026, -0.8013021813385006 
2.2500000000003237, -0.7983875495493105 
2.260000000000345, -0.7940055200127548 
2.270000000000366, -0.7875012354256806 
2.280000000000387, -0.7781899086609892 
2.290000000000408, -0.765748796508676 
2.3000000000004293, -0.7508113199405287 
2.3100000000004504, -0.7352191886068519 
2.3200000000004715, -0.7213168230546937 
2.3300000000004926, -0.7107234140130199 
2.3400000000005137, -0.7037507561724061 
2.3500000000005348, -0.6997576151815245 
2.360000000000556, -0.6977956272134317 
2.370000000000577, -0.6970304344288942 
2.380000000000598, -0.6968777989896914 
2.390000000000619, -0.6969823252350565 
2.4000000000006403, -0.6971486479327884 
2.4100000000006614, -0.6972769079454301 
2.4200000000006825, -0.6973167517004383 
2.4300000000007036, -0.6972384964082987 
2.4400000000007247, -0.6970164479771235 
2.450000000000746, -0.6966205034660904 
2.460000000000767, -0.6960146783219945 
2.470000000000788, -0.695163230060327 
2.480000000000809, -0.6940445642801413 
2.49000000000083, -0.6926683668661285 
2.5000000000008513, -0.6910850553157915 
2.5100000000008724, -0.689377529432019 
2.5200000000008935, -0.6876376575950846 
2.5300000000009146, -0.6859422832838205 
2.5400000000009357, -0.684341823995543 
2.550000000000957, -0.6828628422173588 
2.560000000000978, -0.6815177406349555 
2.570000000000999, -0.6803145048072221 
2.58000000000102, -0.6792630067365233 
2.5900000000010412, -0.6783774844335778 
2.6000000000010624, -0.6776761657219906 
2.6100000000010835, -0.6771791964430793 
2.6200000000011046, -0.6769058934824745 
2.6300000000011257, -0.6768722317186591 
2.6400000000011468, -0.6770893313416948 
2.650000000001168, -0.67756338507391 
2.660000000001189, -0.6782969298809649 
2.67000000000121, -0.6792907300027673 
2.680000000001231, -0.6805449106728368 
2.6900000000012523, -0.682057449751952 
2.7000000000012734, -0.6838179605058297 
2.7100000000012945, -0.6857956905002042 
2.7200000000013156, -0.6879241548727775 
2.7300000000013367, -0.6900911238590097 
2.740000000001358, -0.6921474043215758 
2.750000000001379, -0.6939410982215318 
2.7600000000014, -0.6953630357793563 
2.770000000001421, -0.6963740304793664 
2.780000000001442, -0.6969980220394071 
2.7900000000014633, -0.6972929667887245 
2.8000000000014844, -0.6973216273957256 
2.8100000000015055, -0.6971341536117961 
2.8200000000015266, -0.6967621702506724 
2.8300000000015477, -0.6962199056004027 
2.840000000001569, -0.6955094581294051 
2.85000000000159, -0.6946305080345463 
2.860000000001611, -0.6935978498433658 
2.870000000001632, -0.6924720646855472 
2.8800000000016532, -0.6914062474459406 
2.8900000000016743, -0.690696576684032 
2.9000000000016954, -0.6907861673291003 
2.9100000000017165, -0.692126864346444 
2.9200000000017377, -0.6948592051029336 
2.9300000000017588, -0.698552391221738 
2.94000000000178, -0.7024331692362902 
2.950000000001801, -0.7059632461002789 
2.960000000001822, -0.7090329288211518 
2.970000000001843, -0.7116880720173515 
2.9800000000018643, -0.7139288105346937 
2.9900000000018854, -0.7157282462027281 
3.0000000000019065, -0.7170902380697504 
3.0100000000019276, -0.7180578363753672 
3.0200000000019487, -0.7186924842495113 
3.03000000000197, -0.7190527269625224 
3.040000000001991, -0.7191814231138803 
3.050000000002012, -0.7190995057711221 
3.060000000002033, -0.7188023694026493 
3.070000000002054, -0.7182564363341158 
3.0800000000020753, -0.7173960750375594 
3.0900000000020964, -0.7161248239564173 
3.1000000000021175, -0.7143294693345608 
3.1100000000021386, -0.7119164609120099 
3.1200000000021597, -0.7088678197555882 
3.130000000002181, -0.7052868887618892 
3.140000000002202, -0.701391753360281 
3.150000000002223, -0.697449227959551 
3.160000000002244, -0.6936946596682858 
3.1700000000022652, -0.6902869362062327 
3.1800000000022863, -0.6873075999750385 
3.1900000000023074, -0.6847828016897088 
3.2000000000023285, -0.6827066450129584 
3.2100000000023496, -0.6810566829266642 
3.2200000000023707, -0.679801447141019 
3.230000000002392, -0.6789032232873661 
3.240000000002413, -0.678319245660524 
3.250000000002434, -0.6780032522453313 
3.260000000002455, -0.6779079991799565 
3.2700000000024763, -0.6779883748126903 
3.2800000000024974, -0.6782043803142669 
3.2900000000025185, -0.6785233891338237 
3.3000000000025396, -0.6789214394743032 
3.3100000000025607, -0.6793834451427105 
3.3200000000025818, -0.6799019246186728 
3.330000000002603, -0.6804734290864511 
3.340000000002624, -0.6810921042586486 
3.350000000002645, -0.6817414879593554 
3.360000000002666, -0.6823882945121359 
3.3700000000026873, -0.6829833350720416 
3.3800000000027084, -0.6834719897106951 
3.3900000000027295, -0.6838098914839316 
3.4000000000027506, -0.683974557206251 
3.4100000000027717, -0.683966734965387 
3.420000000002793, -0.6838034149347569 
3.430000000002814, -0.6835092495239492 
3.440000000002835, -0.6831118491822706 
3.450000000002856, -0.6826431614607338 
3.460000000002877, -0.6821475503618618 
3.4700000000028983, -0.6816975260314804 
3.4800000000029194, -0.68141891937382 
3.4900000000029405, -0.6815269744997394 
3.5000000000029616, -0.6823712463818198 
3.5100000000029827, -0.6844771743095897 
3.520000000003004, -0.6885517175085958 
3.530000000003025, -0.6953892015026243 
3.540000000003046, -0.7055935064911509 
3.550000000003067, -0.719102290492621 
3.5600000000030882, -0.7347584974795642 
3.5700000000031094, -0.7504574060011706 
3.5800000000031305, -0.764079493554516 
3.5900000000031516, -0.7744835900632447 
3.6000000000031727, -0.7816860480691203 
3.6100000000031938, -0.7863467350279912 
3.620000000003215, -0.7892284582200666 
3.630000000003236, -0.7909404089115531 
3.640000000003257, -0.7918959208606033 
3.650000000003278, -0.7923506793267563 
3.6600000000032993, -0.792449542100177 
3.6700000000033204, -0.7922596121319097 
3.6800000000033415, -0.7917867481912718 
3.6900000000033626, -0.7909767902455112 
3.7000000000033837, -0.7897018609538521 
3.710000000003405, -0.7877313978405553 
3.720000000003426, -0.7846922308402379 
3.730000000003447, -0.7800414466970735 
3.740000000003468, -0.7731191539352686 
3.750000000003489, -0.7633881762296675 
3.7600000000035103, -0.7508812199840682 
3.7700000000035314, -0.7365651902726373 
3.7800000000035525, -0.7221458476844301 
3.7900000000035736, -0.7093165567520896 
3.8000000000035947, -0.6990887402646361 
3.810000000003616, -0.691661416296193 
3.820000000003637, -0.6866865307010387 
3.830000000003658, -0.6835961244590478 
3.840000000003679, -0.6818217934476019 
3.8500000000037002, -0.6808954829887386 
3.8600000000037213, -0.6804734756419433 
3.8700000000037424, -0.6803226833807725 
3.8800000000037635, -0.6802938555640748 
3.8900000000037847, -0.6802944858773758 
3.9000000000038058, -0.6802667896139196 
3.910000000003827, -0.6801721923926546 
3.920000000003848, -0.6799822091735128 
3.930000000003869, -0.6796752707089538 
3.94000000000389, -0.6792387246384762 
3.9500000000039113, -0.6786738289162682 
3.9600000000039324, -0.6779993509120015 
3.9700000000039535, -0.6772489797725695 
3.9800000000039746, -0.6764616416166189 
3.9900000000039957, -0.6756696506993961 
4.000000000004016, -0.6748915495375067 
4.010000000003993, -0.6741327131675164 
4.02000000000397, -0.6733915945676124 
4.030000000003946, -0.6726672259890993 
4.040000000003923, -0.6719647923666675 
4.0500000000039, -0.6712986213045147 
4.0600000000038765, -0.6706935782437576 
4.070000000003853, -0.670185943394537 
4.08000000000383, -0.6698240834122068 
4.090000000003807, -0.6696685445755277 
4.100000000003783, -0.6697910331599652 
4.11000000000376, -0.670272076433329 
4.120000000003737, -0.6711976280267172 
4.130000000003713, -0.6726549765435323 
4.14000000000369, -0.6747275484096548 
4.150000000003667, -0.6774863990662324 
4.1600000000036434, -0.6809739068880751 
4.17000000000362, -0.6851744237306387 
4.180000000003597, -0.6899718929956683 
4.1900000000035735, -0.6951111851496515 
4.20000000000355, -0.7002032504361357 
4.210000000003527, -0.7048121271832414 
4.220000000003504, -0.7085999106989743 
4.23000000000348, -0.7114320722609491 
4.240000000003457, -0.7133696913931925 
4.250000000003434, -0.7145799431268076 
4.26000000000341, -0.7152451117508237 
4.270000000003387, -0.7155123904575671 
4.280000000003364, -0.7154796311289744 
4.2900000000033405, -0.715197738029073 
4.300000000003317, -0.7146757269586147 
4.310000000003294, -0.7138818506427786 
4.320000000003271, -0.7127380247820427 
4.330000000003247, -0.7111057514210637 
4.340000000003224, -0.7087615616087403 
4.350000000003201, -0.7053611338768142 
4.360000000003177, -0.7004008543644936 
4.370000000003154, -0.6932231576127839 
4.380000000003131, -0.6831950921775174 
4.390000000003107, -0.6702143038235356 
4.400000000003084, -0.6553328629093026 
4.410000000003061, -0.6406821349377585 
4.4200000000030375, -0.628359564050803 
4.430000000003014, -0.6193603943230596 
4.440000000002991, -0.6135176816811215 
4.450000000002968, -0.6100838920449256 
4.460000000002944, -0.6082500419110012 
4.470000000002921, -0.6073776116974676 
4.480000000002898, -0.6070340657130711 
4.490000000002874, -0.606951671540523 
4.500000000002851, -0.6069739829054626 
4.510000000002828, -0.6070123765200421 
4.520000000002804, -0.6070161628182368 
4.530000000002781, -0.6069538961391843 
4.540000000002758, -0.606802903411633 
4.5500000000027345, -0.6065450518056862 
4.560000000002711, -0.6061676919789745 
4.570000000002688, -0.6056684783644697 
4.580000000002665, -0.6050609758149998 
4.590000000002641, -0.6043760774135964 
4.600000000002618, -0.6036555451551506 
4.610000000002595, -0.6029394604121044 
4.620000000002571, -0.6022544400252631 
4.630000000002548, -0.6016089148856744 
4.640000000002525, -0.6009966476833648 
4.6500000000025015, -0.6004050233201528 
4.660000000002478, -0.5998233991694403 
4.670000000002455, -0.5992485834610026 
4.6800000000024315, -0.5986873168471163 
4.690000000002408, -0.5981574550599137 
4.700000000002385, -0.5976897316760279 
4.710000000002362, -0.5973312240313126 
4.720000000002338, -0.5971508478849865 
4.730000000002315, -0.5972467063012765 
4.740000000002292, -0.5977547961260977 
4.750000000002268, -0.5988581096566488 
4.760000000002245, -0.6007939992435465 
4.770000000002222, -0.6038547406860548 
4.7800000000021985, -0.6083699705531738 
4.790000000002175, -0.6146496174289291 
4.800000000002152, -0.6228590993225512 
4.810000000002129, -0.6328216005349127 
4.820000000002105, -0.6438356965709109 
4.830000000002082, -0.6547230703631423 
4.840000000002059, -0.6642493177050051 
4.850000000002035, -0.6716651326433857 
4.860000000002012, -0.6769010449936571 
4.870000000001989, -0.6803374963240749 
4.880000000001965, -0.6824726066030502 
4.890000000001942, -0.6837279311840364 
4.900000000001919, -0.6843978227627413 
4.9100000000018955, -0.6846651937037646 
4.920000000001872, -0.6846300969490804 
