t, s[1].omega / s[0].omega 
0, -1.280005396116064 
0.009999999999999995, -1.280380901651717 
0.019999999999999934, -1.2804436643634491 
0.029999999999999874, -1.2802211150757576 
0.04000000000000012, -1.2797513059118073 
0.050000000000000405, -1.2790826378693338 
0.06000000000000069, -1.2782763929306238 
0.07000000000000098, -1.2774094823865423 
0.08000000000000126, -1.276571310207489 
0.09000000000000155, -1.2758515296698585 
0.10000000000000184, -1.2753220371083989 
0.11000000000000212, -1.2750166480827105 
0.12000000000000241, -1.2749132781118415 
0.130000000000002, -1.274934232910331 
0.1400000000000009, -1.274972329675111 
0.1499999999999998, -1.2749215903439561 
0.1599999999999987, -1.2746880273975976 
0.1699999999999976, -1.2741809191514495 
0.1799999999999965, -1.2733001267056119 
0.1899999999999954, -1.2719323937612539 
0.1999999999999943, -1.2699618415945255 
0.2099999999999932, -1.2672930938401745 
0.2199999999999921, -1.2638824011886831 
0.229999999999991, -1.2597761916339967 
0.2399999999999899, -1.2551620158617507 
0.2499999999999888, -1.2504228669733568 
0.2599999999999877, -1.2461331077774411 
0.2699999999999866, -1.2428891976013703 
0.2799999999999855, -1.2409888589042155 
0.2899999999999844, -1.2402458058878312 
0.2999999999999833, -1.2401733948800349 
0.3099999999999822, -1.2403150197343373 
0.3199999999999811, -1.2403955172132828 
0.32999999999998, -1.2402814638297266 
0.3399999999999789, -1.239887754549344 
0.3499999999999778, -1.2390982367714718 
0.35999999999997667, -1.237695515965123 
0.36999999999997557, -1.2352771302179504 
0.37999999999997447, -1.2311545518146925 
0.38999999999997337, -1.2243041908916965 
0.39999999999997227, -1.2136072798227533 
0.40999999999997117, -1.1987629289150787 
0.41999999999997006, -1.1817452477401926 
0.42999999999996896, -1.1670257941842448 
0.43999999999996786, -1.1586928647685972 
0.44999999999996676, -1.1570795864236714 
0.45999999999996566, -1.1593339628396406 
0.46999999999996456, -1.1625002235836703 
0.47999999999996346, -1.1650969227305077 
0.48999999999996235, -1.166802380001126 
0.49999999999996125, -1.1677540372310355 
0.5099999999999602, -1.168156262318223 
0.519999999999959, -1.168152761525885 
0.529999999999958, -1.167806587514588 
0.5399999999999568, -1.1671054718792289 
0.5499999999999557, -1.1659705677636616 
0.5599999999999546, -1.1642850645196199 
0.5699999999999535, -1.1620053862571378 
0.5799999999999524, -1.1594702563083135 
0.5899999999999513, -1.1579409884046628 
0.5999999999999502, -1.1598741027016433 
0.6099999999999491, -1.167772333983719 
0.619999999999948, -1.1816823410741821 
0.6299999999999469, -1.1983017454718379 
0.6399999999999458, -1.213428404289274 
0.6499999999999447, -1.2247281832694155 
0.6599999999999436, -1.2320791519670264 
0.6699999999999425, -1.2364249240151968 
0.6799999999999414, -1.2388046412917724 
0.6899999999999403, -1.2399851468241487 
0.6999999999999392, -1.2404428701974366 
0.7099999999999381, -1.2404480710385712 
0.719999999999937, -1.2401499531414664 
0.7299999999999359, -1.239647174449163 
0.7399999999999348, -1.2390574936754186 
0.7499999999999337, -1.238592525358064 
0.7599999999999326, -1.23859532234825 
0.7699999999999315, -1.2394471479677287 
0.7799999999999304, -1.2413367989826614 
0.7899999999999293, -1.2441032341714977 
0.7999999999999282, -1.2473337383792336 
0.8099999999999271, -1.250590842093352 
0.819999999999926, -1.253554622715311 
0.8299999999999249, -1.256042737088298 
0.8399999999999238, -1.2579776602429464 
0.8499999999999227, -1.2593526518812133 
0.8599999999999216, -1.260208217428567 
0.8699999999999205, -1.2606139423951177 
0.8799999999999194, -1.2606519942686951 
0.8899999999999183, -1.260404952428793 
0.8999999999999172, -1.2599525420860247 
0.9099999999999161, -1.2593775464305572 
0.919999999999915, -1.2587735523370633 
0.9299999999999139, -1.2582416065568096 
0.9399999999999128, -1.257869147388719 
0.9499999999999117, -1.2577038177918367 
0.9599999999999106, -1.257742261300112 
0.9699999999999095, -1.2579366094947448 
0.9799999999999084, -1.2582091572741885 
0.9899999999999073, -1.258470552240024 
0.9999999999999062, -1.2586367846788762 
1.0099999999999052, -1.258637675259639 
1.019999999999904, -1.2584164189004565 
1.029999999999903, -1.2579266843769616 
1.039999999999902, -1.257132355595703 
1.0499999999999008, -1.2560100393457436 
1.0599999999998997, -1.2545523980856221 
1.0699999999998986, -1.252772224899744 
1.0799999999998975, -1.2507097707169683 
1.0899999999998964, -1.2484457872768906 
1.0999999999998953, -1.2461183557049174 
1.1099999999998942, -1.2439306170008435 
1.119999999999893, -1.2421207010079272 
1.129999999999892, -1.2408716201591907 
1.1399999999998909, -1.2402056568360864 
1.1499999999998898, -1.2399691297469917 
1.1599999999998887, -1.239931923955525 
1.1699999999998876, -1.2398948330322512 
1.1799999999998865, -1.2397199106536985 
1.1899999999998854, -1.2392986976946718 
1.1999999999998843, -1.2385010991293746 
1.2099999999998832, -1.2371232602659312 
1.219999999999882, -1.2348378273964928 
1.229999999999881, -1.2311614286150097 
1.2399999999998799, -1.2254874532389528 
1.2499999999998788, -1.2172667312302716 
1.2599999999998777, -1.206397205269639 
1.2699999999998766, -1.1937205869155527 
1.2799999999998755, -1.1812086924269878 
1.2899999999998744, -1.1712781888346837 
1.2999999999998733, -1.1653722181867956 
1.3099999999998722, -1.1631339255158852 
1.319999999999871, -1.1630792242310573 
1.32999999999987, -1.1638104493857826 
1.3399999999998689, -1.1645531880268476 
1.3499999999998678, -1.1650308235953444 
1.3599999999998666, -1.1651943894548347 
1.3699999999998655, -1.1650486503986177 
1.3799999999998644, -1.1645711271021837 
1.3899999999998633, -1.1636695707667142 
1.3999999999998622, -1.1621413041702553 
1.4099999999998611, -1.1596228950407812 
1.41999999999986, -1.1555589473013317 
1.429999999999859, -1.1493116857127625 
1.4399999999998578, -1.140666258819757 
1.4499999999998567, -1.1308494791767532 
1.4599999999998556, -1.1231546335706266 
1.4699999999998545, -1.1212732089160045 
1.4799999999998534, -1.1259283318088937 
1.4899999999998523, -1.1341576458725664 
1.4999999999998512, -1.1422920574704403 
1.5099999999998501, -1.148433760291685 
1.519999999999849, -1.1524036460401788 
1.529999999999848, -1.154722483588371 
1.5399999999998468, -1.1559506449281818 
1.5499999999998457, -1.1564848761234472 
1.5599999999998446, -1.1565579020998922 
1.5699999999998435, -1.156282855421019 
1.5799999999998424, -1.1556926376203247 
1.5899999999998413, -1.1547749152032012 
1.5999999999998402, -1.1535302864293335 
1.6099999999998391, -1.1521066229445556 
1.619999999999838, -1.151057551443782 
1.629999999999837, -1.1516162528613072 
1.6399999999998358, -1.1555144666018609 
1.6499999999998347, -1.1638962144568792 
1.6599999999998336, -1.1760527884244671 
1.6699999999998325, -1.189555466427001 
1.6799999999998314, -1.2017974977551018 
1.6899999999998303, -1.2112911852086559 
1.6999999999998292, -1.2178216733051592 
1.709999999999828, -1.2219106079482152 
1.719999999999827, -1.2242662615663034 
1.729999999999826, -1.2254897011612698 
1.7399999999998248, -1.2259978470393267 
1.7499999999998237, -1.2260498438113294 
1.7599999999998226, -1.22580140564567 
1.7699999999998215, -1.2253605257518567 
1.7799999999998204, -1.2248432665395135 
1.7899999999998193, -1.2244256434028649 
1.7999999999998182, -1.2243585915026418 
1.809999999999817, -1.224894805598168 
1.819999999999816, -1.2261461498564115 
1.8299999999998149, -1.2280037585497148 
1.8399999999998138, -1.2302064387202836 
1.8499999999998127, -1.2324738455800865 
1.8599999999998116, -1.2345898694733992 
1.8699999999998105, -1.236417645696223 
1.8799999999998094, -1.2378830143565682 
1.8899999999998083, -1.2389556015057188 
1.8999999999998072, -1.2396366681771376 
1.909999999999806, -1.2399518212053102 
1.919999999999805, -1.2399444112541116 
1.9299999999998039, -1.2396686576085874 
1.9399999999998028, -1.2391854142173808 
1.9499999999998017, -1.2385632908379893 
1.9599999999998006, -1.2378827186178014 
1.9699999999997995, -1.237234607548364 
1.9799999999997984, -1.2367065280290894 
1.9899999999997973, -1.2363612025218198 
1.9999999999997962, -1.2362206351269296 
2.0099999999998173, -1.2362618993269856 
2.0199999999998384, -1.236422888580795 
2.0299999999998595, -1.2366177869823538 
2.0399999999998806, -1.2367574537679993 
2.0499999999999017, -1.2367632230916878 
2.059999999999923, -1.236569189772093 
2.069999999999944, -1.2361189640010304 
2.079999999999965, -1.2353645584430288 
2.089999999999986, -1.2342696639021324 
2.100000000000007, -1.232814896226606 
2.1100000000000283, -1.23100262580416 
2.1200000000000494, -1.2288624794267564 
2.1300000000000705, -1.2264610873639405 
2.1400000000000916, -1.2239175567681468 
2.1500000000001127, -1.2214176771765874 
2.160000000000134, -1.2192045002665057 
2.170000000000155, -1.2175143121895635 
2.180000000000176, -1.2164647143161702 
2.190000000000197, -1.2159820464918643 
2.2000000000002182, -1.2158516953291532 
2.2100000000002393, -1.215840424781634 
2.2200000000002604, -1.2157735882935092 
2.2300000000002815, -1.2155327233151836 
2.2400000000003026, -1.2150123616629882 
2.2500000000003237, -1.214069992758729 
2.260000000000345, -1.2124781200939878 
2.270000000000366, -1.2098825992026945 
2.280000000000387, -1.2057898014614192 
2.290000000000408, -1.1996365570778948 
2.3000000000004293, -1.1910114036641888 
2.3100000000004504, -1.180036953519564 
2.3200000000004715, -1.1677485465161148 
2.3300000000004926, -1.1560800772392308 
2.3400000000005137, -1.14710420688534 
2.3500000000005348, -1.1418580620923884 
2.360000000000556, -1.1398504183090494 
2.370000000000577, -1.1397441378260806 
2.380000000000598, -1.1403359349079865 
2.390000000000619, -1.1409548545389114 
2.4000000000006403, -1.1413482444650551 
2.4100000000006614, -1.1414586158791373 
2.4200000000006825, -1.141275998164479 
2.4300000000007036, -1.1407641198572909 
2.4400000000007247, -1.1398164991117787 
2.450000000000746, -1.1382100769037933 
2.460000000000767, -1.1355423685686277 
2.470000000000788, -1.1311699814900387 
2.480000000000809, -1.124246496973357 
2.49000000000083, -1.1140959988405164 
2.5000000000008513, -1.1011433953835623 
2.5100000000008724, -1.0878900127243716 
2.5200000000008935, -1.0782606872087916 
2.5300000000009146, -1.074785069773068 
2.5400000000009357, -1.076629282288807 
2.550000000000957, -1.0809244572900734 
2.560000000000978, -1.0852390113107655 
2.570000000000999, -1.0885160923731902 
2.58000000000102, -1.0906529343526024 
2.5900000000010412, -1.0918930837240752 
2.6000000000010624, -1.0925013661836875 
2.6100000000010835, -1.0926633006700772 
2.6200000000011046, -1.0924759838618419 
2.6300000000011257, -1.0919585859877048 
2.6400000000011468, -1.0910584604989357 
2.650000000001168, -1.0896530947052059 
2.660000000001189, -1.0875694944601446 
2.67000000000121, -1.0846805062573133 
2.680000000001231, -1.0811853504984803 
2.6900000000012523, -1.078125216088886 
2.7000000000012734, -1.077762348353569 
2.7100000000012945, -1.0828111205733655 
2.7200000000013156, -1.0941672848677346 
2.7300000000013367, -1.1093717254007456 
2.740000000001358, -1.1242506233957779 
2.750000000001379, -1.1359092823163521 
2.7600000000014, -1.1437411682162089 
2.770000000001421, -1.148490779002151 
2.780000000001442, -1.1511679861474755 
2.7900000000014633, -1.1525627882888556 
2.8000000000014844, -1.1531778449619536 
2.8100000000015055, -1.1532985671161766 
2.8200000000015266, -1.1530716497639995 
2.8300000000015477, -1.1525639670131098 
2.840000000001569, -1.1518135136670602 
2.85000000000159, -1.1509003618937048 
2.860000000001611, -1.1500684763763536 
2.870000000001632, -1.1498832346154615 
2.8800000000016532, -1.1512664988013532 
2.8900000000016743, -1.1551462401694688 
2.9000000000016954, -1.1617811886728286 
2.9100000000017165, -1.1703990740258772 
2.9200000000017377, -1.1795849559530598 
2.9300000000017588, -1.188001250991618 
2.94000000000178, -1.1948357618524252 
2.950000000001801, -1.1998510211467517 
2.960000000001822, -1.2032121795901987 
2.970000000001843, -1.205268871534322 
2.9800000000018643, -1.2063880616406188 
2.9900000000018854, -1.2068683182553723 
3.0000000000019065, -1.206920778609813 
3.0100000000019276, -1.2066872045119317 
3.0200000000019487, -1.2062737578178961 
3.03000000000197, -1.2057905025064142 
3.040000000001991, -1.2053855222440555 
3.050000000002012, -1.2052476135939607 
3.060000000002033, -1.2055508751026636 
3.070000000002054, -1.206365979241797 
3.0800000000020753, -1.2076194837695209 
3.0900000000020964, -1.2091401805245885 
3.1000000000021175, -1.210739350737426 
3.1100000000021386, -1.2122625711691204 
3.1200000000021597, -1.2136028795867948 
3.130000000002181, -1.2146938940274778 
3.140000000002202, -1.2154988991597837 
3.150000000002223, -1.216002907938431 
3.160000000002244, -1.2162087049724912 
3.1700000000022652, -1.2161348254520192 
3.1800000000022863, -1.2158133706680578 
3.1900000000023074, -1.2152879209638958 
3.2000000000023285, -1.2146135252890087 
3.2100000000023496, -1.2138587968907764 
3.2200000000023707, -1.213105522972181 
3.230000000002392, -1.2124397177917798 
3.240000000002413, -1.2119343729126508 
3.250000000002434, -1.2116317627088926 
3.260000000002455, -1.2115318924863896 
3.2700000000024763, -1.211590078129017 
3.2800000000024974, -1.211727589772286 
3.2900000000025185, -1.21185302694622 
3.3000000000025396, -1.2118811750586305 
3.3100000000025607, -1.2117394074619248 
3.3200000000025818, -1.211364948344935 
3.330000000002603, -1.2107021293295508 
3.340000000002624, -1.209704775625751 
3.350000000002645, -1.20834255632864 
3.360000000002666, -1.2066073682557659 
3.3700000000026873, -1.2045181568967505 
3.3800000000027084, -1.2021268368438593 
3.3900000000027295, -1.1995289807230705 
3.4000000000027506, -1.1968779185765936 
3.4100000000027717, -1.1943893798347107 
3.420000000002793, -1.1923102731719786 
3.430000000002814, -1.190833117866276 
3.440000000002835, -1.1899952587011777 
3.450000000002856, -1.189656463208241 
3.460000000002877, -1.1895862390882461 
3.4700000000028983, -1.189572994146027 
3.4800000000029194, -1.189468126099486 
3.4900000000029405, -1.1891662280646098 
3.5000000000029616, -1.1885613730065923 
3.5100000000029827, -1.1875027585510232 
3.520000000003004, -1.185755441102701 
3.530000000003025, -1.1829745192129626 
3.540000000003046, -1.1787194355188035 
3.550000000003067, -1.1725527344377984 
3.5600000000030882, -1.1642539936353926 
3.5700000000031094, -1.154108475373345 
3.5800000000031305, -1.1431158336851035 
3.5900000000031516, -1.1328737421915824 
3.6000000000031727, -1.1249762728740134 
3.6100000000031938, -1.1201969322496945 
3.620000000003215, -1.1181600033470571 
3.630000000003236, -1.117818790789723 
3.640000000003257, -1.1181788085393127 
3.650000000003278, -1.1186390564116848 
3.6600000000032993, -1.1189412460710986 
3.6700000000033204, -1.1190035724836875 
3.6800000000033415, -1.1187951113708514 
3.6900000000033626, -1.1182649594033365 
3.7000000000033837, -1.1172955644062417 
3.710000000003405, -1.115652405961646 
3.720000000003426, -1.1129151642587354 
3.730000000003447, -1.1084016969285166 
3.740000000003468, -1.1011638120292442 
3.750000000003489, -1.0902567157357042 
3.7600000000035103, -1.0755168707655902 
3.7700000000035314, -1.0585946656622514 
3.7800000000035525, -1.0429914547361752 
3.7900000000035736, -1.0321348096766998 
3.8000000000035947, -1.0270854827932216 
3.810000000003616, -1.0263939553948176 
3.820000000003637, -1.0278029460020899 
3.830000000003658, -1.0296640093061662 
3.840000000003679, -1.0312167563054768 
3.8500000000037002, -1.0322689486374403 
3.8600000000037213, -1.032859324724621 
3.8700000000037424, -1.0330726417295693 
3.8800000000037635, -1.032966616260228 
3.8900000000037847, -1.0325468726721376 
3.9000000000038058, -1.0317515180236223 
3.910000000003827, -1.0304267940049703 
3.920000000003848, -1.0282858046034256 
3.930000000003869, -1.0248551863461048 
3.94000000000389, -1.019448970645341 
3.9500000000039113, -1.011283058673092 
3.9600000000039324, -0.9999135575578986 
3.9700000000039535, -0.9860179066921912 
3.9800000000039746, -0.9718973478968469 
3.9900000000039957, -0.960656583769012 
4.000000000004016, -0.9542653719638097 
4.010000000003993, -0.9524523895192016 
4.02000000000397, -0.9534718070550061 
4.030000000003946, -0.95553527996507 
4.040000000003923, -0.957553589893528 
4.0500000000039, -0.959103127181578 
4.0600000000038765, -0.9601285274411427 
4.070000000003853, -0.9607060890306786 
4.08000000000383, -0.9609244489896993 
4.090000000003807, -0.9608391483021801 
4.100000000003783, -0.960456701420165 
4.11000000000376, -0.9597224626270604 
4.120000000003737, -0.9584989313201788 
4.130000000003713, -0.9565270963094278 
4.14000000000369, -0.953370885635381 
4.150000000003667, -0.94836769864911 
4.1600000000036434, -0.9406637530322733 
4.17000000000362, -0.9294857310834373 
4.180000000003597, -0.9147487331536948 
4.1900000000035735, -0.8977044446224396 
4.20000000000355, -0.880859727659054 
4.210000000003527, -0.8668296184981887 
4.220000000003504, -0.8570343241203405 
4.23000000000348, -0.8513562245199106 
4.240000000003457, -0.8487352117849445 
4.250000000003434, -0.8479422360610954 
4.26000000000341, -0.8480257559922425 
4.270000000003387, -0.8484053462096597 
4.280000000003364, -0.8487869817958635 
4.2900000000033405, -0.8490451949814117 
4.300000000003317, -0.8491332754444011 
4.310000000003294, -0.8490286743875453 
4.320000000003271, -0.8487022483675629 
4.330000000003247, -0.848099542877548 
4.340000000003224, -0.8471276722794071 
4.350000000003201, -0.8456485970365779 
4.360000000003177, -0.8434882029434625 
4.370000000003154, -0.8404762592497649 
4.380000000003131, -0.8365219997417798 
4.390000000003107, -0.8316949396908395 
4.400000000003084, -0.8262501632836166 
4.410000000003061, -0.8205661566125892 
4.4200000000030375, -0.8150360938557032 
4.430000000003014, -0.8099817086384142 
4.440000000002991, -0.8056188915079205 
4.450000000002968, -0.8020596534234412 
4.460000000002944, -0.7993264257018868 
4.470000000002921, -0.7973677473796263 
4.480000000002898, -0.7960759939901327 
4.490000000002874, -0.7953096949433546 
4.500000000002851, -0.7949184453842392 
4.510000000002828, -0.7947643320259637 
4.520000000002804, -0.7947344589311204 
4.530000000002781, -0.7947435118895756 
4.540000000002758, -0.7947294412397676 
4.5500000000027345, -0.7946468945903806 
4.560000000002711, -0.794462315432223 
4.570000000002688, -0.7941528033011163 
4.580000000002665, -0.7937083820037653 
4.590000000002641, -0.7931346486200282 
4.600000000002618, -0.7924516490710027 
4.610000000002595, -0.7916873285740813 
4.620000000002571, -0.7908686888433987 
4.630000000002548, -0.7900160378498197 
4.640000000002525, -0.7891431361388443 
4.6500000000025015, -0.7882617389837254 
4.660000000002478, -0.7873870576495987 
4.670000000002455, -0.7865416257167346 
4.6800000000024315, -0.7857568414415838 
4.690000000002408, -0.7850722856817387 
4.700000000002385, -0.7845328359329922 
4.710000000002362, -0.7841836346856362 
4.720000000002338, -0.7840636847563831 
4.730000000002315, -0.7841998021244853 
4.740000000002292, -0.7846029504907592 
4.750000000002268, -0.78526814742421 
4.760000000002245, -0.7861775810290537 
4.770000000002222, -0.7873051689862038 
4.7800000000021985, -0.7886201289476882 
4.790000000002175, -0.7900873391935584 
4.800000000002152, -0.7916633928439393 
4.810000000002129, -0.7932895930392061 
4.820000000002105, -0.7948866681602115 
4.830000000002082, -0.7963585955138931 
4.840000000002059, -0.7976099699656725 
4.850000000002035, -0.7985709748684375 
4.860000000002012, -0.7992147628836508 
4.870000000001989, -0.7995563048229194 
4.880000000001965, -0.7996364893677732 
4.890000000001942, -0.7995041350588994 
4.900000000001919, -0.7992054342176746 
4.9100000000018955, -0.7987834109543425 
4.920000000001872, -0.7982866572244307 
4.930000000001849, -0.7977869605199679 
