t, s[1].omega / s[0].omega 
0, -0.9399975850304084 
0.009999999999999995, -0.9396942851627287 
0.019999999999999934, -0.9392685437563595 
0.029999999999999874, -0.9387223325017731 
0.04000000000000012, -0.9380647292407416 
0.050000000000000405, -0.9373167363482869 
0.06000000000000069, -0.9365140661511113 
0.07000000000000098, -0.9357077444714271 
0.08000000000000126, -0.9349619601300263 
0.09000000000000155, -0.9343474686234012 
0.10000000000000184, -0.9339298937741083 
0.11000000000000212, -0.9337558034167264 
0.12000000000000241, -0.9338421394908096 
0.130000000000002, -0.9341733823230106 
0.1400000000000009, -0.9347069331457061 
0.1499999999999998, -0.9353839428386292 
0.1599999999999987, -0.9361415085317288 
0.1699999999999976, -0.9369224610701489 
0.1799999999999965, -0.9376804728228864 
0.1899999999999954, -0.9383801210870832 
0.1999999999999943, -0.9389930672540713 
0.2099999999999932, -0.9394928601374503 
0.2199999999999921, -0.9398520461755403 
0.229999999999991, -0.940044630570101 
0.2399999999999899, -0.9400532519715588 
0.2499999999999888, -0.939876366892522 
0.2599999999999877, -0.9395310162894072 
0.2699999999999866, -0.9390514393697302 
0.2799999999999855, -0.9384874030097311 
0.2899999999999844, -0.9379048035895048 
0.2999999999999833, -0.9373865534518526 
0.3099999999999822, -0.9370281748698739 
0.3199999999999811, -0.9369236950415271 
0.32999999999998, -0.9371443997780468 
0.3399999999999789, -0.937720592879446 
0.3499999999999778, -0.9386363546417599 
0.35999999999997667, -0.9398386588684033 
0.36999999999997557, -0.9412539036291637 
0.37999999999997447, -0.942803400200126 
0.38999999999997337, -0.9444126627871757 
0.39999999999997227, -0.9460132546740073 
0.40999999999997117, -0.9475391787332892 
0.41999999999997006, -0.9489226212693784 
0.42999999999996896, -0.9500952383462898 
0.43999999999996786, -0.9509983179605728 
0.44999999999996676, -0.9515975053776149 
0.45999999999996566, -0.9518918399882699 
0.46999999999996456, -0.9519106966033528 
0.47999999999996346, -0.9517027675591159 
0.48999999999996235, -0.9513269190238969 
0.49999999999996125, -0.9508515343565124 
0.5099999999999602, -0.9503620809663371 
0.519999999999959, -0.949970382079654 
0.529999999999958, -0.9498146214819008 
0.5399999999999568, -0.9500401658368147 
0.5499999999999557, -0.9507629497055754 
0.5599999999999546, -0.9520338883574395 
0.5699999999999535, -0.953826252955847 
0.5799999999999524, -0.9560509051525969 
0.5899999999999513, -0.9585848085861667 
0.5999999999999502, -0.9612947614563611 
0.6099999999999491, -0.9640479939057164 
0.619999999999948, -0.9667123217768628 
0.6299999999999469, -0.9691553833226442 
0.6399999999999458, -0.9712534727309953 
0.6499999999999447, -0.9729128783359077 
0.6599999999999436, -0.974092609606395 
0.6699999999999425, -0.9748108563612877 
0.6799999999999414, -0.9751294186188675 
0.6899999999999403, -0.975128418109154 
0.6999999999999392, -0.9748881043217505 
0.7099999999999381, -0.9744859113954762 
0.719999999999937, -0.9740077930071396 
0.7299999999999359, -0.9735676270488053 
0.7399999999999348, -0.9733230517167206 
0.7499999999999337, -0.9734701658777372 
0.7599999999999326, -0.9742038413202587 
0.7699999999999315, -0.9756547949247636 
0.7799999999999304, -0.9778414508326284 
0.7899999999999293, -0.9806681443910266 
0.7999999999999282, -0.983963058928382 
0.8099999999999271, -0.9875234136169075 
0.819999999999926, -0.9911436546231455 
0.8299999999999249, -0.9946252253835445 
0.8399999999999238, -0.9977817690850624 
0.8499999999999227, -1.0004545513723446 
0.8599999999999216, -1.0025397543460512 
0.8699999999999205, -1.0040108656006441 
0.8799999999999194, -1.0049159412327124 
0.8899999999999183, -1.005349158404306 
0.8999999999999172, -1.0054164357659252 
0.9099999999999161, -1.0052145146055183 
0.919999999999915, -1.004829668446849 
0.9299999999999139, -1.004352652764116 
0.9399999999999128, -1.0039025535015693 
0.9499999999999117, -1.0036466144140388 
0.9599999999999106, -1.0037951556623508 
0.9699999999999095, -1.004554894596846 
0.9799999999999084, -1.0060548647779715 
0.9899999999999073, -1.0082934890103457 
0.9999999999999062, -1.0111443917068113 
1.0099999999999052, -1.0144077304618373 
1.019999999999904, -1.0178646176354154 
1.029999999999903, -1.0213077636750383 
1.039999999999902, -1.0245500222040653 
1.0499999999999008, -1.0274271844574703 
1.0599999999998997, -1.0298093431785151 
1.0699999999998986, -1.0316213086309562 
1.0799999999998975, -1.0328570632918264 
1.0899999999998964, -1.0335726822007687 
1.0999999999998953, -1.033859795694852 
1.1099999999998942, -1.0338172206616532 
1.119999999999893, -1.0335363152013781 
1.129999999999892, -1.0331041279199424 
1.1399999999998909, -1.0326198162071896 
1.1499999999998898, -1.0322140909305761 
1.1599999999998887, -1.03205460660106 
1.1699999999998876, -1.0323190713192059 
1.1799999999998865, -1.0331377702804887 
1.1899999999998854, -1.0345407871782384 
1.1999999999998843, -1.036450054272819 
1.2099999999998832, -1.038717304667126 
1.219999999999882, -1.0411740249199806 
1.229999999999881, -1.0436643613393335 
1.2399999999998799, -1.0460556543201789 
1.2499999999998788, -1.0482360500910466 
1.2599999999998777, -1.0501112904205852 
1.2699999999998766, -1.0516087854484653 
1.2799999999998755, -1.052688556475471 
1.2899999999998744, -1.0533518273569633 
1.2999999999998733, -1.0536378479173538 
1.3099999999998722, -1.0536098473749893 
1.319999999999871, -1.0533405377001606 
1.32999999999987, -1.052906842283785 
1.3399999999998689, -1.0523956542038737 
1.3499999999998678, -1.0519138423974923 
1.3599999999998666, -1.0515891978322613 
1.3699999999998655, -1.0515498764905453 
1.3799999999998644, -1.0518856619324226 
1.3899999999998633, -1.0526157137999808 
1.3999999999998622, -1.0536867131501513 
1.4099999999998611, -1.054998989252916 
1.41999999999986, -1.0564391424638488 
1.429999999999859, -1.0579028223571483 
1.4399999999998578, -1.0593043958713082 
1.4499999999998567, -1.0605769818278 
1.4599999999998556, -1.061667843975104 
1.4699999999998545, -1.06253424379403 
1.4799999999998534, -1.0631436554955238 
1.4899999999998523, -1.0634786223394799 
1.4999999999998512, -1.0635420953536587 
1.5099999999998501, -1.0633584343560236 
1.519999999999849, -1.0629699027806632 
1.529999999999848, -1.0624331819637531 
1.5399999999998468, -1.0618195124781529 
1.5499999999998457, -1.0612161483304523 
1.5599999999998446, -1.0607213793755865 
1.5699999999998435, -1.060427178998426 
1.5799999999998424, -1.0603945854054708 
1.5899999999998413, -1.0606366801234308 
1.5999999999998402, -1.0611190914512334 
1.6099999999998391, -1.0617742743247756 
1.619999999999838, -1.0625199968166454 
1.629999999999837, -1.0632755529913438 
1.6399999999998358, -1.063972628539173 
1.6499999999998347, -1.0645597743854418 
1.6599999999998336, -1.065001540793876 
1.6699999999998325, -1.0652746589867212 
1.6799999999998314, -1.0653639249168596 
1.6899999999998303, -1.0652601977657026 
1.6999999999998292, -1.0649616729814098 
1.709999999999828, -1.0644773162349639 
1.719999999999827, -1.0638301622161017 
1.729999999999826, -1.0630593665051256 
1.7399999999998248, -1.0622211575332083 
1.7499999999998237, -1.0613875713385985 
1.7599999999998226, -1.0606397599999653 
1.7699999999998215, -1.0600542269104376 
1.7799999999998204, -1.0596858888611602 
1.7899999999998193, -1.0595550658633688 
1.7999999999998182, -1.0596427908974386 
1.809999999999817, -1.0598953018100987 
1.819999999999816, -1.060236843964937 
1.8299999999998149, -1.0605865428752652 
1.8399999999998138, -1.060872328964256 
1.8499999999998127, -1.0610378695986356 
1.8599999999998116, -1.0610439715221687 
1.8699999999998105, -1.0608676231475327 
1.8799999999998094, -1.0604998620754145 
1.8899999999998083, -1.0599423845352258 
1.8999999999998072, -1.0592040293260065 
1.909999999999806, -1.0582994358057083 
1.919999999999805, -1.057250984843018 
1.9299999999998039, -1.0560928513750356 
1.9399999999998028, -1.054874787101843 
1.9499999999998017, -1.0536630723044902 
1.9599999999998006, -1.052536302591259 
1.9699999999997995, -1.0515749433175696 
1.9799999999997984, -1.050845826712173 
1.9899999999997973, -1.0503847697205027 
1.9999999999997962, -1.050183019137577 
2.0099999999998173, -1.0501857552686107 
2.0199999999998384, -1.0503066755006536 
2.0299999999998595, -1.0504509427034616 
2.0399999999998806, -1.0505329734905025 
2.0499999999999017, -1.050483021457654 
2.059999999999923, -1.0502468944695091 
2.069999999999944, -1.0497857742456418 
2.079999999999965, -1.0490785955547053 
2.089999999999986, -1.0481240914287986 
2.100000000000007, -1.046938819783734 
2.1100000000000283, -1.0455516970761134 
2.1200000000000494, -1.04399948646545 
2.1300000000000705, -1.0423267584477565 
2.1400000000000916, -1.0405897560769266 
2.1500000000001127, -1.0388605567106837 
2.160000000000134, -1.037227307588302 
2.170000000000155, -1.0357870912550196 
2.180000000000176, -1.034629419309177 
2.190000000000197, -1.03381183491197 
2.2000000000002182, -1.033336686049653 
2.2100000000002393, -1.0331445910694337 
2.2200000000002604, -1.0331326839644457 
2.2300000000002815, -1.03318608662383 
2.2400000000003026, -1.0332018752700307 
2.2500000000003237, -1.0330960594685819 
2.260000000000345, -1.0327995233417486 
2.270000000000366, -1.0322539299606528 
2.280000000000387, -1.031414320335929 
2.290000000000408, -1.0302574705671326 
2.3000000000004293, -1.028788887222853 
2.3100000000004504, -1.0270416951852743 
2.3200000000004715, -1.0250681534873916 
2.3300000000004926, -1.0229311644614718 
2.3400000000005137, -1.0207018371185024 
2.3500000000005348, -1.0184627649923645 
2.360000000000556, -1.0163118420481076 
2.370000000000577, -1.0143602396212292 
2.380000000000598, -1.0127192793155635 
2.390000000000619, -1.0114747960446753 
2.4000000000006403, -1.0106566905750645 
2.4100000000006614, -1.0102219134640114 
2.4200000000006825, -1.0100663851941087 
2.4300000000007036, -1.0100598866591524 
2.4400000000007247, -1.01007992567531 
2.450000000000746, -1.0100267454432115 
2.460000000000767, -1.0098206049143803 
2.470000000000788, -1.0093932237754923 
2.480000000000809, -1.0086842663238484 
2.49000000000083, -1.0076473591503503 
2.5000000000008513, -1.0062622360698208 
2.5100000000008724, -1.0045435134553895 
2.5200000000008935, -1.0025382626605852 
2.5300000000009146, -1.0003143398797627 
2.5400000000009357, -0.9979490823258338 
2.550000000000957, -0.9955254958716742 
2.560000000000978, -0.9931350499899363 
2.570000000000999, -0.9908808308518026 
2.58000000000102, -0.9888740806937543 
2.5900000000010412, -0.9872193562162408 
2.6000000000010624, -0.985988808640254 
2.6100000000010835, -0.9851954001406475 
2.6200000000011046, -0.98478241553081 
2.6300000000011257, -0.9846400594897767 
2.6400000000011468, -0.9846397005568281 
2.650000000001168, -0.9846637382198928 
2.660000000001189, -0.9846174799840061 
2.67000000000121, -0.984425901782048 
2.680000000001231, -0.9840262848883752 
2.6900000000012523, -0.9833660061524405 
2.7000000000012734, -0.9824085894936175 
2.7100000000012945, -0.9811438257830115 
2.7200000000013156, -0.9795930854998094 
2.7300000000013367, -0.9778040604607154 
2.740000000001358, -0.9758385554192209 
2.750000000001379, -0.9737625052739378 
2.7600000000014, -0.9716436523262857 
2.770000000001421, -0.9695550156614836 
2.780000000001442, -0.9675784210140776 
2.7900000000014633, -0.9658027437597958 
2.8000000000014844, -0.9643138531874298 
2.8100000000015055, -0.9631766324280114 
2.8200000000015266, -0.9624145479712064 
2.8300000000015477, -0.9619974514580223 
2.840000000001569, -0.9618472076896813 
2.85000000000159, -0.9618597469598662 
2.860000000001611, -0.9619304130483884 
2.870000000001632, -0.9619696332038009 
2.8800000000016532, -0.9619062974512597 
2.8900000000016743, -0.9616850340374284 
2.9000000000016954, -0.9612647627788334 
2.9100000000017165, -0.9606215094537658 
2.9200000000017377, -0.9597526422120815 
2.9300000000017588, -0.9586768872081599 
2.94000000000178, -0.957427759897237 
2.950000000001801, -0.9560444343515282 
2.960000000001822, -0.9545663634602667 
2.970000000001843, -0.9530341273874555 
2.9800000000018643, -0.9514940023725122 
2.9900000000018854, -0.9500018667087275 
3.0000000000019065, -0.948622983373489 
3.0100000000019276, -0.9474260552587426 
3.0200000000019487, -0.9464719718119561 
3.03000000000197, -0.9457998055402145 
3.040000000001991, -0.9454147265367464 
3.050000000002012, -0.9452836154745636 
3.060000000002033, -0.9453419508688251 
3.070000000002054, -0.945509422702606 
3.0800000000020753, -0.9457064854972529 
3.0900000000020964, -0.9458651431830789 
3.1000000000021175, -0.9459330254252158 
3.1100000000021386, -0.9458740153353146 
3.1200000000021597, -0.9456682254966374 
3.130000000002181, -0.945311071588239 
3.140000000002202, -0.9448096850509431 
3.150000000002223, -0.9441769600367934 
3.160000000002244, -0.9434265954974437 
3.1700000000022652, -0.9425724269995867 
3.1800000000022863, -0.9416320490438148 
3.1900000000023074, -0.9406319511260373 
3.2000000000023285, -0.9396113085342451 
3.2100000000023496, -0.9386227159634709 
3.2200000000023707, -0.937728711911477 
3.230000000002392, -0.936993481643956 
3.240000000002413, -0.9364709529398072 
3.250000000002434, -0.9361928482297616 
3.260000000002455, -0.9361609903220522 
3.2700000000024763, -0.936346710011619 
3.2800000000024974, -0.9366976680008863 
3.2900000000025185, -0.9371496333642619 
3.3000000000025396, -0.9376388289998101 
3.3100000000025607, -0.9381109129972618 
3.3200000000025818, -0.9385251473429566 
3.330000000002603, -0.9388543645228802 
3.340000000002624, -0.9390817849396825 
3.350000000002645, -0.9391959386526076 
3.360000000002666, -0.9391861004004184 
3.3700000000026873, -0.9390413068228234 
3.3800000000027084, -0.9387540504980881 
3.3900000000027295, -0.9383262334503584 
3.4000000000027506, -0.9377737209704226 
3.4100000000027717, -0.9371281571070224 
3.420000000002793, -0.9364372773300685 
3.430000000002814, -0.9357644607859713 
3.440000000002835, -0.9351855656019487 
3.450000000002856, -0.9347799205254187 
3.460000000002877, -0.9346153419337263 
3.4700000000028983, -0.9347324282821818 
3.4800000000029194, -0.9351356450137305 
3.4900000000029405, -0.9357949963331299 
3.5000000000029616, -0.9366561590290468 
3.5100000000029827, -0.9376538613440151 
3.520000000003004, -0.9387236241039731 
3.530000000003025, -0.9398087835016662 
3.540000000003046, -0.9408617804282591 
3.550000000003067, -0.9418407485781742 
3.5600000000030882, -0.9427044657810475 
3.5700000000031094, -0.9434102145700847 
3.5800000000031305, -0.9439181320408021 
3.5900000000031516, -0.9442009208240266 
3.6000000000031727, -0.9442525951481995 
3.6100000000031938, -0.9440903840927539 
3.620000000003215, -0.9437503965600615 
3.630000000003236, -0.9432829565733254 
3.640000000003257, -0.9427525034997177 
3.650000000003278, -0.9422415824738646 
3.6600000000032993, -0.9418529381278529 
3.6700000000033204, -0.9417015530380454 
3.6800000000033415, -0.9418931011789453 
3.6900000000033626, -0.9424962784702258 
3.7000000000033837, -0.9435244013819564 
3.710000000003405, -0.9449365045682683 
3.720000000003426, -0.946654385600229 
3.730000000003447, -0.9485836139388011 
3.740000000003468, -0.9506284601435541 
3.750000000003489, -0.9526971769111677 
3.7600000000035103, -0.9546997429272256 
3.7700000000035314, -0.9565441958032327 
3.7800000000035525, -0.9581393795159359 
3.7900000000035736, -0.959408336374333 
3.8000000000035947, -0.960306892097679 
3.810000000003616, -0.960834296317198 
3.820000000003637, -0.9610276947089662 
3.830000000003658, -0.9609459105034158 
3.840000000003679, -0.9606553185612103 
3.8500000000037002, -0.9602264829515699 
3.8600000000037213, -0.9597422999673567 
3.8700000000037424, -0.9593120539850641 
3.8800000000037635, -0.9590803257112803 
3.8900000000037847, -0.9592165764175785 
3.9000000000038058, -0.9598785229945435 
3.910000000003827, -0.9611630625011893 
3.920000000003848, -0.9630746051206494 
3.930000000003869, -0.9655297818877002 
3.94000000000389, -0.9683889777838323 
3.9500000000039113, -0.9714901252054846 
3.9600000000039324, -0.9746682751277413 
3.9700000000039535, -0.977760608525666 
3.9800000000039746, -0.9806076493997986 
3.9900000000039957, -0.9830636128699386 
4.000000000004016, -0.9850201366495355 
4.010000000003993, -0.9864313376463156 
4.02000000000397, -0.9873201655853272 
4.030000000003946, -0.9877593718866047 
4.040000000003923, -0.987841257476795 
4.0500000000039, -0.9876555141432488 
4.0600000000038765, -0.9872842969375183 
4.070000000003853, -0.986813388950903 
4.08000000000383, -0.9863533656501641 
4.090000000003807, -0.9860597258771808 
4.100000000003783, -0.9861336045633481 
4.11000000000376, -0.9867854099213862 
4.120000000003737, -0.9881673087092532 
4.130000000003713, -0.9903142516844097 
4.14000000000369, -0.9931342908751006 
4.150000000003667, -0.9964476395171434 
4.1600000000036434, -1.0000388754947358 
4.17000000000362, -1.0036917698900958 
4.180000000003597, -1.0072022172090827 
4.1900000000035735, -1.0103831738717584 
4.20000000000355, -1.0130776158131172 
4.210000000003527, -1.015182987519307 
4.220000000003504, -1.0166723090372385 
4.23000000000348, -1.017592217869016 
4.240000000003457, -1.0180359439537459 
4.250000000003434, -1.0181095498106998 
4.26000000000341, -1.0179107616410499 
4.270000000003387, -1.01752718077984 
4.280000000003364, -1.017050724011619 
4.2900000000033405, -1.0166005058958554 
4.300000000003317, -1.0163404432062475 
4.310000000003294, -1.0164707349377475 
4.320000000003271, -1.017179211499639 
4.330000000003247, -1.018571104433004 
4.340000000003224, -1.020625903928673 
4.350000000003201, -1.023212030913996 
4.360000000003177, -1.0261398569271132 
4.370000000003154, -1.029211881197177 
4.380000000003131, -1.0322481814943998 
4.390000000003107, -1.035091138201659 
4.400000000003084, -1.0376045841327237 
4.410000000003061, -1.039680190510413 
4.4200000000030375, -1.0412528154434542 
4.430000000003014, -1.0423134493921 
4.440000000002991, -1.0429060334191198 
4.450000000002968, -1.043107591720109 
4.460000000002944, -1.0430051819532307 
4.470000000002921, -1.0426835544711097 
4.480000000002898, -1.0422281473264874 
4.490000000002874, -1.0417391693321778 
4.500000000002851, -1.0413455837635348 
4.510000000002828, -1.0412021054108533 
4.520000000002804, -1.0414565469039814 
4.530000000002781, -1.0421983888069586 
4.540000000002758, -1.043424148472144 
4.5500000000027345, -1.0450453398639785 
4.560000000002711, -1.046927549125665 
4.570000000002688, -1.0489303052935335 
4.580000000002665, -1.0509297281330823 
4.590000000002641, -1.0528239667395347 
4.600000000002618, -1.0545293833421274 
4.610000000002595, -1.0559761314422418 
4.620000000002571, -1.0571093468177049 
4.630000000002548, -1.0578966107456225 
4.640000000002525, -1.0583355606978466 
4.6500000000025015, -1.0584540209008149 
4.660000000002478, -1.0583018087180707 
4.670000000002455, -1.0579412569639526 
4.6800000000024315, -1.05744403678859 
4.690000000002408, -1.0568954383318918 
4.700000000002385, -1.056399114420272 
4.710000000002362, -1.056070541699372 
4.720000000002338, -1.0560126500123383 
4.730000000002315, -1.0562836791159276 
4.740000000002292, -1.056879258172147 
4.750000000002268, -1.057740188969675 
4.760000000002245, -1.0587765099430348 
4.770000000002222, -1.0598918562017654 
4.7800000000021985, -1.0609997506581847 
4.790000000002175, -1.0620308604489992 
4.800000000002152, -1.0629331127952113 
4.810000000002129, -1.0636677087238915 
4.820000000002105, -1.0642047555899876 
4.830000000002082, -1.0645218772527552 
4.840000000002059, -1.0646069102051403 
4.850000000002035, -1.0644623805678286 
4.860000000002012, -1.0641081040911424 
4.870000000001989, -1.0635808742058965 
4.880000000001965, -1.0629335491307217 
4.890000000001942, -1.0622352215079203 
4.900000000001919, -1.0615696747091357 
4.9100000000018955, -1.0610263528559722 
4.920000000001872, -1.0606821884232525 
4.930000000001849, -1.0605818369068296 
