t, s[1].omega / s[0].omega 
0, -1.3201681745035347 
0.009999999999999995, -1.3365620579410955 
0.019999999999999934, -1.3494932177757903 
0.029999999999999874, -1.357871618368887 
0.04000000000000012, -1.362684459426214 
0.050000000000000405, -1.365222654611697 
0.06000000000000069, -1.3664265571198642 
0.07000000000000098, -1.366856853873066 
0.08000000000000126, -1.366819830692477 
0.09000000000000155, -1.3664850072001729 
0.10000000000000184, -1.3659785822571726 
0.11000000000000212, -1.365466031650402 
0.12000000000000241, -1.3652021587897614 
0.130000000000002, -1.3654713850615647 
0.1400000000000009, -1.3664064658407389 
0.1499999999999998, -1.367875246766697 
0.1599999999999987, -1.3695841176352703 
0.1699999999999976, -1.371255498328432 
0.1799999999999965, -1.3727088749603555 
0.1899999999999954, -1.3738521620322317 
0.1999999999999943, -1.3746493245123126 
0.2099999999999932, -1.375095205581018 
0.2199999999999921, -1.3752013056873014 
0.229999999999991, -1.374989079759968 
0.2399999999999899, -1.374487497338633 
0.2499999999999888, -1.3737337702866854 
0.2599999999999877, -1.3727776225854789 
0.2699999999999866, -1.3716879605812946 
0.2799999999999855, -1.3705577386019283 
0.2899999999999844, -1.369502491598983 
0.2999999999999833, -1.3686460751304719 
0.3099999999999822, -1.368080465765775 
0.3199999999999811, -1.3678085657958061 
0.32999999999998, -1.3677281131687378 
0.3399999999999789, -1.3676852678260591 
0.3499999999999778, -1.367535756151852 
0.35999999999997667, -1.3671545510701504 
0.36999999999997557, -1.3664018043981325 
0.37999999999997447, -1.3650738222865408 
0.38999999999997337, -1.362856091026639 
0.39999999999997227, -1.3592966553004964 
0.40999999999997117, -1.3538422910011776 
0.41999999999997006, -1.346015505837017 
0.42999999999996896, -1.3358206363091203 
0.43999999999996786, -1.3243242049746913 
0.44999999999996676, -1.3138544998028179 
0.45999999999996566, -1.3068836679750104 
0.46999999999996456, -1.3040895804737274 
0.47999999999996346, -1.3040750224325106 
0.48999999999996235, -1.3050366792167403 
0.49999999999996125, -1.3059454592821909 
0.5099999999999602, -1.3064834693305571 
0.519999999999959, -1.3066330231646188 
0.529999999999958, -1.3064265662721568 
0.5399999999999568, -1.3058510706669801 
0.5499999999999557, -1.3048154954106426 
0.5599999999999546, -1.3031498048829313 
0.5699999999999535, -1.3006916487897844 
0.5799999999999524, -1.2976421629767205 
0.5899999999999513, -1.295360270689634 
0.5999999999999502, -1.2969093450746174 
0.6099999999999491, -1.3052787737092921 
0.619999999999948, -1.3197030324532373 
0.6299999999999469, -1.335590147691009 
0.6399999999999458, -1.3487325039653342 
0.6499999999999447, -1.3577406744956444 
0.6599999999999436, -1.3632015687630732 
0.6699999999999425, -1.3662306471718872 
0.6799999999999414, -1.3677588610875049 
0.6899999999999403, -1.3683939761568378 
0.6999999999999392, -1.3684905980700406 
0.7099999999999381, -1.3682506737112226 
0.719999999999937, -1.3678101332144188 
0.7299999999999359, -1.3673121599833025 
0.7399999999999348, -1.3669540747151574 
0.7499999999999337, -1.366958550643412 
0.7599999999999326, -1.3674539882970902 
0.7699999999999315, -1.368381596367938 
0.7799999999999304, -1.3695462508756815 
0.7899999999999293, -1.3707381075851026 
0.7999999999999282, -1.3718020492573317 
0.8099999999999271, -1.3726436822767085 
0.819999999999926, -1.373212556847355 
0.8299999999999249, -1.3734854029746753 
0.8399999999999238, -1.3734547361433902 
0.8499999999999227, -1.373122811867019 
0.8599999999999216, -1.372499660448624 
0.8699999999999205, -1.3716043774721758 
0.8799999999999194, -1.3704699140064338 
0.8899999999999183, -1.3691515270756034 
0.8999999999999172, -1.36773727480619 
0.9099999999999161, -1.3663561036083067 
0.919999999999915, -1.3651705577919384 
0.9299999999999139, -1.3643286227182134 
0.9399999999999128, -1.3638775143754036 
0.9499999999999117, -1.3637200484938503 
0.9599999999999106, -1.3636752903607596 
0.9699999999999095, -1.3635703080214494 
0.9799999999999084, -1.3632686666875151 
0.9899999999999073, -1.3626355359791844 
0.9999999999999062, -1.3614772972652958 
1.0099999999999052, -1.3594731099060513 
1.019999999999904, -1.3561079541280068 
1.029999999999903, -1.3506490350191624 
1.039999999999902, -1.34228367412498 
1.0499999999999008, -1.330615420160938 
1.0599999999998997, -1.316579397551456 
1.0699999999998986, -1.3030702747592176 
1.0799999999998975, -1.2936952154922217 
1.0899999999998964, -1.2898680529664412 
1.0999999999998953, -1.2899312802025347 
1.1099999999998942, -1.2913981548254205 
1.119999999999893, -1.2928023937032243 
1.129999999999892, -1.2937047377560615 
1.1399999999998909, -1.294110451949491 
1.1499999999998898, -1.2941092200537656 
1.1599999999998887, -1.2937488659716383 
1.1699999999998876, -1.293005790783407 
1.1799999999998865, -1.2917893940278902 
1.1899999999998854, -1.2900002307308918 
1.1999999999998843, -1.2877520603423858 
1.2099999999998832, -1.2859010936199269 
1.219999999999882, -1.2865963204289816 
1.229999999999881, -1.2925095899677101 
1.2399999999998799, -1.3041540440188037 
1.2499999999998788, -1.3185892232830163 
1.2599999999998777, -1.3319011267565222 
1.2699999999998766, -1.3419382678012812 
1.2799999999998755, -1.3485366910576109 
1.2899999999998744, -1.3524678946997546 
1.2999999999998733, -1.3546133922783543 
1.3099999999998722, -1.355645514899065 
1.319999999999871, -1.355996620896796 
1.32999999999987, -1.3559236667819405 
1.3399999999998689, -1.35558472586538 
1.3499999999998678, -1.3551082533048926 
1.3599999999998666, -1.3546492275328652 
1.3699999999998655, -1.3544035616656258 
1.3799999999998644, -1.3545430558507356 
1.3899999999998633, -1.3551108663514488 
1.3999999999998622, -1.3559973098314857 
1.4099999999998611, -1.357021131753006 
1.41999999999986, -1.3580162766070354 
1.429999999999859, -1.3588645115035747 
1.4399999999998578, -1.3594921647936213 
1.4499999999998567, -1.359857495482685 
1.4599999999998556, -1.3599391008236932 
1.4699999999998545, -1.3597281451025993 
1.4799999999998534, -1.3592246062294335 
1.4899999999998523, -1.3584368235521076 
1.4999999999998512, -1.3573841628329342 
1.5099999999998501, -1.3561033470380595 
1.519999999999849, -1.3546584181712067 
1.529999999999848, -1.3531522292723144 
1.5399999999998468, -1.3517326087198194 
1.5499999999998457, -1.350573629215761 
1.5599999999998446, -1.3498076784935111 
1.5699999999998435, -1.349437932665334 
1.5799999999998424, -1.3493271581178694 
1.5899999999998413, -1.3492841523864694 
1.5999999999998402, -1.3491450621188883 
1.6099999999998391, -1.3487803648601169 
1.619999999999838, -1.3480497362701664 
1.629999999999837, -1.346739790699809 
1.6399999999998358, -1.3444962811616066 
1.6499999999998347, -1.3407632064652586 
1.6599999999998336, -1.3347827465948885 
1.6699999999998325, -1.3257886299108683 
1.6799999999998314, -1.3135765060781357 
1.6899999999998303, -1.2994078070662285 
1.6999999999998292, -1.2863740497367175 
1.709999999999828, -1.2778066562998602 
1.719999999999827, -1.2745844767495824 
1.729999999999826, -1.2748474849921974 
1.7399999999998248, -1.27627159360967 
1.7499999999998237, -1.277575118413477 
1.7599999999998226, -1.278394196633069 
1.7699999999998215, -1.2787432481198708 
1.7799999999998204, -1.2787017867350776 
1.7899999999998193, -1.2783052615292267 
1.7999999999998182, -1.277517300307865 
1.809999999999817, -1.27623041958238 
1.819999999999816, -1.2743172566763066 
1.8299999999998149, -1.2718446902108833 
1.8399999999998138, -1.2696143410700096 
1.8499999999998127, -1.2698047410157822 
1.8599999999998116, -1.2753655449299068 
1.8699999999998105, -1.2872288104424732 
1.8799999999998094, -1.302503601090992 
1.8899999999998083, -1.3168538609780718 
1.8999999999998072, -1.3277276759902796 
1.909999999999806, -1.3348530278139707 
1.919999999999805, -1.3390733710127267 
1.9299999999998039, -1.3413694173065829 
1.9399999999998028, -1.3424818612046332 
1.9499999999998017, -1.3428794913889806 
1.9599999999998006, -1.3428353566723508 
1.9699999999997995, -1.3425118573535784 
1.9799999999997984, -1.3420352717082926 
1.9899999999997973, -1.3415593869036406 
1.9999999999997962, -1.3412940425771478 
2.0099999999998173, -1.3414492335100427 
2.0199999999998384, -1.3421103034334398 
2.0299999999998595, -1.3431773731943488 
2.0399999999998806, -1.3444420818739953 
2.0499999999999017, -1.345701513918617 
2.059999999999923, -1.3468116638376963 
2.069999999999944, -1.3476869675939465 
2.079999999999965, -1.3482831613131796 
2.089999999999986, -1.3485815979069116 
2.100000000000007, -1.3485790367086374 
2.1100000000000283, -1.3482824641886975 
2.1200000000000494, -1.3477075004690398 
2.1300000000000705, -1.3468795787864332 
2.1400000000000916, -1.3458380847578124 
2.1500000000001127, -1.3446430901645798 
2.160000000000134, -1.3433820291768597 
2.170000000000155, -1.3421718110439325 
2.180000000000176, -1.3411481078136465 
2.190000000000197, -1.3404265715443502 
2.2000000000002182, -1.3400393088418945 
2.2100000000002393, -1.3399027498929865 
2.2200000000002604, -1.3398622501524986 
2.2300000000002815, -1.3397636394553687 
2.2400000000003026, -1.33947932309169 
2.2500000000003237, -1.3388833586638083 
2.260000000000345, -1.3378052746384745 
2.270000000000366, -1.3359824029173246 
2.280000000000387, -1.3330246472582095 
2.290000000000408, -1.3284218486661585 
2.3000000000004293, -1.3216534001644533 
2.3100000000004504, -1.3124775785194485 
2.3200000000004715, -1.3014172774914843 
2.3300000000004926, -1.2901716445308111 
2.3400000000005137, -1.2812135861535254 
2.3500000000005348, -1.27620750930759 
2.360000000000556, -1.274768219163135 
2.370000000000577, -1.2752236201106013 
2.380000000000598, -1.276142895253804 
2.390000000000619, -1.2768640940872436 
2.4000000000006403, -1.27722323463959 
2.4100000000006614, -1.2772268064118362 
2.4200000000006825, -1.2768860731621419 
2.4300000000007036, -1.2761528105307076 
2.4400000000007247, -1.2748897023869339 
2.450000000000746, -1.2728649607734157 
2.460000000000767, -1.2698453626578803 
2.470000000000788, -1.2659971929526905 
2.480000000000809, -1.2627834135935383 
2.49000000000083, -1.2635928532840626 
2.5000000000008513, -1.2718158869010023 
2.5100000000008724, -1.2867541244225316 
2.5200000000008935, -1.3033944661302344 
2.5300000000009146, -1.3170798240498447 
2.5400000000009357, -1.326320610024126 
2.550000000000957, -1.3318246849836548 
2.560000000000978, -1.3348306646676968 
2.570000000000999, -1.336329689089775 
2.58000000000102, -1.3369460094906924 
2.5900000000010412, -1.3370321279220696 
2.6000000000010624, -1.3367814482737432 
2.6100000000010835, -1.3363193943123575 
2.6200000000011046, -1.335783521919779 
2.6300000000011257, -1.3353899908637712 
2.6400000000011468, -1.3354298271583847 
2.650000000001168, -1.3361323327355104 
2.660000000001189, -1.337491861014771 
2.67000000000121, -1.3392672387318445 
2.680000000001231, -1.3411479175659948 
2.6900000000012523, -1.3428923402603732 
2.7000000000012734, -1.3443592118067103 
2.7100000000012945, -1.3454826845295846 
2.7200000000013156, -1.3462422523932207 
2.7300000000013367, -1.3466429782039526 
2.740000000001358, -1.3467051419563165 
2.750000000001379, -1.3464592455273512 
2.7600000000014, -1.3459438835636663 
2.770000000001421, -1.3452065792564025 
2.780000000001442, -1.3443080205837155 
2.7900000000014633, -1.3433267850297415 
2.8000000000014844, -1.3423587116920492 
2.8100000000015055, -1.341507783923545 
2.8200000000015266, -1.340867117096372 
2.8300000000015477, -1.3404856745959022 
2.840000000001569, -1.3403339236373286 
2.85000000000159, -1.340307174175142 
2.860000000001611, -1.3402715154422533 
2.870000000001632, -1.340103359274529 
2.8800000000016532, -1.3396897654066153 
2.8900000000016743, -1.3389014675271174 
2.9000000000016954, -1.3375618019944044 
2.9100000000017165, -1.33542766318697 
2.9200000000017377, -1.3321973989698586 
2.9300000000017588, -1.3275646746969088 
2.94000000000178, -1.3213404223492138 
2.950000000001801, -1.3136611407286616 
2.960000000001822, -1.3052482546454256 
2.970000000001843, -1.297487873258105 
2.9800000000018643, -1.291906975041529 
2.9900000000018854, -1.2891407315052203 
3.0000000000019065, -1.2885343557661362 
3.0100000000019276, -1.2889189828028347 
3.0200000000019487, -1.289457696341258 
3.03000000000197, -1.2897940332586215 
3.040000000001991, -1.2898343024130612 
3.050000000002012, -1.2895527864086285 
3.060000000002033, -1.2888900464417905 
3.070000000002054, -1.2876959219818673 
3.0800000000020753, -1.2856836857690128 
3.0900000000020964, -1.282424149411861 
3.1000000000021175, -1.2775466763742016 
3.1100000000021386, -1.2715048209708746 
3.1200000000021597, -1.2669027865142362 
3.130000000002181, -1.2683878685537746 
3.140000000002202, -1.2785102111498299 
3.150000000002223, -1.2938918657650067 
3.160000000002244, -1.3085245874147717 
3.1700000000022652, -1.3191057744148915 
3.1800000000022863, -1.325590970448716 
3.1900000000023074, -1.3291804774060556 
3.2000000000023285, -1.3310056280184717 
3.2100000000023496, -1.3318072423597245 
3.2200000000023707, -1.3320039260869332 
3.230000000002392, -1.3318172974271871 
3.240000000002413, -1.3313732176172675 
3.250000000002434, -1.330788778563157 
3.260000000002455, -1.3302618445031171 
3.2700000000024763, -1.3301259590592518 
3.2800000000024974, -1.3307583104872047 
3.2900000000025185, -1.3323235370741484 
3.3000000000025396, -1.334617867155934 
3.3100000000025607, -1.3372181193176358 
3.3200000000025818, -1.3397336395189687 
3.330000000002603, -1.3419204468915658 
3.340000000002624, -1.3436658209138037 
3.350000000002645, -1.344938939692978 
3.360000000002666, -1.345753991891821 
3.3700000000026873, -1.3461497988142082 
3.3800000000027084, -1.3461785810836386 
3.3900000000027295, -1.3458989115584221 
3.4000000000027506, -1.3453728220227514 
3.4100000000027717, -1.3446685528079998 
3.420000000002793, -1.3438664072629762 
3.430000000002814, -1.3430594710020114 
3.440000000002835, -1.3423430079580225 
3.450000000002856, -1.3417968198644121 
3.460000000002877, -1.3414659605571864 
3.4700000000028983, -1.3413400052881683 
3.4800000000029194, -1.3413456505804757 
3.4900000000029405, -1.3413705397057396 
3.5000000000029616, -1.3412992021937755 
3.5100000000029827, -1.3410269676417408 
3.520000000003004, -1.3404475600764518 
3.530000000003025, -1.3394325898101784 
3.540000000003046, -1.337819689993905 
3.550000000003067, -1.3354190838034756 
3.5600000000030882, -1.3320441040605955 
3.5700000000031094, -1.327570277857236 
3.5800000000031305, -1.3220325911438988 
3.5900000000031516, -1.3157673198042488 
3.6000000000031727, -1.3095364814241928 
3.6100000000031938, -1.304412412721831 
3.620000000003215, -1.3012223581411329 
3.630000000003236, -1.2999532232185724 
3.640000000003257, -1.29987567357443 
3.650000000003278, -1.3002052412965805 
3.6600000000032993, -1.3004848684422536 
3.6700000000033204, -1.30053703588634 
3.6800000000033415, -1.3002968051683967 
3.6900000000033626, -1.2996924186248038 
3.7000000000033837, -1.2985697465967254 
3.710000000003405, -1.2966234138136348 
3.720000000003426, -1.2933324737601937 
3.730000000003447, -1.2880072732679975 
3.740000000003468, -1.2802927502964905 
3.750000000003489, -1.2715467732217989 
3.7600000000035103, -1.266091608621956 
3.7700000000035314, -1.2687932623118885 
3.7800000000035525, -1.2794301563089365 
3.7900000000035736, -1.2925141018544926 
3.8000000000035947, -1.3032035432777733 
3.810000000003616, -1.31017577577941 
3.820000000003637, -1.3141684808452259 
3.830000000003658, -1.316255454595185 
3.840000000003679, -1.317219110925937 
3.8500000000037002, -1.3175185234705094 
3.8600000000037213, -1.317396346699492 
3.8700000000037424, -1.3169780944103278 
3.8800000000037635, -1.3163564643149943 
3.8900000000037847, -1.315687996578918 
3.9000000000038058, -1.3152999842732362 
3.910000000003827, -1.315698577721709 
3.920000000003848, -1.3173172386457848 
3.930000000003869, -1.3201466967185855 
3.94000000000389, -1.3237003635974163 
3.9500000000039113, -1.327357092672778 
3.9600000000039324, -1.3306594270511307 
3.9700000000039535, -1.3333744674642165 
3.9800000000039746, -1.3354309407564577 
3.9900000000039957, -1.3368498770573924 
4.000000000004016, -1.337700334016861 
4.010000000003993, -1.3380727993203374 
4.02000000000397, -1.3380616146033248 
4.030000000003946, -1.3377554161297824 
4.040000000003923, -1.337237612735131 
4.0500000000039, -1.3365949933078218 
4.0600000000038765, -1.3359247695509837 
4.070000000003853, -1.3353271814889418 
4.08000000000383, -1.334883293764245 
4.090000000003807, -1.3346348445426903 
4.100000000003783, -1.3345761988877938 
4.11000000000376, -1.3346540294688556 
4.120000000003737, -1.3347782103499979 
4.130000000003713, -1.3348459322830581 
4.14000000000369, -1.334761589219371 
4.150000000003667, -1.3344384277614423 
4.1600000000036434, -1.3337886765816123 
4.17000000000362, -1.3327161583297873 
4.180000000003597, -1.331119196851878 
4.1900000000035735, -1.3289042118891001 
4.20000000000355, -1.3260079352668286 
4.210000000003527, -1.3224308741673854 
4.220000000003504, -1.3182917938673693 
4.23000000000348, -1.3139033943420486 
4.240000000003457, -1.3098120060866356 
4.250000000003434, -1.3066610542388741 
4.26000000000341, -1.3048290268578746 
4.270000000003387, -1.3041611444577859 
4.280000000003364, -1.304147609682143 
4.2900000000033405, -1.304309987075385 
4.300000000003317, -1.3043730153342161 
4.310000000003294, -1.3042090268901283 
4.320000000003271, -1.303728528211809 
4.330000000003247, -1.3027907508480747 
4.340000000003224, -1.3011209548416134 
4.350000000003201, -1.298209242516077 
4.360000000003177, -1.2932123237614765 
4.370000000003154, -1.2850374473428223 
4.380000000003131, -1.2730885280589452 
4.390000000003107, -1.259029099481887 
4.400000000003084, -1.2478522939086036 
4.410000000003061, -1.2445818436118714 
4.4200000000030375, -1.2489766274783907 
4.430000000003014, -1.2563860103719249 
4.440000000002991, -1.2628978179639396 
4.450000000002968, -1.2672837365360392 
4.460000000002944, -1.269835963358929 
4.470000000002921, -1.2711567917506508 
4.480000000002898, -1.2717093590789172 
4.490000000002874, -1.2717675442425462 
4.500000000002851, -1.2714675053059148 
4.510000000002828, -1.2708656660697746 
4.520000000002804, -1.2700042909980924 
4.530000000002781, -1.2690240963502057 
4.540000000002758, -1.2683514864705683 
4.5500000000027345, -1.2688391466574485 
4.560000000002711, -1.2714933691784729 
4.570000000002688, -1.2766839238723044 
4.580000000002665, -1.2836599123230044 
4.590000000002641, -1.2910524409844002 
4.600000000002618, -1.297702302608348 
4.610000000002595, -1.3030140129811458 
4.620000000002571, -1.3068710587417574 
4.630000000002548, -1.309432498911105 
4.640000000002525, -1.3109663267399358 
4.6500000000025015, -1.3117445921900843 
4.660000000002478, -1.3119921015069043 
4.670000000002455, -1.3118756371833051 
4.6800000000024315, -1.3115192420410127 
4.690000000002408, -1.3110323234368182 
4.700000000002385, -1.3105355909302807 
4.710000000002362, -1.3101628459966488 
4.720000000002338, -1.3100245312942946 
4.730000000002315, -1.3101595302002855 
4.740000000002292, -1.310524760800156 
4.750000000002268, -1.3110270997508784 
4.760000000002245, -1.3115603543246661 
4.770000000002222, -1.3120273016388273 
4.7800000000021985, -1.3123495458056005 
4.790000000002175, -1.3124689053459275 
4.800000000002152, -1.3123435982125045 
4.810000000002129, -1.3119439720782293 
4.820000000002105, -1.3112504895792703 
4.830000000002082, -1.310253943837193 
4.840000000002059, -1.308957726397807 
4.850000000002035, -1.3073833464071902 
4.860000000002012, -1.305580926622533 
4.870000000001989, -1.3036447979856018 
4.880000000001965, -1.3017286725865334 
4.890000000001942, -1.3000407164889825 
4.900000000001919, -1.2987853643663585 
4.9100000000018955, -1.2980544599983612 
4.920000000001872, -1.297760797690445 
4.930000000001849, -1.297698141202142 
