t, s[1].omega / s[0].omega 
0, -0.7699976642211579 
0.009999999999999995, -0.7697413157131814 
0.019999999999999934, -0.769435825589172 
0.029999999999999874, -0.7690720048599132 
0.04000000000000012, -0.7686423128740427 
0.050000000000000405, -0.7681473027052532 
0.06000000000000069, -0.7675990922480554 
0.07000000000000098, -0.7670223699376187 
0.08000000000000126, -0.76645495960573 
0.09000000000000155, -0.765949062611095 
0.10000000000000184, -0.7655723984313962 
0.11000000000000212, -0.7654071769930504 
0.12000000000000241, -0.7655450185765114 
0.130000000000002, -0.7660776780610508 
0.1400000000000009, -0.767085802182643 
0.1499999999999998, -0.7686291702234416 
0.1599999999999987, -0.7707406155355387 
0.1699999999999976, -0.7734225899146865 
0.1799999999999965, -0.7766422316005778 
0.1899999999999954, -0.7803203566923265 
0.1999999999999943, -0.7843143395849944 
0.2099999999999932, -0.7884054788125242 
0.2199999999999921, -0.7923129306965523 
0.229999999999991, -0.7957514696992177 
0.2399999999999899, -0.7985155629386936 
0.2499999999999888, -0.8005356935974912 
0.2599999999999877, -0.8018682923971895 
0.2699999999999866, -0.80263763077324 
0.2799999999999855, -0.8029763886232704 
0.2899999999999844, -0.8029917642404261 
0.2999999999999833, -0.8027561870848938 
0.3099999999999822, -0.8023120244352773 
0.3199999999999811, -0.8016834881746403 
0.32999999999998, -0.8008961882073967 
0.3399999999999789, -0.8000116195700414 
0.3499999999999778, -0.7991893302120692 
0.35999999999997667, -0.798789225126748 
0.36999999999997557, -0.7995072563714976 
0.37999999999997447, -0.8024783351225085 
0.38999999999997337, -0.8091760248630969 
0.39999999999997227, -0.8208739787476145 
0.40999999999997117, -0.8376547872908577 
0.41999999999997006, -0.8576271917624716 
0.42999999999996896, -0.8774424299796925 
0.43999999999996786, -0.8940871070099874 
0.44999999999996676, -0.9062785441407384 
0.45999999999996566, -0.9143532123414536 
0.46999999999996456, -0.91934960355806 
0.47999999999996346, -0.9222963684079932 
0.48999999999996235, -0.9239509662012644 
0.49999999999996125, -0.9247972832084793 
0.5099999999999602, -0.9251176765524605 
0.519999999999959, -0.9250594048408951 
0.529999999999958, -0.924676413008026 
0.5399999999999568, -0.9239477164908058 
0.5499999999999557, -0.922776923135604 
0.5599999999999546, -0.9209775708911019 
0.5699999999999535, -0.9182535587265483 
0.5799999999999524, -0.9142000380088987 
0.5899999999999513, -0.9083812825202096 
0.5999999999999502, -0.9005653836794553 
0.6099999999999491, -0.8911256190808917 
0.619999999999948, -0.8813656394726126 
0.6299999999999469, -0.8732794515174748 
0.6399999999999458, -0.868561858198099 
0.6499999999999447, -0.86757624543141 
0.6599999999999436, -0.8692949950904822 
0.6699999999999425, -0.8721896198639009 
0.6799999999999414, -0.8750912573114569 
0.6899999999999403, -0.8774404646334599 
0.6999999999999392, -0.8791163180134006 
0.7099999999999381, -0.8801976651619278 
0.719999999999937, -0.8808097526858845 
0.7299999999999359, -0.8810561014437251 
0.7399999999999348, -0.8809961098148985 
0.7499999999999337, -0.8806378493327236 
0.7599999999999326, -0.8799293668875979 
0.7699999999999315, -0.8787397439121534 
0.7799999999999304, -0.8768256609921183 
0.7899999999999293, -0.8737875806295834 
0.7999999999999282, -0.8690434283172509 
0.8099999999999271, -0.8618939065979893 
0.819999999999926, -0.8517840554098692 
0.8299999999999249, -0.8387556870291748 
0.8399999999999238, -0.823786104407698 
0.8499999999999227, -0.8085895680973122 
0.8599999999999216, -0.7949180499525783 
0.8699999999999205, -0.7839134122551095 
0.8799999999999194, -0.7759125181647026 
0.8899999999999183, -0.7706331637913976 
0.8999999999999172, -0.767481043006727 
0.9099999999999161, -0.7658044564693116 
0.919999999999915, -0.7650434940272468 
0.9299999999999139, -0.764784965621969 
0.9399999999999128, -0.7647563651597841 
0.9499999999999117, -0.7647921570045958 
0.9599999999999106, -0.7647954901464424 
0.9699999999999095, -0.7647066218671643 
0.9799999999999084, -0.764481167503952 
0.9899999999999073, -0.7640779522418424 
0.9999999999999062, -0.7634561558820044 
1.0099999999999052, -0.7625818401381059 
1.019999999999904, -0.7614417820698816 
1.029999999999903, -0.7600570235166789 
1.039999999999902, -0.7584849800589478 
1.0499999999999008, -0.7568051616179895 
1.0599999999998997, -0.7550967011270479 
1.0699999999998986, -0.7534217619536445 
1.0799999999998975, -0.7518218421940313 
1.0899999999998964, -0.7503238514330621 
1.0999999999998953, -0.7489489336131842 
1.1099999999998942, -0.7477189520666363 
1.119999999999893, -0.7466588731207944 
1.129999999999892, -0.7457954218403924 
1.1399999999998909, -0.7451532613467162 
1.1499999999998898, -0.7447502790647197 
1.1599999999998887, -0.7445936632439442 
1.1699999999998876, -0.7446781772836173 
1.1799999999998865, -0.744987272712485 
1.1899999999998854, -0.7454966483183383 
1.1999999999998843, -0.746179006522279 
1.2099999999998832, -0.7470083846950841 
1.219999999999882, -0.7479624917411447 
1.229999999999881, -0.7490217283166596 
1.2399999999998799, -0.7501641199397222 
1.2499999999998788, -0.7513569157069815 
1.2599999999998777, -0.7525485522166064 
1.2699999999998766, -0.7536676026814187 
1.2799999999998755, -0.7546341782064947 
1.2899999999998744, -0.7553811369951396 
1.2999999999998733, -0.7558728514333203 
1.3099999999998722, -0.7561097080579575 
1.319999999999871, -0.7561182068229404 
1.32999999999987, -0.7559364494704682 
1.3399999999998689, -0.755604484136686 
1.3499999999998678, -0.7551634199957709 
1.3599999999998666, -0.7546636802419083 
1.3699999999998655, -0.754182543126851 
1.3799999999998644, -0.7538517768333781 
1.3899999999998633, -0.7538948421137233 
1.3999999999998622, -0.754667571891426 
1.4099999999998611, -0.7566855978582094 
1.41999999999986, -0.7606081810794606 
1.429999999999859, -0.7671375989054758 
1.4399999999998578, -0.7767974878264127 
1.4499999999998567, -0.7895972609228479 
1.4599999999998556, -0.8047095060785976 
1.4699999999998545, -0.8204510562340472 
1.4799999999998534, -0.8348190659757236 
1.4899999999998523, -0.8463504646332792 
1.4999999999998512, -0.8546210019839086 
1.5099999999998501, -0.8600513537020168 
1.519999999999849, -0.863388800136866 
1.529999999999848, -0.8653253150534569 
1.5399999999998468, -0.86636180514792 
1.5499999999998457, -0.8668151075469293 
1.5599999999998446, -0.8668653524698989 
1.5699999999998435, -0.8665976633151322 
1.5799999999998424, -0.8660271520314708 
1.5899999999998413, -0.8651085507214786 
1.5999999999998402, -0.8637349227531702 
1.6099999999998391, -0.8617326089212505 
1.619999999999838, -0.8588669409805911 
1.629999999999837, -0.8548866935047776 
1.6399999999998358, -0.8496442401618814 
1.6499999999998347, -0.843297797187317 
1.6599999999998336, -0.8364979134275478 
1.6699999999998325, -0.8303583226772746 
1.6799999999998314, -0.8260926674757776 
1.6899999999998303, -0.8244427826301856 
1.6999999999998292, -0.8252587178861897 
1.709999999999828, -0.8276328971772433 
1.719999999999827, -0.8304960360554319 
1.729999999999826, -0.8331071731820808 
1.7399999999998248, -0.8351495569393764 
1.7499999999998237, -0.8365892477397967 
1.7599999999998226, -0.8375127288081401 
1.7699999999998215, -0.8380267240214707 
1.7799999999998204, -0.8382138933976087 
1.7899999999998193, -0.8381175659058101 
1.7999999999998182, -0.8377353515432009 
1.809999999999817, -0.8370104527480111 
1.819999999999816, -0.835815276389325 
1.8299999999998149, -0.8339272497250552 
1.8399999999998138, -0.8310076914940406 
1.8499999999998127, -0.8266170424558819 
1.8599999999998116, -0.8203237522512874 
1.8699999999998105, -0.8119375285213272 
1.8799999999998094, -0.8017640259185693 
1.8899999999998083, -0.7906465835807405 
1.8999999999998072, -0.7796873498592787 
1.909999999999806, -0.7698500583518808 
1.919999999999805, -0.7617190399994425 
1.9299999999998039, -0.7554796265811328 
1.9399999999998028, -0.7510209395214085 
1.9499999999998017, -0.7480613185200247 
1.9599999999998006, -0.746252644393571 
1.9699999999997995, -0.7452540436664699 
1.9799999999997984, -0.7447755417988843 
1.9899999999997973, -0.744595259208473 
1.9999999999997962, -0.7445568781275365 
2.0099999999998173, -0.7445560976503185 
2.0199999999998384, -0.7445240218184062 
2.0299999999998595, -0.7444128442118525 
2.0399999999998806, -0.7441866741723697 
2.0499999999999017, -0.7438186576918365 
2.059999999999923, -0.7432939289210687 
2.069999999999944, -0.74261533310001 
2.079999999999965, -0.7418062068347874 
2.089999999999986, -0.7409053077659429 
2.100000000000007, -0.7399548720101793 
2.1100000000000283, -0.7389887862036659 
2.1200000000000494, -0.7380276116084693 
2.1300000000000705, -0.7370815801073636 
2.1400000000000916, -0.7361578004485663 
2.1500000000001127, -0.7352671927330521 
2.160000000000134, -0.7344288310051691 
2.170000000000155, -0.733671566527341 
2.180000000000176, -0.7330335379338256 
2.190000000000197, -0.7325598741868032 
2.2000000000002182, -0.7322986729080044 
2.2100000000002393, -0.7322957436376083 
2.2200000000002604, -0.7325893421759967 
2.2300000000002815, -0.7332064707705739 
2.2400000000003026, -0.7341617978711161 
2.2500000000003237, -0.7354589857850465 
2.260000000000345, -0.7370927616884233 
2.270000000000366, -0.7390489878186022 
2.280000000000387, -0.7412997512374834 
2.290000000000408, -0.7437918927900984 
2.3000000000004293, -0.7464317355457966 
2.3100000000004504, -0.7490762289766587 
2.3200000000004715, -0.7515459922821582 
2.3300000000004926, -0.7536671136094327 
2.3400000000005137, -0.7553234114561966 
2.3500000000005348, -0.7564843140492103 
2.360000000000556, -0.7571918097649605 
2.370000000000577, -0.7575234057286725 
2.380000000000598, -0.7575580938815436 
2.390000000000619, -0.7573582414147269 
2.4000000000006403, -0.7569660249810314 
2.4100000000006614, -0.7564093956588851 
2.4200000000006825, -0.7557158597549583 
2.4300000000007036, -0.7549375461963236 
2.4400000000007247, -0.7541958791998163 
2.450000000000746, -0.7537563256417483 
2.460000000000767, -0.754136221991495 
2.470000000000788, -0.7562169501658962 
2.480000000000809, -0.7612591207467077 
2.49000000000083, -0.7706242595890895 
2.5000000000008513, -0.7850306980961231 
2.5100000000008724, -0.8035922497924028 
2.5200000000008935, -0.8235951032260029 
2.5300000000009146, -0.8417501873349827 
2.5400000000009357, -0.8559509973239556 
2.550000000000957, -0.8658623682847351 
2.560000000000978, -0.8722592321916787 
2.570000000000999, -0.8761808630079132 
2.58000000000102, -0.8784907529746844 
2.5900000000010412, -0.8797813735889107 
2.6000000000010624, -0.8804195439202479 
2.6100000000010835, -0.8806140952016965 
2.6200000000011046, -0.8804663641028979 
2.6300000000011257, -0.8799974382648053 
2.6400000000011468, -0.8791540708105288 
2.650000000001168, -0.8777941021228972 
2.660000000001189, -0.8756496641867644 
2.67000000000121, -0.8722678622657896 
2.680000000001231, -0.8669445662790034 
2.6900000000012523, -0.8587175622472569 
2.7000000000012734, -0.8465795627696757 
2.7100000000012945, -0.8301048463490227 
2.7200000000013156, -0.8103363969036593 
2.7300000000013367, -0.7900302014841193 
2.740000000001358, -0.7724495338695931 
2.750000000001379, -0.7596034441271311 
2.7600000000014, -0.7516178095251393 
2.770000000001421, -0.7474056481923712 
2.780000000001442, -0.7456036995198327 
2.7900000000014633, -0.7451081118373076 
2.8000000000014844, -0.745201806003059 
2.8100000000015055, -0.7454836556931365 
2.8200000000015266, -0.7457546218392821 
2.8300000000015477, -0.7459249915299945 
2.840000000001569, -0.745954214113177 
2.85000000000159, -0.7458159515020336 
2.860000000001611, -0.745478699153516 
2.870000000001632, -0.7448958351698479 
2.8800000000016532, -0.7440038028668496 
2.8900000000016743, -0.7427314062548742 
2.9000000000016954, -0.7410236818543732 
2.9100000000017165, -0.7388757212605983 
2.9200000000017377, -0.7363571938689637 
2.9300000000017588, -0.7336048360294986 
2.94000000000178, -0.730782432175122 
2.950000000001801, -0.7280352346498118 
2.960000000001822, -0.725465495504193 
2.970000000001843, -0.7231331267441912 
2.9800000000018643, -0.7210692039595952 
2.9900000000018854, -0.7192897608806897 
3.0000000000019065, -0.7178040598633953 
3.0100000000019276, -0.716617011451809 
3.0200000000019487, -0.7157278469775579 
3.03000000000197, -0.7151276022526415 
3.040000000001991, -0.7147975154522237 
3.050000000002012, -0.7147095480124465 
3.060000000002033, -0.7148291561628264 
3.070000000002054, -0.7151195156631104 
3.0800000000020753, -0.7155459778348539 
3.0900000000020964, -0.7160796634171797 
3.1000000000021175, -0.7166994395908837 
3.1100000000021386, -0.7173916363109296 
3.1200000000021597, -0.7181467382287053 
3.130000000002181, -0.7189526497122231 
3.140000000002202, -0.7197858771656579 
3.150000000002223, -0.7206048828250491 
3.160000000002244, -0.721351531270478 
3.1700000000022652, -0.7219634425189424 
3.1800000000022863, -0.7223920641005147 
3.1900000000023074, -0.7226154697475454 
3.2000000000023285, -0.7226388344968744 
3.2100000000023496, -0.7224855161611511 
3.2200000000023707, -0.7221871133660965 
3.230000000002392, -0.721778889530494 
3.240000000002413, -0.7213029237221205 
3.250000000002434, -0.7208195047501021 
3.260000000002455, -0.72042744919421 
3.2700000000024763, -0.720294081714624 
3.2800000000024974, -0.720693434571529 
3.2900000000025185, -0.7220450808032852 
3.3000000000025396, -0.7249349347630077 
3.3100000000025607, -0.7300838351421568 
3.3200000000025818, -0.7382141216014759 
3.330000000002603, -0.7497667592407073 
3.340000000002624, -0.7644918676033935 
3.350000000002645, -0.7811291681562206 
3.360000000002666, -0.797587328857029 
3.3700000000026873, -0.8117857920844479 
3.3800000000027084, -0.8225802991134936 
3.3900000000027295, -0.8299829249840638 
3.4000000000027506, -0.8346893829044062 
3.4100000000027717, -0.8375203514464247 
3.420000000002793, -0.8391337909295853 
3.430000000002814, -0.8399711501360458 
3.440000000002835, -0.8402984398556205 
3.450000000002856, -0.840258862746114 
3.460000000002877, -0.8399095529943393 
3.4700000000028983, -0.8392389038662982 
3.4800000000029194, -0.8381663764134716 
3.4900000000029405, -0.8365259933494601 
3.5000000000029616, -0.8340341750544049 
3.5100000000029827, -0.8302469839243349 
3.520000000003004, -0.8245290184122567 
3.530000000003025, -0.8160976804953057 
3.540000000003046, -0.804269463262755 
3.550000000003067, -0.7890264208840889 
3.5600000000030882, -0.7716900674420567 
3.5700000000031094, -0.7548862128298708 
3.5800000000031305, -0.7412702095671481 
3.5900000000031516, -0.7320792380997068 
3.6000000000031727, -0.7269248638789864 
3.6100000000031938, -0.7246093164261143 
3.620000000003215, -0.7239304061802908 
3.630000000003236, -0.7240282745392937 
3.640000000003257, -0.7243980146622102 
3.650000000003278, -0.7247839105248449 
3.6600000000032993, -0.725072679515521 
3.6700000000033204, -0.7252194248010811 
3.6800000000033415, -0.7252039108684498 
3.6900000000033626, -0.7250065228934146 
3.7000000000033837, -0.7245953346632024 
3.710000000003405, -0.7239202863976908 
3.720000000003426, -0.7229152295885932 
3.730000000003447, -0.7215120043387465 
3.740000000003468, -0.7196689059041045 
3.750000000003489, -0.7174047039867576 
3.7600000000035103, -0.714815265470057 
3.7700000000035314, -0.7120537384497572 
3.7800000000035525, -0.7092837359643165 
3.7900000000035736, -0.7066371277048124 
3.8000000000035947, -0.7041979644936743 
3.810000000003616, -0.7020096410240543 
3.820000000003637, -0.7000908504763662 
3.830000000003658, -0.6984492210308125 
3.840000000003679, -0.6970887111395415 
3.8500000000037002, -0.6960114359442443 
3.8600000000037213, -0.6952162047101915 
3.8700000000037424, -0.6946960847944452 
3.8800000000037635, -0.6944367600841393 
3.8900000000037847, -0.694416677233121 
3.9000000000038058, -0.694609117473961 
3.910000000003827, -0.6949856022608851 
3.920000000003848, -0.6955196489657532 
3.930000000003869, -0.6961898515871132 
3.94000000000389, -0.6969813289756058 
3.9500000000039113, -0.6978845138703411 
3.9600000000039324, -0.6988902364648875 
3.9700000000039535, -0.6999808885324705 
3.9800000000039746, -0.7011199734621523 
3.9900000000039957, -0.7022459917070869 
4.000000000004016, -0.7032780464783158 
4.010000000003993, -0.7041351435294657 
4.02000000000397, -0.704759968687611 
4.030000000003946, -0.7051321667652793 
4.040000000003923, -0.7052643977260973 
4.0500000000039, -0.7051878533853608 
4.0600000000038765, -0.7049384260154301 
4.070000000003853, -0.7045500793191197 
4.08000000000383, -0.7040567393678647 
4.090000000003807, -0.7035026877944819 
4.100000000003783, -0.702963046200699 
4.11000000000376, -0.7025781529153119 
4.120000000003737, -0.7026061475520591 
4.130000000003713, -0.703493459664142 
4.14000000000369, -0.7059470532974916 
4.150000000003667, -0.7109568579985281 
4.1600000000036434, -0.7196604485188206 
4.17000000000362, -0.7329069016126528 
4.180000000003597, -0.7505118682563426 
4.1900000000035735, -0.7706631542286846 
4.20000000000355, -0.7903327633007161 
4.210000000003527, -0.806793731259539 
4.220000000003504, -0.8188870432382368 
4.23000000000348, -0.8269585536507092 
4.240000000003457, -0.8320152828815678 
4.250000000003434, -0.8350523786965152 
4.26000000000341, -0.8368050244778475 
4.270000000003387, -0.8377469036699191 
4.280000000003364, -0.8381589088022233 
4.2900000000033405, -0.8381923461108378 
4.300000000003317, -0.8379088170861863 
4.310000000003294, -0.8372974111838376 
4.320000000003271, -0.8362716051224102 
4.330000000003247, -0.8346453483899804 
4.340000000003224, -0.8320856441754583 
4.350000000003201, -0.8280441934197652 
4.360000000003177, -0.8216989821426296 
4.370000000003154, -0.8120111952873292 
4.380000000003131, -0.7980980119456635 
4.390000000003107, -0.7800187900943761 
4.400000000003084, -0.7594776328469652 
4.410000000003061, -0.7394444460902231 
4.4200000000030375, -0.722648609879267 
4.430000000003014, -0.7103549380202195 
4.440000000002991, -0.7023544344291641 
4.450000000002968, -0.6976726427871671 
4.460000000002944, -0.6952176153462309 
4.470000000002921, -0.6941000986256147 
4.480000000002898, -0.6937055467872747 
4.490000000002874, -0.6936522825254599 
4.500000000002851, -0.6937208204651533 
4.510000000002828, -0.693791041103936 
4.520000000002804, -0.693796934936654 
4.530000000002781, -0.6936975477431242 
4.540000000002758, -0.6934601283197664 
4.5500000000027345, -0.6930525104987987 
4.560000000002711, -0.6924436752826486 
4.570000000002688, -0.6916120699374532 
4.580000000002665, -0.690558692892939 
4.590000000002641, -0.6893169045436933 
4.600000000002618, -0.6879494522689821 
4.610000000002595, -0.686531183371365 
4.620000000002571, -0.685127652818698 
4.630000000002548, -0.6837823317016394 
4.640000000002525, -0.6825167168078105 
4.6500000000025015, -0.6813388210615794 
4.660000000002478, -0.6802532306355857 
4.670000000002455, -0.6792684706049792 
4.6800000000024315, -0.6784006759214002 
4.690000000002408, -0.6776743137242176 
4.700000000002385, -0.6771209504801013 
4.710000000002362, -0.6767767510438816 
4.720000000002338, -0.676679269061655 
4.730000000002315, -0.6768642443201521 
4.740000000002292, -0.6773632554423707 
4.750000000002268, -0.6782028553886128 
4.760000000002245, -0.679405133970562 
4.770000000002222, -0.6809886202832075 
4.7800000000021985, -0.6829672675269702 
4.790000000002175, -0.6853442820934335 
4.800000000002152, -0.6880976354018409 
4.810000000002129, -0.6911572307674853 
4.820000000002105, -0.6943823113960904 
4.830000000002082, -0.6975595831465344 
4.840000000002059, -0.7004431586587976 
4.850000000002035, -0.7028292824129111 
4.860000000002012, -0.7046194783537064 
4.870000000001989, -0.7058282631659231 
4.880000000001965, -0.7065410112033006 
4.890000000001942, -0.706861552648194 
4.900000000001919, -0.7068777542318133 
4.9100000000018955, -0.7066480498029633 
4.920000000001872, -0.7062002014657278 
