t, s[1].omega / s[0].omega 
0, -0.6399977138604859 
0.009999999999999995, -0.6397680710975321 
0.019999999999999934, -0.6395309188553775 
0.029999999999999874, -0.639272668227396 
0.04000000000000012, -0.6389781438949925 
0.050000000000000405, -0.638637072683023 
0.06000000000000069, -0.6382476692975054 
0.07000000000000098, -0.6378172105966416 
0.08000000000000126, -0.6373615572752304 
0.09000000000000155, -0.6369057993698846 
0.10000000000000184, -0.6364873240681203 
0.11000000000000212, -0.636161714339561 
0.12000000000000241, -0.6360113140713569 
0.130000000000002, -0.6361557816488788 
0.1400000000000009, -0.6367630994293599 
0.1499999999999998, -0.638057872928141 
0.1599999999999987, -0.6403206951501608 
0.1699999999999976, -0.6438670829049948 
0.1799999999999965, -0.6489876769516544 
0.1899999999999954, -0.6558304182264336 
0.1999999999999943, -0.664231730518231 
0.2099999999999932, -0.6735807886613618 
0.2199999999999921, -0.6828830027304968 
0.229999999999991, -0.6911075477939689 
0.2399999999999899, -0.6976104750292939 
0.2499999999999888, -0.7022916253109364 
0.2599999999999877, -0.705428209458518 
0.2699999999999866, -0.7074169332672401 
0.2799999999999855, -0.7086104323790965 
0.2899999999999844, -0.709265064659962 
0.2999999999999833, -0.7095464477542903 
0.3099999999999822, -0.7095500819390894 
0.3199999999999811, -0.7093185998998801 
0.32999999999998, -0.708850613784018 
0.3399999999999789, -0.7081005999662237 
0.3499999999999778, -0.7069701920857878 
0.35999999999997667, -0.7052926178370428 
0.36999999999997557, -0.7028177328411479 
0.37999999999997447, -0.699219411703502 
0.38999999999997337, -0.6941665386272138 
0.39999999999997227, -0.6874916689229356 
0.40999999999997117, -0.6794031093762629 
0.41999999999997006, -0.6705568105356001 
0.42999999999996896, -0.6618493881664511 
0.43999999999996786, -0.6540650479830148 
0.44999999999996676, -0.6476476942725922 
0.45999999999996566, -0.6426952230295467 
0.46999999999996456, -0.6390775815269375 
0.47999999999996346, -0.6365618257261417 
0.48999999999996235, -0.634895869891384 
0.49999999999996125, -0.6338514584019146 
0.5099999999999602, -0.6332406840963449 
0.519999999999959, -0.6329182433369975 
0.529999999999958, -0.6327768856623726 
0.5399999999999568, -0.6327402096575263 
0.5499999999999557, -0.6327551447592931 
0.5599999999999546, -0.6327854869559374 
0.5699999999999535, -0.6328072634256855 
0.5799999999999524, -0.6328061969694995 
0.5899999999999513, -0.6327768791047649 
0.5999999999999502, -0.6327223753365236 
0.6099999999999491, -0.6326523550091812 
0.619999999999948, -0.6325784206662373 
0.6299999999999469, -0.6325074469026961 
0.6399999999999458, -0.6324360594977998 
0.6499999999999447, -0.6323497140389309 
0.6599999999999436, -0.6322273979795583 
0.6699999999999425, -0.6320494056859638 
0.6799999999999414, -0.6318038542646536 
0.6899999999999403, -0.6314892055339796 
0.6999999999999392, -0.6311133810307489 
0.7099999999999381, -0.6306921156651588 
0.719999999999937, -0.6302490549043835 
0.7299999999999359, -0.6298190059747475 
0.7399999999999348, -0.6294549546363415 
0.7499999999999337, -0.6292391444497109 
0.7599999999999326, -0.6292981924057625 
0.7699999999999315, -0.6298211815519335 
0.7799999999999304, -0.631077020953555 
0.7899999999999293, -0.633421745179291 
0.7999999999999282, -0.6372763709407643 
0.8099999999999271, -0.6430431247107627 
0.819999999999926, -0.6509274959703202 
0.8299999999999249, -0.66068640127219 
0.8399999999999238, -0.6714596064375056 
0.8499999999999227, -0.6819410720259811 
0.8599999999999216, -0.6909237691568537 
0.8699999999999205, -0.6978034854010755 
0.8799999999999194, -0.7026315607668276 
0.8899999999999183, -0.7058175016059686 
0.8999999999999172, -0.7078281536084587 
0.9099999999999161, -0.7090416640320211 
0.919999999999915, -0.7097200909086314 
0.9299999999999139, -0.7100288765061642 
0.9399999999999128, -0.7100627524411058 
0.9499999999999117, -0.709864466124719 
0.9599999999999106, -0.7094340796447949 
0.9699999999999095, -0.7087295877072821 
0.9799999999999084, -0.7076602084499679 
0.9899999999999073, -0.7060755094662025 
0.9999999999999062, -0.7037596451215692 
1.0099999999999052, -0.700451962869124 
1.019999999999904, -0.6959244218410476 
1.029999999999903, -0.6901227913695488 
1.039999999999902, -0.6832999574749642 
1.0499999999999008, -0.6760090193571375 
1.0599999999998997, -0.6689150423593211 
1.0699999999998986, -0.6625609752113552 
1.0799999999998975, -0.6572466213710502 
1.0899999999998964, -0.6530438693609886 
1.0999999999998953, -0.6498751450416875 
1.1099999999998942, -0.6475899868885993 
1.119999999999893, -0.6460165400284616 
1.129999999999892, -0.6449899716524994 
1.1399999999998909, -0.6443659445848249 
1.1499999999998898, -0.6440255488531245 
1.1599999999998887, -0.6438754178304043 
1.1699999999998876, -0.6438451420248914 
1.1799999999998865, -0.6438834093980949 
1.1899999999998854, -0.6439540133292647 
1.1999999999998843, -0.6440326122772349 
1.2099999999998832, -0.6441047062374768 
1.219999999999882, -0.6441646069543874 
1.229999999999881, -0.6442143170540728 
1.2399999999998799, -0.6442607582502851 
1.2499999999998788, -0.6443105420080785 
1.2599999999998777, -0.644363558668463 
1.2699999999998766, -0.6444086455923655 
1.2799999999998755, -0.6444244623615296 
1.2899999999998744, -0.6443858431995909 
1.2999999999998733, -0.6442722153739644 
1.3099999999998722, -0.6440734352255939 
1.319999999999871, -0.643790871232571 
1.32999999999987, -0.6434352382126901 
1.3399999999998689, -0.6430243573827955 
1.3499999999998678, -0.6425833560250701 
1.3599999999998666, -0.642148542535348 
1.3699999999998655, -0.6417754848644435 
1.3799999999998644, -0.6415516207949414 
1.3899999999998633, -0.641613362102142 
1.3999999999998622, -0.6421662883170537 
1.4099999999998611, -0.6435036030279117 
1.41999999999986, -0.646011079370263 
1.429999999999859, -0.6501351121040007 
1.4399999999998578, -0.6562779790564414 
1.4499999999998567, -0.6645918448355943 
1.4599999999998556, -0.674716284724298 
1.4699999999998545, -0.6856554399214084 
1.4799999999998534, -0.696044937878612 
1.4899999999998523, -0.7047459523514813 
1.4999999999998512, -0.7112852013819995 
1.5099999999998501, -0.7158120726203949 
1.519999999999849, -0.7187707270757719 
1.529999999999848, -0.7206224203320376 
1.5399999999998468, -0.7217270057119023 
1.5499999999998457, -0.7223290510663316 
1.5599999999998446, -0.7225806229493754 
1.5699999999998435, -0.7225664920828294 
1.5799999999998424, -0.7223211905856831 
1.5899999999998413, -0.7218365370733235 
1.5999999999998402, -0.7210604035239546 
1.6099999999998391, -0.7198879847520938 
1.619999999999838, -0.7181490555752302 
1.629999999999837, -0.7156020057390073 
1.6399999999998358, -0.7119593382395684 
1.6499999999998347, -0.7069788336660383 
1.6599999999998336, -0.7006243562469039 
1.6699999999998325, -0.6932082143999844 
1.6799999999998314, -0.6853660659678356 
1.6899999999998303, -0.6778329774901407 
1.6999999999998292, -0.6711853484469006 
1.709999999999828, -0.6657200781863692 
1.719999999999827, -0.6614833463272382 
1.729999999999826, -0.6583628358744354 
1.7399999999998248, -0.656173518311278 
1.7499999999998237, -0.654714217439387 
1.7599999999998226, -0.6537982786632338 
1.7699999999998215, -0.6532673542480975 
1.7799999999998204, -0.6529952879071923 
1.7899999999998193, -0.652886404311755 
1.7999999999998182, -0.6528709118636605 
1.809999999999817, -0.6528993288490524 
1.819999999999816, -0.6529373475274323 
1.8299999999998149, -0.652962092539871 
1.8399999999998138, -0.6529601595382128 
1.8499999999998127, -0.6529270035433573 
1.8599999999998116, -0.6528662815911177 
1.8699999999998105, -0.6527873135127962 
1.8799999999998094, -0.6526998396096746 
1.8899999999998083, -0.6526076160513118 
1.8999999999998072, -0.6525042714691478 
1.909999999999806, -0.6523742528316419 
1.919999999999805, -0.6521986395339466 
1.9299999999998039, -0.6519624533035792 
1.9399999999998028, -0.6516595775841623 
1.9499999999998017, -0.6512938762892911 
1.9599999999998006, -0.6508780655661145 
1.9699999999997995, -0.650432985466856 
1.9799999999997984, -0.6499892208165668 
1.9899999999997973, -0.6495919129684344 
1.9999999999997962, -0.6493088719133597 
2.0099999999998173, -0.6492416050077805 
2.0199999999998384, -0.649538138957028 
2.0299999999998595, -0.6504050515104798 
2.0399999999998806, -0.6521134341595685 
2.0499999999999017, -0.6549888891769547 
2.059999999999923, -0.6593689377097941 
2.069999999999944, -0.6655061840306905 
2.079999999999965, -0.6734076772401812 
2.089999999999986, -0.6826581011732064 
2.100000000000007, -0.6923724499349215 
2.1100000000000283, -0.701436026267499 
2.1200000000000494, -0.7089575034574218 
2.1300000000000705, -0.7145863035822033 
2.1400000000000916, -0.7184682568335262 
2.1500000000001127, -0.7209863573650994 
2.160000000000134, -0.7225369535978969 
2.170000000000155, -0.723430169484893 
2.180000000000176, -0.7238761920315865 
2.190000000000197, -0.7240033474760125 
2.2000000000002182, -0.7238787418008557 
2.2100000000002393, -0.7235216058711355 
2.2200000000002604, -0.7229074479664697 
2.2300000000002815, -0.7219630371562025 
2.2400000000003026, -0.7205527614637776 
2.2500000000003237, -0.7184597026347095 
2.260000000000345, -0.7153744502786394 
2.270000000000366, -0.7109246225978729 
2.280000000000387, -0.7047950991838816 
2.290000000000408, -0.6969509177359077 
2.3000000000004293, -0.6878386699111216 
2.3100000000004504, -0.678341916352535 
2.3200000000004715, -0.6694440425116298 
2.3300000000004926, -0.6618582023631956 
2.3400000000005137, -0.6558815078254543 
2.3500000000005348, -0.651470912436966 
2.360000000000556, -0.6483958438848265 
2.370000000000577, -0.6463642630098889 
2.380000000000598, -0.645096280033769 
2.390000000000619, -0.6443566558619047 
2.4000000000006403, -0.6439629966497386 
2.4100000000006614, -0.6437817424544006 
2.4200000000006825, -0.6437191232481585 
2.4300000000007036, -0.6437110826798859 
2.4400000000007247, -0.6437143349633395 
2.450000000000746, -0.6436996664271418 
2.460000000000767, -0.6436479510601989 
2.470000000000788, -0.6435487721079471 
2.480000000000809, -0.6434007084350736 
2.49000000000083, -0.6432113425334848 
2.5000000000008513, -0.6429947629022578 
2.5100000000008724, -0.6427658235240863 
2.5200000000008935, -0.6425332187620814 
2.5300000000009146, -0.6422951830911726 
2.5400000000009357, -0.6420404719772986 
2.550000000000957, -0.641753985435402 
2.560000000000978, -0.6414236300080917 
2.570000000000999, -0.6410449735771266 
2.58000000000102, -0.6406226614496863 
2.5900000000010412, -0.6401700654786733 
2.6000000000010624, -0.6397094280598365 
2.6100000000010835, -0.6392740963177219 
2.6200000000011046, -0.6389134701196513 
2.6300000000011257, -0.6387006049430378 
2.6400000000011468, -0.6387418999748242 
2.650000000001168, -0.6391875993511661 
2.660000000001189, -0.6402405613226377 
2.67000000000121, -0.6421583988897934 
2.680000000001231, -0.6452399290471009 
2.6900000000012523, -0.6497807625362941 
2.7000000000012734, -0.6559789563200941 
2.7100000000012945, -0.6637853986420544 
2.7200000000013156, -0.6727502684684351 
2.7300000000013367, -0.6820050417691903 
2.740000000001358, -0.6905126438929984 
2.750000000001379, -0.6974879326140626 
2.7600000000014, -0.7026607515214787 
2.770000000001421, -0.7062047204158441 
2.780000000001442, -0.7084906196654974 
2.7900000000014633, -0.7098875546087593 
2.8000000000014844, -0.7106794252224312 
2.8100000000015055, -0.7110564577457394 
2.8200000000015266, -0.7111329823720954 
2.8300000000015477, -0.7109661544775946 
2.840000000001569, -0.7105673256371586 
2.85000000000159, -0.7099045077633674 
2.860000000001611, -0.708895973994372 
2.870000000001632, -0.7073958405683487 
2.8800000000016532, -0.7051762458028336 
2.8900000000016743, -0.7019221413515143 
2.9000000000016954, -0.697275216650938 
2.9100000000017165, -0.6909732470850792 
2.9200000000017377, -0.6830737319411466 
2.9300000000017588, -0.6741094767862987 
2.94000000000178, -0.6649750098635319 
2.950000000001801, -0.6565725236182557 
2.960000000001822, -0.6494973551541712 
2.970000000001843, -0.6439566134331484 
2.9800000000018643, -0.6398685616219363 
2.9900000000018854, -0.637004530486393 
3.0000000000019065, -0.6350949888071596 
3.0100000000019276, -0.6338877787467749 
3.0200000000019487, -0.633172337283517 
3.03000000000197, -0.6327848649158645 
3.040000000001991, -0.6326042638002322 
3.050000000002012, -0.6325443720274768 
3.060000000002033, -0.6325455119698703 
3.070000000002054, -0.6325670223599268 
3.0800000000020753, -0.632581683999488 
3.0900000000020964, -0.6325724238010326 
3.1000000000021175, -0.6325310980205394 
3.1100000000021386, -0.6324583196928323 
3.1200000000021597, -0.6323624648264018 
3.130000000002181, -0.6322560692640198 
3.140000000002202, -0.632149557153186 
3.150000000002223, -0.6320448093304953 
3.160000000002244, -0.6319322738431533 
3.1700000000022652, -0.6317937107981849 
3.1800000000022863, -0.6316091896041056 
3.1900000000023074, -0.6313643414628461 
3.2000000000023285, -0.6310543567863058 
3.2100000000023496, -0.6306842039513072 
3.2200000000023707, -0.6302671841378471 
3.230000000002392, -0.6298244614425983 
3.240000000002413, -0.629387299200163 
3.250000000002434, -0.6290027824513956 
3.260000000002455, -0.6287433375837985 
3.2700000000024763, -0.6287200620458971 
3.2800000000024974, -0.6290991379653316 
3.2900000000025185, -0.63011867342746 
3.3000000000025396, -0.6320991106100782 
3.3100000000025607, -0.6354324263634742 
3.3200000000025818, -0.640523705199277 
3.330000000002603, -0.6476518022460903 
3.340000000002624, -0.6567437099388765 
3.350000000002645, -0.6671616913037938 
3.360000000002666, -0.6777354291148076 
3.3700000000026873, -0.6871883308431174 
3.3800000000027084, -0.6946973241678435 
3.3900000000027295, -0.7001129972277887 
3.4000000000027506, -0.7037533288215279 
3.4100000000027717, -0.7060813542495465 
3.420000000002793, -0.7075067785581325 
3.430000000002814, -0.7083264120656295 
3.440000000002835, -0.7087331032386214 
3.450000000002856, -0.708841334638042 
3.460000000002877, -0.7087085843869414 
3.4700000000028983, -0.7083475200344989 
3.4800000000029194, -0.7077291450240242 
3.4900000000029405, -0.7067779910080767 
3.5000000000029616, -0.7053615370267257 
3.5100000000029827, -0.7032804763376852 
3.520000000003004, -0.7002769927082702 
3.530000000003025, -0.6960912124025852 
3.540000000003046, -0.6905880727830448 
3.550000000003067, -0.6839129694856073 
3.5600000000030882, -0.6765474725720153 
3.5700000000031094, -0.6691690104071724 
3.5800000000031305, -0.6624005705809106 
3.5900000000031516, -0.6566351121822441 
3.6000000000031727, -0.6520116428488233 
3.6100000000031938, -0.6484859071841547 
3.620000000003215, -0.6459161408347245 
3.630000000003236, -0.6441258762806518 
3.640000000003257, -0.6429401663324599 
3.650000000003278, -0.6422032783042046 
3.6600000000032993, -0.6417856057325688 
3.6700000000033204, -0.6415846135853914 
3.6800000000033415, -0.6415225073109474 
3.6900000000033626, -0.6415422987041285 
3.7000000000033837, -0.6416035133656587 
3.710000000003405, -0.641678506016397 
3.720000000003426, -0.6417499823556545 
3.730000000003447, -0.6418097271849851 
3.740000000003468, -0.6418577002472312 
3.750000000003489, -0.6418999725980871 
3.7600000000035103, -0.6419442660006759 
3.7700000000035314, -0.6419936039556621 
3.7800000000035525, -0.6420408429008868 
3.7900000000035736, -0.642067588650225 
3.8000000000035947, -0.6420489538207109 
3.810000000003616, -0.6419618502360778 
3.820000000003637, -0.6417921409211413 
3.830000000003658, -0.6415373255912232 
3.840000000003679, -0.6412051348146268 
3.8500000000037002, -0.6408109581941083 
3.8600000000037213, -0.6403770055843065 
3.8700000000037424, -0.6399348379098699 
3.8800000000037635, -0.6395319685647236 
3.8900000000037847, -0.6392429450710079 
3.9000000000038058, -0.63918512742929 
3.910000000003827, -0.6395384813948487 
3.920000000003848, -0.6405661120806844 
3.930000000003869, -0.6426265648311126 
3.94000000000389, -0.6461585099935945 
3.9500000000039113, -0.6516044164843635 
3.9600000000039324, -0.6592360071665799 
3.9700000000039535, -0.6688911154363879 
3.9800000000039746, -0.6797685210725264 
3.9900000000039957, -0.6905519049482159 
4.000000000004016, -0.6999465754492247 
4.010000000003993, -0.7072377262043796 
4.02000000000397, -0.712405050354539 
4.030000000003946, -0.7158393581861842 
4.040000000003923, -0.7180202132175093 
4.0500000000039, -0.7193472835300612 
4.0600000000038765, -0.7201019228110768 
4.070000000003853, -0.7204639853142962 
4.08000000000383, -0.7205384543673605 
4.090000000003807, -0.7203756752865483 
4.100000000003783, -0.7199820750955269 
4.11000000000376, -0.7193219083084965 
4.120000000003737, -0.7183111826574845 
4.130000000003713, -0.7168062452687882 
4.14000000000369, -0.714594720056285 
4.150000000003667, -0.7114080547621279 
4.1600000000036434, -0.7069874053539198 
4.17000000000362, -0.7012210835238986 
4.180000000003597, -0.6942994179094515 
4.1900000000035735, -0.6867503893399782 
4.20000000000355, -0.6792751022570702 
4.210000000003527, -0.6724920589683847 
4.220000000003504, -0.6667741562225848 
4.23000000000348, -0.6622382270803958 
4.240000000003457, -0.6588214837869689 
4.250000000003434, -0.6563677158361086 
4.26000000000341, -0.6546893021786078 
4.270000000003387, -0.653603053080738 
4.280000000003364, -0.6529478636600374 
4.2900000000033405, -0.6525914629974615 
4.300000000003317, -0.6524308464121218 
4.310000000003294, -0.6523891612127479 
4.320000000003271, -0.6524109527580823 
4.330000000003247, -0.6524572387264065 
4.340000000003224, -0.6525015067371105 
4.350000000003201, -0.6525272522608655 
4.360000000003177, -0.6525269629448877 
4.370000000003154, -0.6525015165378372 
4.380000000003131, -0.6524582639738704 
4.390000000003107, -0.6524065398699372 
4.400000000003084, -0.6523513449277952 
4.410000000003061, -0.6522881942129529 
4.4200000000030375, -0.6522024541018164 
4.430000000003014, -0.6520740709952217 
4.440000000002991, -0.6518850845995903 
4.450000000002968, -0.6516257066331124 
4.460000000002944, -0.6512964902275635 
4.470000000002921, -0.6509073853811315 
4.480000000002898, -0.6504763450774553 
4.490000000002874, -0.6500298623531252 
4.500000000002851, -0.6496066674725636 
4.510000000002828, -0.6492649472676548 
4.520000000002804, -0.6490929684488795 
4.530000000002781, -0.6492224122003167 
4.540000000002758, -0.6498425053960026 
4.5500000000027345, -0.651210605549438 
4.560000000002711, -0.6536505389781682 
4.570000000002688, -0.6575231086083896 
4.580000000002665, -0.6631457990545508 
4.590000000002641, -0.6706425603094908 
4.600000000002618, -0.6797476984952358 
4.610000000002595, -0.6896873123101949 
4.620000000002571, -0.6993280212068406 
4.630000000002548, -0.7076172704870168 
4.640000000002525, -0.7140040201361175 
4.6500000000025015, -0.7185068344506835 
4.660000000002478, -0.7214780727189898 
4.670000000002455, -0.7233398521221321 
4.6800000000024315, -0.724443143475918 
4.690000000002408, -0.7250342651026498 
4.700000000002385, -0.7252686330997997 
4.710000000002362, -0.7252332882937449 
4.720000000002338, -0.7249635956337475 
4.730000000002315, -0.7244507896166416 
4.740000000002292, -0.7236402631216234 
4.750000000002268, -0.7224210403673321 
4.760000000002245, -0.7206084987717916 
4.770000000002222, -0.717929198675224 
4.7800000000021985, -0.7140329441957922 
4.790000000002175, -0.708577502608237 
4.800000000002152, -0.7014178406116426 
4.810000000002129, -0.6928278928565863 
4.820000000002105, -0.6835505353080001 
4.830000000002082, -0.6745481835482025 
4.840000000002059, -0.6666246931045489 
4.850000000002035, -0.6602042292365292 
4.860000000002012, -0.6553459570163742 
4.870000000001989, -0.651878422157005 
4.880000000001965, -0.6495331365076457 
4.890000000001942, -0.6480316199694591 
4.900000000001919, -0.6471287997776739 
4.9100000000018955, -0.6466283021689451 
4.920000000001872, -0.6463825623027286 
