t, s[1].omega / s[0].omega 
0, -0.8001225764641926 
0.009999999999999995, -0.811903811410985 
0.019999999999999934, -0.8219499430591075 
0.029999999999999874, -0.8296025780480306 
0.04000000000000012, -0.8349024574981513 
0.050000000000000405, -0.8383072887970547 
0.06000000000000069, -0.8403608392043778 
0.07000000000000098, -0.8415104867086164 
0.08000000000000126, -0.8420638501034979 
0.09000000000000155, -0.8422086296792068 
0.10000000000000184, -0.8420439979778553 
0.11000000000000212, -0.8416038093528491 
0.12000000000000241, -0.8408679751300223 
0.130000000000002, -0.8397636243890408 
0.1400000000000009, -0.8381596271173418 
0.1499999999999998, -0.8358613811471469 
0.1599999999999987, -0.8326199722250186 
0.1699999999999976, -0.828179494437878 
0.1799999999999965, -0.8223875087721781 
0.1899999999999954, -0.8153663157682324 
0.1999999999999943, -0.8076810945165261 
0.2099999999999932, -0.8003670061912121 
0.2199999999999921, -0.7946366673514451 
0.229999999999991, -0.791280064208826 
0.2399999999999899, -0.7902359706650224 
0.2499999999999888, -0.7907780574339687 
0.2599999999999877, -0.7920503212564834 
0.2699999999999866, -0.7934349833642309 
0.2799999999999855, -0.7946169023024416 
0.2899999999999844, -0.7954921732539988 
0.2999999999999833, -0.7960615362783923 
0.3099999999999822, -0.7963593255238834 
0.3199999999999811, -0.7964164704472568 
0.32999999999998, -0.7962430310640207 
0.3399999999999789, -0.7958183268521285 
0.3499999999999778, -0.7950819671236212 
0.35999999999997667, -0.7939241638344058 
0.36999999999997557, -0.7921801621665344 
0.37999999999997447, -0.789642930175413 
0.38999999999997337, -0.7861150789060647 
0.39999999999997227, -0.7815067616038911 
0.40999999999997117, -0.7759370816865212 
0.41999999999997006, -0.7697544950126549 
0.42999999999996896, -0.7634373467948163 
0.43999999999996786, -0.7574422440644826 
0.44999999999996676, -0.7521000768993704 
0.45999999999996566, -0.7475921647416903 
0.46999999999996456, -0.7439755585847134 
0.47999999999996346, -0.7412195076461354 
0.48999999999996235, -0.7392357759994017 
0.49999999999996125, -0.7379016609064404 
0.5099999999999602, -0.7370791043554943 
0.519999999999959, -0.7366313236905712 
0.529999999999958, -0.7364357030399533 
0.5399999999999568, -0.7363911601061004 
0.5499999999999557, -0.7364197066433288 
0.5599999999999546, -0.7364638226035258 
0.5699999999999535, -0.7364822492200422 
0.5799999999999524, -0.7364465974681389 
0.5899999999999513, -0.7363400316344879 
0.5999999999999502, -0.7361575185155397 
0.6099999999999491, -0.7359053928103221 
0.619999999999948, -0.7355977547446516 
0.6299999999999469, -0.7352495616430479 
0.6399999999999458, -0.7348696537586885 
0.6499999999999447, -0.7344579522604443 
0.6599999999999436, -0.7340083991469392 
0.6699999999999425, -0.7335153627725682 
0.6799999999999414, -0.7329796557966384 
0.6899999999999403, -0.7324119359014121 
0.6999999999999392, -0.7318339528886195 
0.7099999999999381, -0.7312793377803509 
0.719999999999937, -0.7307949384797139 
0.7299999999999359, -0.7304422694259884 
0.7399999999999348, -0.7302976307117743 
0.7499999999999337, -0.730449412611951 
0.7599999999999326, -0.7309920685574492 
0.7699999999999315, -0.732017692594012 
0.7799999999999304, -0.7336070166395723 
0.7899999999999293, -0.7358209545404761 
0.7999999999999282, -0.7386915396921543 
0.8099999999999271, -0.7422086089626088 
0.819999999999926, -0.7462985780962954 
0.8299999999999249, -0.7507977946098833 
0.8399999999999238, -0.7554371086101835 
0.8499999999999227, -0.7598676401031589 
0.8599999999999216, -0.7637448987439944 
0.8699999999999205, -0.7668371189367728 
0.8799999999999194, -0.7690842236513843 
0.8899999999999183, -0.7705705415974428 
0.8999999999999172, -0.7714482733797591 
0.9099999999999161, -0.7718697127707671 
0.919999999999915, -0.7719528780933796 
0.9299999999999139, -0.7717736410140683 
0.9399999999999128, -0.7713699686676331 
0.9499999999999117, -0.7707493105287944 
0.9599999999999106, -0.7698969098589539 
0.9699999999999095, -0.7687880018817915 
0.9799999999999084, -0.7674113784616311 
0.9899999999999073, -0.7658153985130075 
0.9999999999999062, -0.7641843865806768 
1.0099999999999052, -0.7629280266250829 
1.019999999999904, -0.7627032425683479 
1.029999999999903, -0.7642271714160037 
1.039999999999902, -0.7678465658184646 
1.0499999999999008, -0.7731895011647275 
1.0599999999998997, -0.7793380952268467 
1.0699999999998986, -0.7853564440567166 
1.0799999999998975, -0.79062091983802 
1.0899999999998964, -0.7948474689131244 
1.0999999999998953, -0.7980103334474162 
1.1099999999998942, -0.8002402644937092 
1.119999999999893, -0.8017276800113675 
1.129999999999892, -0.8026555840143592 
1.1399999999998909, -0.8031678639290296 
1.1499999999998898, -0.8033611709216066 
1.1599999999998887, -0.8032863194369252 
1.1699999999998876, -0.8029497938426312 
1.1799999999998865, -0.8023103476140442 
1.1899999999998854, -0.8012685259894349 
1.1999999999998843, -0.7996503024382824 
1.2099999999998832, -0.7971938584949487 
1.219999999999882, -0.7935642651618741 
1.229999999999881, -0.7884365057205736 
1.2399999999998799, -0.7816668582504255 
1.2499999999998788, -0.7734790014735522 
1.2599999999998777, -0.7644989963880596 
1.2699999999998766, -0.7555580670894574 
1.2799999999998755, -0.7474013060971794 
1.2899999999998744, -0.7405029181162718 
1.2999999999998733, -0.7350439481025077 
1.3099999999998722, -0.7309830803860781 
1.319999999999871, -0.7281448318058655 
1.32999999999987, -0.7262917727823781 
1.3399999999998689, -0.7251757767529837 
1.3499999999998678, -0.7245710970357689 
1.3599999999998666, -0.7242919337549973 
1.3699999999998655, -0.7241971234710108 
1.3799999999998644, -0.7241857065744586 
1.3899999999998633, -0.7241878642079855 
1.3999999999998622, -0.7241552755998132 
1.4099999999998611, -0.7240537611733728 
1.41999999999986, -0.723859752784678 
1.429999999999859, -0.7235606535007751 
1.4399999999998578, -0.7231571989424707 
1.4499999999998567, -0.7226641471285921 
1.4599999999998556, -0.7221060621346884 
1.4699999999998545, -0.7215086692615491 
1.4799999999998534, -0.7208904061853109 
1.4899999999998523, -0.7202591077284217 
1.4999999999998512, -0.7196150019304388 
1.5099999999998501, -0.7189571962140797 
1.519999999999849, -0.7182898136346801 
1.529999999999848, -0.7176257751763299 
1.5399999999998468, -0.7169885318695821 
1.5499999999998457, -0.7164129016448453 
1.5599999999998446, -0.7159455424897275 
1.5699999999998435, -0.7156446098101784 
1.5799999999998424, -0.7155777339644194 
1.5899999999998413, -0.715817888589786 
1.5999999999998402, -0.7164376888826136 
1.6099999999998391, -0.7175034386795576 
1.619999999999838, -0.7190700780899376 
1.629999999999837, -0.7211767992634254 
1.6399999999998358, -0.7238409963931349 
1.6499999999998347, -0.7270466353880869 
1.6599999999998336, -0.7307241503131265 
1.6699999999998325, -0.7347255283212604 
1.6799999999998314, -0.7388113340027321 
1.6899999999998303, -0.7426767206481638 
1.6999999999998292, -0.7460282389802649 
1.709999999999828, -0.7486765298809267 
1.719999999999827, -0.750581054706124 
1.729999999999826, -0.7518211619326182 
1.7399999999998248, -0.7525293803848124 
1.7499999999998237, -0.7528350652388859 
1.7599999999998226, -0.752836604802607 
1.7699999999998215, -0.7525952810851189 
1.7799999999998204, -0.7521388309584844 
1.7899999999998193, -0.7514676072800051 
1.7999999999998182, -0.7505619312265596 
1.809999999999817, -0.7493936813953568 
1.819999999999816, -0.7479489767352387 
1.8299999999998149, -0.7462709729324783 
1.8399999999998138, -0.7445257176850058 
1.8499999999998127, -0.7430655042634948 
1.8599999999998116, -0.7424077950411074 
1.8699999999998105, -0.7430272830670892 
1.8799999999998094, -0.7450276855718456 
1.8899999999998083, -0.7480448650104345 
1.8999999999998072, -0.7515502734645458 
1.909999999999806, -0.7551366027442225 
1.919999999999805, -0.7585094882173209 
1.9299999999998039, -0.7614364179942735 
1.9399999999998028, -0.7637834067710562 
1.9499999999998017, -0.7655350912099891 
1.9599999999998006, -0.76675825847144 
1.9699999999997995, -0.7675495884489276 
1.9799999999997984, -0.767998984664785 
1.9899999999997973, -0.768171965968537 
1.9999999999997962, -0.7681032012382519 
2.0099999999998173, -0.76779339474826 
2.0199999999998384, -0.7672048199130524 
2.0299999999998595, -0.7662540163474787 
2.0399999999998806, -0.764804440117455 
2.0499999999999017, -0.7626691916723293 
2.059999999999923, -0.7596430024887151 
2.069999999999944, -0.7555808025283126 
2.079999999999965, -0.7505058319658695 
2.089999999999986, -0.7446741506139681 
2.100000000000007, -0.738522346408983 
2.1100000000000283, -0.7325220000818311 
2.1200000000000494, -0.7270459908139457 
2.1300000000000705, -0.7223161365613192 
2.1400000000000916, -0.7184195549857915 
2.1500000000001127, -0.7153493293962774 
2.160000000000134, -0.7130406454475885 
2.170000000000155, -0.7113954144122993 
2.180000000000176, -0.7102987135007998 
2.190000000000197, -0.7096312924446496 
2.2000000000002182, -0.7092798696665246 
2.2100000000002393, -0.7091447864214582 
2.2200000000002604, -0.7091441360956071 
2.2300000000002815, -0.7092143581837597 
2.2400000000003026, -0.7093084191188981 
2.2500000000003237, -0.7093932670238162 
2.260000000000345, -0.709447957985743 
2.270000000000366, -0.7094627789353967 
2.280000000000387, -0.7094382407189161 
2.290000000000408, -0.7093819989449475 
2.3000000000004293, -0.7093028151180361 
2.3100000000004504, -0.7092034337839521 
2.3200000000004715, -0.7090763623090999 
2.3300000000004926, -0.7089055611880528 
2.3400000000005137, -0.708673294276183 
2.3500000000005348, -0.7083679942569497 
2.360000000000556, -0.707989068619838 
2.370000000000577, -0.707547824932621 
2.380000000000598, -0.707066787624556 
2.390000000000619, -0.706580244101038 
2.4000000000006403, -0.7061374891494379 
2.4100000000006614, -0.7058085384785957 
2.4200000000006825, -0.7056907862652699 
2.4300000000007036, -0.7059142112907998 
2.4400000000007247, -0.706642371599787 
2.450000000000746, -0.7080667538916077 
2.460000000000767, -0.7103927475420286 
2.470000000000788, -0.7138154384081262 
2.480000000000809, -0.7184815353975352 
2.49000000000083, -0.7244317761136391 
2.5000000000008513, -0.7315237309842539 
2.5100000000008724, -0.7393601114712618 
2.5200000000008935, -0.7472898807602678 
2.5300000000009146, -0.7545554408809865 
2.5400000000009357, -0.7605546855041407 
2.550000000000957, -0.7650412572588634 
2.560000000000978, -0.7681168174670708 
2.570000000000999, -0.7700689784121948 
2.58000000000102, -0.7712082433669736 
2.5900000000010412, -0.7717831000435766 
2.6000000000010624, -0.7719610806574375 
2.6100000000010835, -0.7718386437701793 
2.6200000000011046, -0.7714553169792613 
2.6300000000011257, -0.7708022122994004 
2.6400000000011468, -0.7698223554728159 
2.650000000001168, -0.7684026418756148 
2.660000000001189, -0.7663580921709824 
2.67000000000121, -0.763410918161775 
2.680000000001231, -0.75917249273906 
2.6900000000012523, -0.7531517668166071 
2.7000000000012734, -0.744850741793597 
2.7100000000012945, -0.7340532501250732 
2.7200000000013156, -0.7213162539844465 
2.7300000000013367, -0.708236049356503 
2.740000000001358, -0.6968513720011357 
2.750000000001379, -0.6885057478734247 
2.7600000000014, -0.6833283831448417 
2.770000000001421, -0.6806257538225629 
2.780000000001442, -0.6795072461797064 
2.7900000000014633, -0.6792482703971199 
2.8000000000014844, -0.6793754308160245 
2.8100000000015055, -0.6796202396697751 
2.8200000000015266, -0.6798458953065276 
2.8300000000015477, -0.6799878962606315 
2.840000000001569, -0.6800151643400003 
2.85000000000159, -0.6799071020673982 
2.860000000001611, -0.6796409792357692 
2.870000000001632, -0.6791863111811005 
2.8800000000016532, -0.6785057124088597 
2.8900000000016743, -0.6775635365410573 
2.9000000000016954, -0.6763422910228536 
2.9100000000017165, -0.6748608195968654 
2.9200000000017377, -0.673181695374302 
2.9300000000017588, -0.6713984075166478 
2.94000000000178, -0.6696080404729291 
2.950000000001801, -0.6678867901042002 
2.960000000001822, -0.6662807349309072 
2.970000000001843, -0.6648109804650232 
2.9800000000018643, -0.6634849494892261 
2.9900000000018854, -0.6623066918008 
3.0000000000019065, -0.6612832274865783 
3.0100000000019276, -0.6604269791281648 
3.0200000000019487, -0.6597554732691603 
3.03000000000197, -0.6592894962228717 
3.040000000001991, -0.6590506391850389 
3.050000000002012, -0.6590590156281309 
3.060000000002033, -0.6593318141223274 
3.070000000002054, -0.6598830882360505 
3.0800000000020753, -0.6607247078354535 
3.0900000000020964, -0.6618677439642815 
3.1000000000021175, -0.6633228045497137 
3.1100000000021386, -0.6650970862973902 
3.1200000000021597, -0.667185554195629 
3.130000000002181, -0.6695548468797519 
3.140000000002202, -0.6721231459746655 
3.150000000002223, -0.6747478689338814 
3.160000000002244, -0.6772393225870674 
3.1700000000022652, -0.6794081168429377 
3.1800000000022863, -0.6811245324041825 
3.1900000000023074, -0.6823499226640117 
3.2000000000023285, -0.6831227154752056 
3.2100000000023496, -0.6835188577940776 
3.2200000000023707, -0.6836157565518006 
3.230000000002392, -0.683472369625084 
3.240000000002413, -0.6831227360505874 
3.250000000002434, -0.6825761023943018 
3.260000000002455, -0.6818190080526507 
3.2700000000024763, -0.6808178315024593 
3.2800000000024974, -0.6795225215717459 
3.2900000000025185, -0.6778729918581897 
3.3000000000025396, -0.675807049836257 
3.3100000000025607, -0.6732586836905693 
3.3200000000025818, -0.6701197060980475 
3.330000000002603, -0.6661543180067715 
3.340000000002624, -0.6609899398041137 
3.350000000002645, -0.65445763251276 
3.360000000002666, -0.6471623041337212 
3.3700000000026873, -0.6404217216029331 
3.3800000000027084, -0.6353607241117146 
3.3900000000027295, -0.6322631274700939 
3.4000000000027506, -0.6307470592275506 
3.4100000000027717, -0.6302362569496764 
3.420000000002793, -0.630250338557585 
3.430000000002814, -0.630476815045953 
3.440000000002835, -0.6307409173617377 
3.450000000002856, -0.6309550925769285 
3.460000000002877, -0.6310783947309901 
3.4700000000028983, -0.6310901758994476 
3.4800000000029194, -0.6309747531074871 
3.4900000000029405, -0.6307134163328321 
3.5000000000029616, -0.6302819851845259 
3.5100000000029827, -0.6296540265199445 
3.520000000003004, -0.6288103506359402 
3.530000000003025, -0.6277528682848119 
3.540000000003046, -0.6265156195107248 
3.550000000003067, -0.6251632608708169 
3.5600000000030882, -0.6237741797229734 
3.5700000000031094, -0.6224176771589666 
3.5800000000031305, -0.6211388662114424 
3.5900000000031516, -0.6199571440544613 
3.6000000000031727, -0.6188744261235583 
3.6100000000031938, -0.6178860586983279 
3.620000000003215, -0.6169895280465141 
3.630000000003236, -0.6161895502671859 
3.640000000003257, -0.6155003302054878 
3.650000000003278, -0.614946314067385 
3.6600000000032993, -0.6145623364371563 
3.6700000000033204, -0.6143935097238639 
3.6800000000033415, -0.6144949397874844 
3.6900000000033626, -0.6149313650049558 
3.7000000000033837, -0.6157768663608045 
3.710000000003405, -0.6171145620685222 
3.720000000003426, -0.6190353503889623 
3.730000000003447, -0.6216330214955448 
3.740000000003468, -0.6249904530340338 
3.750000000003489, -0.6291493764573678 
3.7600000000035103, -0.6340587967454552 
3.7700000000035314, -0.6395131835435796 
3.7800000000035525, -0.6451240639356247 
3.7900000000035736, -0.6503872960946755 
3.8000000000035947, -0.6548517446732328 
3.810000000003616, -0.6582818528236797 
3.820000000003637, -0.6606905179827869 
3.830000000003658, -0.6622469692053018 
3.840000000003679, -0.6631604140176484 
3.8500000000037002, -0.6636087460390642 
3.8600000000037213, -0.6637150949046394 
3.8700000000037424, -0.6635486067377118 
3.8800000000037635, -0.6631302944541705 
3.8900000000037847, -0.6624343055615767 
3.9000000000038058, -0.6613799496934818 
3.910000000003827, -0.6598107872175744 
3.920000000003848, -0.6574571885450182 
3.930000000003869, -0.6538843322101544 
3.94000000000389, -0.6484532806391072 
3.9500000000039113, -0.6403878351253034 
3.9600000000039324, -0.62910683291408 
3.9700000000039535, -0.6148355624317887 
3.9800000000039746, -0.5989943161127597 
3.9900000000039957, -0.5836953734099115 
4.000000000004016, -0.5706579887497034 
4.010000000003993, -0.5605912226577527 
4.02000000000397, -0.553355687464801 
4.030000000003946, -0.548415314111933 
4.040000000003923, -0.5451726756237608 
4.0500000000039, -0.5431187711635526 
4.0600000000038765, -0.5418680525961044 
4.070000000003853, -0.5411458943659077 
4.08000000000383, -0.5407636157034491 
4.090000000003807, -0.5405946571628315 
4.100000000003783, -0.5405557007938229 
4.11000000000376, -0.5405929807146796 
4.120000000003737, -0.5406730828798912 
4.130000000003713, -0.5407774236746464 
4.14000000000369, -0.540899533289373 
4.150000000003667, -0.5410438856132939 
4.1600000000036434, -0.5412243607970881 
4.17000000000362, -0.5414601410995219 
4.180000000003597, -0.5417678372263777 
4.1900000000035735, -0.5421510979769365 
4.20000000000355, -0.5425917818139412 
4.210000000003527, -0.5430481694742227 
4.220000000003504, -0.5434636730083633 
4.23000000000348, -0.5437833262235447 
4.240000000003457, -0.5439690861293257 
4.250000000003434, -0.544005596421798 
4.26000000000341, -0.5438956518289408 
4.270000000003387, -0.5436510071780039 
4.280000000003364, -0.5432843399907479 
4.2900000000033405, -0.5428048708727167 
4.300000000003317, -0.5422176015395581 
4.310000000003294, -0.5415254820185191 
4.320000000003271, -0.5407340549576237 
4.330000000003247, -0.5398576274495779 
4.340000000003224, -0.5389222002848262 
4.350000000003201, -0.5379483506165503 
4.360000000003177, -0.5368728464710142 
4.370000000003154, -0.5353540287073509 
4.380000000003131, -0.5325207047640357 
4.390000000003107, -0.5271051895520549 
4.400000000003084, -0.5184997943012224 
4.410000000003061, -0.5078963137160926 
4.4200000000030375, -0.4976554347829407 
4.430000000003014, -0.4895226177986287 
4.440000000002991, -0.4839097619483539 
4.450000000002968, -0.48039039044326703 
4.460000000002944, -0.47833016711358445 
4.470000000002921, -0.47719254870711253 
4.480000000002898, -0.47660375712362624 
4.490000000002874, -0.47632607671226557 
4.500000000002851, -0.47621522005493916 
4.510000000002828, -0.4761856349327978 
4.520000000002804, -0.476187065685339 
4.530000000002781, -0.47619018798202306 
4.540000000002758, -0.47617872048058196 
4.5500000000027345, -0.4761460996681176 
4.560000000002711, -0.47609520186075 
4.570000000002688, -0.4760392984569798 
4.580000000002665, -0.476001751151596 
4.590000000002641, -0.47601197083982616 
4.600000000002618, -0.4760968638065187 
4.610000000002595, -0.47626984902093794 
4.620000000002571, -0.4765217972706117 
4.630000000002548, -0.47681872771544526 
4.640000000002525, -0.47710915557489253 
4.6500000000025015, -0.4773390463332272 
4.660000000002478, -0.4774668296442459 
4.670000000002455, -0.47747057733264214 
4.6800000000024315, -0.4773455015693907 
4.690000000002408, -0.47709602663457257 
4.700000000002385, -0.47672761792982915 
4.710000000002362, -0.4762408083291014 
4.720000000002338, -0.4756271018241767 
4.730000000002315, -0.47486490116773095 
4.740000000002292, -0.4739122838244433 
4.750000000002268, -0.4726903961808911 
4.760000000002245, -0.47104406793070996 
4.770000000002222, -0.468654908355406 
4.7800000000021985, -0.46488537201562813 
4.790000000002175, -0.4586300988288439 
4.800000000002152, -0.44854811047674226 
4.810000000002129, -0.4341662440335501 
4.820000000002105, -0.4171371460730745 
4.830000000002082, -0.4006121723970685 
4.840000000002059, -0.3870387028009329 
4.850000000002035, -0.3770992554073726 
4.860000000002012, -0.3702938572622242 
4.870000000001989, -0.3657905010498819 
4.880000000001965, -0.362856860860857 
4.890000000001942, -0.3609629159818298 
4.900000000001919, -0.35975548108270633 
4.9100000000018955, -0.3590080416155008 
4.920000000001872, -0.35857866977195946 
