t, s[1].omega / s[0].omega 
0, -0.7201546220143371 
0.009999999999999995, -0.7352228036416387 
0.019999999999999934, -0.7482862605785551 
0.029999999999999874, -0.7582789099496473 
0.04000000000000012, -0.7651985821442444 
0.050000000000000405, -0.7696647626662861 
0.06000000000000069, -0.7724099679406262 
0.07000000000000098, -0.774024057138745 
0.08000000000000126, -0.7749071730237197 
0.09000000000000155, -0.7753051504226265 
0.10000000000000184, -0.7753549606243666 
0.11000000000000212, -0.7751167253231814 
0.12000000000000241, -0.7745890284828595 
0.130000000000002, -0.773708551771253 
0.1400000000000009, -0.7723340687396466 
0.1499999999999998, -0.7702140825092639 
0.1599999999999987, -0.766942620174436 
0.1699999999999976, -0.7619297592961136 
0.1799999999999965, -0.7544632599863292 
0.1899999999999954, -0.7439826586190805 
0.1999999999999943, -0.7305806952612114 
0.2099999999999932, -0.71538170763122 
0.2199999999999921, -0.7002629134844871 
0.229999999999991, -0.6869915945615265 
0.2399999999999899, -0.6765371408893887 
0.2499999999999888, -0.669007783508903 
0.2599999999999877, -0.6639797903678561 
0.2699999999999866, -0.6608455199964351 
0.2799999999999855, -0.6590251730636452 
0.2899999999999844, -0.6580531903054226 
0.2999999999999833, -0.6575917703877601 
0.3099999999999822, -0.6574123110640728 
0.3199999999999811, -0.6573676177186754 
0.32999999999998, -0.6573655728089076 
0.3399999999999789, -0.6573482954399553 
0.3499999999999778, -0.6572776482417025 
0.35999999999997667, -0.6571267968646473 
0.36999999999997557, -0.6568772678778078 
0.37999999999997447, -0.6565205059318651 
0.38999999999997337, -0.6560615410799775 
0.39999999999997227, -0.6555206370814392 
0.40999999999997117, -0.6549291006619593 
0.41999999999997006, -0.6543194017804657 
0.42999999999996896, -0.6537146451881746 
0.43999999999996786, -0.653123357960743 
0.44999999999996676, -0.6525417481824893 
0.45999999999996566, -0.6519609187585867 
0.46999999999996456, -0.6513745976281456 
0.47999999999996346, -0.6507843324875628 
0.48999999999996235, -0.6502018857547693 
0.49999999999996125, -0.6496504082113602 
0.5099999999999602, -0.6491660329627175 
0.519999999999959, -0.6488005676851442 
0.529999999999958, -0.648624973085293 
0.5399999999999568, -0.6487327420035962 
0.5499999999999557, -0.6492421445326299 
0.5599999999999546, -0.6502963981286242 
0.5699999999999535, -0.6520607558196339 
0.5799999999999524, -0.6547145673886626 
0.5899999999999513, -0.6584337763754469 
0.5999999999999502, -0.6633552432853869 
0.6099999999999491, -0.6695123506758189 
0.619999999999948, -0.6767422431372987 
0.6299999999999469, -0.6846032867922027 
0.6399999999999458, -0.6923941983735538 
0.6499999999999447, -0.6993501992433276 
0.6599999999999436, -0.7049345682980444 
0.6699999999999425, -0.7090031850704296 
0.6799999999999414, -0.7117337537020383 
0.6899999999999403, -0.7134380973811993 
0.6999999999999392, -0.7144145535385935 
0.7099999999999381, -0.7148867322306206 
0.719999999999937, -0.7149979983772635 
0.7299999999999359, -0.7148246432998283 
0.7399999999999348, -0.7143878997853033 
0.7499999999999337, -0.7136574192373055 
0.7599999999999326, -0.7125432849231437 
0.7699999999999315, -0.7108737892620851 
0.7799999999999304, -0.7083560264387586 
0.7899999999999293, -0.7045222229361261 
0.7999999999999282, -0.698691264747801 
0.8099999999999271, -0.6900415022431302 
0.819999999999926, -0.6779611511471912 
0.8299999999999249, -0.6626985839780258 
0.8399999999999238, -0.6457962213885687 
0.8499999999999227, -0.6295734516935533 
0.8599999999999216, -0.6159348167137895 
0.8699999999999205, -0.60565167571137 
0.8799999999999194, -0.5985232672882946 
0.8899999999999183, -0.5938943223049804 
0.8999999999999172, -0.591050512786026 
0.9099999999999161, -0.5893963451587039 
0.919999999999915, -0.5884941226332804 
0.9299999999999139, -0.5880444248715165 
0.9399999999999128, -0.5878515852786286 
0.9499999999999117, -0.5877914812014465 
0.9599999999999106, -0.58778653970245 
0.9699999999999095, -0.5877881733754166 
0.9799999999999084, -0.5877655682773815 
0.9899999999999073, -0.5876996858148921 
0.9999999999999062, -0.5875814091265934 
1.0099999999999052, -0.587412306554857 
1.019999999999904, -0.5872054470626229 
1.029999999999903, -0.5869831347535854 
1.039999999999902, -0.586769935933668 
1.0499999999999008, -0.5865829017949261 
1.0599999999998997, -0.5864237616826846 
1.0699999999998986, -0.5862774874774721 
1.0799999999998975, -0.5861181972660423 
1.0899999999998964, -0.5859191700065691 
1.0999999999998953, -0.5856616446420675 
1.1099999999998942, -0.5853387886332605 
1.119999999999893, -0.5849551854456573 
1.129999999999892, -0.5845249214952226 
1.1399999999998909, -0.5840714468114522 
1.1499999999998898, -0.5836312325838378 
1.1599999999998887, -0.5832625050051808 
1.1699999999998876, -0.5830604136516727 
1.1799999999998865, -0.5831803986634816 
1.1899999999998854, -0.583871277960944 
1.1999999999998843, -0.5855167967643928 
1.2099999999998832, -0.5886749296272205 
1.219999999999882, -0.5940805127557295 
1.229999999999881, -0.6025331544205402 
1.2399999999998799, -0.6145569952219657 
1.2499999999998788, -0.6298202066100231 
1.2599999999998777, -0.6467000709349551 
1.2699999999998766, -0.6627151320925454 
1.2799999999998755, -0.6758227451621238 
1.2899999999998744, -0.685341348188753 
1.2999999999998733, -0.691719585650443 
1.3099999999998722, -0.6958016622644315 
1.319999999999871, -0.6983470878874307 
1.32999999999987, -0.6998963725239178 
1.3399999999998689, -0.7007965556065108 
1.3499999999998678, -0.7012582082716425 
1.3599999999998666, -0.7014009167745786 
1.3699999999998655, -0.7012812838428081 
1.3799999999998644, -0.7009065731419263 
1.3899999999998633, -0.7002375402947295 
1.3999999999998622, -0.69918360978536 
1.4099999999998611, -0.6975957387546314 
1.41999999999986, -0.6952694113369243 
1.429999999999859, -0.6919807889524184 
1.4399999999998578, -0.6875779715511211 
1.4499999999998567, -0.6821079521967314 
1.4599999999998556, -0.6758879949836276 
1.4699999999998545, -0.669429701932718 
1.4799999999998534, -0.6632528646344316 
1.4899999999998523, -0.6577298854510029 
1.4999999999998512, -0.6530430796875105 
1.5099999999998501, -0.6492256263224018 
1.519999999999849, -0.6462233742467801 
1.529999999999848, -0.6439422774925552 
1.5399999999998468, -0.6422756548460405 
1.5499999999998457, -0.6411174320907068 
1.5599999999998446, -0.6403682546281819 
1.5699999999998435, -0.6399386783889248 
1.5799999999998424, -0.6397511631805662 
1.5899999999998413, -0.6397412250287442 
1.5999999999998402, -0.6398577228625499 
1.6099999999998391, -0.6400624118581126 
1.619999999999838, -0.6403291188478792 
1.629999999999837, -0.6406428245575466 
1.6399999999998358, -0.6409984167636902 
1.6499999999998347, -0.6413981136438044 
1.6599999999998336, -0.6418462581905565 
1.6699999999998325, -0.642341244719659 
1.6799999999998314, -0.6428668610707527 
1.6899999999998303, -0.643387845323291 
1.6999999999998292, -0.6438542957356119 
1.709999999999828, -0.6442148860728706 
1.719999999999827, -0.6444320579669078 
1.729999999999826, -0.6444902839827042 
1.7399999999998248, -0.6443942026713364 
1.7499999999998237, -0.6441608598990186 
1.7599999999998226, -0.6438125015476187 
1.7699999999998215, -0.6433739159570108 
1.7799999999998204, -0.6428756819857655 
1.7899999999998193, -0.6423640876090018 
1.7999999999998182, -0.6419194849569366 
1.809999999999817, -0.6416861342567701 
1.819999999999816, -0.6419164963167996 
1.8299999999998149, -0.6430283408987405 
1.8399999999998138, -0.6456575672198945 
1.8499999999998127, -0.6506537847697328 
1.8599999999998116, -0.6589103437167584 
1.8699999999998105, -0.6709078447870802 
1.8799999999998094, -0.6860590850502966 
1.8899999999998083, -0.7024358007737159 
1.8999999999998072, -0.7175345916272446 
1.909999999999806, -0.7296167808483365 
1.919999999999805, -0.7383008689683599 
1.9299999999998039, -0.7441216339608501 
1.9399999999998028, -0.7478643956064485 
1.9499999999998017, -0.7502044688810785 
1.9599999999998006, -0.7516219541173763 
1.9699999999997995, -0.7524287573585904 
1.9799999999997984, -0.752815580370387 
1.9899999999997973, -0.7528891245650805 
1.9999999999997962, -0.7526947479584026 
2.0099999999998173, -0.7522260596850348 
2.0199999999998384, -0.751423268362362 
2.0299999999998595, -0.7501619860050406 
2.0399999999998806, -0.7482370854200016 
2.0499999999999017, -0.745356192434506 
2.059999999999923, -0.7411756516375168 
2.069999999999944, -0.7354208676906121 
2.079999999999965, -0.7280844774476828 
2.089999999999986, -0.7195761024073313 
2.100000000000007, -0.7106516800474508 
2.1100000000000283, -0.7021318749205677 
2.1200000000000494, -0.6946280983529463 
2.1300000000000705, -0.6884423824410605 
2.1400000000000916, -0.6836176576544334 
2.1500000000001127, -0.680037096764557 
2.160000000000134, -0.6775082029430092 
2.170000000000155, -0.6758168852877602 
2.180000000000176, -0.6747582097271266 
2.190000000000197, -0.6741525805919533 
2.2000000000002182, -0.6738527622011803 
2.2100000000002393, -0.6737446367529142 
2.2200000000002604, -0.6737437781845198 
2.2300000000002815, -0.6737898821283913 
2.2400000000003026, -0.6738410102708868 
2.2500000000003237, -0.6738691978729887 
2.260000000000345, -0.6738581952453933 
2.270000000000366, -0.67380292019582 
2.280000000000387, -0.6737088094006665 
2.290000000000408, -0.6735886619399382 
2.3000000000004293, -0.6734560141387176 
2.3100000000004504, -0.6733172077131045 
2.3200000000004715, -0.6731665027561011 
2.3300000000004926, -0.6729874834576118 
2.3400000000005137, -0.672760124534335 
2.3500000000005348, -0.6724693136762937 
2.360000000000556, -0.6721104146478541 
2.370000000000577, -0.6716906084042032 
2.380000000000598, -0.6712280996718086 
2.390000000000619, -0.6707522332288433 
2.4000000000006403, -0.6703064898501288 
2.4100000000006614, -0.669954858872121 
2.4200000000006825, -0.6697910004716358 
2.4300000000007036, -0.6699487660459915 
2.4400000000007247, -0.6706117412296168 
2.450000000000746, -0.6720184009882517 
2.460000000000767, -0.6744579921590874 
2.470000000000788, -0.6782496022977207 
2.480000000000809, -0.6836922392359475 
2.49000000000083, -0.6909697201823803 
2.5000000000008513, -0.7000038919282858 
2.5100000000008724, -0.7102987692468575 
2.5200000000008935, -0.7209073930989942 
2.5300000000009146, -0.7306727636145575 
2.5400000000009357, -0.7386828650107121 
2.550000000000957, -0.7445983199258654 
2.560000000000978, -0.7486072196256996 
2.570000000000999, -0.751146189727667 
2.58000000000102, -0.7526562683135853 
2.5900000000010412, -0.7534753810684856 
2.6000000000010624, -0.7538260981690562 
2.6100000000010835, -0.7538375859255713 
2.6200000000011046, -0.7535686124333282 
2.6300000000011257, -0.7530204712113839 
2.6400000000011468, -0.7521372680824623 
2.650000000001168, -0.75079222746189 
2.660000000001189, -0.74875774460076 
2.67000000000121, -0.7456584752155986 
2.680000000001231, -0.7409198912642212 
2.6900000000012523, -0.7337671267042805 
2.7000000000012734, -0.7234063969533282 
2.7100000000012945, -0.7095319619495211 
2.7200000000013156, -0.6929819979581322 
2.7300000000013367, -0.6758220616357019 
2.740000000001358, -0.6604118235928482 
2.750000000001379, -0.6482494105298133 
2.7600000000014, -0.6396217998344252 
2.770000000001421, -0.6340093482081214 
2.780000000001442, -0.6306207715951395 
2.7900000000014633, -0.6287196055854347 
2.8000000000014844, -0.6277412206364902 
2.8100000000015055, -0.6272966118030635 
2.8200000000015266, -0.6271355172141411 
2.8300000000015477, -0.6271041635249907 
2.840000000001569, -0.6271103213994188 
2.85000000000159, -0.6270981723578959 
2.860000000001611, -0.6270319365162985 
2.870000000001632, -0.6268866144957933 
2.8800000000016532, -0.6266445906896937 
2.8900000000016743, -0.6262969777072924 
2.9000000000016954, -0.6258476094273553 
2.9100000000017165, -0.6253158004337696 
2.9200000000017377, -0.6247335856103343 
2.9300000000017588, -0.624136417992318 
2.94000000000178, -0.6235515831418282 
2.950000000001801, -0.6229908172619445 
2.960000000001822, -0.6224506638543612 
2.970000000001843, -0.6219191366845302 
2.9800000000018643, -0.6213842907129044 
2.9900000000018854, -0.6208407478028001 
3.0000000000019065, -0.6202929097191017 
3.0100000000019276, -0.6197561347010414 
3.0200000000019487, -0.6192579872182228 
3.03000000000197, -0.6188410484314946 
3.040000000001991, -0.618567772253902 
3.050000000002012, -0.6185271306957872 
3.060000000002033, -0.618842343516335 
3.070000000002054, -0.6196786036200654 
3.0800000000020753, -0.6212490281521099 
3.0900000000020964, -0.6238153844586558 
3.1000000000021175, -0.6276762473123257 
3.1100000000021386, -0.6331281138097078 
3.1200000000021597, -0.6403772867040867 
3.130000000002181, -0.649386856565128 
3.140000000002202, -0.6596961637830532 
3.150000000002223, -0.67035889762966 
3.160000000002244, -0.6801846010428968 
3.1700000000022652, -0.6882301256588217 
3.1800000000022863, -0.6941542962880077 
3.1900000000023074, -0.6981621249913122 
3.2000000000023285, -0.7007045546109979 
3.2100000000023496, -0.7022273862483719 
3.2200000000023707, -0.7030674151816393 
3.230000000002392, -0.7034446502949558 
3.240000000002413, -0.7034863686868789 
3.250000000002434, -0.7032505383624726 
3.260000000002455, -0.7027384947512219 
3.2700000000024763, -0.7018948773501921 
3.2800000000024974, -0.7005940256048404 
3.2900000000025185, -0.6986123005990258 
3.3000000000025396, -0.6955912569918743 
3.3100000000025607, -0.6910173314245677 
3.3200000000025818, -0.6842876542255005 
3.330000000002603, -0.6749624771313609 
3.340000000002624, -0.6631893076080455 
3.350000000002645, -0.6499681104575711 
3.360000000002666, -0.6368480065425042 
3.3700000000026873, -0.6252167177185108 
3.3800000000027084, -0.6158123040752267 
3.3900000000027295, -0.608727852528745 
3.4000000000027506, -0.6036744461837074 
3.4100000000027717, -0.6002293904228849 
3.420000000002793, -0.597979053492337 
3.430000000002814, -0.5965764790315135 
3.440000000002835, -0.5957531323422681 
3.450000000002856, -0.5953113618991696 
3.460000000002877, -0.595110851023757 
3.4700000000028983, -0.5950547432848581 
3.4800000000029194, -0.595077666612952 
3.4900000000029405, -0.5951364727099164 
3.5000000000029616, -0.5952039336722654 
3.5100000000029827, -0.595265263665244 
3.520000000003004, -0.5953167650715345 
3.530000000003025, -0.5953650135403339 
3.540000000003046, -0.5954242953876108 
3.550000000003067, -0.5955105785495082 
3.5600000000030882, -0.5956326599714395 
3.5700000000031094, -0.5957840503643711 
3.5800000000031305, -0.5959403358181345 
3.5900000000031516, -0.5960647027000752 
3.6000000000031727, -0.5961195428468831 
3.6100000000031938, -0.5960778223296261 
3.620000000003215, -0.5959283661758431 
3.630000000003236, -0.5956742468408254 
3.640000000003257, -0.5953280246503361 
3.650000000003278, -0.5949082665830197 
3.6600000000032993, -0.594440019046593 
3.6700000000033204, -0.5939605263035121 
3.6800000000033415, -0.5935315061711 
3.6900000000033626, -0.5932602417206829 
3.7000000000033837, -0.5933325713135912 
3.710000000003405, -0.5940596753256593 
3.720000000003426, -0.5959330107544625 
3.730000000003447, -0.5996587620005365 
3.740000000003468, -0.6060939184889055 
3.750000000003489, -0.6159486446956663 
3.7600000000035103, -0.6291845068608934 
3.7700000000035314, -0.6444490384975673 
3.7800000000035525, -0.6593622956523274 
3.7900000000035736, -0.6718240586697812 
3.8000000000035947, -0.6810486249734847 
3.810000000003616, -0.6873823233937398 
3.820000000003637, -0.6915696879005604 
3.830000000003658, -0.6942870100573026 
3.840000000003679, -0.6960215993837611 
3.8500000000037002, -0.6970959008338938 
3.8600000000037213, -0.6977152132707245 
3.8700000000037424, -0.6980047933399725 
3.8800000000037635, -0.6980333592868534 
3.8900000000037847, -0.6978258711761018 
3.9000000000038058, -0.6973682655851119 
3.910000000003827, -0.6966064619974806 
3.920000000003848, -0.6954432981154004 
3.930000000003869, -0.693741298133302 
3.94000000000389, -0.69134545803555 
3.9500000000039113, -0.6881402014957378 
3.9600000000039324, -0.6841319629116843 
3.9700000000039535, -0.6795055557051589 
3.9800000000039746, -0.674592750274079 
3.9900000000039957, -0.6697602115943344 
4.000000000004016, -0.6652983323524617 
4.010000000003993, -0.6613756471635024 
4.02000000000397, -0.6580543398810047 
4.030000000003946, -0.6553285976597059 
4.040000000003923, -0.6531579804408711 
4.0500000000039, -0.6514876539232012 
4.0600000000038765, -0.650258003165589 
4.070000000003853, -0.6494085045218265 
4.08000000000383, -0.6488795651553811 
4.090000000003807, -0.6486142128295949 
4.100000000003783, -0.6485601024934091 
4.11000000000376, -0.6486715609563323 
4.120000000003737, -0.6489112466682513 
4.130000000003713, -0.6492511961448933 
4.14000000000369, -0.6496732021559188 
4.150000000003667, -0.6501683179221888 
4.1600000000036434, -0.6507347785941364 
4.17000000000362, -0.6513732401740351 
4.180000000003597, -0.6520788340608239 
4.1900000000035735, -0.6528317157163736 
4.20000000000355, -0.6535907980065979 
4.210000000003527, -0.6542965503367538 
4.220000000003504, -0.6548848697749798 
4.23000000000348, -0.6553057734801094 
4.240000000003457, -0.6555356857863519 
4.250000000003434, -0.655577056488715 
4.26000000000341, -0.6554488797329019 
4.270000000003387, -0.6551761821425582 
4.280000000003364, -0.6547840689150363 
4.2900000000033405, -0.6542980284742508 
4.300000000003317, -0.653750740691555 
4.310000000003294, -0.6531965438208298 
4.320000000003271, -0.6527365385529706 
4.330000000003247, -0.6525584778768188 
4.340000000003224, -0.6529934974890227 
4.350000000003201, -0.6545806376769289 
4.360000000003177, -0.6580997815610833 
4.370000000003154, -0.6644773850391436 
4.380000000003131, -0.6744252704832034 
4.390000000003107, -0.6877981571245873 
4.400000000003084, -0.7031122778884205 
4.410000000003061, -0.7179862884152783 
4.4200000000030375, -0.7304259148072227 
4.430000000003014, -0.7396903554700961 
4.440000000002991, -0.7460788727070636 
4.450000000002968, -0.7502851677414671 
4.460000000002944, -0.7529735850166672 
4.470000000002921, -0.7546438913197946 
4.480000000002898, -0.7556342451076427 
4.490000000002874, -0.7561594828775331 
4.500000000002851, -0.7563466922349753 
4.510000000002828, -0.7562592075264957 
4.520000000002804, -0.7559088144577715 
4.530000000002781, -0.7552574013305161 
4.540000000002758, -0.7542093082890575 
4.5500000000027345, -0.7525973651845904 
4.560000000002711, -0.7501725884680676 
4.570000000002688, -0.746622327471978 
4.580000000002665, -0.7416552651712299 
4.590000000002641, -0.7351676724135439 
4.600000000002618, -0.7274110293413008 
4.610000000002595, -0.7190003848701456 
4.620000000002571, -0.7107048638436143 
4.630000000002548, -0.7031750185626762 
4.640000000002525, -0.6967949167696726 
4.6500000000025015, -0.6916892621579258 
4.660000000002478, -0.687804106681296 
4.670000000002455, -0.6849886779440018 
4.6800000000024315, -0.6830527715237961 
4.690000000002408, -0.6818015585942442 
4.700000000002385, -0.6810556331227261 
4.710000000002362, -0.6806617397818072 
4.720000000002338, -0.6804968725232127 
4.730000000002315, -0.6804674049440901 
4.740000000002292, -0.6805050089373197 
4.750000000002268, -0.6805613371949333 
4.760000000002245, -0.6806032876635189 
4.770000000002222, -0.6806100584047325 
4.7800000000021985, -0.6805721341151794 
4.790000000002175, -0.6804909230453104 
4.800000000002152, -0.6803767049102494 
4.810000000002129, -0.6802431861313557 
4.820000000002105, -0.6800996902804837 
4.830000000002082, -0.679944854464638 
4.840000000002059, -0.6797658098658683 
4.850000000002035, -0.6795436214974051 
4.860000000002012, -0.679261722513137 
4.870000000001989, -0.6789126280617741 
4.880000000001965, -0.6785005180883845 
4.890000000001942, -0.6780408932188721 
4.900000000001919, -0.6775602621974841 
4.9100000000018955, -0.6770981861628047 
4.920000000001872, -0.6767124834921262 
