t, s[1].omega / s[0].omega 
0, -0.8199396099180831 
0.009999999999999995, -0.8150062739577482 
0.019999999999999934, -0.8125682152009158 
0.029999999999999874, -0.8123895853838332 
0.04000000000000012, -0.8136247237451014 
0.050000000000000405, -0.8153827418433034 
0.06000000000000069, -0.8170718796878444 
0.07000000000000098, -0.8184263209592151 
0.08000000000000126, -0.8193888648448595 
0.09000000000000155, -0.8199943650114486 
0.10000000000000184, -0.8202983792156424 
0.11000000000000212, -0.8203430873614632 
0.12000000000000241, -0.8201424905360044 
0.130000000000002, -0.8196736216695276 
0.1400000000000009, -0.8188664939013911 
0.1499999999999998, -0.8175905724238864 
0.1599999999999987, -0.8156422719997245 
0.1699999999999976, -0.8127497283939213 
0.1799999999999965, -0.8086247746849213 
0.1899999999999954, -0.8030854376095306 
0.1999999999999943, -0.7962131489763511 
0.2099999999999932, -0.7884275490978091 
0.2199999999999921, -0.7803840169488263 
0.229999999999991, -0.7727533986242939 
0.2399999999999899, -0.7660388922858485 
0.2499999999999888, -0.7605116522837051 
0.2599999999999877, -0.7562369656746162 
0.2699999999999866, -0.7531329495963798 
0.2799999999999855, -0.7510284496390238 
0.2899999999999844, -0.7497113057651145 
0.2999999999999833, -0.7489662916641996 
0.3099999999999822, -0.7486016457087203 
0.3199999999999811, -0.7484629293648439 
0.32999999999998, -0.7484352184964618 
0.3399999999999789, -0.7484373001422747 
0.3499999999999778, -0.748412575011993 
0.35999999999997667, -0.7483206735028628 
0.36999999999997557, -0.7481323706305633 
0.37999999999997447, -0.7478287847189421 
0.38999999999997337, -0.7474038376937384 
0.39999999999997227, -0.7468666669031626 
0.40999999999997117, -0.7462398704533912 
0.41999999999997006, -0.7455521951614272 
0.42999999999996896, -0.7448291155765505 
0.43999999999996786, -0.744086918889332 
0.44999999999996676, -0.7433331832040603 
0.45999999999996566, -0.7425720326439248 
0.46999999999996456, -0.7418103940596705 
0.47999999999996346, -0.7410625267417776 
0.48999999999996235, -0.7403522895287941 
0.49999999999996125, -0.739713785085377 
0.5099999999999602, -0.7391907859303066 
0.519999999999959, -0.7388346802044126 
0.529999999999958, -0.7387005635975487 
0.5399999999999568, -0.7388417817191972 
0.5499999999999557, -0.7393041856658862 
0.5599999999999546, -0.7401217810055641 
0.5699999999999535, -0.7413148122865215 
0.5799999999999524, -0.7428898183232356 
0.5899999999999513, -0.7448395357906535 
0.5999999999999502, -0.7471395462289 
0.6099999999999491, -0.749739148358435 
0.619999999999948, -0.752547326086608 
0.6299999999999469, -0.7554216295734004 
0.6399999999999458, -0.7581749482696755 
0.6499999999999447, -0.7606118160138717 
0.6599999999999436, -0.7625838441630706 
0.6699999999999425, -0.7640301378056906 
0.6799999999999414, -0.764975986752097 
0.6899999999999403, -0.7654979514374675 
0.6999999999999392, -0.7656840921844357 
0.7099999999999381, -0.7656087434609569 
0.719999999999937, -0.765323806015642 
0.7299999999999359, -0.7648608741241534 
0.7399999999999348, -0.7642399882708164 
0.7499999999999337, -0.7634854384278127 
0.7599999999999326, -0.7626538048259472 
0.7699999999999315, -0.7618830301291841 
0.7799999999999304, -0.761470306175603 
0.7899999999999293, -0.7619715219681613 
0.7999999999999282, -0.7642707781358227 
0.8099999999999271, -0.7694917129370122 
0.819999999999926, -0.7785781636028084 
0.8299999999999249, -0.7915504356666034 
0.8399999999999238, -0.8069567078956593 
0.8499999999999227, -0.822306118824204 
0.8599999999999216, -0.8353803411127965 
0.8699999999999205, -0.8451982555378686 
0.8799999999999194, -0.8519276992462872 
0.8899999999999183, -0.8562630885282025 
0.8999999999999172, -0.8589345427217012 
0.9099999999999161, -0.8605090143617795 
0.919999999999915, -0.8613684506316703 
0.9299999999999139, -0.8617478715576523 
0.9399999999999128, -0.8617772554547385 
0.9499999999999117, -0.8615099000540839 
0.9599999999999106, -0.8609345478748702 
0.9699999999999095, -0.8599713667944122 
0.9799999999999084, -0.8584507665803036 
0.9899999999999073, -0.8560737269830746 
0.9999999999999062, -0.8523592316044271 
1.0099999999999052, -0.8466112954231877 
1.019999999999904, -0.8379979303191585 
1.029999999999903, -0.8258903080449056 
1.039999999999902, -0.8104870776364855 
1.0499999999999008, -0.7932926895770124 
1.0599999999998997, -0.7767416930214769 
1.0699999999998986, -0.7630206146673248 
1.0799999999998975, -0.7531303989309092 
1.0899999999998964, -0.7468670345111216 
1.0999999999998953, -0.7433789757819372 
1.1099999999998942, -0.741710116099792 
1.119999999999893, -0.7410853845477751 
1.129999999999892, -0.7409793110221702 
1.1399999999998909, -0.7410770062327232 
1.1499999999998898, -0.7412064556935575 
1.1599999999998887, -0.7412787372312357 
1.1699999999998876, -0.741245869665611 
1.1799999999998865, -0.7410743874120478 
1.1899999999998854, -0.740730222246398 
1.1999999999998843, -0.7401720582721805 
1.2099999999998832, -0.7393530435265928 
1.219999999999882, -0.7382321608518285 
1.229999999999881, -0.7367937714518811 
1.2399999999998799, -0.7350662247435986 
1.2499999999998788, -0.7331251639563896 
1.2599999999998777, -0.7310750267464844 
1.2699999999998766, -0.7290195819752056 
1.2799999999998755, -0.727039929999661 
1.2899999999998744, -0.7251888937423809 
1.2999999999998733, -0.7234976736530079 
1.3099999999998722, -0.7219860444013314 
1.319999999999871, -0.7206700658440001 
1.32999999999987, -0.7195653975716648 
1.3399999999998689, -0.7186868477885449 
1.3499999999998678, -0.7180457278854744 
1.3599999999998666, -0.7176467150495645 
1.3699999999998655, -0.7174856924014468 
1.3799999999998644, -0.7175495099932545 
1.3899999999998633, -0.7178178474259627 
1.3999999999998622, -0.7182665908097559 
1.4099999999998611, -0.7188716445124198 
1.41999999999986, -0.7196119692038307 
1.429999999999859, -0.7204707004707319 
1.4399999999998578, -0.7214332943795251 
1.4499999999998567, -0.7224820335579647 
1.4599999999998556, -0.723587647286678 
1.4699999999998545, -0.7247016208793563 
1.4799999999998534, -0.7257554752636963 
1.4899999999998523, -0.726672019860119 
1.4999999999998512, -0.7273857987871075 
1.5099999999998501, -0.7278610418160427 
1.519999999999849, -0.7280960559711346 
1.529999999999848, -0.728113946225905 
1.5399999999998468, -0.7279487032070338 
1.5499999999998457, -0.7276353696764577 
1.5599999999998446, -0.7272078420572183 
1.5699999999998435, -0.7267045644522756 
1.5799999999998424, -0.7261823580346469 
1.5899999999998413, -0.725740013092725 
1.5999999999998402, -0.7255537600649395 
1.6099999999998391, -0.7259239702049769 
1.619999999999838, -0.7273235072643465 
1.629999999999837, -0.7304202151212731 
1.6399999999998358, -0.7360196499639808 
1.6499999999998347, -0.7448533839878135 
1.6599999999998336, -0.7571717226764128 
1.6699999999998325, -0.7722714388718261 
1.6799999999998314, -0.7883707729088701 
1.6899999999998303, -0.8032273607435425 
1.6999999999998292, -0.8151930894368761 
1.709999999999828, -0.8237944230164052 
1.719999999999827, -0.8294757138264541 
1.729999999999826, -0.833012804352046 
1.7399999999998248, -0.8351141316571311 
1.7499999999998237, -0.8362906677045029 
1.7599999999998226, -0.8368681438112044 
1.7699999999998215, -0.8370360180980645 
1.7799999999998204, -0.836889292966662 
1.7899999999998193, -0.8364530181541806 
1.7999999999998182, -0.835689794706948 
1.809999999999817, -0.8344913431790004 
1.819999999999816, -0.8326536915007512 
1.8299999999998149, -0.8298362362830976 
1.8399999999998138, -0.8255145317512864 
1.8499999999998127, -0.8189680166257606 
1.8599999999998116, -0.8094066450715912 
1.8699999999998105, -0.7963819218288647 
1.8799999999998094, -0.7804446700381965 
1.8899999999998083, -0.7634907423284731 
1.8999999999998072, -0.7480899881016543 
1.909999999999806, -0.7361512178293924 
1.919999999999805, -0.7281770558702891 
1.9299999999998039, -0.7235566321121327 
1.9399999999998028, -0.7212643199438153 
1.9499999999998017, -0.720359397149786 
1.9599999999998006, -0.7201693350347975 
1.9699999999997995, -0.7202814219183356 
1.9799999999997984, -0.7204690443582897 
1.9899999999997973, -0.7206177790200259 
1.9999999999997962, -0.7206714976282143 
2.0099999999998173, -0.7205983431324073 
2.0199999999998384, -0.7203709019567304 
2.0299999999998595, -0.7199557463281809 
2.0399999999998806, -0.7193104174723783 
2.0499999999999017, -0.718388727434765 
2.059999999999923, -0.717155707322763 
2.069999999999944, -0.7156089122228046 
2.079999999999965, -0.7137943290163916 
2.089999999999986, -0.7118026956664537 
2.100000000000007, -0.7097445985266557 
2.1100000000000283, -0.7077200596283889 
2.1200000000000494, -0.7058005353046859 
2.1300000000000705, -0.7040281214812734 
2.1400000000000916, -0.7024250048121397 
2.1500000000001127, -0.7010043248179044 
2.160000000000134, -0.6997775239884068 
2.170000000000155, -0.6987572171618324 
2.180000000000176, -0.697956609980371 
2.190000000000197, -0.6973870281590047 
2.2000000000002182, -0.6970550537144843 
2.2100000000002393, -0.6969604983244753 
2.2200000000002604, -0.697096002351876 
2.2300000000002815, -0.6974484339031537 
2.2400000000003026, -0.6980016194588264 
2.2500000000003237, -0.6987394542143903 
2.260000000000345, -0.6996481727101076 
2.270000000000366, -0.7007164184190503 
2.280000000000387, -0.7019317553838083 
2.290000000000408, -0.7032728971693508 
2.3000000000004293, -0.7046990668632499 
2.3100000000004504, -0.7061417581375431 
2.3200000000004715, -0.707507291440634 
2.3300000000004926, -0.7086954338139978 
2.3400000000005137, -0.7096275873446343 
2.3500000000005348, -0.7102674246307445 
2.360000000000556, -0.7106214859599251 
2.370000000000577, -0.7107234467963099 
2.380000000000598, -0.7106152621629276 
2.390000000000619, -0.7103348735259571 
2.4000000000006403, -0.7099127709236458 
2.4100000000006614, -0.7093762769296407 
2.4200000000006825, -0.7087612817521272 
2.4300000000007036, -0.7081338348447095 
2.4400000000007247, -0.707626476497491 
2.450000000000746, -0.7074942281621501 
2.460000000000767, -0.7081880378119767 
2.470000000000788, -0.7104203639314984 
2.480000000000809, -0.7151493244673104 
2.49000000000083, -0.7233487652642728 
2.5000000000008513, -0.7354585575700561 
2.5100000000008724, -0.750708405059478 
2.5200000000008935, -0.7669937852634101 
2.5300000000009146, -0.7818113022292885 
2.5400000000009357, -0.7935469140688289 
2.550000000000957, -0.8019112676288167 
2.560000000000978, -0.8074606064964215 
2.570000000000999, -0.8109739830394951 
2.58000000000102, -0.8131193599445984 
2.5900000000010412, -0.8143709902086644 
2.6000000000010624, -0.8150338693918066 
2.6100000000010835, -0.8152895333994252 
2.6200000000011046, -0.815232638777388 
2.6300000000011257, -0.8148920332414018 
2.6400000000011468, -0.8142366476658294 
2.650000000001168, -0.8131665933029579 
2.660000000001189, -0.8114888828234837 
2.67000000000121, -0.8088797392345194 
2.680000000001231, -0.8048494128227357 
2.6900000000012523, -0.7987612728681489 
2.7000000000012734, -0.790003496868814 
2.7100000000012945, -0.7783784043996359 
2.7200000000013156, -0.7645308800715165 
2.7300000000013367, -0.7499630066645887 
2.740000000001358, -0.7364366329140264 
2.750000000001379, -0.7252307686909818 
2.7600000000014, -0.7168238779587873 
2.770000000001421, -0.7110418281398749 
2.780000000001442, -0.7073741341207185 
2.7900000000014633, -0.7052337028721621 
2.8000000000014844, -0.7041013434060489 
2.8100000000015055, -0.7035788947387012 
2.8200000000015266, -0.7033892874270093 
2.8300000000015477, -0.7033530414552264 
2.840000000001569, -0.703359164712102 
2.85000000000159, -0.7033394066958228 
2.860000000001611, -0.7032491074931422 
2.870000000001632, -0.7030551052663048 
2.8800000000016532, -0.7027303920140131 
2.8900000000016743, -0.7022550639585188 
2.9000000000016954, -0.7016220605986135 
2.9100000000017165, -0.7008436171624473 
2.9200000000017377, -0.6999523670403799 
2.9300000000017588, -0.698993512934583 
2.94000000000178, -0.6980113542580642 
2.950000000001801, -0.6970381832852258 
2.960000000001822, -0.6960912133845272 
2.970000000001843, -0.6951770423768241 
2.9800000000018643, -0.6942992609110691 
2.9900000000018854, -0.6934651001074652 
3.0000000000019065, -0.6926894347745833 
3.0100000000019276, -0.691996443796687 
3.0200000000019487, -0.6914197509125455 
3.03000000000197, -0.6910014488643684 
3.040000000001991, -0.6907899939764253 
3.050000000002012, -0.6908370350470426 
3.060000000002033, -0.6911936955459035 
3.070000000002054, -0.6919072037183761 
3.0800000000020753, -0.6930186062930221 
3.0900000000020964, -0.694561431411332 
3.1000000000021175, -0.6965597653611482 
3.1100000000021386, -0.6990227560125202 
3.1200000000021597, -0.7019319704469335 
3.130000000002181, -0.7052201599730412 
3.140000000002202, -0.7087474427912371 
3.150000000002223, -0.7122933191305318 
3.160000000002244, -0.7155886586533915 
3.1700000000022652, -0.718390401146472 
3.1800000000022863, -0.7205584379819601 
3.1900000000023074, -0.7220809381251834 
3.2000000000023285, -0.7230388137042401 
3.2100000000023496, -0.7235473495906505 
3.2200000000023707, -0.7237122847266126 
3.230000000002392, -0.723610026312101 
3.240000000002413, -0.7232840328503118 
3.250000000002434, -0.7227476760067593 
3.260000000002455, -0.7219883730904875 
3.2700000000024763, -0.7209721557127843 
3.2800000000024974, -0.7196510068534115 
3.2900000000025185, -0.7179774547784986 
3.3000000000025396, -0.7159302476624397 
3.3100000000025607, -0.7135453517122956 
3.3200000000025818, -0.7109219489349554 
3.330000000002603, -0.7081561496841495 
3.340000000002624, -0.7052336247693768 
3.350000000002645, -0.7020941413926154 
3.360000000002666, -0.6989564871420862 
3.3700000000026873, -0.6964135473088677 
3.3800000000027084, -0.6949729218934866 
3.3900000000027295, -0.6946525935493648 
3.4000000000027506, -0.6950912855320068 
3.4100000000027717, -0.6958664150530185 
3.420000000002793, -0.6966771626841135 
3.430000000002814, -0.6973662186457472 
3.440000000002835, -0.697874546081324 
3.450000000002856, -0.6981926279644959 
3.460000000002877, -0.6983272679041297 
3.4700000000028983, -0.6982826498515341 
3.4800000000029194, -0.6980500184947995 
3.4900000000029405, -0.6976018827842047 
3.5000000000029616, -0.6968897189670417 
3.5100000000029827, -0.6958476422826838 
3.520000000003004, -0.6944071849551999 
3.530000000003025, -0.6925262636640546 
3.540000000003046, -0.6902241155609163 
3.550000000003067, -0.6875991855164906 
3.5600000000030882, -0.6848097185175824 
3.5700000000031094, -0.6820254432229326 
3.5800000000031305, -0.6793827666400777 
3.5900000000031516, -0.676966837994255 
3.6000000000031727, -0.6748184101104272 
3.6100000000031938, -0.6729506256640037 
3.620000000003215, -0.6713639406881982 
3.630000000003236, -0.6700548893754672 
3.640000000003257, -0.6690192285718124 
3.650000000003278, -0.668251637798 
3.6600000000032993, -0.6677441169719431 
3.6700000000033204, -0.6674846499750978 
3.6800000000033415, -0.6674570256678779 
3.6900000000033626, -0.6676420497965088 
3.7000000000033837, -0.6680198313004493 
3.710000000003405, -0.6685724743350898 
3.720000000003426, -0.6692863399919944 
3.730000000003447, -0.6701529106518473 
3.740000000003468, -0.6711670778937375 
3.750000000003489, -0.6723216180193657 
3.7600000000035103, -0.673597494673001 
3.7700000000035314, -0.6749523376248241 
3.7800000000035525, -0.6763136177727709 
3.7900000000035736, -0.6775851217958151 
3.8000000000035947, -0.6786695811322001 
3.810000000003616, -0.679497099548531 
3.820000000003637, -0.680041461706554 
3.830000000003658, -0.6803157074981214 
3.840000000003679, -0.6803545201103944 
3.8500000000037002, -0.6801965835387027 
3.8600000000037213, -0.6798743161404215 
3.8700000000037424, -0.6794116520427866 
3.8800000000037635, -0.67882838806375 
3.8900000000037847, -0.6781510529248733 
3.9000000000038058, -0.6774329977709209 
3.910000000003827, -0.6767888942928875 
3.920000000003848, -0.6764488091567624 
3.930000000003869, -0.6768286915524069 
3.94000000000389, -0.678585790230142 
3.9500000000039113, -0.6825689877568467 
3.9600000000039324, -0.6895195454856168 
3.9700000000039535, -0.6994858195390729 
3.9800000000039746, -0.7113535531239449 
3.9900000000039957, -0.7231986345089692 
4.000000000004016, -0.7333755620488333 
4.010000000003993, -0.7412200983318706 
4.02000000000397, -0.7468658658559163 
4.030000000003946, -0.7507600696393041 
4.040000000003923, -0.7533641070286956 
4.0500000000039, -0.7550522798156952 
4.0600000000038765, -0.7560987443538982 
4.070000000003853, -0.7566910794772211 
4.08000000000383, -0.7569481734864512 
4.090000000003807, -0.7569347544211232 
4.100000000003783, -0.7566698082645963 
4.11000000000376, -0.75612798253911 
4.120000000003737, -0.7552341098752604 
4.130000000003713, -0.7538531088454814 
4.14000000000369, -0.7517833764211589 
4.150000000003667, -0.7487730512585917 
4.1600000000036434, -0.7445877754068534 
4.17000000000362, -0.7391391160251355 
4.180000000003597, -0.7326132452328694 
4.1900000000035735, -0.725481832195796 
4.20000000000355, -0.7183501395917287 
4.210000000003527, -0.7117512929144264 
4.220000000003504, -0.7060258394995035 
4.23000000000348, -0.7013161404888808 
4.240000000003457, -0.6976200935931154 
4.250000000003434, -0.6948498449841367 
4.26000000000341, -0.6928743802825827 
4.270000000003387, -0.6915464361313288 
4.280000000003364, -0.6907196368614122 
4.2900000000033405, -0.6902599056565555 
4.300000000003317, -0.6900525287287678 
4.310000000003294, -0.6900051218736022 
4.320000000003271, -0.6900470389878078 
4.330000000003247, -0.6901264973898125 
4.340000000003224, -0.690207090801873 
4.350000000003201, -0.6902651242761788 
4.360000000003177, -0.6902883262123225 
4.370000000003154, -0.6902751407879549 
4.380000000003131, -0.6902326537789669 
4.390000000003107, -0.6901715028008553 
4.400000000003084, -0.6900984609110774 
4.410000000003061, -0.690010192841071 
4.4200000000030375, -0.6898921838234523 
4.430000000003014, -0.6897239781389298 
4.440000000002991, -0.6894877050549191 
4.450000000002968, -0.6891750217450823 
4.460000000002944, -0.6887897360594335 
4.470000000002921, -0.6883471992706048 
4.480000000002898, -0.6878735872264986 
4.490000000002874, -0.6874076168995061 
4.500000000002851, -0.6870056252949903 
4.510000000002828, -0.6867495502042178 
4.520000000002804, -0.6867563295525153 
4.530000000002781, -0.6871863179801756 
4.540000000002758, -0.688247484933172 
4.5500000000027345, -0.6901914798898577 
4.560000000002711, -0.693296701744148 
4.570000000002688, -0.6978312781750496 
4.580000000002665, -0.7039855929629997 
4.590000000002641, -0.7117659954184266 
4.600000000002618, -0.7208654191096948 
4.610000000002595, -0.7305869060550088 
4.620000000002571, -0.739948654639851 
4.630000000002548, -0.7480143884923106 
4.640000000002525, -0.7542533367795177 
4.6500000000025015, -0.7586468957522552 
4.660000000002478, -0.7615130391318476 
4.670000000002455, -0.763261304602901 
4.6800000000024315, -0.7642423519757051 
4.690000000002408, -0.764703250496127 
4.700000000002385, -0.7647961667238851 
4.710000000002362, -0.7645993625334271 
4.720000000002338, -0.7641326992693893 
4.730000000002315, -0.7633625279614294 
4.740000000002292, -0.7621945588376835 
4.750000000002268, -0.7604531752876321 
4.760000000002245, -0.7578455285540394 
4.770000000002222, -0.7539137230115076 
4.7800000000021985, -0.7480000692861296 
4.790000000002175, -0.7393072507909985 
4.800000000002152, -0.7272105758628193 
4.810000000002129, -0.7118952347110183 
4.820000000002105, -0.6948912206631154 
4.830000000002082, -0.6786730940228122 
4.840000000002059, -0.6653662350644565 
4.850000000002035, -0.6558118989611638 
4.860000000002012, -0.6496842507850932 
4.870000000001989, -0.6461266155780497 
4.880000000001965, -0.6442597710334859 
4.890000000001942, -0.6433993280314599 
4.900000000001919, -0.6430838644685781 
4.9100000000018955, -0.643029113085493 
4.920000000001872, -0.6430702984934915 
