t, s[1].omega / s[0].omega 
0, -1.0399975306052387 
0.009999999999999995, -1.039656964159588 
0.019999999999999934, -1.0391302227468415 
0.029999999999999874, -1.038418799673578 
0.04000000000000012, -1.0375353888698025 
0.050000000000000405, -1.0365124127980594 
0.06000000000000069, -1.0354064671483805 
0.07000000000000098, -1.0342968428133485 
0.08000000000000126, -1.033276332305365 
0.09000000000000155, -1.032434980540702 
0.10000000000000184, -1.0318425480088296 
0.11000000000000212, -1.0315354893098778 
0.12000000000000241, -1.0315086638800426 
0.130000000000002, -1.0317121576619086 
0.1400000000000009, -1.0320589786500807 
0.1499999999999998, -1.0324451844841325 
0.1599999999999987, -1.0327726122119216 
0.1699999999999976, -1.0329634959829792 
0.1799999999999965, -1.0329658762270673 
0.1899999999999954, -1.0327540468087268 
0.1999999999999943, -1.0323253850501408 
0.2099999999999932, -1.031692380901767 
0.2199999999999921, -1.030872103982491 
0.229999999999991, -1.02987956570249 
0.2399999999999899, -1.028729454895786 
0.2499999999999888, -1.0274443975449938 
0.2599999999999877, -1.026064026510651 
0.2699999999999866, -1.0246497926558662 
0.2799999999999855, -1.0232827152352515 
0.2899999999999844, -1.022053780522654 
0.2999999999999833, -1.0210496164639333 
0.3099999999999822, -1.020336570928866 
0.3199999999999811, -1.019943957116061 
0.32999999999998, -1.0198496456163213 
0.3399999999999789, -1.0199785308046798 
0.3499999999999778, -1.0202208870527005 
0.35999999999997667, -1.0204609134720815 
0.36999999999997557, -1.0205983773019174 
0.37999999999997447, -1.0205574061938185 
0.38999999999997337, -1.020288612867644 
0.39999999999997227, -1.0197704079363326 
0.40999999999997117, -1.0190078759884285 
0.41999999999997006, -1.0180249784395947 
0.42999999999996896, -1.0168519899793447 
0.43999999999996786, -1.015516389618086 
0.44999999999996676, -1.0140431926900602 
0.45999999999996566, -1.012463060782045 
0.46999999999996456, -1.010821795261295 
0.47999999999996346, -1.0091853930854628 
0.48999999999996235, -1.007637842059171 
0.49999999999996125, -1.0062719128246194 
0.5099999999999602, -1.0051748289317601 
0.519999999999959, -1.0044097574130286 
0.529999999999958, -1.0039948273434873 
0.5399999999999568, -1.0038888472445917 
0.5499999999999557, -1.0039971573565551 
0.5599999999999546, -1.0041981519769005 
0.5699999999999535, -1.0043733026772979 
0.5799999999999524, -1.0044246620696142 
0.5899999999999513, -1.004279675906501 
0.5999999999999502, -1.003892365381436 
0.6099999999999491, -1.0032456127896197 
0.619999999999948, -1.002350617860412 
0.6299999999999469, -1.0012382498208683 
0.6399999999999458, -0.9999449940706757 
0.6499999999999447, -0.998502959469368 
0.6599999999999436, -0.9969402314738496 
0.6699999999999425, -0.9952893892761436 
0.6799999999999414, -0.9935972626675669 
0.6899999999999403, -0.9919299413450771 
0.6999999999999392, -0.9903703452522363 
0.7099999999999381, -0.9890087537697037 
0.719999999999937, -0.9879281846582924 
0.7299999999999359, -0.9871859473372948 
0.7399999999999348, -0.9867940217422122 
0.7499999999999337, -0.986707378353827 
0.7599999999999326, -0.9868315718961783 
0.7699999999999315, -0.9870484834290375 
0.7799999999999304, -0.9872442677582889 
0.7899999999999293, -0.987325692506321 
0.7999999999999282, -0.9872250882153478 
0.8099999999999271, -0.9869017268030209 
0.819999999999926, -0.9863432125128858 
0.8299999999999249, -0.9855631227556307 
0.8399999999999238, -0.984591036643962 
0.8499999999999227, -0.9834588116469293 
0.8599999999999216, -0.9821922216279102 
0.8699999999999205, -0.9808129535435886 
0.8799999999999194, -0.9793479023604335 
0.8899999999999183, -0.9778388646366734 
0.8999999999999172, -0.9763471462703895 
0.9099999999999161, -0.9749506726624448 
0.919999999999915, -0.9737340118179812 
0.9299999999999139, -0.9727739948787676 
0.9399999999999128, -0.9721239655931739 
0.9499999999999117, -0.9717989472650664 
0.9599999999999106, -0.9717662846638199 
0.9699999999999095, -0.9719492160539115 
0.9799999999999084, -0.9722453687578648 
0.9899999999999073, -0.9725508955339661 
0.9999999999999062, -0.9727782718394231 
1.0099999999999052, -0.9728643018549519 
1.019999999999904, -0.9727723268320299 
1.029999999999903, -0.9724915182164919 
1.039999999999902, -0.9720316562433187 
1.0499999999999008, -0.9714123398632571 
1.0599999999998997, -0.9706513354609854 
1.0699999999998986, -0.9697596072102005 
1.0799999999998975, -0.968745951950867 
1.0899999999998964, -0.967627234362198 
1.0999999999998953, -0.9664377713204899 
1.1099999999998942, -0.9652335951897536 
1.119999999999893, -0.9640897973115907 
1.129999999999892, -0.963090504560026 
1.1399999999998909, -0.9623134987253004 
1.1499999999998898, -0.9618144404859967 
1.1599999999998887, -0.9616152573935912 
1.1699999999998876, -0.9616984538592334 
1.1799999999998865, -0.9620088185741731 
1.1899999999998854, -0.9624644395958212 
1.1999999999998843, -0.9629747459847312 
1.2099999999998832, -0.963458205360532 
1.219999999999882, -0.9638535633258274 
1.229999999999881, -0.9641237461149281 
1.2399999999998799, -0.9642538029241118 
1.2499999999998788, -0.9642435006265104 
1.2599999999998777, -0.9640963898158228 
1.2699999999998766, -0.9638107980506152 
1.2799999999998755, -0.9633788248095897 
1.2899999999998744, -0.9627942014042153 
1.2999999999998733, -0.9620636189366245 
1.3099999999998722, -0.9612152499016112 
1.319999999999871, -0.9603021807916712 
1.32999999999987, -0.9594009387109237 
1.3399999999998689, -0.9586037994894658 
1.3499999999998678, -0.9580031988635195 
1.3599999999998666, -0.9576715434578181 
1.3699999999998655, -0.9576451119796172 
1.3799999999998644, -0.9579185761773106 
1.3899999999998633, -0.9584494655961789 
1.3999999999998622, -0.9591688155484874 
1.4099999999998611, -0.9599955213244282 
1.41999999999986, -0.9608516209822469 
1.429999999999859, -0.9616742124346878 
1.4399999999998578, -0.9624206447233636 
1.4499999999998567, -0.9630661711807873 
1.4599999999998556, -0.9635954247361367 
1.4699999999998545, -0.9639916673894404 
1.4799999999998534, -0.9642304219296662 
1.4899999999998523, -0.9642829676154683 
1.4999999999998512, -0.9641284492503862 
1.5099999999998501, -0.9637665755675247 
1.519999999999849, -0.9632239343659565 
1.529999999999848, -0.9625544100173936 
1.5399999999998468, -0.9618380039704906 
1.5499999999998457, -0.9611779697334889 
1.5599999999998446, -0.9606901520508767 
1.5699999999998435, -0.9604804339099425 
1.5799999999998424, -0.9606175460127402 
1.5899999999998413, -0.9611166850426706 
1.5999999999998402, -0.9619423263195989 
1.6099999999998391, -0.9630244872849094 
1.619999999999838, -0.9642779918054967 
1.629999999999837, -0.9656189071579246 
1.6399999999998358, -0.9669760181178537 
1.6499999999998347, -0.9682955543431323 
1.6599999999998336, -0.9695380527086022 
1.6699999999998325, -0.9706688401209865 
1.6799999999998314, -0.971647488820065 
1.6899999999998303, -0.9724243723173697 
1.6999999999998292, -0.9729497697374233 
1.709999999999828, -0.9731914597571623 
1.719999999999827, -0.9731486267971263 
1.729999999999826, -0.9728539519984356 
1.7399999999998248, -0.9723681362273485 
1.7499999999998237, -0.9717765656871269 
1.7599999999998226, -0.9711909075934655 
1.7699999999998215, -0.9707471980802772 
1.7799999999998204, -0.9705878762728906 
1.7899999999998193, -0.9708263158460229 
1.7999999999998182, -0.9715124004645119 
1.809999999999817, -0.9726227471589887 
1.819999999999816, -0.9740792527239392 
1.8299999999998149, -0.975779113884086 
1.8399999999998138, -0.977619708575698 
1.8499999999998127, -0.9795127589329606 
1.8599999999998116, -0.9813882660308921 
1.8699999999998105, -0.9831895212182629 
1.8799999999998094, -0.9848620373729883 
1.8899999999998083, -0.9863431486560327 
1.8999999999998072, -0.98756175847036 
1.909999999999806, -0.9884532267420416 
1.919999999999805, -0.9889817444017526 
1.9299999999998039, -0.9891537927397562 
1.9399999999998028, -0.9890145618418543 
1.9499999999998017, -0.9886360898399301 
1.9599999999998006, -0.9881113014744878 
1.9699999999997995, -0.9875583666991641 
1.9799999999997984, -0.9871255392746907 
1.9899999999997973, -0.9869786496871393 
1.9999999999997962, -0.9872622814183046 
2.0099999999998173, -0.9880521390244963 
2.0199999999998384, -0.9893329825867403 
2.0299999999998595, -0.9910167152210871 
2.0399999999998806, -0.9929815430600456 
2.0499999999999017, -0.9951058108817487 
2.059999999999923, -0.9972858411504717 
2.069999999999944, -0.9994395110057157 
2.079999999999965, -1.0014996370732197 
2.089999999999986, -1.0034017983993944 
2.100000000000007, -1.005074340905532 
2.1100000000000283, -1.0064402725198984 
2.1200000000000494, -1.0074347609642074 
2.1300000000000705, -1.0080281046347286 
2.1400000000000916, -1.008236645887465 
2.1500000000001127, -1.0081154479623848 
2.160000000000134, -1.0077443336511185 
2.170000000000155, -1.0072222614651145 
2.180000000000176, -1.00667310117016 
2.190000000000197, -1.0062507051522085 
2.2000000000002182, -1.0061237141966164 
2.2100000000002393, -1.0064324015108324 
2.2200000000002604, -1.0072399653649742 
2.2300000000002815, -1.0085154729154318 
2.2400000000003026, -1.0101588314908247 
2.2500000000003237, -1.0120429013003462 
2.260000000000345, -1.0140460030693441 
2.270000000000366, -1.0160673752143707 
2.280000000000387, -1.0180293800768614 
2.290000000000408, -1.0198707200634007 
2.3000000000004293, -1.0215349079491898 
2.3100000000004504, -1.022961101422934 
2.3200000000004715, -1.0240858148425684 
2.3300000000004926, -1.0248580605627298 
2.3400000000005137, -1.0252584699251126 
2.3500000000005348, -1.025307824176605 
2.360000000000556, -1.02506112057029 
2.370000000000577, -1.0245976531144663 
2.380000000000598, -1.024018473814173 
2.390000000000619, -1.0234504112763154 
2.4000000000006403, -1.0230425984358569 
2.4100000000006614, -1.022940502286874 
2.4200000000006825, -1.023242251256697 
2.4300000000007036, -1.0239667189306103 
2.4400000000007247, -1.0250574397309256 
2.450000000000746, -1.026413571372608 
2.460000000000767, -1.0279225358068904 
2.470000000000788, -1.0294811615281256 
2.480000000000809, -1.0310059972599523 
2.49000000000083, -1.032435410855917 
2.5000000000008513, -1.0337245014744962 
2.5100000000008724, -1.03483535065156 
2.5200000000008935, -1.0357284976769807 
2.5300000000009146, -1.0363626952879748 
2.5400000000009357, -1.0367052163606145 
2.550000000000957, -1.0367460389042786 
2.560000000000978, -1.0365057220623306 
2.570000000000999, -1.0360342740551844 
2.58000000000102, -1.0354074785705754 
2.5900000000010412, -1.0347259099744073 
2.6000000000010624, -1.0341117575542778 
2.6100000000010835, -1.0336923530781106 
2.6200000000011046, -1.0335686427329753 
2.6300000000011257, -1.0337858927383787 
2.6400000000011468, -1.034326973157485 
2.650000000001168, -1.0351278992409418 
2.660000000001189, -1.0360997531934324 
2.67000000000121, -1.0371471362649702 
2.680000000001231, -1.0381827123562783 
2.6900000000012523, -1.039137442336856 
2.7000000000012734, -1.039964190127832 
2.7100000000012945, -1.0406340459121075 
2.7200000000013156, -1.0411276901702433 
2.7300000000013367, -1.0414267509096482 
2.740000000001358, -1.0415111075810164 
2.750000000001379, -1.0413647836615028 
2.7600000000014, -1.0409865290886247 
2.770000000001421, -1.0403981840507166 
2.780000000001442, -1.0396479354003696 
2.7900000000014633, -1.0388102094122895 
2.8000000000014844, -1.0379820467737213 
2.8100000000015055, -1.0372711393836058 
2.8200000000015266, -1.036773653862738 
2.8300000000015477, -1.036551002374032 
2.840000000001569, -1.0366184615084775 
2.85000000000159, -1.0369474287163736 
2.860000000001611, -1.0374741282485367 
2.870000000001632, -1.0381118102110625 
2.8800000000016532, -1.0387671971767154 
2.8900000000016743, -1.0393573109520222 
2.9000000000016954, -1.039820432350441 
2.9100000000017165, -1.040119117751761 
2.9200000000017377, -1.0402367159231753 
2.9300000000017588, -1.0401693332321766 
2.94000000000178, -1.0399165716252112 
2.950000000001801, -1.0394764068250306 
2.960000000001822, -1.0388478305118403 
2.970000000001843, -1.0380393715937934 
2.9800000000018643, -1.037078078451067 
2.9900000000018854, -1.0360149022807685 
3.0000000000019065, -1.03492469319495 
3.0100000000019276, -1.0338989528651104 
3.0200000000019487, -1.0330307157909004 
3.03000000000197, -1.0323961941119388 
3.040000000001991, -1.032040314868535 
3.050000000002012, -1.0319680705238932 
3.060000000002033, -1.0321405405414177 
3.070000000002054, -1.0324794635872745 
3.0800000000020753, -1.0328842070046556 
3.0900000000020964, -1.033254540138945 
3.1000000000021175, -1.033507721896226 
3.1100000000021386, -1.0335859900573185 
3.1200000000021597, -1.033457868953467 
3.130000000002181, -1.0331156648899749 
3.140000000002202, -1.0325683855872358 
3.150000000002223, -1.0318314170772722 
3.160000000002244, -1.0309188008686427 
3.1700000000022652, -1.0298433819001414 
3.1800000000022863, -1.0286242079891221 
3.1900000000023074, -1.0272958896435935 
3.2000000000023285, -1.0259145800502802 
3.2100000000023496, -1.0245573499310594 
3.2200000000023707, -1.02331397669615 
3.230000000002392, -1.0222731555961517 
3.240000000002413, -1.0215068293310485 
3.250000000002434, -1.0210541482669395 
3.260000000002455, -1.0209064992088726 
3.2700000000024763, -1.0210018829133642 
3.2800000000024974, -1.02123802829828 
3.2900000000025185, -1.0214994364519323 
3.3000000000025396, -1.0216817162517606 
3.3100000000025607, -1.021703470036742 
3.3200000000025818, -1.0215094870905377 
3.330000000002603, -1.0210720090864078 
3.340000000002624, -1.0203902810569372 
3.350000000002645, -1.0194842269050386 
3.360000000002666, -1.0183825054490236 
3.3700000000026873, -1.0171122318427437 
3.3800000000027084, -1.0156973700779481 
3.3900000000027295, -1.0141656987901289 
3.4000000000027506, -1.0125585352601942 
3.4100000000027717, -1.0109370311953947 
3.420000000002793, -1.0093815455448074 
3.430000000002814, -1.0079837362586006 
3.440000000002835, -1.006833211970475 
3.450000000002856, -1.0060001711318614 
3.460000000002877, -1.0055149245734496 
3.4700000000028983, -1.0053509904581777 
3.4800000000029194, -1.0054252422137364 
3.4900000000029405, -1.0056202729846446 
3.5000000000029616, -1.005815239470191 
3.5100000000029827, -1.0059069693174474 
3.520000000003004, -1.005817179033785 
3.530000000003025, -1.0054938405289966 
3.540000000003046, -1.0049132254634867 
3.550000000003067, -1.0040804463346602 
3.5600000000030882, -1.0030226946679714 
3.5700000000031094, -1.0017757801799587 
3.5800000000031305, -1.0003726097831191 
3.5900000000031516, -0.9988412833573808 
3.6000000000031727, -0.9972123713753238 
3.6100000000031938, -0.9955289696344088 
3.620000000003215, -0.9938530455512771 
3.630000000003236, -0.9922646468646066 
3.640000000003257, -0.9908537906275365 
3.650000000003278, -0.9897068053567765 
3.6600000000032993, -0.9888885945961297 
3.6700000000033204, -0.988422661570081 
3.6800000000033415, -0.9882764700735379 
3.6900000000033626, -0.9883642883312633 
3.7000000000033837, -0.9885701570090786 
3.710000000003405, -0.9887770737296627 
3.720000000003426, -0.9888863599532899 
3.730000000003447, -0.9888244149113342 
3.740000000003468, -0.9885442545008226 
3.750000000003489, -0.9880270843149374 
3.7600000000035103, -0.9872813566037595 
3.7700000000035314, -0.9863345153577789 
3.7800000000035525, -0.9852193394986924 
3.7900000000035736, -0.9839636396877453 
3.8000000000035947, -0.9825899305864668 
3.810000000003616, -0.9811236449338632 
3.820000000003637, -0.9796032874785444 
3.830000000003658, -0.9780864389839676 
3.840000000003679, -0.9766485224597726 
3.8500000000037002, -0.9753741833449728 
3.8600000000037213, -0.9743435811873526 
3.8700000000037424, -0.9736166221000057 
3.8800000000037635, -0.9732173628726455 
3.8900000000037847, -0.9731226025552251 
3.9000000000038058, -0.9732623523862761 
3.910000000003827, -0.9735361695131542 
3.920000000003848, -0.9738376843111535 
3.930000000003869, -0.9740744055960722 
3.94000000000389, -0.974177351496173 
3.9500000000039113, -0.9741039565684169 
3.9600000000039324, -0.9738381062043384 
3.9700000000039535, -0.9733863082464312 
3.9800000000039746, -0.9727679945649241 
3.9900000000039957, -0.9720032686745116 
4.000000000004016, -0.9711057625456794 
4.010000000003993, -0.9700851364219918 
4.02000000000397, -0.9689565657210855 
4.030000000003946, -0.9677507792057088 
4.040000000003923, -0.9665196420434953 
4.0500000000039, -0.9653349911047421 
4.0600000000038765, -0.9642800289698092 
4.070000000003853, -0.9634347935933867 
4.08000000000383, -0.9628602008891965 
4.090000000003807, -0.9625853559427039 
4.100000000003783, -0.9626002685984272 
4.11000000000376, -0.9628556401100161 
4.120000000003737, -0.9632722114006305 
4.130000000003713, -0.963758379935028 
4.14000000000369, -0.9642288747104637 
4.150000000003667, -0.9646174572724379 
4.1600000000036434, -0.9648820778352272 
4.17000000000362, -0.9650040175754654 
4.180000000003597, -0.9649817046873632 
4.1900000000035735, -0.9648202345762094 
4.20000000000355, -0.9645212055784882 
4.210000000003527, -0.96407938164798 
4.220000000003504, -0.9634886422365131 
4.23000000000348, -0.9627530162517596 
4.240000000003457, -0.9618962113391119 
4.250000000003434, -0.960966261156943 
4.26000000000341, -0.9600350638225998 
4.270000000003387, -0.9591918865437765 
4.280000000003364, -0.9585291581979665 
4.2900000000033405, -0.9581229231457566 
4.300000000003317, -0.9580158811326885 
4.310000000003294, -0.9582100063565114 
4.320000000003271, -0.9586690947570775 
4.330000000003247, -0.9593280139292609 
4.340000000003224, -0.9601064084744365 
4.350000000003201, -0.96092430395849 
4.360000000003177, -0.9617151782283588 
4.370000000003154, -0.9624326819257474 
4.380000000003131, -0.9630498373581183 
4.390000000003107, -0.9635516704277596 
4.400000000003084, -0.9639244625280565 
4.410000000003061, -0.9641476856053725 
4.4200000000030375, -0.9641948183852387 
4.430000000003014, -0.9640436765789007 
4.440000000002991, -0.9636895133540507 
4.450000000002968, -0.9631530992034809 
4.460000000002944, -0.9624824384962676 
4.470000000002921, -0.9617518686506449 
4.480000000002898, -0.9610595364849426 
4.490000000002874, -0.9605182129217663 
4.500000000002851, -0.9602347760793721 
4.510000000002828, -0.9602836355596687 
4.520000000002804, -0.9606884915880318 
4.530000000002781, -0.9614221306647377 
4.540000000002758, -0.9624204695814195 
4.5500000000027345, -0.9636010100249017 
4.560000000002711, -0.9648795499918486 
4.570000000002688, -0.9661827345833265 
4.580000000002665, -0.9674544301006367 
4.590000000002641, -0.9686543635803242 
4.600000000002618, -0.9697497781589035 
4.610000000002595, -0.9707045095196062 
4.620000000002571, -0.9714731561630161 
4.630000000002548, -0.9720069363344095 
4.640000000002525, -0.9722697300319613 
4.6500000000025015, -0.9722535458993221 
4.660000000002478, -0.9719835498860452 
4.670000000002455, -0.9715140583043862 
4.6800000000024315, -0.9709245845482359 
4.690000000002408, -0.9703205288622669 
4.700000000002385, -0.9698322254315943 
4.710000000002362, -0.9696001816199675 
4.720000000002338, -0.9697425501061723 
4.730000000002315, -0.9703199623904736 
4.740000000002292, -0.9713213146929895 
4.750000000002268, -0.9726778724831485 
4.760000000002245, -0.9742915880284944 
4.770000000002222, -0.9760606367233484 
4.7800000000021985, -0.9778952417600465 
4.790000000002175, -0.9797236071433056 
4.800000000002152, -0.9814888636307924 
4.810000000002129, -0.9831390782297967 
4.820000000002105, -0.9846160022408712 
4.830000000002082, -0.9858517146614997 
4.840000000002059, -0.9867799210584547 
4.850000000002035, -0.9873575096299081 
4.860000000002012, -0.987581073058562 
4.870000000001989, -0.9874872284909065 
4.880000000001965, -0.9871419156854839 
4.890000000001942, -0.9866327184642497 
4.900000000001919, -0.9860712774830764 
4.9100000000018955, -0.9855988382800861 
4.920000000001872, -0.9853781156172483 
4.930000000001849, -0.9855595556784655 
