t, s[1].omega / s[0].omega 
0, -0.17999782398935613 
0.009999999999999995, -0.17990374629068448 
0.019999999999999934, -0.18003636918235902 
0.029999999999999874, -0.18034364535215366 
0.04000000000000012, -0.18074638029063395 
0.050000000000000405, -0.18115452863570358 
0.06000000000000069, -0.18148839783315368 
0.07000000000000098, -0.18169322163679152 
0.08000000000000126, -0.18173969878403498 
0.09000000000000155, -0.1816132050218075 
0.10000000000000184, -0.18129889645944197 
0.11000000000000212, -0.180767173723008 
0.12000000000000241, -0.179959943916857 
0.130000000000002, -0.178777461991999 
0.1400000000000009, -0.17707064881082743 
0.1499999999999998, -0.17465649573053213 
0.1599999999999987, -0.17138781931783562 
0.1699999999999976, -0.16728802171769586 
0.1799999999999965, -0.16266598776450983 
0.1899999999999954, -0.15805139034238208 
0.1999999999999943, -0.15394473218347302 
0.2099999999999932, -0.150610484992925 
0.2199999999999921, -0.14806709458530917 
0.229999999999991, -0.1461944472598747 
0.2399999999999899, -0.14483337110289346 
0.2499999999999888, -0.14383640641965373 
0.2599999999999877, -0.1430839231222583 
0.2699999999999866, -0.14248521420604082 
0.2799999999999855, -0.14197465810038273 
0.2899999999999844, -0.14150615969995284 
0.2999999999999833, -0.1410466140793015 
0.3099999999999822, -0.1405683586251567 
0.3199999999999811, -0.14003934098838022 
0.32999999999998, -0.1394068472309426 
0.3399999999999789, -0.1385645314795744 
0.3499999999999778, -0.1372807835139861 
0.35999999999997667, -0.13505286479454967 
0.36999999999997557, -0.13088208518341035 
0.37999999999997447, -0.12320753810558102 
0.38999999999997337, -0.1107536459183009 
0.39999999999997227, -0.09449732987923182 
0.40999999999997117, -0.07803581328813726 
0.41999999999997006, -0.0646415002257739 
0.42999999999996896, -0.05518199065252653 
0.43999999999996786, -0.04893230309531133 
0.44999999999996676, -0.04486772695497218 
0.45999999999996566, -0.042191421382852604 
0.46999999999996456, -0.04038290984933062 
0.47999999999996346, -0.039121734355827865 
0.48999999999996235, -0.038214243852490344 
0.49999999999996125, -0.0375451276486452 
0.5099999999999602, -0.037048606267689 
0.519999999999959, -0.03669197577302115 
0.529999999999958, -0.036466128500957914 
0.5399999999999568, -0.03637814102841711 
0.5499999999999557, -0.03643693417218135 
0.5599999999999546, -0.03660718847665192 
0.5699999999999535, -0.03666225938627181 
0.5799999999999524, -0.03578462122196221 
0.5899999999999513, -0.03182553087137334 
0.5999999999999502, -0.02120517275878369 
0.6099999999999491, -0.00227738964765364 
0.619999999999948, 0.019770231424677057 
0.6299999999999469, 0.0382115535734432 
0.6399999999999458, 0.05058216932082689 
0.6499999999999447, 0.05805664047626772 
0.6599999999999436, 0.06242462873104008 
0.6699999999999425, 0.064966205718505 
0.6799999999999414, 0.06644243969797368 
0.6899999999999403, 0.06728527193881087 
0.6999999999999392, 0.06774036913897771 
0.7099999999999381, 0.06794968518404385 
0.719999999999937, 0.06799668194298213 
0.7299999999999359, 0.06793242126058745 
0.7399999999999348, 0.06779452634486362 
0.7499999999999337, 0.06763022022772577 
0.7599999999999326, 0.067541981582696 
0.7699999999999315, 0.06779339405452402 
0.7799999999999304, 0.06903101250040784 
0.7899999999999293, 0.07257903381297204 
0.7999999999999282, 0.08023037977835604 
0.8099999999999271, 0.09245868238913238 
0.819999999999926, 0.10651998070730093 
0.8299999999999249, 0.1185394091350455 
0.8399999999999238, 0.12689541896474407 
0.8499999999999227, 0.13208559853706267 
0.8599999999999216, 0.13514566821645013 
0.8699999999999205, 0.13689808235273065 
0.8799999999999194, 0.13786700046194297 
0.8899999999999183, 0.13836846929057975 
0.8999999999999172, 0.13859557253070134 
0.9099999999999161, 0.13867198340679468 
0.919999999999915, 0.13868326364701117 
0.9299999999999139, 0.13869715742447544 
0.9399999999999128, 0.13878064448425034 
0.9499999999999117, 0.1390188608885801 
0.9599999999999106, 0.13953870739521235 
0.9699999999999095, 0.14053338212211883 
0.9799999999999084, 0.14226386826163118 
0.9899999999999073, 0.14497866813024446 
0.9999999999999062, 0.14870413005788313 
1.0099999999999052, 0.1530353800149868 
1.019999999999904, 0.1572442391055277 
1.029999999999903, 0.16070636386971088 
1.039999999999902, 0.16318352762687988 
1.0499999999999008, 0.16475103700195376 
1.0599999999998997, 0.16560153574669573 
1.0699999999998986, 0.16592324893162963 
1.0799999999998975, 0.16586646955254156 
1.0899999999998964, 0.16555091480685596 
1.0999999999998953, 0.1650794338787565 
1.1099999999998942, 0.16454383500130743 
1.119999999999893, 0.16402243610403014 
1.129999999999892, 0.16357600329883298 
1.1399999999998909, 0.16324805226859312 
1.1499999999998898, 0.16307004218566684 
1.1599999999998887, 0.16306757621242882 
1.1699999999998876, 0.16326264882828692 
1.1799999999998865, 0.16366803378502565 
1.1899999999998854, 0.16427292478815197 
1.1999999999998843, 0.1650257019103017 
1.2099999999998832, 0.16582787791221254 
1.219999999999882, 0.16655130048444555 
1.229999999999881, 0.16707154323740833 
1.2399999999998799, 0.16729310689015134 
1.2499999999998788, 0.1671505909796789 
1.2599999999998777, 0.16659376391546432 
1.2699999999998766, 0.16557736017057256 
1.2799999999998755, 0.16407399123151273 
1.2899999999998744, 0.16211565468178094 
1.2999999999998733, 0.15984078880768987 
1.3099999999998722, 0.15749189904775054 
1.319999999999871, 0.15533182096418777 
1.32999999999987, 0.15353614149845937 
1.3399999999998689, 0.152152344426149 
1.3499999999998678, 0.15113618530218703 
1.3599999999998666, 0.1504087571177995 
1.3699999999998655, 0.1498927800768075 
1.3799999999998644, 0.14952387689328267 
1.3899999999998633, 0.14924746300437175 
1.3999999999998622, 0.14901039467075805 
1.4099999999998611, 0.1487521354321142 
1.41999999999986, 0.14839700938606784 
1.429999999999859, 0.1478462790399757 
1.4399999999998578, 0.14696587743006398 
1.4499999999998567, 0.14556454843805794 
1.4599999999998556, 0.14336248905740887 
1.4699999999998545, 0.1399725642176945 
1.4799999999998534, 0.13497182947173858 
1.4899999999998523, 0.12820319684885503 
1.4999999999998512, 0.12028191671229067 
1.5099999999998501, 0.11267336490729456 
1.519999999999849, 0.10675406678024472 
1.529999999999848, 0.10287687831737757 
1.5399999999998468, 0.10057350873893425 
1.5499999999998457, 0.09922334823803272 
1.5599999999998446, 0.09838006428830279 
1.5699999999998435, 0.09778545853021373 
1.5799999999998424, 0.09729874214807846 
1.5899999999998413, 0.09683705044086378 
1.5999999999998402, 0.09633848181762758 
1.6099999999998391, 0.09573853802246532 
1.619999999999838, 0.09495061408553233 
1.629999999999837, 0.09384255226391093 
1.6399999999998358, 0.09219997331214712 
1.6499999999998347, 0.08966357877754216 
1.6599999999998336, 0.08562909611787337 
1.6699999999998325, 0.07913834503925886 
1.6799999999998314, 0.06896943344128496 
1.6899999999998303, 0.054515596805101776 
1.6999999999998292, 0.037684883178723594 
1.709999999999828, 0.02308008569481489 
1.719999999999827, 0.013899688729986561 
1.729999999999826, 0.00948285228136395 
1.7399999999998248, 0.007679976693407276 
1.7499999999998237, 0.006960967475570455 
1.7599999999998226, 0.0066046693412827664 
1.7699999999998215, 0.0063294899420239265 
1.7799999999998204, 0.0060335483688222545 
1.7899999999998193, 0.0056763509177315645 
1.7999999999998182, 0.0052309307995679994 
1.809999999999817, 0.004662756813056496 
1.819999999999816, 0.003915917399018199 
1.8299999999998149, 0.0028974061744874375 
1.8399999999998138, 0.0014528386388666411 
1.8499999999998127, -0.0005559982921003808 
1.8599999999998116, -0.0033563232925409663 
1.8699999999998105, -0.007955422463618871 
1.8799999999998094, -0.015361519657052578 
1.8899999999998083, -0.026647820432736963 
1.8999999999998072, -0.041878770988328096 
1.909999999999806, -0.05856206018643242 
1.919999999999805, -0.0724278932115625 
1.9299999999998039, -0.08114633259324298 
1.9399999999998028, -0.08555414992947684 
1.9499999999998017, -0.0874953917291353 
1.9599999999998006, -0.08828381349456857 
1.9699999999997995, -0.08858335920921089 
1.9799999999997984, -0.08868538728798642 
1.9899999999997973, -0.08871329866649806 
1.9999999999997962, -0.0887229636260783 
2.0099999999998173, -0.08874673685768418 
2.0199999999998384, -0.08881352535759748 
2.0299999999998595, -0.08896014682600062 
2.0399999999998806, -0.08924049887802508 
2.0499999999999017, -0.08973545617605971 
2.059999999999923, -0.09056515610861346 
2.069999999999944, -0.09190445915840098 
2.079999999999965, -0.09399854037433106 
2.089999999999986, -0.09716208709507992 
2.100000000000007, -0.10171579532043921 
2.1100000000000283, -0.10778894468435737 
2.1200000000000494, -0.11500503578055657 
2.1300000000000705, -0.12236206861623108 
2.1400000000000916, -0.1286913156393861 
2.1500000000001127, -0.1333569865244744 
2.160000000000134, -0.13642197502557352 
2.170000000000155, -0.1382934318373497 
2.180000000000176, -0.13938296008996504 
2.190000000000197, -0.13998411376977724 
2.2000000000002182, -0.14027771638007175 
2.2100000000002393, -0.14036856166636713 
2.2200000000002604, -0.14031720674644627 
2.2300000000002815, -0.14016197239851796 
2.2400000000003026, -0.1399342974002216 
2.2500000000003237, -0.13967012751959898 
2.260000000000345, -0.13941763283767858 
2.270000000000366, -0.13923994444793777 
2.280000000000387, -0.1392122848245472 
2.290000000000408, -0.13941499531686277 
2.3000000000004293, -0.13992406157352894 
2.3100000000004504, -0.14079707359374047 
2.3200000000004715, -0.1420497935446274 
2.3300000000004926, -0.14362563625151428 
2.3400000000005137, -0.14537935281842213 
2.3500000000005348, -0.14710542833912205 
2.360000000000556, -0.14860996236882715 
2.370000000000577, -0.14977584423391055 
2.380000000000598, -0.15057554059656747 
2.390000000000619, -0.15103925600289386 
2.4000000000006403, -0.15121473021283813 
2.4100000000006614, -0.15114079794397364 
2.4200000000006825, -0.15083636772143666 
2.4300000000007036, -0.15029954725910152 
2.4400000000007247, -0.1495140325040805 
2.450000000000746, -0.1484636744284927 
2.460000000000767, -0.14715593443185443 
2.470000000000788, -0.14564711954094847 
2.480000000000809, -0.1440509568127722 
2.49000000000083, -0.1425146760809969 
2.5000000000008513, -0.1411727172090078 
2.5100000000008724, -0.14010982622948792 
2.5200000000008935, -0.13935272469927018 
2.5300000000009146, -0.13888205608923468 
2.5400000000009357, -0.1386477553597384 
2.550000000000957, -0.13858082086340634 
2.560000000000978, -0.13860388969607645 
2.570000000000999, -0.1386430347720432 
2.58000000000102, -0.13863796741716622 
2.5900000000010412, -0.13854569767278793 
2.6000000000010624, -0.13833608414509055 
2.6100000000010835, -0.13798168365215474 
2.6200000000011046, -0.13744472258024595 
2.6300000000011257, -0.13666186750906653 
2.6400000000011468, -0.1355261540446186 
2.650000000001168, -0.13386870490904304 
2.660000000001189, -0.13145609055388557 
2.67000000000121, -0.12804416221235101 
2.680000000001231, -0.12353473025179226 
2.6900000000012523, -0.11818218072974147 
2.7000000000012734, -0.1126184783967974 
2.7100000000012945, -0.10755326393642584 
2.7200000000013156, -0.10341917287732386 
2.7300000000013367, -0.10029019812715641 
2.740000000001358, -0.09802275761795395 
2.750000000001379, -0.0964096947144198 
2.7600000000014, -0.09526009566900802 
2.770000000001421, -0.09442223307675879 
2.780000000001442, -0.09378266168880607 
2.7900000000014633, -0.09325921137569147 
2.8000000000014844, -0.09279327131085632 
2.8100000000015055, -0.09234187339445041 
2.8200000000015266, -0.09186891331475741 
2.8300000000015477, -0.09133400778140285 
2.840000000001569, -0.0906752629047066 
2.85000000000159, -0.08977764203472952 
2.860000000001611, -0.08841152752401357 
2.870000000001632, -0.08612416358291335 
2.8800000000016532, -0.08211168557327816 
2.8900000000016743, -0.07529044576277659 
2.9000000000016954, -0.06503322363176049 
2.9100000000017165, -0.052390834388226906 
2.9200000000017377, -0.03996052599918841 
2.9300000000017588, -0.029886751588213654 
2.94000000000178, -0.0226932349358186 
2.950000000001801, -0.01786396477509662 
2.960000000001822, -0.014675129863929343 
2.970000000001843, -0.012548600604451957 
2.9800000000018643, -0.011094272696329729 
2.9900000000018854, -0.010063086810895128 
3.0000000000019065, -0.009297802413949 
3.0100000000019276, -0.008698617174333931 
3.0200000000019487, -0.008200934694763354 
3.03000000000197, -0.00775992951982969 
3.040000000001991, -0.007336953288996924 
3.050000000002012, -0.006881619183849689 
3.060000000002033, -0.006298183567162571 
3.070000000002054, -0.005373282683583655 
3.0800000000020753, -0.0036294185907584445 
3.0900000000020964, -0.00010907272397636044 
3.1000000000021175, 0.006206283621903586 
3.1100000000021386, 0.016704938769652244 
3.1200000000021597, 0.03008317848250259 
3.130000000002181, 0.042981024940734955 
3.140000000002202, 0.052905834946347985 
3.150000000002223, 0.05953121555869932 
3.160000000002244, 0.06364463247062889 
3.1700000000022652, 0.06611362091018737 
3.1800000000022863, 0.06756313762537412 
3.1900000000023074, 0.0683893910873275 
3.2000000000023285, 0.06883652093360518 
3.2100000000023496, 0.06905710654990135 
3.2200000000023707, 0.0691501943604164 
3.230000000002392, 0.06918516978418211 
3.240000000002413, 0.0692194617054715 
3.250000000002434, 0.06931649238972977 
3.260000000002455, 0.06957068633822802 
3.2700000000024763, 0.07014822956706022 
3.2800000000024974, 0.07134926214262655 
3.2900000000025185, 0.07366571903531616 
3.3000000000025396, 0.07770858787777636 
3.3100000000025607, 0.08378584747854931 
3.3200000000025818, 0.09127232687642603 
3.330000000002603, 0.09868392905241016 
3.340000000002624, 0.10472547655406503 
3.350000000002645, 0.10899366381790791 
3.360000000002666, 0.11173552239506099 
3.3700000000026873, 0.11337541485174969 
3.3800000000027084, 0.11427777560575222 
3.3900000000027295, 0.11470293156979905 
3.4000000000027506, 0.11482962819865516 
3.4100000000027717, 0.11478348654644374 
3.420000000002793, 0.11465638572696335 
3.430000000002814, 0.11451837360179837 
3.440000000002835, 0.11442686636651145 
3.450000000002856, 0.11443640889290145 
3.460000000002877, 0.1146100052635222 
3.4700000000028983, 0.11503077170943585 
3.4800000000029194, 0.1158085841840685 
3.4900000000029405, 0.11706827594315897 
3.5000000000029616, 0.11889889048304533 
3.5100000000029827, 0.12126187942580324 
3.520000000003004, 0.12392183617068295 
3.530000000003025, 0.12650385607544376 
3.540000000003046, 0.12866787374550415 
3.550000000003067, 0.1302411131536356 
3.5600000000030882, 0.1312136664688974 
3.5700000000031094, 0.13166022060251342 
3.5800000000031305, 0.13167586090573585 
3.5900000000031516, 0.1313520630300793 
3.6000000000031727, 0.13077866546609132 
3.6100000000031938, 0.13005079117285887 
3.620000000003215, 0.12926683132051653 
3.630000000003236, 0.12851622341908056 
3.640000000003257, 0.12786658351788277 
3.650000000003278, 0.12735985590294796 
3.6600000000032993, 0.12701829239553855 
3.6700000000033204, 0.12685398817680707 
3.6800000000033415, 0.12687523952536867 
3.6900000000033626, 0.12708580167900702 
3.7000000000033837, 0.1274761634581697 
3.710000000003405, 0.12801003284765775 
3.720000000003426, 0.12861487701492855 
3.730000000003447, 0.12918719486996433 
3.740000000003468, 0.12961367459412487 
3.750000000003489, 0.12979422595215673 
3.7600000000035103, 0.1296507214462101 
3.7700000000035314, 0.12912031533382817 
3.7800000000035525, 0.12814764961783226 
3.7900000000035736, 0.12669419483515526 
3.8000000000035947, 0.12477454830763612 
3.810000000003616, 0.12250441387511238 
3.820000000003637, 0.12011048192308418 
3.830000000003658, 0.11786046505942263 
3.840000000003679, 0.11595309952332007 
3.8500000000037002, 0.11446087092082909 
3.8600000000037213, 0.11335462874376907 
3.8700000000037424, 0.11256064386900018 
3.8800000000037635, 0.11200220963463867 
3.8900000000037847, 0.11161545963070492 
3.9000000000038058, 0.11134854129436456 
3.910000000003827, 0.11115386696870837 
3.920000000003848, 0.11097912866654973 
3.930000000003869, 0.11075994432657152 
3.94000000000389, 0.11041482101797731 
3.9500000000039113, 0.1098403453212932 
3.9600000000039324, 0.10890237197831062 
3.9700000000039535, 0.10742100865690044 
3.9800000000039746, 0.105157822672123 
3.9900000000039957, 0.10183816145810372 
4.000000000004016, 0.09727359252432019 
4.010000000003993, 0.09161862308282945 
4.02000000000397, 0.0855718899998141 
4.030000000003946, 0.08012642572547515 
4.040000000003923, 0.07594925165822344 
4.0500000000039, 0.07309384159732873 
4.0600000000038765, 0.07124555961753712 
4.070000000003853, 0.07004560201009476 
4.08000000000383, 0.06922881755855345 
4.090000000003807, 0.06862843201103581 
4.100000000003783, 0.06814260484411237 
4.11000000000376, 0.06770312744375041 
4.120000000003737, 0.067253065900024 
4.130000000003713, 0.06673050475703715 
4.14000000000369, 0.06605443271615338 
4.150000000003667, 0.06510872909470108 
4.1600000000036434, 0.0637192873160126 
4.17000000000362, 0.06161916557028818 
4.180000000003597, 0.05840439916532335 
4.1900000000035735, 0.05351814247009455 
4.20000000000355, 0.04639202599240747 
4.210000000003527, 0.036953658868395564 
4.220000000003504, 0.02634643170072718 
4.23000000000348, 0.016744891799750507 
4.240000000003457, 0.009760671296294682 
4.250000000003434, 0.005449138265501023 
4.26000000000341, 0.0029863213778924306 
4.270000000003387, 0.0015643410131937492 
4.280000000003364, 0.0006731603037336474 
4.2900000000033405, 0.000041120044294670416 
4.300000000003317, -0.00006853089366236784 
4.310000000003294, -0.00009897238302999309 
4.320000000003271, -0.00013507926593200347 
4.330000000003247, -0.000224242434512315 
4.340000000003224, -0.0004251243864680585 
4.350000000003201, -0.0008212257638383873 
4.360000000003177, -0.0015375626116442482 
4.370000000003154, -0.0027645638258161527 
4.380000000003131, -0.004791797652862639 
4.390000000003107, -0.008042543261947414 
4.400000000003084, -0.013059057300533338 
4.410000000003061, -0.02030354003933658 
4.4200000000030375, -0.029628074763046693 
4.430000000003014, -0.039724548959261786 
4.440000000002991, -0.04857015837304543 
4.450000000002968, -0.05487658543158434 
4.460000000002944, -0.05871589640996242 
4.470000000002921, -0.060840241266959215 
4.480000000002898, -0.061961290897000344 
4.490000000002874, -0.06253672511313428 
4.500000000002851, -0.06281957654810352 
4.510000000002828, -0.06294403013434476 
4.520000000002804, -0.06298433983818973 
4.530000000002781, -0.06298837838781296 
4.540000000002758, -0.06299687885784741 
4.5500000000027345, -0.06305596022142407 
4.560000000002711, -0.06322679057444561 
4.570000000002688, -0.0635942364051291 
4.580000000002665, -0.0642757093376883 
4.590000000002641, -0.06543046267264854 
4.600000000002618, -0.06726457186940227 
4.610000000002595, -0.07001291380515187 
4.620000000002571, -0.07385899499001725 
4.630000000002548, -0.07876184999008737 
4.640000000002525, -0.08427364560023129 
4.6500000000025015, -0.08960093942382077 
4.660000000002478, -0.09401153527599619 
4.670000000002455, -0.09720697610183943 
4.6800000000024315, -0.0993034800223225 
4.690000000002408, -0.10058499583733212 
4.700000000002385, -0.101318074025797 
4.710000000002362, -0.10169241399332958 
4.720000000002338, -0.10182740737934655 
4.730000000002315, -0.10179491460908377 
4.740000000002292, -0.10164004842282962 
4.750000000002268, -0.10139730802469185 
4.760000000002245, -0.1011030941808383 
4.770000000002222, -0.10080470534099799 
4.7800000000021985, -0.10056449361173443 
4.790000000002175, -0.10045835778365989 
4.800000000002152, -0.10057010517103662 
4.810000000002129, -0.10098404337956361 
4.820000000002105, -0.10177449675281303 
4.830000000002082, -0.10298569015503481 
4.840000000002059, -0.1045978299487302 
