t, s[1].omega / s[0].omega 
0, -0.6399977148600652 
0.009999999999999995, -0.639777956646018 
0.019999999999999934, -0.6395666128211013 
0.029999999999999874, -0.6393412943178485 
0.04000000000000012, -0.6390763353401384 
0.050000000000000405, -0.6387531351494005 
0.06000000000000069, -0.6383660013207766 
0.07000000000000098, -0.6379230848536469 
0.08000000000000126, -0.6374455158015573 
0.09000000000000155, -0.6369683465705094 
0.10000000000000184, -0.636545500472056 
0.11000000000000212, -0.6362595028141796 
0.12000000000000241, -0.636235937240477 
0.130000000000002, -0.6366619029270153 
0.1400000000000009, -0.6378066610073665 
0.1499999999999998, -0.6400405228239697 
0.1599999999999987, -0.6438435635776061 
0.1699999999999976, -0.6497862767446215 
0.1799999999999965, -0.658447199301678 
0.1899999999999954, -0.6702151086806085 
0.1999999999999943, -0.6849479348847866 
0.2099999999999932, -0.7016128321616986 
0.2199999999999921, -0.718291429222141 
0.229999999999991, -0.7328816408316652 
0.2399999999999899, -0.7440932567906278 
0.2499999999999888, -0.7518296179231703 
0.2599999999999877, -0.7567662056951687 
0.2699999999999866, -0.7597485553917935 
0.2799999999999855, -0.7614632022036248 
0.2899999999999844, -0.762370812269985 
0.2999999999999833, -0.7627480060535359 
0.3099999999999822, -0.7627428270636107 
0.3199999999999811, -0.7624127367056416 
0.32999999999998, -0.7617407784426254 
0.3399999999999789, -0.7606305730540814 
0.3499999999999778, -0.758878239707566 
0.35999999999997667, -0.7561163047766142 
0.36999999999997557, -0.7517295683314981 
0.37999999999997447, -0.744776949024071 
0.38999999999997337, -0.7340514887015137 
0.39999999999997227, -0.718539942641475 
0.40999999999997117, -0.6983844360532815 
0.41999999999997006, -0.6756299280880886 
0.42999999999996896, -0.6535627526804009 
0.43999999999996786, -0.6349413178440907 
0.44999999999996676, -0.6208962693438116 
0.45999999999996566, -0.6111630186899503 
0.46999999999996456, -0.6048390176858975 
0.47999999999996346, -0.6009458506314502 
0.48999999999996235, -0.59867254790394 
0.49999999999996125, -0.5974249414526789 
0.5099999999999602, -0.5967970705903283 
0.519999999999959, -0.5965238523867138 
0.529999999999958, -0.5964374930084937 
0.5399999999999568, -0.5964336917205306 
0.5499999999999557, -0.5964477412967312 
0.5599999999999546, -0.5964390277531717 
0.5699999999999535, -0.5963823894115692 
0.5799999999999524, -0.5962649744973916 
0.5899999999999513, -0.5960867997464566 
0.5999999999999502, -0.5958619561401087 
0.6099999999999491, -0.5956165040450194 
0.619999999999948, -0.5953806564306164 
0.6299999999999469, -0.5951771037621377 
0.6399999999999458, -0.595011051671498 
0.6499999999999447, -0.5948674176201757 
0.6599999999999436, -0.594716858999096 
0.6699999999999425, -0.5945274057519587 
0.6799999999999414, -0.5942754981209586 
0.6899999999999403, -0.5939515998470204 
0.6999999999999392, -0.5935602067823049 
0.7099999999999381, -0.5931177991252515 
0.719999999999937, -0.5926527627053187 
0.7299999999999359, -0.5922099556794924 
0.7399999999999348, -0.5918616075195826 
0.7499999999999337, -0.5917262954966093 
0.7599999999999326, -0.5919983309764008 
0.7699999999999315, -0.5929899607442348 
0.7799999999999304, -0.5951864073531457 
0.7899999999999293, -0.5993043569985249 
0.7999999999999282, -0.6063181042451771 
0.8099999999999271, -0.6173607375936176 
0.819999999999926, -0.6333351518306133 
0.8299999999999249, -0.6541253832001117 
0.8399999999999238, -0.67778642735175 
0.8499999999999227, -0.7008027464851662 
0.8599999999999216, -0.7198903458661111 
0.8699999999999205, -0.7337017923245674 
0.8799999999999194, -0.742771485777404 
0.8899999999999183, -0.7483900050083434 
0.8999999999999172, -0.7517578537532437 
0.9099999999999161, -0.7537226345385677 
0.919999999999915, -0.7548134070090584 
0.9299999999999139, -0.7553388007929205 
0.9399999999999128, -0.7554657733274263 
0.9499999999999117, -0.7552667544266274 
0.9599999999999106, -0.7547405940439094 
0.9699999999999095, -0.7538125026057685 
0.9799999999999084, -0.7523149024108842 
0.9899999999999073, -0.749951109672516 
0.9999999999999062, -0.7462549617332408 
1.0099999999999052, -0.7405941704484034 
1.019999999999904, -0.7323181836750161 
1.029999999999903, -0.7211342273522497 
1.039999999999902, -0.7075536607150336 
1.0499999999999008, -0.6929440456841355 
1.0599999999998997, -0.6789661302847542 
1.0699999999998986, -0.666868051464611 
1.0799999999998975, -0.6571956406130951 
1.0899999999998964, -0.6499270355647988 
1.0999999999998953, -0.6447373850694562 
1.1099999999998942, -0.6412030008923228 
1.119999999999893, -0.6389122224665547 
1.129999999999892, -0.6375120940687515 
1.1399999999998909, -0.6367212287808726 
1.1499999999998898, -0.636326838271746 
1.1599999999998887, -0.6361748398994538 
1.1699999999998876, -0.6361575717304312 
1.1799999999998865, -0.6362017966782354 
1.1899999999998854, -0.6362587500075257 
1.1999999999998843, -0.636297299489638 
1.2099999999998832, -0.6363005296210521 
1.219999999999882, -0.6362649270796686 
1.229999999999881, -0.6361998553107586 
1.2399999999998799, -0.6361241778227956 
1.2499999999998788, -0.6360583236699425 
1.2599999999998777, -0.6360137675293785 
1.2699999999998766, -0.6359850680728946 
1.2799999999998755, -0.6359493572566255 
1.2899999999998744, -0.6358742433921754 
1.2999999999998733, -0.6357299180503936 
1.3099999999998722, -0.6354988233451225 
1.319999999999871, -0.6351789730453112 
1.32999999999987, -0.6347823222371595 
1.3399999999998689, -0.6343325919130656 
1.3499999999998678, -0.6338664252557353 
1.3599999999998666, -0.6334399854572323 
1.3699999999998655, -0.6331420465307711 
1.3799999999998644, -0.6331143573442773 
1.3899999999998633, -0.6335796936952768 
1.3999999999998622, -0.6348764810183554 
1.4099999999998611, -0.6374946715475692 
1.41999999999986, -0.6420977320510328 
1.429999999999859, -0.6494949535468457 
1.4399999999998578, -0.6604942817744256 
1.4499999999998567, -0.6755439703362799 
1.4599999999998556, -0.6941658486865002 
1.4699999999998545, -0.714528640764828 
1.4799999999998534, -0.7338421540074451 
1.4899999999998523, -0.7496868504997238 
1.4999999999998512, -0.7611336829911259 
1.5099999999998501, -0.7686522753654873 
1.519999999999849, -0.7732899977802622 
1.529999999999848, -0.7760318490769726 
1.5399999999998468, -0.7775824341758534 
1.5499999999998457, -0.7783830272044373 
1.5599999999998446, -0.7786871790709626 
1.5699999999998435, -0.7786238150138202 
1.5799999999998424, -0.7782338469664735 
1.5899999999998413, -0.7774823509303678 
1.5999999999998402, -0.7762482272018728 
1.6099999999998391, -0.7742892579366029 
1.619999999999838, -0.7711789203025163 
1.629999999999837, -0.766223261521653 
1.6399999999998358, -0.7584169916567722 
1.6499999999998347, -0.746609558363999 
1.6599999999998336, -0.7301168012916076 
1.6699999999998325, -0.7096539354108826 
1.6799999999998314, -0.6876588648235836 
1.6899999999998303, -0.6672207757886365 
1.6999999999998292, -0.6505090714739652 
1.709999999999828, -0.6381666514731088 
1.719999999999827, -0.6297380253669485 
1.729999999999826, -0.6243337227606023 
1.7399999999998248, -0.6210603956780769 
1.7499999999998237, -0.6191936990560699 
1.7599999999998226, -0.6182064464029301 
1.7699999999998215, -0.6177395896989013 
1.7799999999998204, -0.6175596105895028 
1.7899999999998193, -0.6175194127293654 
1.7999999999998182, -0.6175277639942455 
1.809999999999817, -0.6175276640680258 
1.819999999999816, -0.6174825934489144 
1.8299999999998149, -0.6173694555813862 
1.8399999999998138, -0.617176969265829 
1.8499999999998127, -0.6169074373362544 
1.8599999999998116, -0.6165782250081868 
1.8699999999998105, -0.6162186696541945 
1.8799999999998094, -0.615860772941861 
1.8899999999998083, -0.6155270631998768 
1.8999999999998072, -0.6152220469642321 
1.909999999999806, -0.6149318794576447 
1.919999999999805, -0.6146320403052982 
1.9299999999998039, -0.6142984541022307 
1.9399999999998028, -0.6139163964583144 
1.9499999999998017, -0.6134843240287535 
1.9599999999998006, -0.6130139368823146 
1.9699999999997995, -0.6125299574422867 
1.9799999999997984, -0.6120726681659475 
1.9899999999997973, -0.611704889542726 
1.9999999999997962, -0.6115241624948552 
2.0099999999998173, -0.6116805075773574 
2.0199999999998384, -0.6123996946000193 
2.0299999999998595, -0.6140106947626511 
2.0399999999998806, -0.6169725649096529 
2.0499999999999017, -0.6218875160625937 
2.059999999999923, -0.6294683313657237 
2.069999999999944, -0.640397581858159 
2.079999999999965, -0.6549982372219734 
2.089999999999986, -0.6727275191272692 
2.100000000000007, -0.6918245715484803 
2.1100000000000283, -0.7097226355972012 
2.1200000000000494, -0.72427648574993 
2.1300000000000705, -0.7347317190256963 
2.1400000000000916, -0.741581323741223 
2.1500000000001127, -0.7458047167194931 
2.160000000000134, -0.7483017719870488 
2.170000000000155, -0.7497100705224828 
2.180000000000176, -0.7504268852795458 
2.190000000000197, -0.7506789377729717 
2.2000000000002182, -0.7505788046283752 
2.2100000000002393, -0.7501565564494952 
2.2200000000002604, -0.7493685563761473 
2.2300000000002815, -0.7480848651519888 
2.2400000000003026, -0.7460535734666357 
2.2500000000003237, -0.7428416464099479 
2.260000000000345, -0.7377705603379272 
2.270000000000366, -0.7299241540059632 
2.280000000000387, -0.7183995273422752 
2.290000000000408, -0.7029338950354204 
2.3000000000004293, -0.6845821158966527 
2.3100000000004504, -0.6656121860990664 
2.3200000000004715, -0.6484112207560144 
2.3300000000004926, -0.6344259039074118 
2.3400000000005137, -0.6239680868282422 
2.3500000000005348, -0.6166280245783827 
2.360000000000556, -0.6117326891491863 
2.370000000000577, -0.6086168905956869 
2.380000000000598, -0.6067302603037185 
2.390000000000619, -0.6056566393061045 
2.4000000000006403, -0.6050983504746357 
2.4100000000006614, -0.6048507465046391 
2.4200000000006825, -0.6047772917207423 
2.4300000000007036, -0.6047887687096486 
2.4400000000007247, -0.6048275814053495 
2.450000000000746, -0.6048571727779851 
2.460000000000767, -0.6048561873182121 
2.470000000000788, -0.6048165122270891 
2.480000000000809, -0.6047433013748945 
2.49000000000083, -0.6046538687188372 
2.5000000000008513, -0.604572412221662 
2.5100000000008724, -0.6045201654788618 
2.5200000000008935, -0.6045045371933823 
2.5300000000009146, -0.6045128915327245 
2.5400000000009357, -0.604514986511656 
2.550000000000957, -0.6044734540255302 
2.560000000000978, -0.6043567690946466 
2.570000000000999, -0.6041478967816886 
2.58000000000102, -0.6038458091307183 
2.5900000000010412, -0.6034624990699794 
2.6000000000010624, -0.6030203080702881 
2.6100000000010835, -0.6025532633656899 
2.6200000000011046, -0.6021145145888258 
2.6300000000011257, -0.6017915850037066 
2.6400000000011468, -0.6017318590761065 
2.650000000001168, -0.6021815284067873 
2.660000000001189, -0.6035405249893454 
2.67000000000121, -0.6064303446825543 
2.680000000001231, -0.6117530415937078 
2.6900000000012523, -0.6206733289782861 
2.7000000000012734, -0.6343745962421304 
2.7100000000012945, -0.6534001972117063 
2.7200000000013156, -0.6766767879865455 
2.7300000000013367, -0.7011126987433774 
2.740000000001358, -0.7228711069162571 
2.750000000001379, -0.739533628776538 
2.7600000000014, -0.750904606539648 
2.770000000001421, -0.7581129059123937 
2.780000000001442, -0.7624969103961655 
2.7900000000014633, -0.765094072921865 
2.8000000000014844, -0.766582355348853 
2.8100000000015055, -0.7673695372543745 
2.8200000000015266, -0.7676863918014364 
2.8300000000015477, -0.7676491181252499 
2.840000000001569, -0.7672923145915069 
2.85000000000159, -0.7665787189148289 
2.860000000001611, -0.7653889553084282 
2.870000000001632, -0.763491997882016 
2.8800000000016532, -0.7605010006180841 
2.8900000000016743, -0.7558404830310319 
2.9000000000016954, -0.7488004605606655 
2.9100000000017165, -0.7387969002962692 
2.9200000000017377, -0.7258497654614382 
2.9300000000017588, -0.7109401499512374 
2.94000000000178, -0.6957612087947154 
2.950000000001801, -0.6819568454630455 
2.960000000001822, -0.6705205276322141 
2.970000000001843, -0.6617181007257268 
2.9800000000018643, -0.655332840930119 
2.9900000000018854, -0.6509353072943566 
3.0000000000019065, -0.6480578157027664 
3.0100000000019276, -0.6462792898194065 
3.0200000000019487, -0.6452560585640037 
3.03000000000197, -0.644725379692943 
3.040000000001991, -0.6444963798227625 
3.050000000002012, -0.6444360102111887 
3.060000000002033, -0.6444542788104495 
3.070000000002054, -0.644491333958457 
3.0800000000020753, -0.6445079107788428 
3.0900000000020964, -0.6444798218988718 
3.1000000000021175, -0.6443962161283283 
3.1100000000021386, -0.6442598921716156 
3.1200000000021597, -0.644086443558204 
3.130000000002181, -0.6438990732619762 
3.140000000002202, -0.6437188711740955 
3.150000000002223, -0.6435545529270361 
3.160000000002244, -0.6433973642434739 
3.1700000000022652, -0.6432243394737418 
3.1800000000022863, -0.6430081508352854 
3.1900000000023074, -0.6427279447498824 
3.2000000000023285, -0.6423759014060929 
3.2100000000023496, -0.6419584254157196 
3.2200000000023707, -0.6414949124319397 
3.230000000002392, -0.6410179857866217 
3.240000000002413, -0.6405777493534012 
3.250000000002434, -0.6402510632953202 
3.260000000002455, -0.6401559487739228 
3.2700000000024763, -0.6404705709461391 
3.2800000000024974, -0.6414551747809718 
3.2900000000025185, -0.6434732204905554 
3.3000000000025396, -0.6470036496667078 
3.3100000000025607, -0.6526272499355971 
3.3200000000025818, -0.6609535349740042 
3.330000000002603, -0.6724353879505374 
3.340000000002624, -0.6870339240841867 
3.350000000002645, -0.7038314154100257 
3.360000000002666, -0.7209574766012975 
3.3700000000026873, -0.7362183680224067 
3.3800000000027084, -0.7481356956803074 
3.3900000000027295, -0.7564590034663368 
3.4000000000027506, -0.7618131319045525 
3.4100000000027717, -0.7650665375704078 
3.420000000002793, -0.7669504154368287 
3.430000000002814, -0.7679643466067898 
3.440000000002835, -0.7684121728327494 
3.450000000002856, -0.7684599812138425 
3.460000000002877, -0.7681781091373379 
3.4700000000028983, -0.7675609349520583 
3.4800000000029194, -0.7665252678116924 
3.4900000000029405, -0.7648860554140131 
3.5000000000029616, -0.7623046081453377 
3.5100000000029827, -0.7582068886761271 
3.520000000003004, -0.7516958546212773 
3.530000000003025, -0.7415678563169018 
3.540000000003046, -0.7266838796570311 
3.550000000003067, -0.7068845330277929 
3.5600000000030882, -0.6839094839292544 
3.5700000000031094, -0.6610399882989816 
3.5800000000031305, -0.641348275419531 
3.5900000000031516, -0.6263077161535737 
3.6000000000031727, -0.6158243061869564 
3.6100000000031938, -0.6090083752224706 
3.620000000003215, -0.6048240345307592 
3.630000000003236, -0.6023929623760244 
3.640000000003257, -0.6010673840315064 
3.650000000003278, -0.600405144820477 
3.6600000000032993, -0.6001190215090637 
3.6700000000033204, -0.600028628803512 
3.6800000000033415, -0.6000228995767072 
3.6900000000033626, -0.6000335501315884 
3.7000000000033837, -0.6000178270630535 
3.710000000003405, -0.5999487340116278 
3.720000000003426, -0.5998112584832737 
3.730000000003447, -0.5996028819967201 
3.740000000003468, -0.5993354517173811 
3.750000000003489, -0.599034274562185 
3.7600000000035103, -0.5987313390548515 
3.7700000000035314, -0.5984537496145808 
3.7800000000035525, -0.5982127752934374 
3.7900000000035736, -0.5979994256362084 
3.8000000000035947, -0.597788894392459 
3.810000000003616, -0.5975512872742508 
3.820000000003637, -0.5972628269868513 
3.830000000003658, -0.5969124792693983 
3.840000000003679, -0.5965030975526664 
3.8500000000037002, -0.5960500447704065 
3.8600000000037213, -0.5955811769745749 
3.8700000000037424, -0.5951409373432113 
3.8800000000037635, -0.5948001876516396 
3.8900000000037847, -0.5946731592199639 
3.9000000000038058, -0.5949431672464233 
3.910000000003827, -0.5958986116376022 
3.920000000003848, -0.5979787848353731 
3.930000000003869, -0.6018217869243054 
3.94000000000389, -0.6082871476885081 
3.9500000000039113, -0.6183829755859388 
3.9600000000039324, -0.632967516413905 
3.9700000000039535, -0.6521117996920718 
3.9800000000039746, -0.6743427504782461 
3.9900000000039957, -0.6966185215285188 
4.000000000004016, -0.7157079933573884 
4.010000000003993, -0.7299173605354999 
4.02000000000397, -0.7394279356626711 
4.030000000003946, -0.7453764607427811 
4.040000000003923, -0.7489527218961196 
4.0500000000039, -0.751039237727763 
4.0600000000038765, -0.752199270222562 
4.070000000003853, -0.7527647693362307 
4.08000000000383, -0.7529170867828658 
4.090000000003807, -0.7527378268780379 
4.100000000003783, -0.7522327211437985 
4.11000000000376, -0.7513335634499312 
4.120000000003737, -0.7498800447595876 
4.130000000003713, -0.7475821484521882 
4.14000000000369, -0.7439723986582274 
4.150000000003667, -0.7383895454646863 
4.1600000000036434, -0.7300959393937095 
4.17000000000362, -0.7186470589568061 
4.180000000003597, -0.7044167899235518 
4.1900000000035735, -0.6887864781758715 
4.20000000000355, -0.6736116251708167 
4.210000000003527, -0.6603818834947124 
4.220000000003504, -0.6497943929362326 
4.23000000000348, -0.6418630791965125 
4.240000000003457, -0.6362287167240093 
4.250000000003434, -0.6324109323681245 
4.26000000000341, -0.6299454314714434 
4.270000000003387, -0.6284395094267448 
4.280000000003364, -0.6275849682016957 
4.2900000000033405, -0.6271522078721676 
4.300000000003317, -0.6269771309845725 
4.310000000003294, -0.6269463347130331 
4.320000000003271, -0.6269833865121297 
4.330000000003247, -0.6270377490866108 
4.340000000003224, -0.6270771982811577 
4.350000000003201, -0.6270839158115391 
4.360000000003177, -0.6270534561706249 
4.370000000003154, -0.6269943872260668 
4.380000000003131, -0.6269254415175493 
4.390000000003107, -0.626868105481506 
4.400000000003084, -0.6268360552459357 
4.410000000003061, -0.6268263013637412 
4.4200000000030375, -0.6268172803827115 
4.430000000003014, -0.6267757172912349 
4.440000000002991, -0.626668820227782 
4.450000000002968, -0.6264750740208671 
4.460000000002944, -0.6261887536051843 
4.470000000002921, -0.6258186452527467 
4.480000000002898, -0.6253852509132933 
4.490000000002874, -0.624920754611424 
4.500000000002851, -0.6244742831864125 
4.510000000002828, -0.62412384439069 
4.520000000002804, -0.6239962049632005 
4.530000000002781, -0.6242960696894311 
4.540000000002758, -0.6253450610176456 
4.5500000000027345, -0.6276274303880982 
4.560000000002711, -0.6318296311999307 
4.570000000002688, -0.6388381109045396 
4.580000000002665, -0.6496174002587749 
4.590000000002641, -0.6648485470079399 
4.600000000002618, -0.6842794019837208 
4.610000000002595, -0.7061202128881405 
4.620000000002571, -0.7273087296227605 
4.630000000002548, -0.744975526027577 
4.640000000002525, -0.7578671165770656 
4.6500000000025015, -0.7663831775250787 
4.660000000002478, -0.7716586002366367 
4.670000000002455, -0.7747971532997048 
4.6800000000024315, -0.7765970665884824 
4.690000000002408, -0.7775613702209164 
4.700000000002385, -0.7779823579806361 
4.710000000002362, -0.7780142330807744 
4.720000000002338, -0.7777169187078457 
4.730000000002315, -0.7770737997165822 
4.740000000002292, -0.7759867690358241 
4.750000000002268, -0.7742480142969179 
4.760000000002245, -0.7714860616840709 
4.770000000002222, -0.7670931161190099 
4.7800000000021985, -0.7601825873260675 
4.790000000002175, -0.7497183176474447 
4.800000000002152, -0.7350172859196589 
4.810000000002129, -0.7165529125565249 
4.820000000002105, -0.6963198228244853 
4.830000000002082, -0.6770392050161267 
4.840000000002059, -0.6608090062530492 
4.850000000002035, -0.6484445148935858 
4.860000000002012, -0.6397274688540233 
4.870000000001989, -0.6339540379987182 
4.880000000001965, -0.6303379726432806 
4.890000000001942, -0.6281999127783353 
4.900000000001919, -0.6270202323664457 
4.9100000000018955, -0.626429620619744 
4.920000000001872, -0.626178750080711 
