t, s[1].omega / s[0].omega 
0, -0.9600547906070231 
0.009999999999999995, -0.9651209370563301 
0.019999999999999934, -0.9692042110706616 
0.029999999999999874, -0.9722142820873712 
0.04000000000000012, -0.9742395766384035 
0.050000000000000405, -0.9754675206635524 
0.06000000000000069, -0.9761011883176162 
0.07000000000000098, -0.9763095394084795 
0.08000000000000126, -0.9762136905550776 
0.09000000000000155, -0.9758954354944042 
0.10000000000000184, -0.9754173088049264 
0.11000000000000212, -0.974851988267013 
0.12000000000000241, -0.9743232495551041 
0.130000000000002, -0.9740548882590494 
0.1400000000000009, -0.9744038422281063 
0.1499999999999998, -0.975829906363229 
0.1599999999999987, -0.9787655908427719 
0.1699999999999976, -0.9834235813530222 
0.1799999999999965, -0.9896558087004947 
0.1899999999999954, -0.9969555867891973 
0.1999999999999943, -1.0045921833719074 
0.2099999999999932, -1.0118040973252693 
0.2199999999999921, -1.0179843636183892 
0.229999999999991, -1.0228058300512335 
0.2399999999999899, -1.026242099575325 
0.2499999999999888, -1.0284830347725047 
0.2599999999999877, -1.0298056882797622 
0.2699999999999866, -1.0304725367297463 
0.2799999999999855, -1.0306850983553706 
0.2899999999999844, -1.0305802997325184 
0.2999999999999833, -1.0302481181201437 
0.3099999999999822, -1.0297589240061118 
0.3199999999999811, -1.0291996224998612 
0.32999999999998, -1.028719824240543 
0.3399999999999789, -1.0285765214102387 
0.3499999999999778, -1.0291390027372809 
0.35999999999997667, -1.0308049202119263 
0.36999999999997557, -1.0338332627603133 
0.37999999999997447, -1.0381963845374889 
0.38999999999997337, -1.0435629516687588 
0.39999999999997227, -1.0494106838809372 
0.40999999999997117, -1.0551773627791938 
0.41999999999997006, -1.0603800623142583 
0.42999999999996896, -1.0646901044047068 
0.43999999999996786, -1.0679671635292345 
0.44999999999996676, -1.0702458660425205 
0.45999999999996566, -1.0716774562762552 
0.46999999999996456, -1.0724549905725502 
0.47999999999996346, -1.0727565132752452 
0.48999999999996235, -1.0727205624262597 
0.49999999999996125, -1.072448378886099 
0.5099999999999602, -1.0720224026433842 
0.519999999999959, -1.0715343978039262 
0.529999999999958, -1.0711167829046135 
0.5399999999999568, -1.070961055028769 
0.5499999999999557, -1.0712959173729857 
0.5599999999999546, -1.0723124572002294 
0.5699999999999535, -1.0740749809998626 
0.5799999999999524, -1.076486930282523 
0.5899999999999513, -1.079334986458324 
0.5999999999999502, -1.0823662226935247 
0.6099999999999491, -1.0853459304374 
0.619999999999948, -1.0880823875408863 
0.6299999999999469, -1.0904329971319444 
0.6399999999999458, -1.0923076153876712 
0.6499999999999447, -1.0936726221010855 
0.6599999999999436, -1.094548882082813 
0.6699999999999425, -1.0949978630759305 
0.6799999999999414, -1.0951002299299981 
0.6899999999999403, -1.0949378591125156 
0.6999999999999392, -1.0945872843319169 
0.7099999999999381, -1.0941253788221623 
0.719999999999937, -1.0936419151994856 
0.7299999999999359, -1.0932482287013836 
0.7399999999999348, -1.0930681603520322 
0.7499999999999337, -1.0932058472916846 
0.7599999999999326, -1.0937069528509489 
0.7699999999999315, -1.094542404919829 
0.7799999999999304, -1.0956253171346713 
0.7899999999999293, -1.0968442390220132 
0.7999999999999282, -1.0980912107753853 
0.8099999999999271, -1.0992762102235942 
0.819999999999926, -1.1003302912067578 
0.8299999999999249, -1.101202873248982 
0.8399999999999238, -1.1018581766806759 
0.8499999999999227, -1.1022739482469421 
0.8599999999999216, -1.1024427692861603 
0.8699999999999205, -1.1023736206171126 
0.8799999999999194, -1.1020912935226375 
0.8899999999999183, -1.1016339925536642 
0.8999999999999172, -1.1010518226452632 
0.9099999999999161, -1.1004075740472874 
0.919999999999915, -1.0997769328926885 
0.9299999999999139, -1.0992421917264747 
0.9399999999999128, -1.0988766339053941 
0.9499999999999117, -1.0987254499135015 
0.9599999999999106, -1.0987939167924186 
0.9699999999999095, -1.0990482662867092 
0.9799999999999084, -1.099426636604471 
0.9899999999999073, -1.09985461038593 
0.9999999999999062, -1.1002599084925975 
1.0099999999999052, -1.1005819482044088 
1.019999999999904, -1.1007752698533706 
1.029999999999903, -1.100809018265458 
1.039999999999902, -1.1006649968639837 
1.0499999999999008, -1.1003354936723673 
1.0599999999998997, -1.099821489158082 
1.0699999999998986, -1.0991320508284215 
1.0799999999998975, -1.0982854293667252 
1.0899999999998964, -1.097311510090147 
1.0999999999998953, -1.0962545651667166 
1.1099999999998942, -1.0951745897132337 
1.119999999999893, -1.094144758392156 
1.129999999999892, -1.0932428813218167 
1.1399999999998909, -1.092536925360253 
1.1499999999998898, -1.0920675377581548 
1.1599999999998887, -1.0918335561647607 
1.1699999999998876, -1.091788941017025 
1.1799999999998865, -1.0918556978145917 
1.1899999999998854, -1.0919458150510715 
1.1999999999998843, -1.0919786376982334 
1.2099999999998832, -1.0918868410583387 
1.219999999999882, -1.0916148282401228 
1.229999999999881, -1.0911170273582869 
1.2399999999998799, -1.0903601522085906 
1.2499999999998788, -1.0893280970241803 
1.2599999999998777, -1.0880252559156394 
1.2699999999998766, -1.0864758711579323 
1.2799999999998755, -1.0847213128076671 
1.2899999999998744, -1.0828190772644652 
1.2999999999998733, -1.080844981458503 
1.3099999999998722, -1.0788960358954958 
1.319999999999871, -1.0770884235217975 
1.32999999999987, -1.075543937711805 
1.3399999999998689, -1.0743614120115268 
1.3499999999998678, -1.0735809512904713 
1.3599999999998666, -1.0731632115156253 
1.3699999999998655, -1.073003192708975 
1.3799999999998644, -1.0729704205536184 
1.3899999999998633, -1.0729456266294561 
1.3999999999998622, -1.0728339231554538 
1.4099999999998611, -1.072557662790355 
1.41999999999986, -1.0720427934505055 
1.429999999999859, -1.0712103024742161 
1.4399999999998578, -1.0699792229021088 
1.4499999999998567, -1.0682822993335355 
1.4599999999998556, -1.0660881643396682 
1.4699999999998545, -1.0634182698992756 
1.4799999999998534, -1.0603503683201394 
1.4899999999998523, -1.0570115570718512 
1.4999999999998512, -1.053570039526859 
1.5099999999998501, -1.0502285390280903 
1.519999999999849, -1.047210466826749 
1.529999999999848, -1.044724849132093 
1.5399999999998468, -1.0429084537719615 
1.5499999999998457, -1.0417725535231166 
1.5599999999998446, -1.0411977276782522 
1.5699999999998435, -1.0409887283305204 
1.5799999999998424, -1.040948986415994 
1.5899999999998413, -1.0409255931991062 
1.5999999999998402, -1.040812478839428 
1.6099999999998391, -1.0405296192853277 
1.619999999999838, -1.0399980907607826 
1.629999999999837, -1.0391216830551662 
1.6399999999998358, -1.037781043614091 
1.6499999999998347, -1.0358463089200143 
1.6599999999998336, -1.0332109519856396 
1.6699999999998325, -1.0298373126092124 
1.6799999999998314, -1.0257910867491504 
1.6899999999998303, -1.0212462588556603 
1.6999999999998292, -1.0164635194738019 
1.709999999999828, -1.0117580559063108 
1.719999999999827, -1.0074623855592868 
1.729999999999826, -1.003874851730893 
1.7399999999998248, -1.0011904642032183 
1.7499999999998237, -0.9994405103425892 
1.7599999999998226, -0.9984869101820752 
1.7699999999998215, -0.9980871949707952 
1.7799999999998204, -0.9979880833607686 
1.7899999999998193, -0.9979891929919497 
1.7999999999998182, -0.9979562017339362 
1.809999999999817, -0.9978009408313009 
1.819999999999816, -0.9974525765272073 
1.8299999999998149, -0.9968332806021207 
1.8399999999998138, -0.9958435116351791 
1.8499999999998127, -0.9943612841378788 
1.8599999999998116, -0.9922613459778592 
1.8699999999998105, -0.9894551869883603 
1.8799999999998094, -0.9859375822785867 
1.8899999999998083, -0.9818129609628745 
1.8999999999998072, -0.9772853896645604 
1.909999999999806, -0.9726227631160478 
1.919999999999805, -0.9681173716040359 
1.9299999999998039, -0.9640514953523873 
1.9399999999998028, -0.9606607102922846 
1.9499999999998017, -0.9580901301387579 
1.9599999999998006, -0.956357818580664 
1.9699999999997995, -0.9553525984876978 
1.9799999999997984, -0.9548778624854155 
1.9899999999997973, -0.95471849278735 
1.9999999999997962, -0.9546928655888293 
2.0099999999998173, -0.954670603767491 
2.0199999999998384, -0.9545630300196551 
2.0299999999998595, -0.9543030148571698 
2.0399999999998806, -0.9538265995616427 
2.0499999999999017, -0.9530627153776037 
2.059999999999923, -0.9519347494116245 
2.069999999999944, -0.9503758667551434 
2.079999999999965, -0.9483540258546558 
2.089999999999986, -0.945893548945115 
2.100000000000007, -0.9430784383761864 
2.1100000000000283, -0.9400353614637567 
2.1200000000000494, -0.9369094319208392 
2.1300000000000705, -0.9338467966382238 
2.1400000000000916, -0.9309866486615153 
2.1500000000001127, -0.9284556882959981 
2.160000000000134, -0.9263572942854447 
2.170000000000155, -0.9247539482283884 
2.180000000000176, -0.9236501948958553 
2.190000000000197, -0.9229882794674744 
2.2000000000002182, -0.9226633734481837 
2.2100000000002393, -0.9225521235527874 
2.2200000000002604, -0.9225394203261459 
2.2300000000002815, -0.9225321304367544 
2.2400000000003026, -0.9224592461512684 
2.2500000000003237, -0.9222651246042691 
2.260000000000345, -0.9219032698656532 
2.270000000000366, -0.9213353900568677 
2.280000000000387, -0.9205365517127436 
2.290000000000408, -0.9195028061517055 
2.3000000000004293, -0.9182548366910368 
2.3100000000004504, -0.916833525394806 
2.3200000000004715, -0.9152900061358352 
2.3300000000004926, -0.9136769810289964 
2.3400000000005137, -0.9120457127640778 
2.3500000000005348, -0.9104478052444535 
2.360000000000556, -0.9089378574702665 
2.370000000000577, -0.9075733298657221 
2.380000000000598, -0.9064098248899921 
2.390000000000619, -0.9054922131845415 
2.4000000000006403, -0.9048442413787623 
2.4100000000006614, -0.9044608819702328 
2.4200000000006825, -0.9043075332029433 
2.4300000000007036, -0.9043273171680388 
2.4400000000007247, -0.9044533938737581 
2.450000000000746, -0.9046208083093215 
2.460000000000767, -0.9047739531618862 
2.470000000000788, -0.9048694151747553 
2.480000000000809, -0.9048763659934981 
2.49000000000083, -0.9047763179155981 
2.5000000000008513, -0.9045622002832621 
2.5100000000008724, -0.9042357066209472 
2.5200000000008935, -0.903803074950949 
2.5300000000009146, -0.9032715206331788 
2.5400000000009357, -0.9026486883723918 
2.550000000000957, -0.9019452640349803 
2.560000000000978, -0.901178779222976 
2.570000000000999, -0.9003766074045843 
2.58000000000102, -0.8995772929865782 
2.5900000000010412, -0.8988297895659707 
2.6000000000010624, -0.8981897497214344 
2.6100000000010835, -0.8977121759125305 
2.6200000000011046, -0.8974414430247183 
2.6300000000011257, -0.8974018834875721 
2.6400000000011468, -0.8975926981981676 
2.650000000001168, -0.8979891660465096 
2.660000000001189, -0.8985493006298043 
2.67000000000121, -0.8992230512678787 
2.680000000001231, -0.899960710410739 
2.6900000000012523, -0.9007181593414956 
2.7000000000012734, -0.9014581303417575 
2.7100000000012945, -0.9021480816042249 
2.7200000000013156, -0.9027565540972056 
2.7300000000013367, -0.9032509944060884 
2.740000000001358, -0.9035998563208139 
2.750000000001379, -0.9037790611386015 
2.7600000000014, -0.9037790520071178 
2.770000000001421, -0.9036078228083786 
2.780000000001442, -0.9032889699630822 
2.7900000000014633, -0.9028581178514743 
2.8000000000014844, -0.9023617469601171 
2.8100000000015055, -0.9018596547033196 
2.8200000000015266, -0.9014285660369883 
2.8300000000015477, -0.901161778433773 
2.840000000001569, -0.9011599288065458 
2.85000000000159, -0.9015125196624746 
2.860000000001611, -0.9022769520424685 
2.870000000001632, -0.9034652905392664 
2.8800000000016532, -0.9050444750395259 
2.8900000000016743, -0.9069470129388464 
2.9000000000016954, -0.9090840342622506 
2.9100000000017165, -0.9113539230005296 
2.9200000000017377, -0.9136450297132171 
2.9300000000017588, -0.9158367860654986 
2.94000000000178, -0.9178068521517806 
2.950000000001801, -0.9194489975286488 
2.960000000001822, -0.9206962294953455 
2.970000000001843, -0.9215346359224161 
2.9800000000018643, -0.9219977175147671 
2.9900000000018854, -0.9221460844654985 
3.0000000000019065, -0.9220466175791234 
3.0100000000019276, -0.9217615225938965 
3.0200000000019487, -0.9213497015645548 
3.03000000000197, -0.9208785024451986 
3.040000000001991, -0.9204425174964843 
3.050000000002012, -0.9201832884995642 
3.060000000002033, -0.9202978799942105 
3.070000000002054, -0.9210206289068829 
3.0800000000020753, -0.9225714992655425 
3.0900000000020964, -0.9250877282619312 
3.1000000000021175, -0.9285725576918834 
3.1100000000021386, -0.9328840488332822 
3.1200000000021597, -0.93775881950678 
3.130000000002181, -0.9428515805630425 
3.140000000002202, -0.9477818576192385 
3.150000000002223, -0.9521934118412515 
3.160000000002244, -0.9558245978743132 
3.1700000000022652, -0.9585620419373075 
3.1800000000022863, -0.9604425993851444 
3.1900000000023074, -0.9616019955981919 
3.2000000000023285, -0.9622066250604275 
3.2100000000023496, -0.9624049526212012 
3.2200000000023707, -0.9623089119951833 
3.230000000002392, -0.9619974342939053 
3.240000000002413, -0.9615329166664358 
3.250000000002434, -0.9609875152677321 
3.260000000002455, -0.9604799781710522 
3.2700000000024763, -0.9602189615094396 
3.2800000000024974, -0.9605320392751813 
3.2900000000025185, -0.9618403173737461 
3.3000000000025396, -0.9645478794693109 
3.3100000000025607, -0.9688750614102174 
3.3200000000025818, -0.9747280691914708 
3.330000000002603, -0.9816839542383393 
3.340000000002624, -0.9890904167100066 
3.350000000002645, -0.9962269034630747 
3.360000000002666, -1.0024758467023567 
3.3700000000026873, -1.0074588766856214 
3.3800000000027084, -1.011087141306277 
3.3900000000027295, -1.0135044591006888 
3.4000000000027506, -1.0149678076397903 
3.4100000000027717, -1.015738987426737 
3.420000000002793, -1.0160273386988823 
3.430000000002814, -1.0159783132625915 
3.440000000002835, -1.0156869129424544 
3.450000000002856, -1.0152221319923442 
3.460000000002877, -1.0146598799640312 
3.4700000000028983, -1.014126978052262 
3.4800000000029194, -1.0138512717780088 
3.4900000000029405, -1.014188844308715 
3.5000000000029616, -1.0155755246546785 
3.5100000000029827, -1.0183759456715458 
3.520000000003004, -1.0226978385637815 
3.530000000003025, -1.028302561030994 
3.540000000003046, -1.034671347523445 
3.550000000003067, -1.041164317244205 
3.5600000000030882, -1.047180275439086 
3.5700000000031094, -1.0522745397244893 
3.5800000000031305, -1.0562238142089178 
3.5900000000031516, -1.0590261249257282 
3.6000000000031727, -1.0608370812028909 
3.6100000000031938, -1.0618774982992634 
3.620000000003215, -1.062358482403448 
3.630000000003236, -1.0624456008196932 
3.640000000003257, -1.0622562484381035 
3.650000000003278, -1.0618763098598774 
3.6600000000032993, -1.0613876865265048 
3.6700000000033204, -1.0609031341820674 
3.6800000000033415, -1.060599540291306 
3.6900000000033626, -1.0607245786762078 
3.7000000000033837, -1.061544620680599 
3.710000000003405, -1.0632381178326573 
3.720000000003426, -1.06580317199284 
3.730000000003447, -1.0690526009218604 
3.740000000003468, -1.0726900868526583 
3.750000000003489, -1.0764002178106173 
3.7600000000035103, -1.0799054088838327 
3.7700000000035314, -1.0829902000938803 
3.7800000000035525, -1.0855123853765218 
3.7900000000035736, -1.0874102685238607 
3.8000000000035947, -1.088700099983782 
3.810000000003616, -1.089456632514962 
3.820000000003637, -1.0897823094278363 
3.830000000003658, -1.0897798468774753 
3.840000000003679, -1.08953917787047 
3.8500000000037002, -1.0891403863132127 
3.8600000000037213, -1.088668092005786 
3.8700000000037424, -1.0882287781441875 
3.8800000000037635, -1.0879570638744114 
3.8900000000037847, -1.0879953844321564 
3.9000000000038058, -1.0884475559702276 
3.910000000003827, -1.0893353585836516 
3.920000000003848, -1.0905922355639308 
3.930000000003869, -1.0920952988461141 
3.94000000000389, -1.0937073825867405 
3.9500000000039113, -1.095305396618493 
3.9600000000039324, -1.0967907232092151 
3.9700000000039535, -1.098088523674582 
3.9800000000039746, -1.0991440782225605 
3.9900000000039957, -1.0999214056836077 
4.000000000004016, -1.1004050219340946 
4.010000000003993, -1.1006016872152722 
4.02000000000397, -1.1005384925296482 
4.030000000003946, -1.1002574248598829 
4.040000000003923, -1.0998105083400644 
4.0500000000039, -1.0992592729163466 
4.0600000000038765, -1.0986776789367858 
4.070000000003853, -1.0981521754663748 
4.08000000000383, -1.0977713007072027 
4.090000000003807, -1.0976045162515402 
4.100000000003783, -1.097681530225345 
4.11000000000376, -1.0979853977113563 
4.120000000003737, -1.0984615900224797 
4.130000000003713, -1.0990352124820078 
4.14000000000369, -1.0996281498904101 
4.150000000003667, -1.1001714361252146 
4.1600000000036434, -1.1006111984298332 
4.17000000000362, -1.10090923804453 
4.180000000003597, -1.1010407716532522 
4.1900000000035735, -1.1009915764283322 
4.20000000000355, -1.1007559830951186 
4.210000000003527, -1.100336502217214 
4.220000000003504, -1.0997450195740464 
4.23000000000348, -1.0990047934305054 
4.240000000003457, -1.0981525447825504 
4.250000000003434, -1.097239981630068 
4.26000000000341, -1.0963330405190663 
4.270000000003387, -1.0955061173075678 
4.280000000003364, -1.09483012157772 
4.2900000000033405, -1.0943569380032794 
4.300000000003317, -1.0941053493242072 
4.310000000003294, -1.094053856477688 
4.320000000003271, -1.0941449992208712 
4.330000000003247, -1.0943008579901172 
4.340000000003224, -1.0944415818086912 
4.350000000003201, -1.0944974152828626 
4.360000000003177, -1.0944120010052112 
4.370000000003154, -1.0941415942421886 
4.380000000003131, -1.0936551030561081 
4.390000000003107, -1.0929358904780768 
4.400000000003084, -1.0919830972513827 
4.410000000003061, -1.0908107214049856 
4.4200000000030375, -1.0894455581597489 
4.430000000003014, -1.0879266472908657 
4.440000000002991, -1.0863074360135372 
4.450000000002968, -1.0846591019305056 
4.460000000002944, -1.083071387025248 
4.470000000002921, -1.0816464346140704 
4.480000000002898, -1.0804818402361183 
4.490000000002874, -1.079643519063691 
4.500000000002851, -1.0791390177581288 
4.510000000002828, -1.0789100144154884 
4.520000000002804, -1.0788531465429876 
4.530000000002781, -1.0788546525011522 
4.540000000002758, -1.078814837789307 
4.5500000000027345, -1.0786526564423349 
4.560000000002711, -1.0782977090017947 
4.570000000002688, -1.0776816851118802 
4.580000000002665, -1.0767375623933815 
4.590000000002641, -1.0754089970991594 
4.600000000002618, -1.073665786769425 
4.610000000002595, -1.071516526341457 
4.620000000002571, -1.06901171512629 
4.630000000002548, -1.066239011894336 
4.640000000002525, -1.0633179710969343 
4.6500000000025015, -1.0603981392649577 
4.660000000002478, -1.0576554933521893 
4.670000000002455, -1.0552754479299309 
4.6800000000024315, -1.0534133842645073 
4.690000000002408, -1.0521417831437079 
4.700000000002385, -1.0514173490281762 
4.710000000002362, -1.0510994378966647 
4.720000000002338, -1.05100975204441 
4.730000000002315, -1.0509887653195662 
4.740000000002292, -1.050917699101086 
4.750000000002268, -1.0507093785012254 
4.760000000002245, -1.0502867410375456 
4.770000000002222, -1.049563598867588 
4.7800000000021985, -1.0484356664212662 
4.790000000002175, -1.046787535960329 
4.800000000002152, -1.0445183913157914 
4.810000000002129, -1.041579830420353 
4.820000000002105, -1.0380077141715034 
4.830000000002082, -1.0339312471920026 
4.840000000002059, -1.029559578800098 
4.850000000002035, -1.0251591317778614 
4.860000000002012, -1.0210279906873283 
4.870000000001989, -1.017458112699467 
4.880000000001965, -1.0146751441415653 
4.890000000001942, -1.0127701700068312 
4.900000000001919, -1.0116674850722296 
4.9100000000018955, -1.011162738670176 
4.920000000001872, -1.0110099460217272 
4.930000000001849, -1.0109976164185395 
