t, s[1].omega / s[0].omega 
0, -0.9799841125306955 
0.009999999999999995, -0.9782973113485754 
0.019999999999999934, -0.9764570977696228 
0.029999999999999874, -0.9745288515015925 
0.04000000000000012, -0.9725830271122969 
0.050000000000000405, -0.9706962918791335 
0.06000000000000069, -0.968951300087077 
0.07000000000000098, -0.9674309239227797 
0.08000000000000126, -0.9662053514183674 
0.09000000000000155, -0.9653147142829731 
0.10000000000000184, -0.9647548213059016 
0.11000000000000212, -0.9644752274319852 
0.12000000000000241, -0.9643928929804206 
0.130000000000002, -0.9644141608796465 
0.1400000000000009, -0.9644529814696409 
0.1499999999999998, -0.9644386553221957 
0.1599999999999987, -0.9643150210382008 
0.1699999999999976, -0.9640372928050249 
0.1799999999999965, -0.963571607596713 
0.1899999999999954, -0.9628983568172076 
0.1999999999999943, -0.9620162364116874 
0.2099999999999932, -0.9609425618402119 
0.2199999999999921, -0.9597084520889687 
0.229999999999991, -0.9583521839789215 
0.2399999999999899, -0.9569152764887088 
0.2499999999999888, -0.9554428464125972 
0.2599999999999877, -0.9539861873457081 
0.2699999999999866, -0.9526041568855186 
0.2799999999999855, -0.9513606033015254 
0.2899999999999844, -0.9503166841448729 
0.2999999999999833, -0.9495191182610302 
0.3099999999999822, -0.9489879011344355 
0.3199999999999811, -0.9487088336188256 
0.32999999999998, -0.9486354354844808 
0.3399999999999789, -0.9487002731847346 
0.3499999999999778, -0.9488301488444757 
0.35999999999997667, -0.9489581347967941 
0.36999999999997557, -0.9490292764282208 
0.37999999999997447, -0.9490016445843252 
0.38999999999997337, -0.9488461368131181 
0.39999999999997227, -0.9485467284244246 
0.40999999999997117, -0.9481002480287675 
0.41999999999997006, -0.9475140279738478 
0.42999999999996896, -0.9468017393327326 
0.43999999999996786, -0.945979964695663 
0.44999999999996676, -0.9450677590498608 
0.45999999999996566, -0.9440890508946417 
0.46999999999996456, -0.9430759232308166 
0.47999999999996346, -0.9420706915541818 
0.48999999999996235, -0.9411252219244617 
0.49999999999996125, -0.9402963845277089 
0.5099999999999602, -0.939637528873033 
0.519999999999959, -0.9391877665014053 
0.529999999999958, -0.9389625915206853 
0.5399999999999568, -0.9389495499097524 
0.5499999999999557, -0.9391109549495225 
0.5599999999999546, -0.9393927128270949 
0.5699999999999535, -0.9397356248009994 
0.5799999999999524, -0.9400849529102284 
0.5899999999999513, -0.9403959853136203 
0.5999999999999502, -0.9406358366274391 
0.6099999999999491, -0.9407826982668425 
0.619999999999948, -0.9408233826165123 
0.6299999999999469, -0.9407499401321578 
0.6399999999999458, -0.9405569448992687 
0.6499999999999447, -0.940241285537982 
0.6599999999999436, -0.9398047361543853 
0.6699999999999425, -0.9392575444367326 
0.6799999999999414, -0.9386210675876667 
0.6899999999999403, -0.9379290039763456 
0.6999999999999392, -0.9372276563489234 
0.7099999999999381, -0.9365746930896475 
0.719999999999937, -0.9360344869175817 
0.7299999999999359, -0.9356686749581338 
0.7399999999999348, -0.9355236734043583 
0.7499999999999337, -0.9356200187309378 
0.7599999999999326, -0.9359483283183646 
0.7699999999999315, -0.9364732424842585 
0.7799999999999304, -0.9371429316227303 
0.7899999999999293, -0.9379000267141567 
0.7999999999999282, -0.9386902974088709 
0.8099999999999271, -0.9394671085703216 
0.819999999999926, -0.9401915950810997 
0.8299999999999249, -0.9408300136075874 
0.8399999999999238, -0.9413508473807657 
0.8499999999999227, -0.9417246008318896 
0.8599999999999216, -0.9419277002972344 
0.8699999999999205, -0.9419485735821695 
0.8799999999999194, -0.9417917653672472 
0.8899999999999183, -0.9414777361626602 
0.8999999999999172, -0.9410400925734386 
0.9099999999999161, -0.9405239221226657 
0.919999999999915, -0.9399869983690904 
0.9299999999999139, -0.939501844022266 
0.9399999999999128, -0.9391537449751393 
0.9499999999999117, -0.9390302852996537 
0.9599999999999106, -0.9392031545699844 
0.9699999999999095, -0.9397099507215522 
0.9799999999999084, -0.9405456307587337 
0.9899999999999073, -0.9416672564593099 
0.9999999999999062, -0.9430074918201938 
1.0099999999999052, -0.9444889849267305 
1.019999999999904, -0.9460339318198588 
1.029999999999903, -0.9475672911295261 
1.039999999999902, -0.9490158651468523 
1.0499999999999008, -0.950307940027616 
1.0599999999998997, -0.9513781435434565 
1.0699999999998986, -0.9521781174419907 
1.0799999999998975, -0.9526872792607142 
1.0899999999998964, -0.9529157957182524 
1.0999999999998953, -0.9528976596465734 
1.1099999999998942, -0.9526796740541128 
1.119999999999893, -0.9523142214275528 
1.129999999999892, -0.9518598675033723 
1.1399999999998909, -0.9513888157358716 
1.1499999999998898, -0.9509960645482165 
1.1599999999998887, -0.9508017272220851 
1.1699999999998876, -0.9509378080972863 
1.1799999999998865, -0.9515184329116121 
1.1899999999998854, -0.9526061886213701 
1.1999999999998843, -0.9541937028817365 
1.2099999999998832, -0.9562093447848685 
1.219999999999882, -0.9585388524058194 
1.229999999999881, -0.9610476870623739 
1.2399999999998799, -0.9635949129769683 
1.2499999999998788, -0.9660396033623838 
1.2599999999998777, -0.9682474434236485 
1.2699999999998766, -0.9701046263953799 
1.2799999999998755, -0.9715376129238997 
1.2899999999998744, -0.9725271149808702 
1.2999999999998733, -0.973104827754834 
1.3099999999998722, -0.9733342633593491 
1.319999999999871, -0.9732884851282007 
1.32999999999987, -0.9730366700196942 
1.3399999999998689, -0.9726435272591798 
1.3499999999998678, -0.9721797579095574 
1.3599999999998666, -0.9717389995845445 
1.3699999999998655, -0.9714531022326833 
1.3799999999998644, -0.9714923667613553 
1.3899999999998633, -0.9720379800911247 
1.3999999999998622, -0.9732297788170318 
1.4099999999998611, -0.975116036132466 
1.41999999999986, -0.9776360389494926 
1.429999999999859, -0.9806410155878071 
1.4399999999998578, -0.9839322935058632 
1.4499999999998567, -0.9872938183395442 
1.4599999999998556, -0.9905128792924369 
1.4699999999998545, -0.9933973538015708 
1.4799999999998534, -0.9957982924217011 
1.4899999999998523, -0.9976342685719434 
1.4999999999998512, -0.9989019192619996 
1.5099999999998501, -0.9996617781836219 
1.519999999999849, -1.0000070093543432 
1.529999999999848, -1.0000336472220033 
1.5399999999998468, -0.9998251856868233 
1.5499999999998457, -0.9994533503683403 
1.5599999999998446, -0.9989913755283683 
1.5699999999998435, -0.9985348431593366 
1.5799999999998424, -0.9982218387201275 
1.5899999999998413, -0.9982370168740827 
1.5999999999998402, -0.998782256426176 
1.6099999999998391, -1.0000146163957135 
1.619999999999838, -1.001984203610308 
1.629999999999837, -1.0046131619766563 
1.6399999999998358, -1.0077242593728837 
1.6499999999998347, -1.0110909451657386 
1.6599999999998336, -1.0144785612471001 
1.6699999999998325, -1.0176686872353014 
1.6799999999998314, -1.0204762291318663 
1.6899999999998303, -1.0227688365602357 
1.6999999999998292, -1.0244853193025205 
1.709999999999828, -1.0256394035996368 
1.719999999999827, -1.0263013746870462 
1.729999999999826, -1.026567002275756 
1.7399999999998248, -1.0265309810383385 
1.7499999999998237, -1.0262753314206032 
1.7599999999998226, -1.0258733011682837 
1.7699999999998215, -1.025404533929885 
1.7799999999998204, -1.024975009626812 
1.7899999999998193, -1.0247302719112672 
1.7999999999998182, -1.0248450318742737 
1.809999999999817, -1.0254794788528914 
1.819999999999816, -1.0267197201519305 
1.8299999999998149, -1.028542147935498 
1.8399999999998138, -1.0308254587082029 
1.8499999999998127, -1.0333945230120252 
1.8599999999998116, -1.0360635198435624 
1.8699999999998105, -1.0386607376078356 
1.8799999999998094, -1.0410380134965391 
1.8899999999998083, -1.0430762151239668 
1.8999999999998072, -1.044694248554521 
1.909999999999806, -1.0458590349414982 
1.919999999999805, -1.0465870830715185 
1.9299999999998039, -1.046932474259909 
1.9399999999998028, -1.0469671209814573 
1.9499999999998017, -1.0467646705770164 
1.9599999999998006, -1.0463954401505593 
1.9699999999997995, -1.045932751195309 
1.9799999999997984, -1.0454656479792832 
1.9899999999997973, -1.0451082144076023 
1.9999999999997962, -1.0449923923223041 
2.0099999999998173, -1.0452373302569367 
2.0199999999998384, -1.0459079387170296 
2.0299999999998595, -1.0469907723006682 
2.0399999999998806, -1.0484035564308096 
2.0499999999999017, -1.050027099677298 
2.059999999999923, -1.0517368889647796 
2.069999999999944, -1.05342146537255 
2.079999999999965, -1.0549878456005177 
2.089999999999986, -1.056360439071566 
2.100000000000007, -1.057480198542582 
2.1100000000000283, -1.0583075495350747 
2.1200000000000494, -1.0588274755905664 
2.1300000000000705, -1.0590515225139219 
2.1400000000000916, -1.0590133920897542 
2.1500000000001127, -1.0587606918369519 
2.160000000000134, -1.0583489056412443 
2.170000000000155, -1.0578415249626008 
2.180000000000176, -1.057314808177919 
2.190000000000197, -1.056860198030508 
2.2000000000002182, -1.0565755824979473 
2.2100000000002393, -1.0565429229021956 
2.2200000000002604, -1.0568028110066214 
2.2300000000002815, -1.057342695844082 
2.2400000000003026, -1.0581053148425057 
2.2500000000003237, -1.0590090735671338 
2.260000000000345, -1.059968287446256 
2.270000000000366, -1.0609065954783674 
2.280000000000387, -1.0617625434115951 
2.290000000000408, -1.062489346803819 
2.3000000000004293, -1.0630520296648343 
2.3100000000004504, -1.063425106094773 
2.3200000000004715, -1.063592749290487 
2.3300000000004926, -1.0635511050438464 
2.3400000000005137, -1.0633104606111732 
2.3500000000005348, -1.0628954384747977 
2.360000000000556, -1.0623438988020364 
2.370000000000577, -1.0617065886766888 
2.380000000000598, -1.0610476221758613 
2.390000000000619, -1.060442270599555 
2.4000000000006403, -1.0599675517052736 
2.4100000000006614, -1.0596857674086018 
2.4200000000006825, -1.0596282128949697 
2.4300000000007036, -1.0597877013613082 
2.4400000000007247, -1.0601226026891641 
2.450000000000746, -1.0605689959256288 
2.460000000000767, -1.06105554024358 
2.470000000000788, -1.0615160623377915 
2.480000000000809, -1.0618968182402828 
2.49000000000083, -1.0621584852787613 
2.5000000000008513, -1.062274920737552 
2.5100000000008724, -1.062230647994825 
2.5200000000008935, -1.0620183919457902 
2.5300000000009146, -1.0616377855053982 
2.5400000000009357, -1.0610959052853468 
2.550000000000957, -1.0604092304431412 
2.560000000000978, -1.0596059907567934 
2.570000000000999, -1.0587280817123197 
2.58000000000102, -1.0578315712396607 
2.5900000000010412, -1.0569838017703612 
2.6000000000010624, -1.0562550274342184 
2.6100000000010835, -1.055705107384632 
2.6200000000011046, -1.0553692646387485 
2.6300000000011257, -1.0552481935995275 
2.6400000000011468, -1.055306738786549 
2.650000000001168, -1.0554826780016846 
2.660000000001189, -1.05570220483219 
2.67000000000121, -1.05589464862203 
2.680000000001231, -1.0560008322723948 
2.6900000000012523, -1.0559753268722156 
2.7000000000012734, -1.0557862562302298 
2.7100000000012945, -1.0554151056746852 
2.7200000000013156, -1.0548562742057916 
2.7300000000013367, -1.054115371075648 
2.740000000001358, -1.0532068305030144 
2.750000000001379, -1.052152742076701 
2.7600000000014, -1.0509840368105943 
2.770000000001421, -1.0497432862243665 
2.780000000001442, -1.0484869910749495 
2.7900000000014633, -1.0472847207159999 
2.8000000000014844, -1.0462128079543622 
2.8100000000015055, -1.0453418165669668 
2.8200000000015266, -1.0447196664100162 
2.8300000000015477, -1.044355896628959 
2.840000000001569, -1.0442154846195788 
2.85000000000159, -1.044227946913248 
2.860000000001611, -1.0443074319165906 
2.870000000001632, -1.044371676764357 
2.8800000000016532, -1.0443511800584573 
2.8900000000016743, -1.0441895791441036 
2.9000000000016954, -1.0438416512275612 
2.9100000000017165, -1.0432739700189264 
2.9200000000017377, -1.042468547428238 
2.9300000000017588, -1.0414259953902048 
2.94000000000178, -1.0401649122438967 
2.950000000001801, -1.0387180001472545 
2.960000000001822, -1.037128555315137 
2.970000000001843, -1.0354501172611443 
2.9800000000018643, -1.0337486628463575 
2.9900000000018854, -1.0321040046797 
3.0000000000019065, -1.0306062616874512 
3.0100000000019276, -1.0293442162571849 
3.0200000000019487, -1.0283854411069284 
3.03000000000197, -1.0277541505953909 
3.040000000001991, -1.027419107052938 
3.050000000002012, -1.0273018809540706 
3.060000000002033, -1.0273017917410463 
3.070000000002054, -1.0273213066449327 
3.0800000000020753, -1.0272787034558124 
3.0900000000020964, -1.0271076269310937 
3.1000000000021175, -1.0267515609736793 
3.1100000000021386, -1.0261612324020117 
3.1200000000021597, -1.025298477511726 
3.130000000002181, -1.0241444990677002 
3.140000000002202, -1.022706425916576 
3.150000000002223, -1.0210171190502408 
3.160000000002244, -1.0191290978471537 
3.1700000000022652, -1.0171081804305728 
3.1800000000022863, -1.0150311232106801 
3.1900000000023074, -1.0129865093137078 
3.2000000000023285, -1.011074231439666 
3.2100000000023496, -1.0093980883385538 
3.2200000000023707, -1.008048317759235 
3.230000000002392, -1.0070769576276972 
3.240000000002413, -1.0064775429464405 
3.250000000002434, -1.0061838311992328 
3.260000000002455, -1.0060914110294905 
3.2700000000024763, -1.0060886203004116 
3.2800000000024974, -1.006078274694113 
3.2900000000025185, -1.0059829810586733 
3.3000000000025396, -1.0057395581663853 
3.3100000000025607, -1.005292117137612 
3.3200000000025818, -1.0045907279130386 
3.330000000002603, -1.0035976989452255 
3.340000000002624, -1.00229795473946 
3.350000000002645, -1.0007061727723328 
3.360000000002666, -0.9988653099106175 
3.3700000000026873, -0.996838351974881 
3.3800000000027084, -0.9947001394544394 
3.3900000000027295, -0.9925339753789746 
3.4000000000027506, -0.9904318591474894 
3.4100000000027717, -0.9884932366855003 
3.420000000002793, -0.9868169240581037 
3.430000000002814, -0.9854839263670081 
3.440000000002835, -0.9845351025359493 
3.450000000002856, -0.983954882459004 
3.460000000002877, -0.9836732558848631 
3.4700000000028983, -0.9835874065394469 
3.4800000000029194, -0.983589938595658 
3.4900000000029405, -0.983587968188606 
3.5000000000029616, -0.9835076409304138 
3.5100000000029827, -0.9832893362331218 
3.520000000003004, -0.9828820130686321 
3.530000000003025, -0.9822426287915684 
3.540000000003046, -0.9813418808237403 
3.550000000003067, -0.9801724521421791 
3.5600000000030882, -0.9787531863880838 
3.5700000000031094, -0.9771254603751055 
3.5800000000031305, -0.9753446544810274 
3.5900000000031516, -0.973473091901881 
3.6000000000031727, -0.971577958312704 
3.6100000000031938, -0.9697325674657394 
3.620000000003215, -0.9680165480478866 
3.630000000003236, -0.9665108604718906 
3.640000000003257, -0.9652859139389095 
3.650000000003278, -0.9643849231866275 
3.6600000000032993, -0.963809294724568 
3.6700000000033204, -0.9635149722889983 
3.6800000000033415, -0.9634239040861141 
3.6900000000033626, -0.9634448500251864 
3.7000000000033837, -0.9634920125125822 
3.710000000003405, -0.9634940102657691 
3.720000000003426, -0.9633940944637089 
3.730000000003447, -0.9631473428302548 
3.740000000003468, -0.9627199673895813 
3.750000000003489, -0.9620921340033343 
3.7600000000035103, -0.9612616035512109 
3.7700000000035314, -0.9602439866334705 
3.7800000000035525, -0.9590681697868693 
3.7900000000035736, -0.9577699616053856 
3.8000000000035947, -0.9563883358746844 
3.810000000003616, -0.9549658345580376 
3.820000000003637, -0.9535512222265539 
3.830000000003658, -0.9522011110220368 
3.840000000003679, -0.9509778399015685 
3.8500000000037002, -0.9499423872278415 
3.8600000000037213, -0.9491431443126999 
3.8700000000037424, -0.9486037365111706 
3.8800000000037635, -0.9483149027112514 
3.8900000000037847, -0.9482350533290121 
3.9000000000038058, -0.9483002269162346 
3.910000000003827, -0.9484387307574093 
3.920000000003848, -0.9485836144229921 
3.930000000003869, -0.948679222380069 
3.94000000000389, -0.9486828528504659 
3.9500000000039113, -0.9485646852687004 
3.9600000000039324, -0.9483078399021603 
3.9700000000039535, -0.9479079488696633 
3.9800000000039746, -0.9473707853729699 
3.9900000000039957, -0.9467082403389206 
4.000000000004016, -0.9459350601696783 
4.010000000003993, -0.9450685029261978 
4.02000000000397, -0.9441307656128162 
4.030000000003946, -0.9431522800444888 
4.040000000003923, -0.942173893357017 
4.0500000000039, -0.9412464714201576 
4.0600000000038765, -0.9404267928743535 
4.070000000003853, -0.9397694077108483 
4.08000000000383, -0.9393159844290733 
4.090000000003807, -0.9390855694625623 
4.100000000003783, -0.9390695534630782 
4.11000000000376, -0.9392335440510363 
4.120000000003737, -0.9395255183718805 
4.130000000003713, -0.9398869260129945 
4.14000000000369, -0.9402625593022199 
4.150000000003667, -0.9406066282939989 
4.1600000000036434, -0.9408849384312825 
4.17000000000362, -0.9410742781554955 
4.180000000003597, -0.94115996450218 
4.1900000000035735, -0.9411324597429575 
4.20000000000355, -0.9409847070012003 
4.210000000003527, -0.9407120161986455 
4.220000000003504, -0.9403147477388231 
4.23000000000348, -0.939801966687346 
4.240000000003457, -0.9391940328914943 
4.250000000003434, -0.9385237226837365 
4.26000000000341, -0.9378365120493946 
4.270000000003387, -0.9371896798649999 
4.280000000003364, -0.9366482634943157 
4.2900000000033405, -0.9362761164234927 
4.300000000003317, -0.9361233068538993 
4.310000000003294, -0.9362146263421618 
4.320000000003271, -0.9365444496106647 
4.330000000003247, -0.937079876473162 
4.340000000003224, -0.9377699793343067 
4.350000000003201, -0.9385569267856381 
4.360000000003177, -0.9393850943225471 
4.370000000003154, -0.9402059721554734 
4.380000000003131, -0.9409786549440918 
4.390000000003107, -0.941667334420363 
4.400000000003084, -0.9422384332664528 
4.410000000003061, -0.9426604295231765 
4.4200000000030375, -0.9429078944627906 
4.430000000003014, -0.9429678182117419 
4.440000000002991, -0.9428439110803011 
4.450000000002968, -0.9425563226774427 
4.460000000002944, -0.942138519422385 
4.470000000002921, -0.9416352325160956 
4.480000000002898, -0.9411035731040022 
4.490000000002874, -0.9406155504332908 
4.500000000002851, -0.9402570547790718 
4.510000000002828, -0.9401183521424082 
4.520000000002804, -0.9402759750832536 
4.530000000002781, -0.9407733021027151 
4.540000000002758, -0.9416101293243638 
4.5500000000027345, -0.9427460802339434 
4.560000000002711, -0.9441139096256442 
4.570000000002688, -0.9456345276098265 
4.580000000002665, -0.9472274186528951 
4.590000000002641, -0.9488145086850311 
4.600000000002618, -0.9503195726207897 
4.610000000002595, -0.9516679535956586 
4.620000000002571, -0.9527914604147574 
4.630000000002548, -0.9536392633293461 
4.640000000002525, -0.9541890773098329 
4.6500000000025015, -0.9544504545109312 
4.660000000002478, -0.954457745853093 
4.670000000002455, -0.9542585424516536 
4.6800000000024315, -0.9539057804576903 
4.690000000002408, -0.9534578714137497 
4.700000000002385, -0.952986098192565 
4.710000000002362, -0.9525843317155995 
4.720000000002338, -0.9523725837727959 
4.730000000002315, -0.9524851835793806 
4.740000000002292, -0.953041419360644 
4.750000000002268, -0.9541104718752672 
4.760000000002245, -0.9556904889364679 
4.770000000002222, -0.9577124613172657 
4.7800000000021985, -0.9600617085700518 
4.790000000002175, -0.962601296521945 
4.800000000002152, -0.9651871464844268 
4.810000000002129, -0.9676751804412635 
4.820000000002105, -0.9699280878855084 
4.830000000002082, -0.9718291323528634 
4.840000000002059, -0.9733020302733661 
4.850000000002035, -0.9743254333227951 
4.860000000002012, -0.9749301634835709 
4.870000000001989, -0.975180055411121 
4.880000000001965, -0.9751491711386715 
4.890000000001942, -0.9749076762592154 
4.900000000001919, -0.9745207092956129 
4.9100000000018955, -0.9740585290155274 
4.920000000001872, -0.9736134607858501 
4.930000000001849, -0.973315671983985 
