t, s[1].omega / s[0].omega 
0, -0.6999976918084966 
0.009999999999999995, -0.6997536246292375 
0.019999999999999934, -0.6994799546337517 
0.029999999999999874, -0.6991687029320597 
0.04000000000000012, -0.6988121814871193 
0.050000000000000405, -0.6984077157499633 
0.06000000000000069, -0.697960184663466 
0.07000000000000098, -0.6974825895896573 
0.08000000000000126, -0.6969962304989352 
0.09000000000000155, -0.6965319029714496 
0.10000000000000184, -0.6961325571420642 
0.11000000000000212, -0.6958568985693586 
0.12000000000000241, -0.6957827523178641 
0.130000000000002, -0.6960086707320154 
0.1400000000000009, -0.696652247723055 
0.1499999999999998, -0.6978438105974198 
0.1599999999999987, -0.6997142046175913 
0.1699999999999976, -0.7023747858709395 
0.1799999999999965, -0.7058868527501116 
0.1899999999999954, -0.710219210227536 
0.1999999999999943, -0.7152016472134752 
0.2099999999999932, -0.7205014568307104 
0.2199999999999921, -0.7256651480274094 
0.229999999999991, -0.7302418019033309 
0.2399999999999899, -0.7339303774610425 
0.2499999999999888, -0.736650843022802 
0.2599999999999877, -0.7385021556474788 
0.2699999999999866, -0.739664492096703 
0.2799999999999855, -0.740318143773538 
0.2899999999999844, -0.7406045612268086 
0.2999999999999833, -0.7406182241466425 
0.3099999999999822, -0.7404113136569541 
0.3199999999999811, -0.7399998210001203 
0.32999999999998, -0.7393662128643839 
0.3399999999999789, -0.7384570085819198 
0.3499999999999778, -0.7371748132605793 
0.35999999999997667, -0.7353653262346491 
0.36999999999997557, -0.7328028588259239 
0.37999999999997447, -0.7291867316964975 
0.38999999999997337, -0.724179921943428 
0.39999999999997227, -0.717541857609053 
0.40999999999997117, -0.7093745800794063 
0.41999999999997006, -0.7003412435918075 
0.42999999999996896, -0.6915625150220877 
0.43999999999996786, -0.6841252353151337 
0.44999999999996676, -0.6786042767255026 
0.45999999999996566, -0.6749777295325474 
0.46999999999996456, -0.672860696163105 
0.47999999999996346, -0.6717769234021657 
0.48999999999996235, -0.6713179015607083 
0.49999999999996125, -0.6711916199225839 
0.5099999999999602, -0.6712120455970845 
0.519999999999959, -0.6712696381678998 
0.529999999999958, -0.6713026364934451 
0.5399999999999568, -0.6712753826774631 
0.5499999999999557, -0.6711639349801878 
0.5599999999999546, -0.6709475800716967 
0.5699999999999535, -0.6706051774797853 
0.5799999999999524, -0.6701160810712492 
0.5899999999999513, -0.6694655249946653 
0.5999999999999502, -0.6686528490227973 
0.6099999999999491, -0.6676981100224458 
0.619999999999948, -0.6666414798728183 
0.6299999999999469, -0.6655336697397065 
0.6399999999999458, -0.6644223701419733 
0.6499999999999447, -0.6633424989376117 
0.6599999999999436, -0.6623142755175138 
0.6699999999999425, -0.6613475125023374 
0.6799999999999414, -0.6604480143347523 
0.6899999999999403, -0.6596229209121894 
0.6999999999999392, -0.6588839049039565 
0.7099999999999381, -0.6582485111412513 
0.719999999999937, -0.6577402650606143 
0.7299999999999359, -0.657387978480843 
0.7399999999999348, -0.6572244797828711 
0.7499999999999337, -0.6572849871047471 
0.7599999999999326, -0.6576054291566422 
0.7699999999999315, -0.6582209872934566 
0.7799999999999304, -0.6591648102764478 
0.7899999999999293, -0.6604661862809825 
0.7999999999999282, -0.6621465632381909 
0.8099999999999271, -0.6642111059635349 
0.819999999999926, -0.6666339869997178 
0.8299999999999249, -0.6693391119816208 
0.8399999999999238, -0.6721856439199652 
0.8499999999999227, -0.6749754547905813 
0.8599999999999216, -0.67749484259977 
0.8699999999999205, -0.6795772036098155 
0.8799999999999194, -0.6811480980307695 
0.8899999999999183, -0.6822247019517873 
0.8999999999999172, -0.682879714942499 
0.9099999999999161, -0.6832001646753499 
0.919999999999915, -0.6832606463041703 
0.9299999999999139, -0.6831123477044632 
0.9399999999999128, -0.6827810801761659 
0.9499999999999117, -0.6822679680194202 
0.9599999999999106, -0.6815491621037262 
0.9699999999999095, -0.6805728927362124 
0.9799999999999084, -0.679253052791948 
0.9899999999999073, -0.6774589316618743 
0.9999999999999062, -0.6750020785885751 
1.0099999999999052, -0.6716274219027463 
1.019999999999904, -0.66703471875129 
1.029999999999903, -0.6609874488426255 
1.039999999999902, -0.6535504609948817 
1.0499999999999008, -0.6453251765203161 
1.0599999999998997, -0.637357839046403 
1.0699999999998986, -0.6306464122922486 
1.0799999999998975, -0.6256851039304565 
1.0899999999998964, -0.6224182706108451 
1.0999999999998953, -0.6204827705152507 
1.1099999999998942, -0.6194551421853381 
1.119999999999893, -0.6189820300307088 
1.129999999999892, -0.6188133251976512 
1.1399999999998909, -0.6187887664102885 
1.1499999999998898, -0.6188119830666252 
1.1599999999998887, -0.6188267546425186 
1.1699999999998876, -0.6187995220747969 
1.1799999999998865, -0.6187079645053111 
1.1899999999998854, -0.6185345148878755 
1.1999999999998843, -0.6182639965428866 
1.2099999999998832, -0.617884950230471 
1.219999999999882, -0.617393851880377 
1.229999999999881, -0.6167999557040292 
1.2399999999998799, -0.6161269801559012 
1.2499999999998788, -0.6154086726473973 
1.2599999999998777, -0.6146793261551605 
1.2699999999998766, -0.6139643590236159 
1.2799999999998755, -0.6132760009798346 
1.2899999999998744, -0.612615293824281 
1.2999999999998733, -0.6119778857960598 
1.3099999999998722, -0.6113600911398507 
1.319999999999871, -0.6107630815509665 
1.32999999999987, -0.6101950873108335 
1.3399999999998689, -0.6096726557533662 
1.3499999999998678, -0.6092220608666566 
1.3599999999998666, -0.6088814266020774 
1.3699999999998655, -0.6087035840381032 
1.3799999999998644, -0.6087593351146084 
1.3899999999998633, -0.6091405747906012 
1.3999999999998622, -0.6099624263943945 
1.4099999999998611, -0.611362845306298 
1.41999999999986, -0.6134965861932156 
1.429999999999859, -0.6165176969696169 
1.4399999999998578, -0.6205417579487313 
1.4499999999998567, -0.6255807031741417 
1.4599999999998556, -0.6314597876975705 
1.4699999999998545, -0.6377649553835212 
1.4799999999998534, -0.6438998251444681 
1.4899999999998523, -0.6492788519031086 
1.4999999999998512, -0.6535440222003552 
1.5099999999998501, -0.6566415338996715 
1.519999999999849, -0.6587333654964955 
1.529999999999848, -0.6600569557413564 
1.5399999999998468, -0.6608297492157588 
1.5499999999998457, -0.6612135810506385 
1.5599999999998446, -0.6613134668755628 
1.5699999999998435, -0.6611870803409978 
1.5799999999998424, -0.6608530768309235 
1.5899999999998413, -0.6602941396763174 
1.5999999999998402, -0.6594537382348322 
1.6099999999998391, -0.6582269844450137 
1.619999999999838, -0.6564487098490143 
1.629999999999837, -0.6538893317304524 
1.6399999999998358, -0.6502826495299974 
1.6499999999998347, -0.645418014105182 
1.6599999999998336, -0.6392966451508736 
1.6699999999998325, -0.632258978784384 
1.6799999999998314, -0.6249373889366941 
1.6899999999998303, -0.6180207344628188 
1.6999999999998292, -0.6120098915656704 
1.709999999999828, -0.6071259681618157 
1.719999999999827, -0.6033623508097714 
1.729999999999826, -0.6005846967762303 
1.7399999999998248, -0.5986125184215194 
1.7499999999998237, -0.5972665156177166 
1.7599999999998226, -0.5963897886075982 
1.7699999999998215, -0.5958542492551118 
1.7799999999998204, -0.5955599791874626 
1.7899999999998193, -0.5954317053783116 
1.7999999999998182, -0.5954144301566643 
1.809999999999817, -0.5954692303973057 
1.819999999999816, -0.5955697820938639 
1.8299999999998149, -0.59569988433841 
1.8399999999998138, -0.5958519082134084 
1.8499999999998127, -0.5960255722254669 
1.8599999999998116, -0.5962259012419809 
1.8699999999998105, -0.5964591889511505 
1.8799999999998094, -0.5967268400029119 
1.8899999999998083, -0.5970189796716967 
1.8999999999998072, -0.5973113876674497 
1.909999999999806, -0.5975688063115544 
1.919999999999805, -0.5977542199042846 
1.9299999999998039, -0.5978393703867332 
1.9399999999998028, -0.5978107152440921 
1.9499999999998017, -0.597668684351844 
1.9599999999998006, -0.5974227182471583 
1.9699999999997995, -0.5970861066172801 
1.9799999999997984, -0.5966732714879399 
1.9899999999997973, -0.5962003916311023 
1.9999999999997962, -0.5956896021971705 
2.0099999999998173, -0.5951772905860994 
2.0199999999998384, -0.5947274760446387 
2.0299999999998595, -0.5944508433689242 
2.0399999999998806, -0.5945268155035518 
2.0499999999999017, -0.5952168167497064 
2.059999999999923, -0.5968390069309899 
2.069999999999944, -0.5996581640615086 
2.079999999999965, -0.6036753605065703 
2.089999999999986, -0.6084428803234535 
2.100000000000007, -0.613172159298105 
2.1100000000000283, -0.6171805108707064 
2.1200000000000494, -0.6202386589760474 
2.1300000000000705, -0.6224843639882565 
2.1400000000000916, -0.6241451984340741 
2.1500000000001127, -0.6253884843473491 
2.160000000000134, -0.626312937553261 
2.170000000000155, -0.6269798075544302 
2.180000000000176, -0.6274333814974051 
2.190000000000197, -0.6277077823984696 
2.2000000000002182, -0.6278275170343666 
2.2100000000002393, -0.627806413574905 
2.2200000000002604, -0.627646510734868 
2.2300000000002815, -0.6273373648791499 
2.2400000000003026, -0.6268565110683618 
2.2500000000003237, -0.6261727386208633 
2.260000000000345, -0.6252545058542995 
2.270000000000366, -0.6240844856036933 
2.280000000000387, -0.6226763032065421 
2.290000000000408, -0.6210833956809625 
2.3000000000004293, -0.6193906365518553 
2.3100000000004504, -0.6176910015824704 
2.3200000000004715, -0.6160614290878332 
2.3300000000004926, -0.6145507812920861 
2.3400000000005137, -0.6131816885357858 
2.3500000000005348, -0.6119598708343261 
2.360000000000556, -0.610884062320701 
2.370000000000577, -0.6099530569116639 
2.380000000000598, -0.6091694257683469 
2.390000000000619, -0.6085408155931067 
2.4000000000006403, -0.6080798856503916 
2.4100000000006614, -0.6078036491512461 
2.4200000000006825, -0.6077327014685772 
2.4300000000007036, -0.6078906429153697 
2.4400000000007247, -0.6083038545530293 
2.450000000000746, -0.6090015396081214 
2.460000000000767, -0.6100154997113878 
2.470000000000788, -0.6113784161598259 
2.480000000000809, -0.6131185201968274 
2.49000000000083, -0.6152479388888061 
2.5000000000008513, -0.6177430791645095 
2.5100000000008724, -0.6205205363876353 
2.5200000000008935, -0.623422057070847 
2.5300000000009146, -0.6262297685741846 
2.5400000000009357, -0.628721243916077 
2.550000000000957, -0.6307394892768851 
2.560000000000978, -0.6322314206175221 
2.570000000000999, -0.633233976721977 
2.58000000000102, -0.6338301029712679 
2.5900000000010412, -0.6341078747374926 
2.6000000000010624, -0.6341375012195836 
2.6100000000010835, -0.633963258227271 
2.6200000000011046, -0.6336022582523112 
2.6300000000011257, -0.6330438111194512 
2.6400000000011468, -0.6322457228966161 
2.650000000001168, -0.63112523072636 
2.660000000001189, -0.6295429689003935 
2.67000000000121, -0.6272806932665782 
2.680000000001231, -0.6240226021821443 
2.6900000000012523, -0.6193735051009058 
2.7000000000012734, -0.6129784046837027 
2.7100000000012945, -0.6047838614275798 
2.7200000000013156, -0.5953069445020759 
2.7300000000013367, -0.5855927417428737 
2.740000000001358, -0.5767625317542219 
2.750000000001379, -0.569534460316758 
2.7600000000014, -0.5640915603922662 
2.770000000001421, -0.5602465501362548 
2.780000000001442, -0.5576628689474072 
2.7900000000014633, -0.5559996935408617 
2.8000000000014844, -0.5549738189398388 
2.8100000000015055, -0.5543721904273636 
2.8200000000015266, -0.5540435332116682 
2.8300000000015477, -0.5538843215720968 
2.840000000001569, -0.5538254422691191 
2.85000000000159, -0.5538215774596695 
2.860000000001611, -0.5538436085430309 
2.870000000001632, -0.5538737844029115 
2.8800000000016532, -0.5539032021766837 
2.8900000000016743, -0.5539308740911784 
2.9000000000016954, -0.5539631516091917 
2.9100000000017165, -0.5540118477282608 
2.9200000000017377, -0.5540897583094804 
2.9300000000017588, -0.5542038916240564 
2.94000000000178, -0.5543489121484805 
2.950000000001801, -0.5545044893756296 
2.960000000001822, -0.5546390417720755 
2.970000000001843, -0.5547188068465098 
2.9800000000018643, -0.5547175260349133 
2.9900000000018854, -0.5546216969357614 
3.0000000000019065, -0.5544298810150802 
3.0100000000019276, -0.5541484394498799 
3.0200000000019487, -0.553787140950595 
3.03000000000197, -0.5533568189982048 
3.040000000001991, -0.5528697900779596 
3.050000000002012, -0.5523431797906263 
3.060000000002033, -0.5518054394964 
3.070000000002054, -0.5513064121243947 
3.0800000000020753, -0.5509301353759595 
3.0900000000020964, -0.5508050157297897 
3.1000000000021175, -0.5510951323343936 
3.1100000000021386, -0.5519408994438714 
3.1200000000021597, -0.5533220177333276 
3.130000000002181, -0.5549026405117495 
3.140000000002202, -0.5560810343431593 
3.150000000002223, -0.556395187863552 
3.160000000002244, -0.5559176046969563 
3.1700000000022652, -0.5551263401159112 
3.1800000000022863, -0.5544605980292804 
3.1900000000023074, -0.5540947383528456 
3.2000000000023285, -0.5539994247927706 
3.2100000000023496, -0.5540726608974015 
3.2200000000023707, -0.5542182896452985 
3.230000000002392, -0.5543697550583654 
3.240000000002413, -0.5544876390819494 
3.250000000002434, -0.5545502340772033 
3.260000000002455, -0.5545448958606237 
3.2700000000024763, -0.5544620993779618 
3.2800000000024974, -0.5542922548715372 
3.2900000000025185, -0.5540251885794062 
3.3000000000025396, -0.5536523878230885 
3.3100000000025607, -0.5531717475369725 
3.3200000000025818, -0.5525931178324317 
3.330000000002603, -0.5519411175646426 
3.340000000002624, -0.5512517390230312 
3.350000000002645, -0.5505628383134782 
3.360000000002666, -0.5499032591322315 
3.3700000000026873, -0.5492864378913687 
3.3800000000027084, -0.5487109889138397 
3.3900000000027295, -0.548166499769638 
3.4000000000027506, -0.5476407591121233 
3.4100000000027717, -0.5471253244146557 
3.420000000002793, -0.5466184243152383 
3.430000000002814, -0.5461260512691174 
3.440000000002835, -0.5456628198825211 
3.450000000002856, -0.5452539328283703 
3.460000000002877, -0.5449390971004786 
3.4700000000028983, -0.5447789017058616 
3.4800000000029194, -0.5448639922797828 
3.4900000000029405, -0.54532703437487 
3.5000000000029616, -0.5463563125468489 
3.5100000000029827, -0.5482066808890149 
3.520000000003004, -0.5511965574650138 
3.530000000003025, -0.5556674829660148 
3.540000000003046, -0.5618716442159858 
3.550000000003067, -0.5697713076724655 
3.5600000000030882, -0.5788308614886326 
3.5700000000031094, -0.5880248933279577 
3.5800000000031305, -0.5962246258539609 
3.5900000000031516, -0.6027180327930963 
3.6000000000031727, -0.6074011966832967 
3.6100000000031938, -0.6105716196354126 
3.620000000003215, -0.612634295174437 
3.630000000003236, -0.6139357657358011 
3.640000000003257, -0.6147227874049167 
3.650000000003278, -0.6151556928350227 
3.6600000000032993, -0.6153320535209283 
3.6700000000033204, -0.6153053326430169 
3.6800000000033415, -0.6150962815986386 
3.6900000000033626, -0.6146985356973039 
3.7000000000033837, -0.6140806874436742 
3.710000000003405, -0.6131880280930841 
3.720000000003426, -0.6119490367724078 
3.730000000003447, -0.6102933022998376 
3.740000000003468, -0.6081842665900362 
3.750000000003489, -0.6056569215129919 
3.7600000000035103, -0.6028342912580947 
3.7700000000035314, -0.5999010570449286 
3.7800000000035525, -0.5970461219798383 
3.7900000000035736, -0.5944121683037598 
3.8000000000035947, -0.5920777858931563 
3.810000000003616, -0.5900679619384874 
3.820000000003637, -0.5883750871214105 
3.830000000003658, -0.5869773176199198 
3.840000000003679, -0.5858500018320536 
3.8500000000037002, -0.5849710715198001 
3.8600000000037213, -0.5843227193077223 
3.8700000000037424, -0.5838913506005452 
3.8800000000037635, -0.5836670728749881 
3.8900000000037847, -0.5836433813718503 
3.9000000000038058, -0.5838172905722487 
3.910000000003827, -0.5841898786502023 
3.920000000003848, -0.5847669650620432 
3.930000000003869, -0.5855593315262507 
3.94000000000389, -0.5865814459715248 
3.9500000000039113, -0.5878471151571022 
3.9600000000039324, -0.5893603089999598 
3.9700000000039535, -0.5911006303363122 
3.9800000000039746, -0.5930069424629684 
3.9900000000039957, -0.5949691736672402 
4.000000000004016, -0.5968414389124181 
4.010000000003993, -0.598479524410086 
4.02000000000397, -0.5997842945197072 
4.030000000003946, -0.6007230924515538 
4.040000000003923, -0.6013192299828688 
4.0500000000039, -0.6016241711633513 
4.0600000000038765, -0.6016918421070978 
4.070000000003853, -0.6015634446765464 
4.08000000000383, -0.6012610165452275 
4.090000000003807, -0.6007848243980152 
4.100000000003783, -0.6001104428648657 
4.11000000000376, -0.5991825911297599 
4.120000000003737, -0.5979033040796493 
4.130000000003713, -0.5961124485266347 
4.14000000000369, -0.5935618466305068 
4.150000000003667, -0.5898975942399814 
4.1600000000036434, -0.5846976681436435 
4.17000000000362, -0.5776447984084778 
4.180000000003597, -0.5688458918905911 
4.1900000000035735, -0.5590593580369059 
4.20000000000355, -0.5494779938319951 
4.210000000003527, -0.5411559895953582 
4.220000000003504, -0.5346070593447096 
4.23000000000348, -0.5298243510339906 
4.240000000003457, -0.5265180138074894 
4.250000000003434, -0.5243262633131683 
4.26000000000341, -0.5229251310665897 
4.270000000003387, -0.5220627100858692 
4.280000000003364, -0.5215571503407928 
4.2900000000033405, -0.5212827682032739 
4.300000000003317, -0.5211551199747901 
4.310000000003294, -0.5211186941487839 
4.320000000003271, -0.5211379023965187 
4.330000000003247, -0.5211910764657561 
4.340000000003224, -0.521266941190732 
4.350000000003201, -0.5213628992878713 
4.360000000003177, -0.5214841463532589 
4.370000000003154, -0.5216421880104593 
4.380000000003131, -0.5218512245795897 
4.390000000003107, -0.5221217290972623 
4.400000000003084, -0.5224524760822304 
4.410000000003061, -0.5228244267870349 
4.4200000000030375, -0.5232006718036548 
4.430000000003014, -0.5235344630919341 
4.440000000002991, -0.5237823370700314 
4.450000000002968, -0.5239152331560004 
4.460000000002944, -0.5239219311524159 
4.470000000002921, -0.5238049181572974 
4.480000000002898, -0.5235730064028703 
4.490000000002874, -0.5232347685069857 
4.500000000002851, -0.5227943565147048 
4.510000000002828, -0.5222493240704802 
4.520000000002804, -0.5215893229618003 
4.530000000002781, -0.52079424211075 
4.540000000002758, -0.519829483859278 
4.5500000000027345, -0.5186336984725974 
4.560000000002711, -0.5170904603115979 
4.570000000002688, -0.5149757902529117 
4.580000000002665, -0.5119002362979747 
4.590000000002641, -0.5073475815913244 
4.600000000002618, -0.5009773827095392 
4.610000000002595, -0.49311258721301304 
4.620000000002571, -0.48483990679090605 
4.630000000002548, -0.47740487949392385 
4.640000000002525, -0.4715368596383353 
4.6500000000025015, -0.46732776522161207 
4.660000000002478, -0.46450210737227016 
4.670000000002455, -0.4626911801540226 
4.6800000000024315, -0.4615718983826289 
4.690000000002408, -0.4609040567677735 
4.700000000002385, -0.46052307413717913 
4.710000000002362, -0.4603211496191764 
4.720000000002338, -0.46022964303074543 
4.730000000002315, -0.4602059413512058 
4.740000000002292, -0.4602247194397743 
4.750000000002268, -0.4602727081658939 
4.760000000002245, -0.460346051069018 
4.770000000002222, -0.4604493025292905 
4.7800000000021985, -0.46059484732303363 
4.790000000002175, -0.4608011545006546 
4.800000000002152, -0.46108833074660566 
4.810000000002129, -0.4614704387133899 
4.820000000002105, -0.46194602814568597 
4.830000000002082, -0.46249067675977457 
4.840000000002059, -0.46305667520600935 
4.850000000002035, -0.46358298685863303 
4.860000000002012, -0.46401228762074975 
4.870000000001989, -0.4643058343994418 
4.880000000001965, -0.4644481918795977 
4.890000000001942, -0.46444166576033685 
4.900000000001919, -0.46429618414545215 
4.9100000000018955, -0.4640199502183956 
4.920000000001872, -0.46361258475977163 
