t, s[1].omega / s[0].omega 
0, -0.5200772845996571 
0.009999999999999995, -0.5280119429890405 
0.019999999999999934, -0.5357606952512933 
0.029999999999999874, -0.5424815003264075 
0.04000000000000012, -0.5476865940084307 
0.050000000000000405, -0.5513556320554696 
0.06000000000000069, -0.5537630327793678 
0.07000000000000098, -0.5552519542878842 
0.08000000000000126, -0.5561080584801404 
0.09000000000000155, -0.5565282624627385 
0.10000000000000184, -0.5566314537033332 
0.11000000000000212, -0.5564763912802586 
0.12000000000000241, -0.5560739199445541 
0.130000000000002, -0.5553912045671012 
0.1400000000000009, -0.5543497958250272 
0.1499999999999998, -0.5528230100259452 
0.1599999999999987, -0.5506450077405708 
0.1699999999999976, -0.5476520590891271 
0.1799999999999965, -0.5437698522311265 
0.1899999999999954, -0.5391157041194515 
0.1999999999999943, -0.5340258064394654 
0.2099999999999932, -0.5289470319525182 
0.2199999999999921, -0.5242650710823782 
0.229999999999991, -0.5202001910878837 
0.2399999999999899, -0.5168115479113387 
0.2499999999999888, -0.514057561939578 
0.2599999999999877, -0.5118553317146838 
0.2699999999999866, -0.5101176212420222 
0.2799999999999855, -0.5087696610235011 
0.2899999999999844, -0.5077539951469132 
0.2999999999999833, -0.5070299379144746 
0.3099999999999822, -0.5065714040537431 
0.3199999999999811, -0.5063649043985705 
0.32999999999998, -0.5064084314561602 
0.3399999999999789, -0.5067114589189305 
0.3499999999999778, -0.5072960275565757 
0.35999999999997667, -0.5081986310680802 
0.36999999999997557, -0.509472094902498 
0.37999999999997447, -0.5111855560467183 
0.38999999999997337, -0.513418728806524 
0.39999999999997227, -0.5162441236728458 
0.40999999999997117, -0.5196900077365527 
0.41999999999997006, -0.523684195059259 
0.42999999999996896, -0.528002610101381 
0.43999999999996786, -0.5322769677586637 
0.44999999999996676, -0.536101726260526 
0.45999999999996566, -0.5391893189820907 
0.46999999999996456, -0.5414543646342325 
0.47999999999996346, -0.5429771433768055 
0.48999999999996235, -0.5439095068819109 
0.49999999999996125, -0.5443997097983444 
0.5099999999999602, -0.5445582790692777 
0.519999999999959, -0.5444507992339745 
0.529999999999958, -0.5440997161395891 
0.5399999999999568, -0.5434845867871472 
0.5499999999999557, -0.5425360619629378 
0.5599999999999546, -0.5411223752446145 
0.5699999999999535, -0.5390322192698344 
0.5799999999999524, -0.5359707961479486 
0.5899999999999513, -0.5316089768650861 
0.5999999999999502, -0.5257343326025632 
0.6099999999999491, -0.5184776671135816 
0.619999999999948, -0.5104258392705654 
0.6299999999999469, -0.5024275303122098 
0.6399999999999458, -0.49521502459519784 
0.6499999999999447, -0.4891703372266796 
0.6599999999999436, -0.48434740302117235 
0.6699999999999425, -0.48061420469724103 
0.6799999999999414, -0.4777778205106601 
0.6899999999999403, -0.4756526644352988 
0.6999999999999392, -0.47408580302750325 
0.7099999999999381, -0.4729605400751149 
0.719999999999937, -0.47219193056572084 
0.7299999999999359, -0.47172075229200716 
0.7399999999999348, -0.4715084457616938 
0.7499999999999337, -0.47153372916418756 
0.7599999999999326, -0.4717909185294441 
0.7699999999999315, -0.47228975581078797 
0.7799999999999304, -0.4730563737051362 
0.7899999999999293, -0.4741346141568303 
0.7999999999999282, -0.475585983128616 
0.8099999999999271, -0.4774848286535365 
0.819999999999926, -0.4799030491472597 
0.8299999999999249, -0.48287758477859777 
0.8399999999999238, -0.48635971394738176 
0.8499999999999227, -0.49016566569824815 
0.8599999999999216, -0.49397636348970053 
0.8699999999999205, -0.4974261452535155 
0.8799999999999194, -0.5002420206447418 
0.8899999999999183, -0.5023277117372154 
0.8999999999999172, -0.5037399527633586 
0.9099999999999161, -0.5046071005145176 
0.919999999999915, -0.5050596946339029 
0.9299999999999139, -0.505196660176107 
0.9399999999999128, -0.5050764998670396 
0.9499999999999117, -0.5047175641409002 
0.9599999999999106, -0.5040975670428075 
0.9699999999999095, -0.5031481771388493 
0.9799999999999084, -0.5017446951646576 
0.9899999999999073, -0.4996972257884719 
0.9999999999999062, -0.4967627069938332 
1.0099999999999052, -0.4927126173725088 
1.019999999999904, -0.4874775078108625 
1.029999999999903, -0.4813016867226917 
1.039999999999902, -0.47474374791674184 
1.0499999999999008, -0.468454414837181 
1.0599999999998997, -0.46290967618309653 
1.0699999999998986, -0.4583074774715755 
1.0799999999998975, -0.45462983641182914 
1.0899999999998964, -0.451753058148911 
1.0999999999998953, -0.44952890268628004 
1.1099999999998942, -0.4478246956261712 
1.119999999999893, -0.44653644912681933 
1.129999999999892, -0.4455893010789649 
1.1399999999998909, -0.4449337390423264 
1.1499999999998898, -0.44454155298278897 
1.1599999999998887, -0.44440305342106534 
1.1699999999998876, -0.44452605147193774 
1.1799999999998865, -0.4449367328242242 
1.1899999999998854, -0.44568241969193556 
1.1999999999998843, -0.4468359600486064 
1.2099999999998832, -0.4485006919056551 
1.219999999999882, -0.4508129198438734 
1.229999999999881, -0.45393464476374434 
1.2399999999998799, -0.4580226312203961 
1.2499999999998788, -0.46315542001449667 
1.2599999999998777, -0.4692153807333338 
1.2699999999998766, -0.4757836944073312 
1.2799999999998755, -0.482180622081746 
1.2899999999998744, -0.48772115330209925 
1.2999999999998733, -0.4920139709777274 
1.3099999999998722, -0.49504496785736485 
1.319999999999871, -0.49703513739818195 
1.32999999999987, -0.4982601305810886 
1.3399999999998689, -0.49894964685171167 
1.3499999999998678, -0.49926164086443414 
1.3599999999998666, -0.4992897578860476 
1.3699999999998655, -0.4990766944703614 
1.3799999999998644, -0.4986233600660602 
1.3899999999998633, -0.49789252904704695 
1.3999999999998622, -0.49680999944067167 
1.4099999999998611, -0.4952706121348542 
1.41999999999986, -0.49316162943104735 
1.429999999999859, -0.49041486891454433 
1.4399999999998578, -0.48707700292820955 
1.4499999999998567, -0.4833478930730838 
1.4599999999998556, -0.47953336455990064 
1.4699999999998545, -0.4759314381697193 
1.4799999999998534, -0.4727380468902047 
1.4899999999998523, -0.4700265073342897 
1.4999999999998512, -0.46778182110615 
1.5099999999998501, -0.46594665700950566 
1.519999999999849, -0.4644548786883713 
1.529999999999848, -0.46324927202757904 
1.5399999999998468, -0.46228839516340503 
1.5499999999998457, -0.46154793133809796 
1.5599999999998446, -0.46102017749932045 
1.5699999999998435, -0.4607136799061816 
1.5799999999998424, -0.4606540323943594 
1.5899999999998413, -0.4608863940616593 
1.5999999999998402, -0.4614801315204421 
1.6099999999998391, -0.46253586673075625 
1.619999999999838, -0.4641946979290532 
1.629999999999837, -0.466647658841581 
1.6399999999998358, -0.47013905161476605 
1.6499999999998347, -0.4749479587589967 
1.6599999999998336, -0.4813183547100923 
1.6699999999998325, -0.48930470846354 
1.6799999999998314, -0.49855335097282305 
1.6899999999998303, -0.5081865403470632 
1.6999999999998292, -0.5170401842608199 
1.709999999999828, -0.5242081161549078 
1.719999999999827, -0.5294111430411159 
1.729999999999826, -0.5328946552193133 
1.7399999999998248, -0.5351008279954457 
1.7499999999998237, -0.536434967872335 
1.7599999999998226, -0.5371887375150111 
1.7699999999998215, -0.5375468726007776 
1.7799999999998204, -0.5376145769652343 
1.7899999999998193, -0.5374403447326649 
1.7999999999998182, -0.537029270103945 
1.809999999999817, -0.5363487372524836 
1.819999999999816, -0.535330910245922 
1.8299999999998149, -0.5338795294527895 
1.8399999999998138, -0.5318923976778402 
1.8499999999998127, -0.5293089089930527 
1.8599999999998116, -0.526171940304951 
1.8699999999998105, -0.5226603069557361 
1.8799999999998094, -0.5190473794200605 
1.8899999999998083, -0.5156030844065083 
1.8999999999998072, -0.5125114183230475 
1.909999999999806, -0.50984974061692 
1.919999999999805, -0.5076158583739869 
1.9299999999998039, -0.505767207588808 
1.9399999999998028, -0.5042507177761835 
1.9499999999998017, -0.5030193090967472 
1.9599999999998006, -0.5020386339060194 
1.9699999999997995, -0.5012885881697222 
1.9799999999997984, -0.5007628017303195 
1.9899999999997973, -0.5004679129435564 
1.9999999999997962, -0.5004235149037568 
2.0099999999998173, -0.50066319467858 
2.0199999999998384, -0.5012368691999307 
2.0299999999998595, -0.5022144060669502 
2.0399999999998806, -0.5036899951196226 
2.0499999999999017, -0.5057854292605104 
2.059999999999923, -0.5086476368077443 
2.069999999999944, -0.5124308657430713 
2.079999999999965, -0.5172483609126984 
2.089999999999986, -0.5230812937024516 
2.100000000000007, -0.5296649864605377 
2.1100000000000283, -0.5364417275046158 
2.1200000000000494, -0.5426974326790455 
2.1300000000000705, -0.5478550767037664 
2.1400000000000916, -0.551692597563925 
2.1500000000001127, -0.5543177224419943 
2.160000000000134, -0.5559935488083586 
2.170000000000155, -0.5569874757835955 
2.180000000000176, -0.5575045080676178 
2.190000000000197, -0.5576779400694807 
2.2000000000002182, -0.5575802250209503 
2.2100000000002393, -0.5572340972931439 
2.2200000000002604, -0.5566172278982064 
2.2300000000002815, -0.5556596211490725 
2.2400000000003026, -0.5542365252435654 
2.2500000000003237, -0.5521658746494568 
2.260000000000345, -0.5492307187249347 
2.270000000000366, -0.5452550269118946 
2.280000000000387, -0.540234713490333 
2.290000000000408, -0.5344448120070144 
2.3000000000004293, -0.5283960731527115 
2.3100000000004504, -0.5226331810704192 
2.3200000000004715, -0.5175367774844503 
2.3300000000004926, -0.5132635883056464 
2.3400000000005137, -0.5098025659878336 
2.3500000000005348, -0.5070594050258592 
2.360000000000556, -0.5049179364827205 
2.370000000000577, -0.5032712898151743 
2.380000000000598, -0.5020328576098524 
2.390000000000619, -0.5011373411363992 
2.4000000000006403, -0.5005382069549833 
2.4100000000006614, -0.5002046507547702 
2.4200000000006825, -0.5001193295616115 
2.4300000000007036, -0.5002772574334801 
2.4400000000007247, -0.5006858900057789 
2.450000000000746, -0.5013662119723189 
2.460000000000767, -0.5023543266357733 
2.470000000000788, -0.5037023651380348 
2.480000000000809, -0.5054762195269492 
2.49000000000083, -0.507745600282084 
2.5000000000008513, -0.5105601369874663 
2.5100000000008724, -0.5139072731664049 
2.5200000000008935, -0.5176607245613697 
2.5300000000009146, -0.521554521397646 
2.5400000000009357, -0.5252312698257218 
2.550000000000957, -0.5283664711720697 
2.560000000000978, -0.53078583337296 
2.570000000000999, -0.5324879025066964 
2.58000000000102, -0.5335800188388041 
2.5900000000010412, -0.5341985964275313 
2.6000000000010624, -0.5344595994144805 
2.6100000000010835, -0.5344404344474577 
2.6200000000011046, -0.5341774968201037 
2.6300000000011257, -0.5336663862683275 
2.6400000000011468, -0.532857889004042 
2.650000000001168, -0.5316467874591371 
2.660000000001189, -0.5298543396700545 
2.67000000000121, -0.5272142821380323 
2.680000000001231, -0.5233924214726732 
2.6900000000012523, -0.5180925417084669 
2.7000000000012734, -0.5112713610934467 
2.7100000000012945, -0.5033391652439339 
2.7200000000013156, -0.49510140247893225 
2.7300000000013367, -0.48740474950493484 
2.740000000001358, -0.48079680055902124 
2.750000000001379, -0.4754492711309221 
2.7600000000014, -0.47127931416168395 
2.770000000001421, -0.4680980878456629 
2.780000000001442, -0.46570503599596813 
2.7900000000014633, -0.463928372011624 
2.8000000000014844, -0.4626348774291816 
2.8100000000015055, -0.4617269665645547 
2.8200000000015266, -0.46113634554253863 
2.8300000000015477, -0.46081811255219857 
2.840000000001569, -0.4607465317019995 
2.85000000000159, -0.46091268248170375 
2.860000000001611, -0.46132385043869933 
2.870000000001632, -0.4620043790575773 
2.8800000000016532, -0.4629974196583425 
2.8900000000016743, -0.46436628502713095 
2.9000000000016954, -0.4661925871392252 
2.9100000000017165, -0.46856581822749455 
2.9200000000017377, -0.4715563678231601 
2.9300000000017588, -0.47516546759370837 
2.94000000000178, -0.4792609690223757 
2.950000000001801, -0.48354194139673845 
2.960000000001822, -0.48759500490701796 
2.970000000001843, -0.49104590127618497 
2.9800000000018643, -0.49370012525699397 
2.9900000000018854, -0.4955646879383062 
3.0000000000019065, -0.496767665713977 
3.0100000000019276, -0.49746510894952606 
3.0200000000019487, -0.4977870489575843 
3.03000000000197, -0.4978201819836647 
3.040000000001991, -0.49760768109122555 
3.050000000002012, -0.497151896901389 
3.060000000002033, -0.49641356906164874 
3.070000000002054, -0.4953063507407932 
3.0800000000020753, -0.49369039347244803 
3.0900000000020964, -0.4913773867826491 
3.1000000000021175, -0.4881714215614122 
3.1100000000021386, -0.48396825083746825 
3.1200000000021597, -0.4788851550629155 
3.130000000002181, -0.4733097833689041 
3.140000000002202, -0.4677740695127001 
3.150000000002223, -0.46273413923131496 
3.160000000002244, -0.4584353130328638 
3.1700000000022652, -0.4549222639305269 
3.1800000000022863, -0.45212118825746234 
3.1900000000023074, -0.44991618612204504 
3.2000000000023285, -0.44819380009956705 
3.2100000000023496, -0.4468614040982219 
3.2200000000023707, -0.4458513249760844 
3.230000000002392, -0.4451191930601842 
3.240000000002413, -0.44464102127216654 
3.250000000002434, -0.44441102093299234 
3.260000000002455, -0.4444409528846262 
3.2700000000024763, -0.44476134171205234 
3.2800000000024974, -0.44542472654666626 
3.2900000000025185, -0.4465109475990035 
3.3000000000025396, -0.4481338623705323 
3.3100000000025607, -0.45044713692652605 
3.3200000000025818, -0.4536426463566266 
3.330000000002603, -0.45792728607851796 
3.340000000002624, -0.46345484925811276 
3.350000000002645, -0.4701948522463602 
3.360000000002666, -0.47777579836085754 
3.3700000000026873, -0.4854497434873922 
3.3800000000027084, -0.49233384949423264 
3.3900000000027295, -0.49781505524959613 
3.4000000000027506, -0.5017587472556287 
3.4100000000027717, -0.5043870642718007 
3.420000000002793, -0.5060392239682674 
3.430000000002814, -0.5070157436005558 
3.440000000002835, -0.5075303541648056 
3.450000000002856, -0.5077161084969403 
3.460000000002877, -0.507644161773411 
3.4700000000028983, -0.5073387126428754 
3.4800000000029194, -0.5067850098530546 
3.4900000000029405, -0.5059325685829361 
3.5000000000029616, -0.5046990120228109 
3.5100000000029827, -0.5029840506135518 
3.520000000003004, -0.500705162476778 
3.530000000003025, -0.49785589125556334 
3.540000000003046, -0.49455730686235444 
3.550000000003067, -0.49105089512485717 
3.5600000000030882, -0.48761759156056284 
3.5700000000031094, -0.48447943662042736 
3.5800000000031305, -0.4817515286931549 
3.5900000000031516, -0.47945415438258443 
3.6000000000031727, -0.4775516786545454 
3.6100000000031938, -0.4759881978448499 
3.620000000003215, -0.4747096497536357 
3.630000000003236, -0.4736741305394247 
3.640000000003257, -0.4728552114989285 
3.650000000003278, -0.4722422197907205 
3.6600000000032993, -0.4718399299775469 
3.6700000000033204, -0.47166896775260597 
3.6800000000033415, -0.4717676018559972 
3.6900000000033626, -0.4721953501078112 
3.7000000000033837, -0.4730387133610655 
3.710000000003405, -0.4744190474099231 
3.720000000003426, -0.4765015106224614 
3.730000000003447, -0.47950106878299936 
3.740000000003468, -0.48367487363578016 
3.750000000003489, -0.48927877561344396 
3.7600000000035103, -0.49645580103592774 
3.7700000000035314, -0.5050462038706034 
3.7800000000035525, -0.5144111939089031 
3.7900000000035736, -0.5234979923761508 
3.8000000000035947, -0.5312676636402569 
3.810000000003616, -0.5371757965252965 
3.820000000003637, -0.5412686702314377 
3.830000000003658, -0.5439224549937277 
3.840000000003679, -0.5455597792997497 
3.8500000000037002, -0.5465139788281728 
3.8600000000037213, -0.5470077924333133 
3.8700000000037424, -0.5471745377336222 
3.8800000000037635, -0.5470827422268354 
3.8900000000037847, -0.5467525144254484 
3.9000000000038058, -0.5461631243627988 
3.910000000003827, -0.5452548933539569 
3.920000000003848, -0.5439313032496343 
3.930000000003869, -0.5420719164214234 
3.94000000000389, -0.539570178305224 
3.9500000000039113, -0.5364000601924358 
3.9600000000039324, -0.5326808626968034 
3.9700000000039535, -0.5286786361959875 
3.9800000000039746, -0.5247185743133849 
3.9900000000039957, -0.5210688079316631 
4.000000000004016, -0.5178778925676324 
4.010000000003993, -0.5151834588744285 
4.02000000000397, -0.5129550290169741 
4.030000000003946, -0.5111349408871677 
4.040000000003923, -0.5096640945351099 
4.0500000000039, -0.5084939876210468 
4.0600000000038765, -0.5075904330503629 
4.070000000003853, -0.5069334439385 
4.08000000000383, -0.5065159892887295 
4.090000000003807, -0.506342987782863 
4.100000000003783, -0.5064311581576504 
4.11000000000376, -0.5068099863718887 
4.120000000003737, -0.507523857927115 
4.130000000003713, -0.5086350898551802 
4.14000000000369, -0.5102268696715242 
4.150000000003667, -0.5124035207353412 
4.1600000000036434, -0.5152825686836089 
4.17000000000362, -0.5189690180714932 
4.180000000003597, -0.5235006344751446 
4.1900000000035735, -0.5287649505270867 
4.20000000000355, -0.5344279780762227 
4.210000000003527, -0.5399608794720088 
4.220000000003504, -0.544815359804014 
4.23000000000348, -0.5486459411975682 
4.240000000003457, -0.5513981687456622 
4.250000000003434, -0.5532244232390687 
4.26000000000341, -0.5543453909168836 
4.270000000003387, -0.5549580648621756 
4.280000000003364, -0.555203124731742 
4.2900000000033405, -0.5551642694838851 
4.300000000003317, -0.5548757632757166 
4.310000000003294, -0.5543268604954219 
4.320000000003271, -0.5534593557933609 
4.330000000003247, -0.5521583623302534 
4.340000000003224, -0.550241329628425 
4.350000000003201, -0.5474613288635866 
4.360000000003177, -0.5435573854021718 
4.370000000003154, -0.5383838603228758 
4.380000000003131, -0.5320832355540628 
4.390000000003107, -0.5251516569973915 
4.400000000003084, -0.518272021709764 
4.410000000003061, -0.5120269222560747 
4.4200000000030375, -0.5067278622027449 
4.430000000003014, -0.5024321301981212 
4.440000000002991, -0.4990481864608876 
4.450000000002968, -0.4964309434236191 
4.460000000002944, -0.49443617690202313 
4.470000000002921, -0.4929424264024583 
4.480000000002898, -0.49185549243951643 
4.490000000002874, -0.49110594372587746 
4.500000000002851, -0.49064494378548795 
4.510000000002828, -0.4904406115635981 
4.520000000002804, -0.49047563917562487 
4.530000000002781, -0.49074627637645263 
4.540000000002758, -0.4912625460102271 
4.5500000000027345, -0.49204934692801966 
4.560000000002711, -0.4931476639858315 
4.570000000002688, -0.49461417595563484 
4.580000000002665, -0.4965159452096793 
4.590000000002641, -0.49891487520476885 
4.600000000002618, -0.501836137588486 
4.610000000002595, -0.5052210528001708 
4.620000000002571, -0.5088843633636035 
4.630000000002548, -0.512519964447675 
4.640000000002525, -0.5157874576681314 
4.6500000000025015, -0.5184393818658479 
4.660000000002478, -0.5203935173961376 
4.670000000002455, -0.5217073906848262 
4.6800000000024315, -0.5225026161430233 
4.690000000002408, -0.5229013093456969 
4.700000000002385, -0.5229950461393603 
4.710000000002362, -0.5228363855567777 
4.720000000002338, -0.5224383237201633 
4.730000000002315, -0.5217723686977218 
4.740000000002292, -0.520760790449992 
4.750000000002268, -0.5192621374748143 
4.760000000002245, -0.5170552723274804 
4.770000000002222, -0.5138420311069961 
4.7800000000021985, -0.5093118920856697 
4.790000000002175, -0.5033107079935173 
4.800000000002152, -0.49605874894619484 
4.810000000002129, -0.4882077034015791 
4.820000000002105, -0.4805898188498491 
4.830000000002082, -0.4738518064760108 
4.840000000002059, -0.4682822140957115 
4.850000000002035, -0.4638754126863006 
4.860000000002012, -0.46047703060089995 
4.870000000001989, -0.45789518818416564 
4.880000000001965, -0.45595574884405987 
4.890000000001942, -0.4545201889092517 
