t, s[1].omega / s[0].omega 
0, -0.2799843661711948 
0.009999999999999995, -0.27856895213006033 
0.019999999999999934, -0.27743462927404533 
0.029999999999999874, -0.2765392451608236 
0.04000000000000012, -0.2758256451138825 
0.050000000000000405, -0.2752370932408371 
0.06000000000000069, -0.27472584551677187 
0.07000000000000098, -0.2742563897993563 
0.08000000000000126, -0.2738049830702812 
0.09000000000000155, -0.2733572157105659 
0.10000000000000184, -0.2729050435670333 
0.11000000000000212, -0.2724438802951965 
0.12000000000000241, -0.27196900641338795 
0.130000000000002, -0.27146819839738673 
0.1400000000000009, -0.2709021628279885 
0.1499999999999998, -0.2701522066003247 
0.1599999999999987, -0.26889360511621074 
0.1699999999999976, -0.26635158059290165 
0.1799999999999965, -0.26105810881534264 
0.1899999999999954, -0.2512498537025873 
0.1999999999999943, -0.2366252402502665 
0.2099999999999932, -0.21979777296416664 
0.2199999999999921, -0.20451152760075061 
0.229999999999991, -0.19278851598055585 
0.2399999999999899, -0.1846167778020668 
0.2499999999999888, -0.17914231634356179 
0.2599999999999877, -0.1754991636667981 
0.2699999999999866, -0.17305365459366437 
0.2799999999999855, -0.17139383360412075 
0.2899999999999844, -0.17026569887105467 
0.2999999999999833, -0.16951922874626696 
0.3099999999999822, -0.1690735982858681 
0.3199999999999811, -0.16889823066008136 
0.32999999999998, -0.169005871022586 
0.3399999999999789, -0.1694561093642665 
0.3499999999999778, -0.17037045538007062 
0.35999999999997667, -0.17196281885555273 
0.36999999999997557, -0.17459094293871852 
0.37999999999997447, -0.17882876848305926 
0.38999999999997337, -0.18552412411565136 
0.39999999999997227, -0.19568511575757075 
0.40999999999997117, -0.20981394748558752 
0.41999999999997006, -0.2264685187498418 
0.42999999999996896, -0.24159243697674918 
0.43999999999996786, -0.2512909367905138 
0.44999999999996676, -0.25529921313096665 
0.45999999999996566, -0.2559641670572102 
0.46999999999996456, -0.2554198969203956 
0.47999999999996346, -0.2547000152332401 
0.48999999999996235, -0.2541255898108269 
0.49999999999996125, -0.2537352125605052 
0.5099999999999602, -0.25349144772192467 
0.519999999999959, -0.25335141287848323 
0.529999999999958, -0.25328432944320967 
0.5399999999999568, -0.2532731137115168 
0.5499999999999557, -0.2533129302933226 
0.5599999999999546, -0.2534105151216672 
0.5699999999999535, -0.2535850448613757 
0.5799999999999524, -0.25387022324122077 
0.5899999999999513, -0.2543165800079841 
0.5999999999999502, -0.2549922958741614 
0.6099999999999491, -0.25597989831005996 
0.619999999999948, -0.2573644668739258 
0.6299999999999469, -0.2592071875959338 
0.6399999999999458, -0.2615013330285751 
0.6499999999999447, -0.26412544337196325 
0.6599999999999436, -0.2668363968169185 
0.6699999999999425, -0.2693404538763064 
0.6799999999999414, -0.27140984064499873 
0.6899999999999403, -0.2729536859180591 
0.6999999999999392, -0.2740008388579082 
0.7099999999999381, -0.27463721701736415 
0.719999999999937, -0.2749527724796882 
0.7299999999999359, -0.2750156963031206 
0.7399999999999348, -0.27486589377973014 
0.7499999999999337, -0.2745168191615671 
0.7599999999999326, -0.2739602846826578 
0.7699999999999315, -0.27317415233175424 
0.7799999999999304, -0.27213576564037234 
0.7899999999999293, -0.27084299311428295 
0.7999999999999282, -0.2693374705889178 
0.8099999999999271, -0.26771423875290407 
0.819999999999926, -0.26610290630367744 
0.8299999999999249, -0.26462675374210876 
0.8399999999999238, -0.2633666148356276 
0.8499999999999227, -0.2623493015360322 
0.8599999999999216, -0.26155753384868075 
0.8699999999999205, -0.26094767142293895 
0.8799999999999194, -0.2604659404176444 
0.8899999999999183, -0.2600603193973351 
0.8999999999999172, -0.25968767394443876 
0.9099999999999161, -0.25931617641720045 
0.919999999999915, -0.25892379679831573 
0.9299999999999139, -0.25849435191704057 
0.9399999999999128, -0.2580122993998787 
0.9499999999999117, -0.2574561203965819 
0.9599999999999106, -0.2567879754803314 
0.9699999999999095, -0.2559338113161412 
0.9799999999999084, -0.2547420419228672 
0.9899999999999073, -0.25290170552373487 
0.9999999999999062, -0.24981101781829773 
1.0099999999999052, -0.24448270597324115 
1.019999999999904, -0.2358252918307456 
1.029999999999903, -0.2236636463517236 
1.039999999999902, -0.20968516492100533 
1.0499999999999008, -0.19657155432565693 
1.0599999999998997, -0.1860830614392487 
1.0699999999998986, -0.1784827885382972 
1.0799999999998975, -0.17322524622838353 
1.0899999999998964, -0.16963113379181324 
1.0999999999998953, -0.1671573796258037 
1.1099999999998942, -0.16543142375721737 
1.119999999999893, -0.16421457056855862 
1.129999999999892, -0.1633609558894415 
1.1399999999998909, -0.16278825511558753 
1.1499999999998898, -0.16246062965418667 
1.1599999999998887, -0.1623818401072413 
1.1699999999998876, -0.16259757460407454 
1.1799999999998865, -0.16320810357225418 
1.1899999999998854, -0.16439470038625245 
1.1999999999998843, -0.16646458280870238 
1.2099999999998832, -0.16991312905468828 
1.219999999999882, -0.1754653017118453 
1.229999999999881, -0.18393029186692014 
1.2399999999998799, -0.19545532397034598 
1.2499999999998788, -0.20794828590033468 
1.2599999999998777, -0.21659809349771525 
1.2699999999998766, -0.2178067535670724 
1.2799999999998755, -0.21322564669673544 
1.2899999999998744, -0.20701040748366456 
1.2999999999998733, -0.20171748693441968 
1.3099999999998722, -0.19793764844553122 
1.319999999999871, -0.19542576317873406 
1.32999999999987, -0.1938013706229897 
1.3399999999998689, -0.19276429097724954 
1.3499999999998678, -0.19211633013195661 
1.3599999999998666, -0.1917372130932306 
1.3699999999998655, -0.19156011843222623 
1.3799999999998644, -0.1915555961905347 
1.3899999999998633, -0.19172343120367036 
1.3999999999998622, -0.1920908553637024 
1.4099999999998611, -0.19271611316087076 
1.41999999999986, -0.1936969677090036 
1.429999999999859, -0.1951834661599155 
1.4399999999998578, -0.19739154033217957 
1.4499999999998567, -0.2006049446850912 
1.4599999999998556, -0.2051324724672968 
1.4699999999998545, -0.21116343164203005 
1.4799999999998534, -0.21850021257824062 
1.4899999999998523, -0.22634774678354738 
1.4999999999998512, -0.23353846016849303 
1.5099999999998501, -0.23918638507343964 
1.519999999999849, -0.24309864009535148 
1.529999999999848, -0.24559019338862526 
1.5399999999998468, -0.24710196425451345 
1.5499999999998457, -0.2479895210735823 
1.5599999999998446, -0.24848541359796056 
1.5699999999998435, -0.2487278155204334 
1.5799999999998424, -0.24879504605802602 
1.5899999999998413, -0.24873036340585344 
1.5999999999998402, -0.2485580446923747 
1.6099999999998391, -0.24829466674266168 
1.619999999999838, -0.24795832643223586 
1.629999999999837, -0.24757627972692728 
1.6399999999998358, -0.24718917857560715 
1.6499999999998347, -0.24684932261496223 
1.6599999999998336, -0.2466124271656413 
1.6699999999998325, -0.24652576619040745 
1.6799999999998314, -0.24661660873063887 
1.6899999999998303, -0.24688328429148468 
1.6999999999998292, -0.24729072515959669 
1.709999999999828, -0.24777416416338616 
1.719999999999827, -0.24825383891859915 
1.729999999999826, -0.24865629824735497 
1.7399999999998248, -0.2489308987343414 
1.7499999999998237, -0.2490530598795521 
1.7599999999998226, -0.24901580605088416 
1.7699999999998215, -0.24881679108683402 
1.7799999999998204, -0.2484460847709768 
1.7899999999998193, -0.24787566242972323 
1.7999999999998182, -0.24704923655318015 
1.809999999999817, -0.24587206795403146 
1.819999999999816, -0.24420567068415572 
1.8299999999998149, -0.2418831966326565 
1.8399999999998138, -0.23877148636039092 
1.8499999999998127, -0.23488642236780682 
1.8599999999998116, -0.2304904140370318 
1.8699999999998105, -0.22604324351604835 
1.8799999999998094, -0.22199762019868477 
1.8899999999998083, -0.21861698139393093 
1.8999999999998072, -0.21594919735385049 
1.909999999999806, -0.213907852800012 
1.919999999999805, -0.2123597356949723 
1.9299999999998039, -0.21117587180626013 
1.9399999999998028, -0.21025120849912243 
1.9499999999998017, -0.20950805051493043 
1.9599999999998006, -0.20889326562995816 
1.9699999999997995, -0.20837400919384205 
1.9799999999997984, -0.2079340455695085 
1.9899999999997973, -0.20757160559675722 
1.9999999999997962, -0.20729906926283476 
2.0099999999998173, -0.20714388137909595 
2.0199999999998384, -0.20714768458484906 
2.0299999999998595, -0.20735312064521505 
2.0399999999998806, -0.2077466496369079 
2.0499999999999017, -0.2080803741643306 
2.059999999999923, -0.2074634903277725 
2.069999999999944, -0.20387176556977032 
2.079999999999965, -0.19471525548884078 
2.089999999999986, -0.17965927955612057 
2.100000000000007, -0.16240752765823968 
2.1100000000000283, -0.1474200294276273 
2.1200000000000494, -0.13648043722892753 
2.1300000000000705, -0.1291494004818174 
2.1400000000000916, -0.12437033852030425 
2.1500000000001127, -0.12124651986182847 
2.160000000000134, -0.11917582925742587 
2.170000000000155, -0.11778726262683692 
2.180000000000176, -0.11686161968249983 
2.190000000000197, -0.11627622356756076 
2.2000000000002182, -0.11597300350201552 
2.2100000000002393, -0.11594363083250651 
2.2200000000002604, -0.11622779012823506 
2.2300000000002815, -0.11692420783897935 
2.2400000000003026, -0.11821767543183075 
2.2500000000003237, -0.12042830580092898 
2.260000000000345, -0.12408649992867893 
2.270000000000366, -0.13000592857168056 
2.280000000000387, -0.1391996219745831 
2.290000000000408, -0.15218734011622626 
2.3000000000004293, -0.1672607667056176 
2.3100000000004504, -0.1794694710668055 
2.3200000000004715, -0.1843554273830345 
2.3300000000004926, -0.1827546615907466 
2.3400000000005137, -0.17860082962106688 
2.3500000000005348, -0.17461541041190298 
2.360000000000556, -0.1716337481583366 
2.370000000000577, -0.16960482058456508 
2.380000000000598, -0.16827475159921562 
2.390000000000619, -0.16741985603131518 
2.4000000000006403, -0.1668872772278897 
2.4100000000006614, -0.16658405200220494 
2.4200000000006825, -0.16646070030394827 
2.4300000000007036, -0.1665000292291034 
2.4400000000007247, -0.16671218918071742 
2.450000000000746, -0.16713535597245027 
2.460000000000767, -0.16784170296714213 
2.470000000000788, -0.16894872019983284 
2.480000000000809, -0.17063529331095692 
2.49000000000083, -0.17315779879963197 
2.5000000000008513, -0.17684815942827795 
2.5100000000008724, -0.18204709596040577 
2.5200000000008935, -0.188900185143391 
2.5300000000009146, -0.19702431710392668 
2.5400000000009357, -0.205348584958939 
2.550000000000957, -0.2125646313782786 
2.560000000000978, -0.21791242191502555 
2.570000000000999, -0.22143190849416056 
2.58000000000102, -0.2235863580883509 
2.5900000000010412, -0.22485668712144058 
2.6000000000010624, -0.22558630915623512 
2.6100000000010835, -0.22598494672160302 
2.6200000000011046, -0.22617238344970442 
2.6300000000011257, -0.2262154782764068 
2.6400000000011468, -0.2261519842313482 
2.650000000001168, -0.22600537550742206 
2.660000000001189, -0.22579509628594222 
2.67000000000121, -0.22554458490415774 
2.680000000001231, -0.22528714300059752 
2.6900000000012523, -0.2250680556085559 
2.7000000000012734, -0.2249414155269156 
2.7100000000012945, -0.22496198317276156 
2.7200000000013156, -0.2251741060665661 
2.7300000000013367, -0.22559945055622221 
2.740000000001358, -0.22622497829569282 
2.750000000001379, -0.22699561033829033 
2.7600000000014, -0.22782001410528677 
2.770000000001421, -0.2285938242669169 
2.780000000001442, -0.2292302859583014 
2.7900000000014633, -0.22967948185980766 
2.8000000000014844, -0.22992695225375187 
2.8100000000015055, -0.2299785619915596 
2.8200000000015266, -0.22984333202153975 
2.8300000000015477, -0.22952040869774004 
2.840000000001569, -0.22899038919312065 
2.85000000000159, -0.22820958715939915 
2.860000000001611, -0.22710813462932172 
2.870000000001632, -0.2255979102911775 
2.8800000000016532, -0.22360126333815647 
2.8900000000016743, -0.22110626584584744 
2.9000000000016954, -0.21822541913228327 
2.9100000000017165, -0.2152001353372352 
2.9200000000017377, -0.21231802768347663 
2.9300000000017588, -0.2097989363141119 
2.94000000000178, -0.20773789002815252 
2.950000000001801, -0.20612300250519855 
2.960000000001822, -0.20488408156701424 
2.970000000001843, -0.2039331927233572 
2.9800000000018643, -0.20318730239239277 
2.9900000000018854, -0.2025777983410209 
3.0000000000019065, -0.20205277773076222 
3.0100000000019276, -0.20157556120599973 
3.0200000000019487, -0.20112131106220893 
3.03000000000197, -0.20067284773257482 
3.040000000001991, -0.20021589643572715 
3.050000000002012, -0.199732544886433 
3.060000000002033, -0.1991889568953289 
3.070000000002054, -0.19850766604129733 
3.0800000000020753, -0.19750369320105773 
3.0900000000020964, -0.19575155792769885 
3.1000000000021175, -0.19238186674185132 
3.1100000000021386, -0.18602458789431595 
3.1200000000021597, -0.17552821960439954 
3.130000000002181, -0.16156726875325306 
3.140000000002202, -0.14700518549720915 
3.150000000002223, -0.1346742448245522 
3.160000000002244, -0.12558833783699094 
3.1700000000022652, -0.11935267361607071 
3.1800000000022863, -0.11517085682389834 
3.1900000000023074, -0.11235469200447423 
3.2000000000023285, -0.11042688550710758 
3.2100000000023496, -0.10908359389339799 
3.2200000000023707, -0.10813961658132196 
3.230000000002392, -0.10748775526095881 
3.240000000002413, -0.10707426785213107 
3.250000000002434, -0.1068869055652274 
3.260000000002455, -0.10695302972658076 
3.2700000000024763, -0.1073474351101743 
3.2800000000024974, -0.10821127917743945 
3.2900000000025185, -0.10978274446947758 
3.3000000000025396, -0.11242791040401996 
3.3100000000025607, -0.11660717714417113 
3.3200000000025818, -0.12255619791431542 
3.330000000002603, -0.1292618410247127 
3.340000000002624, -0.13304637954656412 
3.350000000002645, -0.12905043980716624 
3.360000000002666, -0.11722514499543088 
3.3700000000026873, -0.10320413854916748 
3.3800000000027084, -0.09168250262295635 
3.3900000000027295, -0.08371069232960256 
3.4000000000027506, -0.07854699043902999 
3.4100000000027717, -0.0752443826910769 
3.420000000002793, -0.07311371907016197 
3.430000000002814, -0.07172592302954697 
3.440000000002835, -0.07083011756844128 
3.450000000002856, -0.07028782125750971 
3.460000000002877, -0.07003380305079884 
3.4700000000028983, -0.07005743855595793 
3.4800000000029194, -0.07039952211070875 
3.4900000000029405, -0.07116359038484436 
3.5000000000029616, -0.07254525465460414 
3.5100000000029827, -0.07488701653636326 
3.520000000003004, -0.07876393890983586 
3.530000000003025, -0.08507074571949536 
3.540000000003046, -0.09493016634790939 
3.550000000003067, -0.10888441024388704 
3.5600000000030882, -0.12490482974356043 
3.5700000000031094, -0.137521140423753 
3.5800000000031305, -0.14241250801159172 
3.5900000000031516, -0.14101268378350604 
3.6000000000031727, -0.13733787998546493 
3.6100000000031938, -0.1338600082286461 
3.620000000003215, -0.13126854243345756 
3.630000000003236, -0.12949886847013678 
3.640000000003257, -0.12833067689170213 
3.650000000003278, -0.12757634203191454 
3.6600000000032993, -0.12711055767147728 
3.6700000000033204, -0.12686030658468 
3.6800000000033415, -0.12679187637745767 
3.6900000000033626, -0.12690318583340926 
3.7000000000033837, -0.1272224233858477 
3.710000000003405, -0.127813086722591 
3.720000000003426, -0.12878616993885345 
3.730000000003447, -0.13032079554770712 
3.740000000003468, -0.13269292089204096 
3.750000000003489, -0.13630184166046297 
3.7600000000035103, -0.14165239464197243 
3.7700000000035314, -0.14918713989559737 
3.7800000000035525, -0.1588443378871257 
3.7900000000035736, -0.16952942397495147 
3.8000000000035947, -0.17930993578737509 
3.810000000003616, -0.18666200314970843 
3.820000000003637, -0.19136299030833764 
3.830000000003658, -0.19407617514785488 
3.840000000003679, -0.19557159525684903 
3.8500000000037002, -0.19638680182387055 
3.8600000000037213, -0.19682895984786838 
3.8700000000037424, -0.19706038483897953 
3.8800000000037635, -0.19716587182947934 
3.8900000000037847, -0.19719153834416625 
3.9000000000038058, -0.19716561763924972 
3.910000000003827, -0.19711026446721167 
3.920000000003848, -0.19704938064481398 
3.930000000003869, -0.19701445196273654 
3.94000000000389, -0.19704842682622764 
3.9500000000039113, -0.19720669045140626 
3.9600000000039324, -0.19755415993331865 
3.9700000000039535, -0.19815763035787046 
3.9800000000039746, -0.19907166189393455 
3.9900000000039957, -0.20031589892491913 
4.000000000004016, -0.20184707308251287 
4.010000000003993, -0.2035427800831986 
4.02000000000397, -0.20522230785269374 
4.030000000003946, -0.20670709604922544 
4.040000000003923, -0.20788184176968327 
4.0500000000039, -0.20871336464642098 
4.0600000000038765, -0.20922684479833423 
4.070000000003853, -0.20946951366733577 
4.08000000000383, -0.20948437771230824 
4.090000000003807, -0.20929785284393546 
4.100000000003783, -0.2089165957563462 
4.11000000000376, -0.20832952308417876 
4.120000000003737, -0.20751459916521772 
4.130000000003713, -0.20645256781706442 
4.14000000000369, -0.20514840592378722 
4.150000000003667, -0.20365340661491751 
4.1600000000036434, -0.20207105965481573 
4.17000000000362, -0.20053373647502845 
4.180000000003597, -0.19916054155648866 
4.1900000000035735, -0.1980243137289647 
4.20000000000355, -0.19714424322402807 
4.210000000003527, -0.19649761046093675 
4.220000000003504, -0.1960366299154592 
4.23000000000348, -0.19570295398723742 
4.240000000003457, -0.1954387739825243 
4.250000000003434, -0.19519449005890732 
4.26000000000341, -0.19493205818671078 
4.270000000003387, -0.1946236359332135 
4.280000000003364, -0.19424650419258477 
4.2900000000033405, -0.19377553407113438 
4.300000000003317, -0.19317321391559758 
4.310000000003294, -0.19237517395976672 
4.320000000003271, -0.19126713261880535 
4.330000000003247, -0.18964938403089032 
4.340000000003224, -0.18719532545870643 
4.350000000003201, -0.18344931049491486 
4.360000000003177, -0.17797772737421058 
4.370000000003154, -0.17075707920855512 
4.380000000003131, -0.16252436291764605 
4.390000000003107, -0.15452156782818233 
4.400000000003084, -0.1477458249561875 
4.410000000003061, -0.14253710181917237 
4.4200000000030375, -0.13874244224174748 
4.430000000003014, -0.13603354599906334 
4.440000000002991, -0.13409574921785222 
4.450000000002968, -0.13268746975064288 
4.460000000002944, -0.1316401402585943 
4.470000000002921, -0.13084226320537168 
4.480000000002898, -0.1302238440422081 
4.490000000002874, -0.1297451202360191 
4.500000000002851, -0.1293897174785276 
4.510000000002828, -0.12916158540566747 
4.520000000002804, -0.12908473275523255 
4.530000000002781, -0.1292032479298063 
4.540000000002758, -0.1295731815257308 
4.5500000000027345, -0.13021940256351208 
4.560000000002711, -0.13098463183778056 
4.570000000002688, -0.13113734904713198 
4.580000000002665, -0.12876526218837303 
4.590000000002641, -0.12099061615026815 
4.600000000002618, -0.10679153487860715 
4.610000000002595, -0.0896833043072425 
4.620000000002571, -0.07460470866968476 
4.630000000002548, -0.06366888416013543 
4.640000000002525, -0.05644301080627619 
4.6500000000025015, -0.05179690331561211 
4.660000000002478, -0.04878899234419617 
4.670000000002455, -0.04680214408388184 
4.6800000000024315, -0.04546405135461508 
4.690000000002408, -0.04455823430884222 
4.700000000002385, -0.043964793196407115 
4.710000000002362, -0.043627195962046415 
4.720000000002338, -0.04353706001502701 
4.730000000002315, -0.04373215951002817 
4.740000000002292, -0.04430636443475163 
4.750000000002268, -0.04543192674534485 
4.760000000002245, -0.04738975610513658 
4.770000000002222, -0.050573280937702206 
4.7800000000021985, -0.055321438322430506 
4.790000000002175, -0.06119312746127638 
4.800000000002152, -0.0654169639210067 
4.810000000002129, -0.06272838183978369 
4.820000000002105, -0.050901679627735764 
