t, s[1].omega / s[0].omega 
0, -0.9400110299755499 
0.009999999999999995, -0.9410113548094655 
0.019999999999999934, -0.9417774092333628 
0.029999999999999874, -0.9422807673184789 
0.04000000000000012, -0.9425206976622018 
0.050000000000000405, -0.9425212748730745 
0.06000000000000069, -0.9423224243913678 
0.07000000000000098, -0.9419721287299657 
0.08000000000000126, -0.9415249877321882 
0.09000000000000155, -0.9410475921735391 
0.10000000000000184, -0.9406268273113222 
0.11000000000000212, -0.9403737469361854 
0.12000000000000241, -0.9404146252066807 
0.130000000000002, -0.9408661594583727 
0.1400000000000009, -0.9418036091167552 
0.1499999999999998, -0.9432389829894303 
0.1599999999999987, -0.945120579034473 
0.1699999999999976, -0.9473499592529773 
0.1799999999999965, -0.9498030496082401 
0.1899999999999954, -0.9523448637886354 
0.1999999999999943, -0.9548364102066282 
0.2099999999999932, -0.9571400296989134 
0.2199999999999921, -0.959131224920595 
0.229999999999991, -0.9607186544010977 
0.2399999999999899, -0.9618627523746769 
0.2499999999999888, -0.9625791705295772 
0.2599999999999877, -0.9629234709674627 
0.2699999999999866, -0.9629677400759175 
0.2799999999999855, -0.962782980150014 
0.2899999999999844, -0.9624340326013598 
0.2999999999999833, -0.9619866486789729 
0.3099999999999822, -0.9615231868525184 
0.3199999999999811, -0.9611608999576464 
0.32999999999998, -0.9610617105640484 
0.3399999999999789, -0.9614184787569269 
0.3499999999999778, -0.9624107071849736 
0.35999999999997667, -0.9641456254881315 
0.36999999999997557, -0.966618338593231 
0.37999999999997447, -0.9697127586506783 
0.38999999999997337, -0.9732339449376628 
0.39999999999997227, -0.9769464909376293 
0.40999999999997117, -0.9806038060887573 
0.41999999999997006, -0.9839715123563776 
0.42999999999996896, -0.9868550921260617 
0.43999999999996786, -0.9891316698519829 
0.44999999999996676, -0.9907697585997786 
0.45999999999996566, -0.9918203925825612 
0.46999999999996456, -0.9923831697490904 
0.47999999999996346, -0.9925682735919252 
0.48999999999996235, -0.9924726127577287 
0.49999999999996125, -0.9921746382763474 
0.5099999999999602, -0.9917441045151787 
0.519999999999959, -0.99126216760765 
0.529999999999958, -0.9908468052177962 
0.5399999999999568, -0.9906726633089769 
0.5499999999999557, -0.9909653701788163 
0.5599999999999546, -0.9919531097615921 
0.5699999999999535, -0.9937869718584732 
0.5799999999999524, -0.996476430595955 
0.5899999999999513, -0.9998814494480985 
0.5999999999999502, -1.0037566701063922 
0.6099999999999491, -1.0078102853212425 
0.619999999999948, -1.0117500737771206 
0.6299999999999469, -1.0153160616118708 
0.6399999999999458, -1.018310689496198 
0.6499999999999447, -1.020626655385727 
0.6599999999999436, -1.022257253382667 
0.6699999999999425, -1.0232770421243242 
0.6799999999999414, -1.0238017225764036 
0.6899999999999403, -1.0239497793074905 
0.6999999999999392, -1.023821634636898 
0.7099999999999381, -1.0234982000454336 
0.719999999999937, -1.0230539274420578 
0.7299999999999359, -1.022579061044544 
0.7399999999999348, -1.0222038829659932 
0.7499999999999337, -1.0221100405175547 
0.7599999999999326, -1.0225080245169071 
0.7699999999999315, -1.0235742837553383 
0.7799999999999304, -1.0253787080532415 
0.7899999999999293, -1.027852995642391 
0.7999999999999282, -1.0308183633641161 
0.8099999999999271, -1.0340432118867797 
0.819999999999926, -1.0372921940180417 
0.8299999999999249, -1.0403531654077427 
0.8399999999999238, -1.043051153039705 
0.8499999999999227, -1.0452616579647394 
0.8599999999999216, -1.0469243702537567 
0.8699999999999205, -1.048047013072104 
0.8799999999999194, -1.0486910844223365 
0.8899999999999183, -1.0489450382084164 
0.8999999999999172, -1.0488995655464812 
0.9099999999999161, -1.048635759513918 
0.919999999999915, -1.0482280044138022 
0.9299999999999139, -1.0477577003460985 
0.9399999999999128, -1.0473303746712561 
0.9499999999999117, -1.0470835865996289 
0.9599999999999106, -1.0471703186516523 
0.9699999999999095, -1.0477146421366024 
0.9799999999999084, -1.0487631564690516 
0.9899999999999073, -1.050267331609922 
0.9999999999999062, -1.0521069544335675 
1.0099999999999052, -1.054132113020207 
1.019999999999904, -1.056196775439886 
1.029999999999903, -1.0581743750245365 
1.039999999999902, -1.059960686098122 
1.0499999999999008, -1.0614734928409002 
1.0599999999998997, -1.0626554617043613 
1.0699999999998986, -1.0634799975904374 
1.0799999999998975, -1.063954207382422 
1.0899999999998964, -1.0641138424362677 
1.0999999999998953, -1.0640119831756407 
1.1099999999998942, -1.0637087430261343 
1.119999999999893, -1.0632681687878278 
1.129999999999892, -1.0627630049823664 
1.1399999999998909, -1.0622819115708393 
1.1499999999998898, -1.0619291945336085 
1.1599999999998887, -1.0618083326213292 
1.1699999999998876, -1.0619923132653362 
1.1799999999998865, -1.0624986978412576 
1.1899999999998854, -1.0632867527581065 
1.1999999999998843, -1.0642759522967933 
1.2099999999998832, -1.0653712415961205 
1.219999999999882, -1.066482508418185 
1.229999999999881, -1.067534346342313 
1.2399999999998799, -1.0684678463785506 
1.2499999999998788, -1.0692381728757272 
1.2599999999998777, -1.0698118393955727 
1.2699999999998766, -1.0701663913687323 
1.2799999999998755, -1.07029266049049 
1.2899999999998744, -1.0701971841268383 
1.2999999999998733, -1.069902261636771 
1.3099999999998722, -1.0694438845435357 
1.319999999999871, -1.068870201569954 
1.32999999999987, -1.0682420857715813 
1.3399999999998689, -1.0676333530292206 
1.3499999999998678, -1.0671251157627226 
1.3599999999998666, -1.066791126908369 
1.3699999999998655, -1.0666788945937657 
1.3799999999998644, -1.0667969566505087 
1.3899999999998633, -1.0671148117597906 
1.3999999999998622, -1.0675735716794814 
1.4099999999998611, -1.0681012662435674 
1.41999999999986, -1.0686271433317687 
1.429999999999859, -1.0690911881911225 
1.4399999999998578, -1.0694478756419037 
1.4499999999998567, -1.0696657077728886 
1.4599999999998556, -1.0697247924269604 
1.4699999999998545, -1.0696141844503113 
1.4799999999998534, -1.0693302609142101 
1.4899999999998523, -1.068876892023029 
1.4999999999998512, -1.0682671388940062 
1.5099999999998501, -1.0675254665552854 
1.519999999999849, -1.0666896919877555 
1.529999999999848, -1.065812028693095 
1.5399999999998468, -1.0649575694107227 
1.5499999999998457, -1.0641977371908364 
1.5599999999998446, -1.0635980496229456 
1.5699999999998435, -1.0632033690121783 
1.5799999999998424, -1.063026023319369 
1.5899999999998413, -1.0630414970566493 
1.5999999999998402, -1.0631942051310062 
1.6099999999998391, -1.0634116858567912 
1.619999999999838, -1.0636205417616886 
1.629999999999837, -1.0637571364478833 
1.6399999999998358, -1.0637714073629732 
1.6499999999998347, -1.0636269889989673 
1.6599999999998336, -1.0633009245722174 
1.6699999999998325, -1.0627834861200458 
1.6799999999998314, -1.0620770018995234 
1.6899999999998303, -1.0611936239121316 
1.6999999999998292, -1.060153688145395 
1.709999999999828, -1.0589862445983287 
1.719999999999827, -1.0577316011054967 
1.729999999999826, -1.056444048125684 
1.7399999999998248, -1.0551921014179961 
1.7499999999998237, -1.0540536432233152 
1.7599999999998226, -1.0531045098595624 
1.7699999999998215, -1.0524015110115332 
1.7799999999998204, -1.0519646455261893 
1.7899999999998193, -1.051767339652364 
1.7999999999998182, -1.0517425850600397 
1.809999999999817, -1.0518028927259429 
1.819999999999816, -1.0518615873358859 
1.8299999999998149, -1.0518443792126617 
1.8399999999998138, -1.0516904889146663 
1.8499999999998127, -1.0513499124145151 
1.8599999999998116, -1.050783146207528 
1.8699999999998105, -1.0499650198958324 
1.8799999999998094, -1.048889531703525 
1.8899999999998083, -1.047571295382515 
1.8999999999998072, -1.0460425061298453 
1.909999999999806, -1.0443486641979516 
1.919999999999805, -1.0425469109393413 
1.9299999999998039, -1.0407076007403229 
1.9399999999998028, -1.0389161205405046 
1.9499999999998017, -1.037270243967795 
1.9599999999998006, -1.035868695172028 
1.9699999999997995, -1.0347896825120513 
1.9799999999997984, -1.0340653285581292 
1.9899999999997973, -1.0336662941716515 
1.9999999999997962, -1.0335096372842583 
2.0099999999998173, -1.033486692490567 
2.0199999999998384, -1.0334921769476515 
2.0299999999998595, -1.0334386558605997 
2.0399999999998806, -1.0332555077505898 
2.0499999999999017, -1.0328814463162304 
2.059999999999923, -1.0322599118989229 
2.069999999999944, -1.0313422001139787 
2.079999999999965, -1.0300974433567935 
2.089999999999986, -1.0285232000664748 
2.100000000000007, -1.0266492765446344 
2.1100000000000283, -1.0245329550915636 
2.1200000000000494, -1.0222509391114643 
2.1300000000000705, -1.0198943880721731 
2.1400000000000916, -1.01756817954647 
2.1500000000001127, -1.0153897555613052 
2.160000000000134, -1.0134805783185636 
2.170000000000155, -1.011945514134252 
2.180000000000176, -1.010843430942058 
2.190000000000197, -1.0101636954878048 
2.2000000000002182, -1.009826728711355 
2.2100000000002393, -1.0097118602364072 
2.2200000000002604, -1.0096942380423841 
2.2300000000002815, -1.0096686654796074 
2.2400000000003026, -1.0095534183283645 
2.2500000000003237, -1.0092817009334127 
2.260000000000345, -1.008791847989941 
2.270000000000366, -1.008024085746227 
2.280000000000387, -1.0069269912716514 
2.290000000000408, -1.0054712030514854 
2.3000000000004293, -1.0036622707745042 
2.3100000000004504, -1.001543913384548 
2.3200000000004715, -0.9991903590100597 
2.3300000000004926, -0.9966949779735211 
2.3400000000005137, -0.9941629218869681 
2.3500000000005348, -0.9917087655119448 
2.360000000000556, -0.9894537234210947 
2.370000000000577, -0.987515365947543 
2.380000000000598, -0.9859864996483889 
2.390000000000619, -0.9849085886194976 
2.4000000000006403, -0.9842545523719043 
2.4100000000006614, -0.9839353746756332 
2.4200000000006825, -0.9838293124024192 
2.4300000000007036, -0.983815493328715 
2.4400000000007247, -0.9837937297812624 
2.450000000000746, -0.9836865578640728 
2.460000000000767, -0.983431193843523 
2.470000000000788, -0.9829712422048212 
2.480000000000809, -0.9822547799289876 
2.49000000000083, -0.98124092236111 
2.5000000000008513, -0.9799116078092045 
2.5100000000008724, -0.9782807322843317 
2.5200000000008935, -0.9763937070174874 
2.5300000000009146, -0.974318117571509 
2.5400000000009357, -0.9721329611367429 
2.550000000000957, -0.9699228791704174 
2.560000000000978, -0.9677774554676544 
2.570000000000999, -0.9657907809458871 
2.58000000000102, -0.9640558270394509 
2.5900000000010412, -0.9626508960157949 
2.6000000000010624, -0.9616206255944004 
2.6100000000010835, -0.960960168221459 
2.6200000000011046, -0.960613304310135 
2.6300000000011257, -0.960488216766452 
2.6400000000011468, -0.9604824118654524 
2.650000000001168, -0.9605029501272766 
2.660000000001189, -0.9604744827829439 
2.67000000000121, -0.9603373981900264 
2.680000000001231, -0.9600431095520271 
2.6900000000012523, -0.95955244352361 
2.7000000000012734, -0.958839133468401 
2.7100000000012945, -0.957895792467852 
2.7200000000013156, -0.9567369519784974 
2.7300000000013367, -0.9553956822727804 
2.740000000001358, -0.9539158879383788 
2.750000000001379, -0.9523458005006159 
2.7600000000014, -0.9507361385302386 
2.770000000001421, -0.9491419412948796 
2.780000000001442, -0.9476244746918672 
2.7900000000014633, -0.9462497265648027 
2.8000000000014844, -0.9450816555835251 
2.8100000000015055, -0.9441707135714207 
2.8200000000015266, -0.9435409371435508 
2.8300000000015477, -0.9431812202315581 
2.840000000001569, -0.9430460844202443 
2.85000000000159, -0.9430667336303393 
2.860000000001611, -0.9431669645569007 
2.870000000001632, -0.943276290857885 
2.8800000000016532, -0.9433363279917076 
2.8900000000016743, -0.9433018525739113 
2.9000000000016954, -0.9431403170207702 
2.9100000000017165, -0.9428322004844105 
2.9200000000017377, -0.9423716088809811 
2.9300000000017588, -0.9417649518024739 
2.94000000000178, -0.9410269709013379 
2.950000000001801, -0.94017626818415 
2.960000000001822, -0.9392333250243317 
2.970000000001843, -0.938221920656645 
2.9800000000018643, -0.9371723773576173 
2.9900000000018854, -0.9361242838818254 
3.0000000000019065, -0.9351268213322737 
3.0100000000019276, -0.9342354244691359 
3.0200000000019487, -0.9335043803604876 
3.03000000000197, -0.9329766195632698 
3.040000000001991, -0.9326737935574636 
3.050000000002012, -0.9325904130117004 
3.060000000002033, -0.9326946584842426 
3.070000000002054, -0.9329357938415047 
3.0800000000020753, -0.9332551483318703 
3.0900000000020964, -0.9335963590499896 
3.1000000000021175, -0.9339119780340838 
3.1100000000021386, -0.9341661455419704 
3.1200000000021597, -0.9343344641676289 
3.130000000002181, -0.9344020052877798 
3.140000000002202, -0.9343600499286989 
3.150000000002223, -0.9342028479215537 
3.160000000002244, -0.9339263864547757 
3.1700000000022652, -0.9335301760867047 
3.1800000000022863, -0.9330208421013573 
3.1900000000023074, -0.9324152969125958 
3.2000000000023285, -0.9317424343195739 
3.2100000000023496, -0.9310437076495219 
3.2200000000023707, -0.9303726296539512 
3.230000000002392, -0.929791707950811 
3.240000000002413, -0.9293649278302537 
3.250000000002434, -0.9291461099966145 
3.260000000002455, -0.9291669766083401 
3.2700000000024763, -0.9294301787820579 
3.2800000000024974, -0.9299102035074084 
3.2900000000025185, -0.9305610595702432 
3.3000000000025396, -0.9313269892750424 
3.3100000000025607, -0.9321521652476953 
3.3200000000025818, -0.9329866875863153 
3.330000000002603, -0.9337881155324137 
3.340000000002624, -0.9345194969168931 
3.350000000002645, -0.9351462313079393 
3.360000000002666, -0.9356348991668145 
3.3700000000026873, -0.9359563272257706 
3.3800000000027084, -0.9360919880025662 
3.3900000000027295, -0.936039591292061 
3.4000000000027506, -0.9358141900854898 
3.4100000000027717, -0.9354452993077682 
3.420000000002793, -0.9349738845499272 
3.430000000002814, -0.9344524177823018 
3.440000000002835, -0.933947653597764 
3.450000000002856, -0.933542063719438 
3.460000000002877, -0.933328329043064 
3.4700000000028983, -0.933394111186798 
3.4800000000029194, -0.9338013959328328 
3.4900000000029405, -0.9345705989189701 
3.5000000000029616, -0.935677715010461 
3.5100000000029827, -0.9370642036501842 
3.520000000003004, -0.9386522461574804 
3.530000000003025, -0.9403574829175525 
3.540000000003046, -0.9420953222481266 
3.550000000003067, -0.9437816521613712 
3.5600000000030882, -0.9453324127508027 
3.5700000000031094, -0.9466677029715889 
3.5800000000031305, -0.9477229586337298 
3.5900000000031516, -0.9484626285744275 
3.6000000000031727, -0.9488869547682086 
3.6100000000031938, -0.9490266266514098 
3.620000000003215, -0.9489297419583347 
3.630000000003236, -0.9486504043390551 
3.640000000003257, -0.9482453645866338 
3.650000000003278, -0.9477796127402087 
3.6600000000032993, -0.9473375701248887 
3.6700000000033204, -0.9470328676701687 
3.6800000000033415, -0.9470065381226094 
3.6900000000033626, -0.9474053510288798 
3.7000000000033837, -0.9483437539547367 
3.710000000003405, -0.9498680230415888 
3.720000000003426, -0.9519429715829132 
3.730000000003447, -0.9544650513262984 
3.740000000003468, -0.9572880918524099 
3.750000000003489, -0.9602456339212135 
3.7600000000035103, -0.9631642628029209 
3.7700000000035314, -0.9658736624977277 
3.7800000000035525, -0.9682227118741187 
3.7900000000035736, -0.9701036111539688 
3.8000000000035947, -0.9714727576095539 
3.810000000003616, -0.9723525816064452 
3.820000000003637, -0.9728113083007119 
3.830000000003658, -0.9729341568777239 
3.840000000003679, -0.9728021430757818 
3.8500000000037002, -0.9724855462465744 
3.8600000000037213, -0.9720509539944946 
3.8700000000037424, -0.9715781131403782 
3.8800000000037635, -0.9711812257663499 
3.8900000000037847, -0.9710241737894385 
3.9000000000038058, -0.9713127855038749 
3.910000000003827, -0.9722516576631233 
3.920000000003848, -0.9739771272731291 
3.930000000003869, -0.9765039642054798 
3.94000000000389, -0.9797176172378892 
3.9500000000039113, -0.9834080370247525 
3.9600000000039324, -0.9873160675005168 
3.9700000000039535, -0.991170898769937 
3.9800000000039746, -0.9947186921030704 
3.9900000000039957, -0.9977526189024388 
4.000000000004016, -1.000145063663879 
4.010000000003993, -1.0018662286698796 
4.02000000000397, -1.0029729016158897 
4.030000000003946, -1.0035717712378238 
4.040000000003923, -1.0037793932194974 
4.0500000000039, -1.0036973934876148 
4.0600000000038765, -1.0034072307591577 
4.070000000003853, -1.0029803332659601 
4.08000000000383, -1.002498682137329 
4.090000000003807, -1.0020805675883475 
4.100000000003783, -1.0019001501912226 
4.11000000000376, -1.002180275571553 
4.120000000003737, -1.0031417641003952 
4.130000000003713, -1.0049232205923835 
4.14000000000369, -1.0075202683584015 
4.150000000003667, -1.010784313897949 
4.1600000000036434, -1.0144717194546087 
4.17000000000362, -1.018303250357192 
4.180000000003597, -1.0220069987191396 
4.1900000000035735, -1.0253458951879713 
4.20000000000355, -1.0281418972642113 
4.210000000003527, -1.030298820660603 
4.220000000003504, -1.0318110888905108 
4.23000000000348, -1.0327470082935122 
4.240000000003457, -1.0332132701261472 
4.250000000003434, -1.033320352276952 
4.26000000000341, -1.0331635141052753 
4.270000000003387, -1.032821869854857 
4.280000000003364, -1.0323713314748917 
4.2900000000033405, -1.0319057792354702 
4.300000000003317, -1.0315576999922942 
4.310000000003294, -1.0315022025158762 
4.320000000003271, -1.031926619099497 
4.330000000003247, -1.0329681162403916 
4.340000000003224, -1.0346557611139235 
4.350000000003201, -1.0368988161281507 
4.360000000003177, -1.0395240980619973 
4.370000000003154, -1.042328688656349 
4.380000000003131, -1.045117547011563 
4.390000000003107, -1.0477203933808283 
4.400000000003084, -1.0499986036250564 
4.410000000003061, -1.05185311099858 
4.4200000000030375, -1.0532345879354632 
4.430000000003014, -1.0541476091456552 
4.440000000002991, -1.0546411477814086 
4.450000000002968, -1.0547884140183363 
4.460000000002944, -1.0546674117880501 
4.470000000002921, -1.0543517182718185 
4.480000000002898, -1.0539137657619013 
4.490000000002874, -1.0534369138133557 
4.500000000002851, -1.0530278581936563 
4.510000000002828, -1.052816407495455 
4.520000000002804, -1.0529316007735279 
4.530000000002781, -1.0534598307770437 
4.540000000002758, -1.0544115721955873 
4.5500000000027345, -1.0557208228659123 
4.560000000002711, -1.0572737605922626 
4.570000000002688, -1.0589435596048091 
4.580000000002665, -1.0606136883658501 
4.590000000002641, -1.0621866822290777 
4.600000000002618, -1.0635839975388 
4.610000000002595, -1.064744099065159 
4.620000000002571, -1.0656235720546443 
4.630000000002548, -1.0662013846020235 
4.640000000002525, -1.0664820092087248 
4.6500000000025015, -1.0664930890972095 
4.660000000002478, -1.0662782904893575 
4.670000000002455, -1.0658906033795443 
4.6800000000024315, -1.0653908709786435 
4.690000000002408, -1.0648515211437641 
4.700000000002385, -1.064359745069015 
4.710000000002362, -1.0640113876298338 
4.720000000002338, -1.0638912752085412 
4.730000000002315, -1.0640479306532764 
4.740000000002292, -1.0644789120778175 
4.750000000002268, -1.065135622480732 
4.760000000002245, -1.065941665558165 
4.770000000002222, -1.0668130966952152 
4.7800000000021985, -1.06767311140712 
4.790000000002175, -1.0684592276034799 
4.800000000002152, -1.0691242515839063 
4.810000000002129, -1.0696337981778319 
4.820000000002105, -1.0699633915066908 
4.830000000002082, -1.0700974059141903 
4.840000000002059, -1.070030377590155 
4.850000000002035, -1.069769219265209 
4.860000000002012, -1.0693343846026637 
4.870000000001989, -1.0687597240610938 
4.880000000001965, -1.0680924066849493 
4.890000000001942, -1.06739324666446 
4.900000000001919, -1.066734681625492 
4.9100000000018955, -1.0661923181786335 
4.920000000001872, -1.0658296855585672 
4.930000000001849, -1.0656822463865023 
