t, s[1].omega / s[0].omega 
0, -0.9599598200707271 
0.009999999999999995, -0.9557442694759821 
0.019999999999999934, -0.9513039816895301 
0.029999999999999874, -0.9469025187843856 
0.04000000000000012, -0.9427981252989724 
0.050000000000000405, -0.9392176838682769 
0.06000000000000069, -0.9363285988493691 
0.07000000000000098, -0.9342079074325669 
0.08000000000000126, -0.9328235932418281 
0.09000000000000155, -0.9320466545078213 
0.10000000000000184, -0.9316946313789947 
0.11000000000000212, -0.9315839283639654 
0.12000000000000241, -0.9315646355429266 
0.130000000000002, -0.9315287405948045 
0.1400000000000009, -0.9313998503529627 
0.1499999999999998, -0.9311171877651023 
0.1599999999999987, -0.9306230009852555 
0.1699999999999976, -0.929858399459623 
0.1799999999999965, -0.9287699429193047 
0.1899999999999954, -0.927325339780346 
0.1999999999999943, -0.9255301453838392 
0.2099999999999932, -0.9234338156912874 
0.2199999999999921, -0.9211199711237302 
0.229999999999991, -0.9186880595213751 
0.2399999999999899, -0.9162384452847485 
0.2499999999999888, -0.913866458685732 
0.2599999999999877, -0.9116621923860488 
0.2699999999999866, -0.9097094973660017 
0.2799999999999855, -0.9080796278006836 
0.2899999999999844, -0.9068194261380185 
0.2999999999999833, -0.905938731699151 
0.3099999999999822, -0.9054045282642413 
0.3199999999999811, -0.9051472385119549 
0.32999999999998, -0.905077455781195 
0.3399999999999789, -0.9051048269179265 
0.3499999999999778, -0.9051507787915256 
0.35999999999997667, -0.9051525265122298 
0.36999999999997557, -0.905061470896175 
0.37999999999997447, -0.9048408994512289 
0.38999999999997337, -0.9044661623622376 
0.39999999999997227, -0.9039270713344859 
0.40999999999997117, -0.9032293523561897 
0.41999999999997006, -0.9023920485862973 
0.42999999999996896, -0.9014413062481148 
0.43999999999996786, -0.9004044790615978 
0.44999999999996676, -0.8993081286780276 
0.45999999999996566, -0.8981801121284978 
0.46999999999996456, -0.8970532778325669 
0.47999999999996346, -0.895968007021789 
0.48999999999996235, -0.8949718029004513 
0.49999999999996125, -0.8941151409833619 
0.5099999999999602, -0.8934439186101608 
0.519999999999959, -0.8929903267683825 
0.529999999999958, -0.8927651926601735 
0.5399999999999568, -0.8927548336193325 
0.5499999999999557, -0.8929238956876853 
0.5599999999999546, -0.8932231475097614 
0.5699999999999535, -0.8935991424757155 
0.5799999999999524, -0.8940024013123204 
0.5899999999999513, -0.8943922911561945 
0.5999999999999502, -0.8947385587085158 
0.6099999999999491, -0.8950202020554141 
0.619999999999948, -0.8952223670914877 
0.6299999999999469, -0.8953324401450408 
0.6399999999999458, -0.8953375240556769 
0.6499999999999447, -0.895225376211519 
0.6599999999999436, -0.8949886320257713 
0.6699999999999425, -0.8946295821565456 
0.6799999999999414, -0.8941628037976537 
0.6899999999999403, -0.893615487239181 
0.6999999999999392, -0.8930272535546345 
0.7099999999999381, -0.8924505627628327 
0.719999999999937, -0.8919504232011825 
0.7299999999999359, -0.8916004138968312 
0.7399999999999348, -0.8914729561984386 
0.7499999999999337, -0.8916254741572309 
0.7599999999999326, -0.8920879393635438 
0.7699999999999315, -0.8928575585005903 
0.7799999999999304, -0.8939023550925954 
0.7899999999999293, -0.8951705736448685 
0.7999999999999282, -0.8966007158598688 
0.8099999999999271, -0.8981280185504399 
0.819999999999926, -0.8996858227624349 
0.8299999999999249, -0.901203411545838 
0.8399999999999238, -0.9026047654603948 
0.8499999999999227, -0.9038135710764743 
0.8599999999999216, -0.9047661608162775 
0.8699999999999205, -0.9054265600317247 
0.8799999999999194, -0.9057935995844714 
0.8899999999999183, -0.905895417038832 
0.8999999999999172, -0.9057766013736657 
0.9099999999999161, -0.9054873595666914 
0.919999999999915, -0.905080668905207 
0.9299999999999139, -0.9046182408421697 
0.9399999999999128, -0.9041826674092507 
0.9499999999999117, -0.9038901580677047 
0.9599999999999106, -0.9038947342310031 
0.9699999999999095, -0.9043737916729399 
0.9799999999999084, -0.905492304494205 
0.9899999999999073, -0.9073578173679255 
0.9999999999999062, -0.909987731806523 
1.0099999999999052, -0.91330231756093 
1.019999999999904, -0.9171387062348719 
1.029999999999903, -0.9212717847682486 
1.039999999999902, -0.9254348756782335 
1.0499999999999008, -0.9293465739191615 
1.0599999999998997, -0.9327536714414506 
1.0699999999998986, -0.9354842698952315 
1.0799999999998975, -0.9374830701546395 
1.0899999999998964, -0.938803337254563 
1.0999999999998953, -0.9395620749215199 
1.1099999999998942, -0.9398895468200233 
1.119999999999893, -0.9398974488437597 
1.129999999999892, -0.9396698991502583 
1.1399999999998909, -0.9392708516886483 
1.1499999999998898, -0.9387625866608078 
1.1599999999998887, -0.9382341822641113 
1.1699999999998876, -0.9378389160800771 
1.1799999999998865, -0.937830515471696 
1.1899999999998854, -0.9385711826025602 
1.1999999999998843, -0.9404759006991771 
1.2099999999998832, -0.9438844893587726 
1.219999999999882, -0.9489113871618985 
1.229999999999881, -0.9553553619531492 
1.2399999999998799, -0.9627156152229468 
1.2499999999998788, -0.9703004957156809 
1.2599999999998777, -0.9773900898043747 
1.2699999999998766, -0.9834113064421652 
1.2799999999998755, -0.9880667112140191 
1.2899999999998744, -0.9913552705228247 
1.2999999999998733, -0.9934818529095943 
1.3099999999998722, -0.9947257490367726 
1.319999999999871, -0.9953429840511043 
1.32999999999987, -0.995525595972109 
1.3399999999998689, -0.9954012187952446 
1.3499999999998678, -0.9950510925412462 
1.3599999999998666, -0.9945361284760732 
1.3699999999998655, -0.9939319184575227 
1.3799999999998644, -0.9933776819887902 
1.3899999999998633, -0.9931351175904719 
1.3999999999998622, -0.9936252464194718 
1.4099999999998611, -0.9953801440989256 
1.41999999999986, -0.998867366811951 
1.429999999999859, -1.0042510889489207 
1.4399999999998578, -1.0112477395923274 
1.4499999999998567, -1.0191791048521854 
1.4599999999998556, -1.0271793351579803 
1.4699999999998545, -1.0344414662034174 
1.4799999999998534, -1.040412827403526 
1.4899999999998523, -1.0448831121323603 
1.4999999999998512, -1.047943942023484 
1.5099999999998501, -1.0498598241945003 
1.519999999999849, -1.0509326328699615 
1.529999999999848, -1.0514181715598405 
1.5399999999998468, -1.0515002836824832 
1.5499999999998457, -1.0512999530401546 
1.5599999999998446, -1.0508995852668102 
1.5699999999998435, -1.050375474728083 
1.5799999999998424, -1.0498393659325183 
1.5899999999998413, -1.0494852496930056 
1.5999999999998402, -1.0496160101032395 
1.6099999999998391, -1.0506016798071298 
1.619999999999838, -1.0527456890253408 
1.629999999999837, -1.0561263472516758 
1.6399999999998358, -1.0605356332338995 
1.6499999999998347, -1.0655563397260417 
1.6599999999998336, -1.0707010763315261 
1.6699999999998325, -1.0755260289604207 
1.6799999999998314, -1.079696545938729 
1.6899999999998303, -1.0830195181612994 
1.6999999999998292, -1.0854494000751729 
1.709999999999828, -1.0870623679774416 
1.719999999999827, -1.088004180002682 
1.729999999999826, -1.0884351964417731 
1.7399999999998248, -1.088494802379323 
1.7499999999998237, -1.0882912718061946 
1.7599999999998226, -1.087911333709957 
1.7699999999998215, -1.0874419074860429 
1.7799999999998204, -1.0869964805133119 
1.7899999999998193, -1.0867323547980923 
1.7999999999998182, -1.086836623232784 
1.809999999999817, -1.0874693503700772 
1.819999999999816, -1.0886925482905778 
1.8299999999998149, -1.0904405383649656 
1.8399999999998138, -1.0925530987898435 
1.8499999999998127, -1.094837121927773 
1.8599999999998116, -1.0971137858231663 
1.8699999999998105, -1.0992379282956428 
1.8799999999998094, -1.1010996681866725 
1.8899999999998083, -1.102622037143949 
1.8999999999998072, -1.1037616631173242 
1.909999999999806, -1.1045109679063256 
1.919999999999805, -1.1048959070643802 
1.9299999999998039, -1.1049664832676827 
1.9399999999998028, -1.104784348801545 
1.9499999999998017, -1.1044149014866442 
1.9599999999998006, -1.1039279136159303 
1.9699999999997995, -1.1034043501402933 
1.9799999999997984, -1.102940871475682 
1.9899999999997973, -1.102641091368001 
1.9999999999997962, -1.1025902702564552 
2.0099999999998173, -1.1028267274302088 
2.0199999999998384, -1.103330555616727 
2.0299999999998595, -1.104035849272004 
2.0399999999998806, -1.1048545583337757 
2.0499999999999017, -1.1056980147649003 
2.059999999999923, -1.106490156792209 
2.069999999999944, -1.1071725097541838 
2.079999999999965, -1.1077034374113681 
2.089999999999986, -1.1080548887156931 
2.100000000000007, -1.1082094447552173 
2.1100000000000283, -1.1081592803887428 
2.1200000000000494, -1.10790703109206 
2.1300000000000705, -1.1074672662049256 
2.1400000000000916, -1.1068674746532607 
2.1500000000001127, -1.1061487819532796 
2.160000000000134, -1.1053667410811059 
2.170000000000155, -1.1045903910932464 
2.180000000000176, -1.103895889382865 
2.190000000000197, -1.1033532105343262 
2.2000000000002182, -1.1030099334099994 
2.2100000000002393, -1.1028789404401065 
2.2200000000002604, -1.1029346510151434 
2.2300000000002815, -1.103119364760715 
2.2400000000003026, -1.1033579810917111 
2.2500000000003237, -1.1035746111393057 
2.260000000000345, -1.103703680150232 
2.270000000000366, -1.1036936090882745 
2.280000000000387, -1.1035066001429692 
2.290000000000408, -1.1031182314489851 
2.3000000000004293, -1.1025175161229923 
2.3100000000004504, -1.1017062481965203 
2.3200000000004715, -1.100697442460453 
2.3300000000004926, -1.0995144060669184 
2.3400000000005137, -1.0981919539448115 
2.3500000000005348, -1.096779542050195 
2.360000000000556, -1.0953441917835733 
2.370000000000577, -1.0939699183004057 
2.380000000000598, -1.0927501926191774 
2.390000000000619, -1.0917711056630401 
2.4000000000006403, -1.09108682047743 
2.4100000000006614, -1.0906971205234908 
2.4200000000006825, -1.0905430032353793 
2.4300000000007036, -1.090526904748063 
2.4400000000007247, -1.090543544276304 
2.450000000000746, -1.09050051935998 
2.460000000000767, -1.0903214152342389 
2.470000000000788, -1.0899389730140085 
2.480000000000809, -1.0892892885854628 
2.49000000000083, -1.0883137830366394 
2.5000000000008513, -1.0869693082741738 
2.5100000000008724, -1.085240733572789 
2.5200000000008935, -1.0831483656247132 
2.5300000000009146, -1.0807473881279208 
2.5400000000009357, -1.0781237202717289 
2.550000000000957, -1.0753922370683804 
2.560000000000978, -1.072697583835641 
2.570000000000999, -1.0702098977767283 
2.58000000000102, -1.0681034619579939 
2.5900000000010412, -1.0665124645481097 
2.6000000000010624, -1.0654794830959813 
2.6100000000010835, -1.0649337199422013 
2.6200000000011046, -1.0647226395566987 
2.6300000000011257, -1.0646742893444188 
2.6400000000011468, -1.064644465901794 
2.650000000001168, -1.064527452831793 
2.660000000001189, -1.0642409951801173 
2.67000000000121, -1.0637043591497464 
2.680000000001231, -1.062821870653535 
2.6900000000012523, -1.0614791116852074 
2.7000000000012734, -1.0595571455383672 
2.7100000000012945, -1.0569650663276837 
2.7200000000013156, -1.053679533512845 
2.7300000000013367, -1.0497714719640383 
2.740000000001358, -1.0454082476638518 
2.750000000001379, -1.0408375677594457 
2.7600000000014, -1.0363642534155941 
2.770000000001421, -1.0323173597034074 
2.780000000001442, -1.0289934971464996 
2.7900000000014633, -1.0265765528344317 
2.8000000000014844, -1.025072241207043 
2.8100000000015055, -1.0243125280976337 
2.8200000000015266, -1.0240375820993548 
2.8300000000015477, -1.0239960161840749 
2.840000000001569, -1.024001012308518 
2.85000000000159, -1.0239317780793102 
2.860000000001611, -1.0237061622143953 
2.870000000001632, -1.0232490889947865 
2.8800000000016532, -1.0224676375966768 
2.8900000000016743, -1.0212367721044489 
2.9000000000016954, -1.0194015137725037 
2.9100000000017165, -1.0168040756699834 
2.9200000000017377, -1.0133373527918677 
2.9300000000017588, -1.0090058873247485 
2.94000000000178, -1.0039604330725571 
2.950000000001801, -0.9984866358896485 
2.960000000001822, -0.9929596365368388 
2.970000000001843, -0.9877862543135955 
2.9800000000018643, -0.9833402170142815 
2.9900000000018854, -0.9798873250918965 
3.0000000000019065, -0.9775173454630549 
3.0100000000019276, -0.9761242996991915 
3.0200000000019487, -0.9754613845758445 
3.03000000000197, -0.9752412320976693 
3.040000000001991, -0.9752195571802844 
3.050000000002012, -0.9752265628442467 
3.060000000002033, -0.9751550570332107 
3.070000000002054, -0.974931455804718 
3.0800000000020753, -0.9744878887933484 
3.0900000000020964, -0.9737424064953725 
3.1000000000021175, -0.9725904144630617 
3.1100000000021386, -0.9709121355842377 
3.1200000000021597, -0.9686007550152465 
3.130000000002181, -0.9656062861887162 
3.140000000002202, -0.9619738523255241 
3.150000000002223, -0.9578513189022537 
3.160000000002244, -0.9534623448406544 
3.1700000000022652, -0.9490653939053851 
3.1800000000022863, -0.9449191458623394 
3.1900000000023074, -0.941256339542092 
3.2000000000023285, -0.9382565657290284 
3.2100000000023496, -0.9360149046987936 
3.2200000000023707, -0.9345191774029569 
3.230000000002392, -0.9336555335140698 
3.240000000002413, -0.9332474936797226 
3.250000000002434, -0.9331089110954099 
3.260000000002455, -0.9330831328294245 
3.2700000000024763, -0.9330555603549836 
3.2800000000024974, -0.9329455825918205 
3.2900000000025185, -0.932690738226125 
3.3000000000025396, -0.9322330926872382 
3.3100000000025607, -0.931513435723943 
3.3200000000025818, -0.9304760933407105 
3.330000000002603, -0.9290835907221867 
3.340000000002624, -0.9273341357162028 
3.350000000002645, -0.9252702248310116 
3.360000000002666, -0.9229713854194094 
3.3700000000026873, -0.9205363764388261 
3.3800000000027084, -0.9180670037994281 
3.3900000000027295, -0.9156606469458863 
3.4000000000027506, -0.9134094444705483 
3.4100000000027717, -0.9113996635666419 
3.420000000002793, -0.9097061093477938 
3.430000000002814, -0.9083807093244541 
3.440000000002835, -0.9074393782268817 
3.450000000002856, -0.9068546684368972 
3.460000000002877, -0.9065604033261113 
3.4700000000028983, -0.9064676814560748 
3.4800000000029194, -0.9064843719809993 
3.4900000000029405, -0.9065291648619178 
3.5000000000029616, -0.9065366549852358 
3.5100000000029827, -0.9064560718136464 
3.520000000003004, -0.9062486832667016 
3.530000000003025, -0.9058875226593986 
3.540000000003046, -0.9053597357799434 
3.550000000003067, -0.9046686237119645 
3.5600000000030882, -0.9038318885495793 
3.5700000000031094, -0.9028757565313811 
3.5800000000031305, -0.9018285888839055 
3.5900000000031516, -0.9007179962027996 
3.6000000000031727, -0.8995723022802833 
3.6100000000031938, -0.8984241471942502 
3.620000000003215, -0.897313333943732 
3.630000000003236, -0.896286894201736 
3.640000000003257, -0.895395419389717 
3.650000000003278, -0.8946858392162726 
3.6600000000032993, -0.8941923034561485 
3.6700000000033204, -0.8939281368554942 
3.6800000000033415, -0.8938820251618276 
3.6900000000033626, -0.8940201990074931 
3.7000000000033837, -0.8942938906110836 
3.710000000003405, -0.8946490863462353 
3.720000000003426, -0.8950350848867107 
3.730000000003447, -0.8954098082703761 
3.740000000003468, -0.8957417182334636 
3.750000000003489, -0.8960090492798353 
3.7600000000035103, -0.8961970085462699 
3.7700000000035314, -0.8962938907507889 
3.7800000000035525, -0.8962880847241594 
3.7900000000035736, -0.8961682104402036 
3.8000000000035947, -0.8959267469456851 
3.810000000003616, -0.8955648283406802 
3.820000000003637, -0.8950953539566429 
3.830000000003658, -0.8945437506377211 
3.840000000003679, -0.8939478871018366 
3.8500000000037002, -0.893358361572855 
3.8600000000037213, -0.8928381935986961 
3.8700000000037424, -0.8924591489628858 
3.8800000000037635, -0.892292565054961 
3.8900000000037847, -0.8923959748407555 
3.9000000000038058, -0.892800672603993 
3.910000000003827, -0.8935059415480728 
3.920000000003848, -0.8944820152690849 
3.930000000003869, -0.8956791062100894 
3.94000000000389, -0.897037523294542 
3.9500000000039113, -0.898494630958595 
3.9600000000039324, -0.8999868065819883 
3.9700000000039535, -0.9014474846023782 
3.9800000000039746, -0.9028052034602144 
3.9900000000039957, -0.9039868942534888 
4.000000000004016, -0.9049289865657244 
4.010000000003993, -0.9055920396917063 
4.02000000000397, -0.9059694438357087 
4.030000000003946, -0.9060842673726001 
4.040000000003923, -0.9059777778477531 
4.0500000000039, -0.9056984981462441 
4.0600000000038765, -0.905298351941658 
4.070000000003853, -0.9048374060186724 
4.08000000000383, -0.9043949465658627 
4.090000000003807, -0.9040815968459845 
4.100000000003783, -0.9040438145307592 
4.11000000000376, -0.9044510745756883 
4.120000000003737, -0.9054626989007184 
4.130000000003713, -0.9071852823987696 
4.14000000000369, -0.9096410627044534 
4.150000000003667, -0.91276062882318 
4.1600000000036434, -0.9163960514512766 
4.17000000000362, -0.9203406972759579 
4.180000000003597, -0.9243476831102819 
4.1900000000035735, -0.9281520221834578 
4.20000000000355, -0.9315071520624141 
4.210000000003527, -0.9342342882699175 
4.220000000003504, -0.9362610052160619 
4.23000000000348, -0.9376218541521928 
4.240000000003457, -0.9384207419223689 
4.250000000003434, -0.938782148683622 
4.26000000000341, -0.9388170765402475 
4.270000000003387, -0.9386110716473187 
4.280000000003364, -0.9382293815408811 
4.2900000000033405, -0.9377337202555935 
4.300000000003317, -0.9372089278227588 
4.310000000003294, -0.9367983737851334 
4.320000000003271, -0.9367391875786387 
4.330000000003247, -0.9373727521702341 
4.340000000003224, -0.9390968831235501 
4.350000000003201, -0.9422489693631105 
4.360000000003177, -0.9469634511820392 
4.370000000003154, -0.9530803640032696 
4.380000000003131, -0.9601514957352826 
4.390000000003107, -0.9675335831387375 
4.400000000003084, -0.9745336472410646 
4.410000000003061, -0.9805724510073525 
4.4200000000030375, -0.9853172276857091 
4.430000000003014, -0.9887221130785555 
4.440000000002991, -0.990958243830365 
4.450000000002968, -0.9922897759168245 
4.460000000002944, -0.9929715941462567 
4.470000000002921, -0.9932008648946257 
4.480000000002898, -0.9931112806487592 
4.490000000002874, -0.9927884456077607 
4.500000000002851, -0.9922943708420535 
4.510000000002828, -0.9917004875426944 
4.520000000002804, -0.9911338230712348 
4.530000000002781, -0.9908342750758363 
4.540000000002758, -0.9911961485223602 
4.5500000000027345, -0.9927352703693281 
4.560000000002711, -0.9959335251913167 
4.570000000002688, -1.0010066437905336 
4.580000000002665, -1.0077420243068678 
4.590000000002641, -1.0155217363000273 
4.600000000002618, -1.0235072490108026 
4.610000000002595, -1.0308794229193785 
4.620000000002571, -1.0370419811935556 
4.630000000002548, -1.0417292487073053 
4.640000000002525, -1.0449881128898149 
4.6500000000025015, -1.0470610224040342 
4.660000000002478, -1.0482478941810613 
4.670000000002455, -1.0488129850523669 
4.6800000000024315, -1.0489506683017988 
4.690000000002408, -1.0487901174279757 
4.700000000002385, -1.0484175907712001 
4.710000000002362, -1.0479073127051899 
4.720000000002338, -1.0473612714340408 
4.730000000002315, -1.0469562015014031 
4.740000000002292, -1.0469773330993097 
4.750000000002268, -1.0477929636473653 
4.760000000002245, -1.049735562646231 
4.770000000002222, -1.0529374073223374 
4.7800000000021985, -1.0572421488916923 
4.790000000002175, -1.062257993618278 
4.800000000002152, -1.0674934520194757 
4.810000000002129, -1.0724815992445493 
4.820000000002105, -1.07685660674314 
4.830000000002082, -1.080393467981723 
4.840000000002059, -1.0830200194462498 
4.850000000002035, -1.0847961515791016 
4.860000000002012, -1.0858631149365343 
4.870000000001989, -1.0863854031123936 
4.880000000001965, -1.0865099728860184 
4.890000000001942, -1.0863517042772646 
4.900000000001919, -1.0860002035314742 
4.9100000000018955, -1.0855401035125614 
4.920000000001872, -1.085077836976503 
4.930000000001849, -1.0847631281027883 
