t, s[1].omega / s[0].omega 
0, -1.199997866866768 
0.009999999999999995, -1.199635080637088 
0.019999999999999934, -1.1989804219351068 
0.029999999999999874, -1.198055863552116 
0.04000000000000012, -1.1969206202409128 
0.050000000000000405, -1.1956817069272359 
0.06000000000000069, -1.1944887244918942 
0.07000000000000098, -1.193524925677882 
0.08000000000000126, -1.1929549009754583 
0.09000000000000155, -1.1927779967359835 
0.10000000000000184, -1.1927776025950065 
0.11000000000000212, -1.1926737915396113 
0.12000000000000241, -1.192222742861024 
0.130000000000002, -1.1911769766756126 
0.1400000000000009, -1.189259051256217 
0.1499999999999998, -1.1862380724195274 
0.1599999999999987, -1.182032360264404 
0.1699999999999976, -1.1767164599641031 
0.1799999999999965, -1.1705052902041442 
0.1899999999999954, -1.1639098046049494 
0.1999999999999943, -1.1580041789749405 
0.2099999999999932, -1.1541190237873606 
0.2199999999999921, -1.1525926519319516 
0.229999999999991, -1.1524333870780752 
0.2399999999999899, -1.152562869789038 
0.2499999999999888, -1.1524497194855856 
0.2599999999999877, -1.15180167033399 
0.2699999999999866, -1.1501232715713434 
0.2799999999999855, -1.146226075259584 
0.2899999999999844, -1.137583369744337 
0.2999999999999833, -1.120200470173319 
0.3099999999999822, -1.0908636272949597 
0.3199999999999811, -1.0517368181045632 
0.32999999999998, -1.012147984528759 
0.3399999999999789, -0.983091538275575 
0.3499999999999778, -0.968518651290987 
0.35999999999997667, -0.9640679217538439 
0.36999999999997557, -0.9637635466161512 
0.37999999999997447, -0.9643308354716201 
0.38999999999997337, -0.9647197235945787 
0.39999999999997227, -0.9647050677551592 
0.40999999999997117, -0.9641650217795372 
0.41999999999997006, -0.9627696913594839 
0.42999999999996896, -0.9597059312497523 
0.43999999999996786, -0.9533725295636323 
0.44999999999996676, -0.9415989783075708 
0.45999999999996566, -0.9233609472984621 
0.46999999999996456, -0.9007546773591701 
0.47999999999996346, -0.8779986824886975 
0.48999999999996235, -0.8587386757302349 
0.49999999999996125, -0.8448449864718198 
0.5099999999999602, -0.836449137017413 
0.519999999999959, -0.8323686309187183 
0.529999999999958, -0.8308963879902725 
0.5399999999999568, -0.8306060385615888 
0.5499999999999557, -0.8306588358411487 
0.5599999999999546, -0.8306631298713995 
0.5699999999999535, -0.8304319717285265 
0.5799999999999524, -0.8298205876747227 
0.5899999999999513, -0.8286705049294687 
0.5999999999999502, -0.8268645817357824 
0.6099999999999491, -0.8244522419713609 
0.619999999999948, -0.8216825865410854 
0.6299999999999469, -0.8188577870719027 
0.6399999999999458, -0.8161816781751206 
0.6499999999999447, -0.8137472628640637 
0.6599999999999436, -0.811601292130851 
0.6699999999999425, -0.8097936395350998 
0.6799999999999414, -0.8083845382952164 
0.6899999999999403, -0.8074209058746439 
0.6999999999999392, -0.8069029258854726 
0.7099999999999381, -0.8067652756142145 
0.719999999999937, -0.8068907898906592 
0.7299999999999359, -0.80714926396656 
0.7399999999999348, -0.8074346439413338 
0.7499999999999337, -0.8076846807511634 
0.7599999999999326, -0.8078840769694273 
0.7699999999999315, -0.8080493404823743 
0.7799999999999304, -0.8081935474099412 
0.7899999999999293, -0.8082927735374232 
0.7999999999999282, -0.8082887423703741 
0.8099999999999271, -0.8081302961193271 
0.819999999999926, -0.8078132628763539 
0.8299999999999249, -0.8073907020988368 
0.8399999999999238, -0.8069717578605143 
0.8499999999999227, -0.8067279359851414 
0.8599999999999216, -0.8068882108856383 
0.8699999999999205, -0.8076917708284016 
0.8799999999999194, -0.8093105036482862 
0.8899999999999183, -0.8118034923332147 
0.8999999999999172, -0.8151391885841612 
0.9099999999999161, -0.8192450775252718 
0.919999999999915, -0.8240126915879675 
0.9299999999999139, -0.8292121469621931 
0.9399999999999128, -0.8343607475140615 
0.9499999999999117, -0.8387619534629814 
0.9599999999999106, -0.8418822744872426 
0.9699999999999095, -0.843686763590341 
0.9799999999999084, -0.8444969388932374 
0.9899999999999073, -0.8446594291179649 
0.9999999999999062, -0.8443991661400453 
1.0099999999999052, -0.8438521945530236 
1.019999999999904, -0.8432149030728444 
1.029999999999903, -0.8430916963734852 
1.039999999999902, -0.84519469382992 
1.0499999999999008, -0.8531795420589445 
1.0599999999998997, -0.8723090846481472 
1.0699999999998986, -0.9061825378829402 
1.0799999999998975, -0.9515533673121287 
1.0899999999998964, -0.9970488202370744 
1.0999999999998953, -1.0308425584954772 
1.1099999999998942, -1.049940026582486 
1.119999999999893, -1.0587975473706717 
1.129999999999892, -1.0624496383223703 
1.1399999999998909, -1.0637807439305005 
1.1499999999998898, -1.0640482035530376 
1.1599999999998887, -1.0637248475415153 
1.1699999999998876, -1.0629937443976023 
1.1799999999998865, -1.0621793045804966 
1.1899999999998854, -1.0625396963019467 
1.1999999999998843, -1.0670748250850575 
1.2099999999998832, -1.0789177740740725 
1.219999999999882, -1.0973575484874991 
1.229999999999881, -1.1179058511458966 
1.2399999999998799, -1.1361675532001891 
1.2499999999998788, -1.1497569465869928 
1.2599999999998777, -1.1582846185815248 
1.2699999999998766, -1.1628083082824017 
1.2799999999998755, -1.164835514623648 
1.2899999999998744, -1.1655181080558639 
1.2999999999998733, -1.1655012598217565 
1.3099999999998722, -1.1651338525499697 
1.319999999999871, -1.1647556383332986 
1.32999999999987, -1.1649195511920067 
1.3399999999998689, -1.166206395882143 
1.3499999999998678, -1.1686380095454045 
1.3599999999998666, -1.1716483252683108 
1.3699999999998655, -1.1746593252430784 
1.3799999999998644, -1.1773550025072883 
1.3899999999998633, -1.1795989047425648 
1.3999999999998622, -1.1813189093315348 
1.4099999999998611, -1.1824672496411504 
1.41999999999986, -1.1830437291217644 
1.429999999999859, -1.183120706328558 
1.4399999999998578, -1.182826929846321 
1.4499999999998567, -1.1823260241713613 
1.4599999999998556, -1.1818163510697468 
1.4699999999998545, -1.1814923604207554 
1.4799999999998534, -1.1814514036353703 
1.4899999999998523, -1.1816685352607434 
1.4999999999998512, -1.1820484374761586 
1.5099999999998501, -1.1824544366608984 
1.519999999999849, -1.1827385434276774 
1.529999999999848, -1.182784122848925 
1.5399999999998468, -1.182523878457583 
1.5499999999998457, -1.1819360703829676 
1.5599999999998446, -1.1810285057054792 
1.5699999999998435, -1.1798202699631568 
1.5799999999998424, -1.1783416829195066 
1.5899999999998413, -1.1766551342560807 
1.5999999999998402, -1.17488170164493 
1.6099999999998391, -1.1732276812361928 
1.619999999999838, -1.1719744084013963 
1.629999999999837, -1.1713158664049297 
1.6399999999998358, -1.1711412612436451 
1.6499999999998347, -1.1711155781552636 
1.6599999999998336, -1.170920512492343 
1.6699999999998325, -1.1702908606165479 
1.6799999999998314, -1.1689086231991208 
1.6899999999998303, -1.166359743508844 
1.6999999999998292, -1.1622575213538733 
1.709999999999828, -1.1564473703773037 
1.719999999999827, -1.149076582456372 
1.729999999999826, -1.1405801931012878 
1.7399999999998248, -1.1318663297382308 
1.7499999999998237, -1.1245254968068756 
1.7599999999998226, -1.1200999838137828 
1.7699999999998215, -1.1185560191726107 
1.7799999999998204, -1.1184744743475428 
1.7899999999998193, -1.1186519801887411 
1.7999999999998182, -1.1185694071099535 
1.809999999999817, -1.1179626325680045 
1.819999999999816, -1.1163788917512207 
1.8299999999998149, -1.1127252458873076 
1.8399999999998138, -1.1046794621947766 
1.8499999999998127, -1.0885793257765508 
1.8599999999998116, -1.0615134352535094 
1.8699999999998105, -1.0254058524404366 
1.8799999999998094, -0.9882172621491974 
1.8899999999998083, -0.9593753781969598 
1.8999999999998072, -0.9432110215616369 
1.909999999999806, -0.9371194341408287 
1.919999999999805, -0.9359669521739739 
1.9299999999998039, -0.9362773267438952 
1.9399999999998028, -0.9366636349422685 
1.9499999999998017, -0.9367455263402802 
1.9599999999998006, -0.9363886587663316 
1.9699999999997995, -0.9353641665941422 
1.9799999999997984, -0.9331428481830125 
1.9899999999997973, -0.9287453444726785 
1.9999999999997962, -0.9209550371064926 
2.0099999999998173, -0.9093050167979426 
2.0199999999998384, -0.8949996482017155 
2.0299999999998595, -0.8802594769644699 
2.0399999999998806, -0.8670038343682835 
2.0499999999999017, -0.8564092726336848 
2.059999999999923, -0.848996214742276 
2.069999999999944, -0.8446341278664093 
2.079999999999965, -0.8426012477386384 
2.089999999999986, -0.8419358088577645 
2.100000000000007, -0.8418477085523819 
2.1100000000000283, -0.8418652982477753 
2.1200000000000494, -0.841745394770878 
2.1300000000000705, -0.841337295069966 
2.1400000000000916, -0.840508026655627 
2.1500000000001127, -0.8391589576697435 
2.160000000000134, -0.8373089966958704 
2.170000000000155, -0.835130137924775 
2.180000000000176, -0.8328518766592949 
2.190000000000197, -0.8306407740669415 
2.2000000000002182, -0.8285780292675109 
2.2100000000002393, -0.8267076899302678 
2.2200000000002604, -0.8250807826044396 
2.2300000000002815, -0.8237648740077854 
2.2400000000003026, -0.8228244896965317 
2.2500000000003237, -0.822288997152105 
2.260000000000345, -0.8221273850914165 
2.270000000000366, -0.8222489115650016 
2.280000000000387, -0.822533396183561 
2.290000000000408, -0.8228710419534768 
2.3000000000004293, -0.8231894163760318 
2.3100000000004504, -0.8234617979503139 
2.3200000000004715, -0.8236958463309543 
2.3300000000004926, -0.8239013393116144 
2.3400000000005137, -0.824055401779946 
2.3500000000005348, -0.8241001512078305 
2.360000000000556, -0.8239814051968202 
2.370000000000577, -0.8236906579473684 
2.380000000000598, -0.8232774423867558 
2.390000000000619, -0.8228472249191708 
2.4000000000006403, -0.8225662320913605 
2.4100000000006614, -0.8226563573189892 
2.4200000000006825, -0.8233471765031966 
2.4300000000007036, -0.8247962386235834 
2.4400000000007247, -0.8270429574079484 
2.450000000000746, -0.8300339216685244 
2.460000000000767, -0.8336787981723668 
2.470000000000788, -0.8378678705844067 
2.480000000000809, -0.8424108648720713 
2.49000000000083, -0.8469268564596554 
2.5000000000008513, -0.8508470152730218 
2.5100000000008724, -0.8536909100501212 
2.5200000000008935, -0.8553715805221933 
2.5300000000009146, -0.8561336919812783 
2.5400000000009357, -0.8562804016536143 
2.550000000000957, -0.8560267547127061 
2.560000000000978, -0.8555229790752379 
2.570000000000999, -0.8550013886974012 
2.58000000000102, -0.8550935551238387 
2.5900000000010412, -0.857343697368096 
2.6000000000010624, -0.8645336383380502 
2.6100000000010835, -0.879884204191764 
2.6200000000011046, -0.9048457953257684 
2.6300000000011257, -0.9369790854828302 
2.6400000000011468, -0.9698582246074264 
2.650000000001168, -0.9961494953134734 
2.660000000001189, -1.01252178832217 
2.67000000000121, -1.0208039953979204 
2.680000000001231, -1.0244395822583006 
2.6900000000012523, -1.0258329431538522 
2.7000000000012734, -1.0261579352893635 
2.7100000000012945, -1.0258888137897346 
2.7200000000013156, -1.025207950288217 
2.7300000000013367, -1.0243664168968474 
2.740000000001358, -1.0243581638524633 
2.750000000001379, -1.0279030588232199 
2.7600000000014, -1.0388732814865627 
2.770000000001421, -1.0584189622451114 
2.780000000001442, -1.082680877099772 
2.7900000000014633, -1.1059246881316342 
2.8000000000014844, -1.1240590977099638 
2.8100000000015055, -1.1357555541006084 
2.8200000000015266, -1.1420629875695114 
2.8300000000015477, -1.1449638606282386 
2.840000000001569, -1.146059148109925 
2.85000000000159, -1.1462453044301444 
2.860000000001611, -1.1459557624388876 
2.870000000001632, -1.1454922502543843 
2.8800000000016532, -1.145353830762594 
2.8900000000016743, -1.1463429047851024 
2.9000000000016954, -1.148983559146498 
2.9100000000017165, -1.1528831807979332 
2.9200000000017377, -1.15717545974871 
2.9300000000017588, -1.1612249250519915 
2.94000000000178, -1.1647253168169855 
2.950000000001801, -1.1675261214262298 
2.960000000001822, -1.169535720715464 
2.970000000001843, -1.1707420039133127 
2.9800000000018643, -1.17124758807196 
2.9900000000018854, -1.1712319444382695 
3.0000000000019065, -1.1708917538065535 
3.0100000000019276, -1.1704403168870183 
3.0200000000019487, -1.1701238296041296 
3.03000000000197, -1.170139819469963 
3.040000000001991, -1.1705145852878227 
3.050000000002012, -1.1711296379192164 
3.060000000002033, -1.171828726783735 
3.070000000002054, -1.1724654467063704 
3.0800000000020753, -1.1729240960892031 
3.0900000000020964, -1.1731354972905073 
3.1000000000021175, -1.1730725261305817 
3.1100000000021386, -1.1727311013617348 
3.1200000000021597, -1.1721147878438687 
3.130000000002181, -1.1712387324013684 
3.140000000002202, -1.170148925864792 
3.150000000002223, -1.1689375088069105 
3.160000000002244, -1.167740197345365 
3.1700000000022652, -1.1667229979147924 
3.1800000000022863, -1.166050456306035 
3.1900000000023074, -1.1657791351560316 
3.2000000000023285, -1.1657640535849119 
3.2100000000023496, -1.1657475093233507 
3.2200000000023707, -1.165491100040491 
3.230000000002392, -1.1647842846648147 
3.240000000002413, -1.1634157567971437 
3.250000000002434, -1.1612146913586463 
3.260000000002455, -1.1581278126629657 
3.2700000000024763, -1.1542250032846921 
3.2800000000024974, -1.1496494722111608 
3.2900000000025185, -1.1446473675559792 
3.3000000000025396, -1.1397298108161085 
3.3100000000025607, -1.135757968454585 
3.3200000000025818, -1.1334727673322371 
3.330000000002603, -1.1327300592563805 
3.340000000002624, -1.132707269137848 
3.350000000002645, -1.1327199015803338 
3.360000000002666, -1.1324089233513848 
3.3700000000026873, -1.131459737146073 
3.3800000000027084, -1.1292783948057912 
3.3900000000027295, -1.1247009354867474 
3.4000000000027506, -1.1159780873305172 
3.4100000000027717, -1.101582342387375 
3.420000000002793, -1.081627815846593 
3.430000000002814, -1.0586006296430859 
3.440000000002835, -1.0369707360848552 
3.450000000002856, -1.0214629857470652 
3.460000000002877, -1.0138006166918605 
3.4700000000028983, -1.011639234568657 
3.4800000000029194, -1.0116711761033692 
3.4900000000029405, -1.0120518340304163 
3.5000000000029616, -1.0121778657059761 
3.5100000000029827, -1.011861810018196 
3.520000000003004, -1.010855095838374 
3.530000000003025, -1.0085377792490147 
3.540000000003046, -1.0035583018899599 
3.550000000003067, -0.9936637243900281 
3.5600000000030882, -0.9767435294556251 
3.5700000000031094, -0.9532887686998959 
3.5800000000031305, -0.9272065224290421 
3.5900000000031516, -0.9034633103452577 
3.6000000000031727, -0.8856151552692505 
3.6100000000031938, -0.8747634811189772 
3.620000000003215, -0.8696689753814825 
3.630000000003236, -0.8679974578265056 
3.640000000003257, -0.8677726947849793 
3.650000000003278, -0.8679061993397348 
3.6600000000032993, -0.8679454174443827 
3.6700000000033204, -0.8676970177911513 
3.6800000000033415, -0.8669929895082696 
3.6900000000033626, -0.8655909452086072 
3.7000000000033837, -0.863209562856636 
3.710000000003405, -0.8597314453009136 
3.720000000003426, -0.8554077961517015 
3.730000000003447, -0.850750402439156 
3.740000000003468, -0.8462181103738816 
3.750000000003489, -0.842078657149996 
3.7600000000035103, -0.838475175556137 
3.7700000000035314, -0.8355157318048361 
3.7800000000035525, -0.8332935829009677 
3.7900000000035736, -0.8318426961439009 
3.8000000000035947, -0.8310827462827889 
3.810000000003616, -0.8308213832526351 
3.820000000003637, -0.8308246022377785 
3.830000000003658, -0.8308914387092279 
3.840000000003679, -0.8308822669512395 
3.8500000000037002, -0.8307154381126048 
3.8600000000037213, -0.8303662687080362 
3.8700000000037424, -0.8298672311573223 
3.8800000000037635, -0.8292817484161911 
3.8900000000037847, -0.8286571310541676 
3.9000000000038058, -0.8280015013909868 
3.910000000003827, -0.8273041042779591 
3.920000000003848, -0.8265725551502702 
3.930000000003869, -0.8258559268636183 
3.94000000000389, -0.8252459873473894 
3.9500000000039113, -0.824859002591838 
3.9600000000039324, -0.8248005629055919 
3.9700000000039535, -0.825128624960741 
3.9800000000039746, -0.8258385444882215 
3.9900000000039957, -0.826877450642714 
4.000000000004016, -0.8281747560780739 
4.010000000003993, -0.8296701323562176 
4.02000000000397, -0.8313215100255887 
4.030000000003946, -0.833080027100585 
4.040000000003923, -0.8348390774318392 
4.0500000000039, -0.8364084128596907 
4.0600000000038765, -0.8375806057514184 
4.070000000003853, -0.8382531802327892 
4.08000000000383, -0.8384660840466979 
4.090000000003807, -0.8383342658650639 
4.100000000003783, -0.8379919653563469 
4.11000000000376, -0.8376196830113811 
4.120000000003737, -0.8375490166238934 
4.130000000003713, -0.8383850003796264 
4.14000000000369, -0.8409957239842102 
4.150000000003667, -0.8462343164034538 
4.1600000000036434, -0.8545464697919811 
4.17000000000362, -0.8657869125597197 
4.180000000003597, -0.8792200579205394 
4.1900000000035735, -0.893418286202745 
4.20000000000355, -0.9062591509073556 
4.210000000003527, -0.9157930845664225 
4.220000000003504, -0.921547644960521 
4.23000000000348, -0.9244507010346574 
4.240000000003457, -0.925672341227853 
4.250000000003434, -0.9259803171197031 
4.26000000000341, -0.9257447262558104 
4.270000000003387, -0.9251177345845998 
4.280000000003364, -0.924259645007948 
4.2900000000033405, -0.9238116416822963 
4.300000000003317, -0.9259335296032243 
4.310000000003294, -0.9354241356090034 
4.320000000003271, -0.9582014385376908 
4.330000000003247, -0.9953458947154833 
4.340000000003224, -1.0388791665046646 
4.350000000003201, -1.0766374368896567 
4.360000000003177, -1.1015133142160023 
4.370000000003154, -1.1145384993740253 
4.380000000003131, -1.1203410589777536 
4.390000000003107, -1.1226390614807262 
4.400000000003084, -1.1233583628307993 
4.410000000003061, -1.123312055115746 
4.4200000000030375, -1.1228328258221976 
4.430000000003014, -1.122220858076178 
4.440000000002991, -1.1222562870668042 
4.450000000002968, -1.124487356859675 
4.460000000002944, -1.1301236635580518 
4.470000000002921, -1.1384291586287771 
4.480000000002898, -1.1474742495758772 
4.490000000002874, -1.155769787032268 
4.500000000002851, -1.162562634222387 
4.510000000002828, -1.1675293335910373 
4.520000000002804, -1.1706762536648616 
4.530000000002781, -1.1723289262363037 
4.540000000002758, -1.1729564007176345 
4.5500000000027345, -1.172961485734149 
4.560000000002711, -1.1726364885547982 
4.570000000002688, -1.17226351923677 
4.580000000002665, -1.1721969825468224 
4.590000000002641, -1.1727227533480453 
4.600000000002618, -1.1738138616488287 
4.610000000002595, -1.1751967921539865 
4.620000000002571, -1.1766012947282016 
4.630000000002548, -1.1778550282978455 
4.640000000002525, -1.1788644007501496 
4.6500000000025015, -1.1795836453632988 
4.660000000002478, -1.1799876270433003 
4.670000000002455, -1.1800593371556176 
4.6800000000024315, -1.179801367293572 
4.690000000002408, -1.179255668846743 
4.700000000002385, -1.178513576752777 
4.710000000002362, -1.1777117591635144 
4.720000000002338, -1.1770008061109087 
4.730000000002315, -1.1764993126594752 
4.740000000002292, -1.1762715302199898 
4.750000000002268, -1.1762938129157574 
4.760000000002245, -1.1764254084119992 
4.770000000002222, -1.1764688029618218 
4.7800000000021985, -1.1762473265176234 
4.790000000002175, -1.175622834066105 
4.800000000002152, -1.1745026541909789 
4.810000000002129, -1.1728592559447875 
4.820000000002105, -1.1707232656434732 
4.830000000002082, -1.1681515533326363 
4.840000000002059, -1.1652253242461468 
4.850000000002035, -1.1621091678564899 
4.860000000002012, -1.1591528294021616 
4.870000000001989, -1.1568927133320845 
4.880000000001965, -1.1557008095571997 
4.890000000001942, -1.1553745780512752 
4.900000000001919, -1.155364160698065 
4.9100000000018955, -1.1552282576030901 
4.920000000001872, -1.1546660925227796 
4.930000000001849, -1.1532969235001778 
