t, s[1].omega / s[0].omega 
0, -1.1398895187831208 
0.009999999999999995, -1.1321500816693033 
0.019999999999999934, -1.131397664644203 
0.029999999999999874, -1.1353705980281945 
0.04000000000000012, -1.1405973735647077 
0.050000000000000405, -1.1449638993785505 
0.06000000000000069, -1.1479278585470527 
0.07000000000000098, -1.149697160018142 
0.08000000000000126, -1.1506248534289192 
0.09000000000000155, -1.1509858783079119 
0.10000000000000184, -1.1509427467437698 
0.11000000000000212, -1.1505634181359161 
0.12000000000000241, -1.1498423382400347 
0.130000000000002, -1.1487218933337147 
0.1400000000000009, -1.147142076141286 
0.1499999999999998, -1.145184388767375 
0.1599999999999987, -1.1433948681012196 
0.1699999999999976, -1.1432118301238776 
0.1799999999999965, -1.1469116919912428 
0.1899999999999954, -1.1562571577920029 
0.1999999999999943, -1.17054242395812 
0.2099999999999932, -1.1865111355551485 
0.2199999999999921, -1.2006411782339965 
0.229999999999991, -1.2111394134250617 
0.2399999999999899, -1.2180124134127321 
0.2499999999999888, -1.222117627196392 
0.2599999999999877, -1.2243866452638796 
0.2699999999999866, -1.2255177903670949 
0.2799999999999855, -1.225953589933309 
0.2899999999999844, -1.225950183502654 
0.2999999999999833, -1.2256525446990403 
0.3099999999999822, -1.2251596486484044 
0.3199999999999811, -1.2245895866874181 
0.32999999999998, -1.2241472102962476 
0.3399999999999789, -1.2241540545895593 
0.3499999999999778, -1.2249599335414332 
0.35999999999997667, -1.2267375781985308 
0.36999999999997557, -1.2293453211066914 
0.37999999999997447, -1.232411739018957 
0.38999999999997337, -1.2355343622641193 
0.39999999999997227, -1.2384092303294052 
0.40999999999997117, -1.2408541925469765 
0.41999999999997006, -1.242783279707184 
0.42999999999996896, -1.2441779343764474 
0.43999999999996786, -1.2450668996356784 
0.44999999999996676, -1.2455103967028038 
0.45999999999996566, -1.2455846669513282 
0.46999999999996456, -1.2453692169803972 
0.47999999999996346, -1.244941832399132 
0.48999999999996235, -1.2443828749298789 
0.49999999999996125, -1.2437830678050539 
0.5099999999999602, -1.2432425990723832 
0.519999999999959, -1.2428527952541375 
0.529999999999958, -1.2426691575015565 
0.5399999999999568, -1.2426964140821775 
0.5499999999999557, -1.2428928174185239 
0.5599999999999546, -1.243184755217424 
0.5699999999999535, -1.2434847280650962 
0.5799999999999524, -1.2437085575007443 
0.5899999999999513, -1.2437855128411648 
0.5999999999999502, -1.2436595842338152 
0.6099999999999491, -1.2432870081703737 
0.619999999999948, -1.2426352111295742 
0.6299999999999469, -1.2416840400281424 
0.6399999999999458, -1.2404277597643072 
0.6499999999999447, -1.238877512759632 
0.6599999999999436, -1.2370660981044026 
0.6699999999999425, -1.2350570647237762 
0.6799999999999414, -1.2329573144232793 
0.6899999999999403, -1.230926031244496 
0.6999999999999392, -1.2291619448358513 
0.7099999999999381, -1.2278467005240044 
0.719999999999937, -1.227055567571114 
0.7299999999999359, -1.226708199550251 
0.7399999999999348, -1.2266179576985325 
0.7499999999999337, -1.2265895600607732 
0.7599999999999326, -1.2264740830772427 
0.7699999999999315, -1.2261604640234076 
0.7799999999999304, -1.2255359272217397 
0.7899999999999293, -1.2244417398841305 
0.7999999999999282, -1.222633750098717 
0.8099999999999271, -1.2197583507939183 
0.819999999999926, -1.2153716911669532 
0.8299999999999249, -1.2090461320964447 
0.8399999999999238, -1.200594790869467 
0.8499999999999227, -1.1903771694096466 
0.8599999999999216, -1.1795217477147635 
0.8699999999999205, -1.1697657517075195 
0.8799999999999194, -1.162710456812915 
0.8899999999999183, -1.158903371425851 
0.8999999999999172, -1.1576567864015916 
0.9099999999999161, -1.1577728235435458 
0.919999999999915, -1.1583055261661415 
0.9299999999999139, -1.1587723890598638 
0.9399999999999128, -1.1590047184071195 
0.9499999999999117, -1.1589615223840544 
0.9599999999999106, -1.1586161169219202 
0.9699999999999095, -1.157895440783822 
0.9799999999999084, -1.1566329422392057 
0.9899999999999073, -1.1545096357970115 
0.9999999999999062, -1.1509810462168486 
1.0099999999999052, -1.1452435533650989 
1.019999999999904, -1.1364202578764875 
1.029999999999903, -1.1242686963332198 
1.039999999999902, -1.110359932636214 
1.0499999999999008, -1.098409946768982 
1.0599999999998997, -1.0921079085244025 
1.0699999999998986, -1.092082164178946 
1.0799999999998975, -1.0958542529403543 
1.0899999999998964, -1.1004592913659144 
1.0999999999998953, -1.1042450683319314 
1.1099999999998942, -1.1068204259287548 
1.119999999999893, -1.1083683592071691 
1.129999999999892, -1.1091797993506656 
1.1399999999998909, -1.1094810376466788 
1.1499999999998898, -1.109404031731812 
1.1599999999998887, -1.1089966234605586 
1.1699999999998876, -1.1082336406367488 
1.1799999999998865, -1.1070237212252982 
1.1899999999998854, -1.1052298080508596 
1.1999999999998843, -1.1027563423078814 
1.2099999999998832, -1.0998033142645907 
1.219999999999882, -1.0973507155095448 
1.229999999999881, -1.0975626357878279 
1.2399999999998799, -1.1031443260782834 
1.2499999999998788, -1.1151488046628193 
1.2599999999998777, -1.1312604017212955 
1.2699999999998766, -1.1472083955347558 
1.2799999999998755, -1.159848000929939 
1.2899999999998744, -1.168407161230809 
1.2999999999998733, -1.1736189884947725 
1.3099999999998722, -1.1765616686854763 
1.319999999999871, -1.1781001748278979 
1.32999999999987, -1.1787918529714934 
1.3399999999998689, -1.1789568907606465 
1.3499999999998678, -1.1787650067600588 
1.3599999999998666, -1.178302872284707 
1.3699999999998655, -1.1776326634802494 
1.3799999999998644, -1.17686690213658 
1.3899999999998633, -1.176276324693775 
1.3999999999998622, -1.1763857782711722 
1.4099999999998611, -1.1779009712279298 
1.41999999999986, -1.181340989065612 
1.429999999999859, -1.1866154792954933 
1.4399999999998578, -1.1930046645730685 
1.4499999999998567, -1.1995574390239834 
1.4599999999998556, -1.2054920285538286 
1.4699999999998545, -1.2103562806900103 
1.4799999999998534, -1.2140055646889374 
1.4899999999998523, -1.216513394210652 
1.4999999999998512, -1.218071975550969 
1.5099999999998501, -1.218906586891992 
1.519999999999849, -1.2192194190125716 
1.529999999999848, -1.2191677179122196 
1.5399999999998468, -1.2188692946037951 
1.5499999999998457, -1.2184245200408115 
1.5599999999998446, -1.2179436676568864 
1.5699999999998435, -1.2175629492917701 
1.5799999999998424, -1.217427116930762 
1.5899999999998413, -1.2176360330529152 
1.5999999999998402, -1.2181964303229995 
1.6099999999998391, -1.2190251518823065 
1.619999999999838, -1.2199950309987924 
1.629999999999837, -1.2209802554798217 
1.6399999999998358, -1.221879419840324 
1.6499999999998347, -1.2226205139691277 
1.6599999999998336, -1.2231571983742486 
1.6699999999998325, -1.2234626056179192 
1.6799999999998314, -1.2235241491592541 
1.6899999999998303, -1.223340674960555 
1.6999999999998292, -1.2229217311057572 
1.709999999999828, -1.2222881933280938 
1.719999999999827, -1.2214739449427325 
1.729999999999826, -1.2205285926123142 
1.7399999999998248, -1.2195197646102778 
1.7499999999998237, -1.2185313300858465 
1.7599999999998226, -1.2176542991763544 
1.7699999999998215, -1.216970072163414 
1.7799999999998204, -1.2165275056586595 
1.7899999999998193, -1.216320531054276 
1.7999999999998182, -1.2162833025446527 
1.809999999999817, -1.2163128729137724 
1.819999999999816, -1.216302050285237 
1.8299999999998149, -1.2161566803073172 
1.8399999999998138, -1.2157922782377053 
1.8499999999998127, -1.2151227006694372 
1.8599999999998116, -1.2140543201442318 
1.8699999999998105, -1.212492356417268 
1.8799999999998094, -1.210358560712771 
1.8899999999998083, -1.2076137932173368 
1.8999999999998072, -1.2042794240485273 
1.909999999999806, -1.2004583976687697 
1.919999999999805, -1.1963601039685452 
1.9299999999998039, -1.1923191266940232 
1.9399999999998028, -1.1887662002001593 
1.9499999999998017, -1.1860997008888332 
1.9599999999998006, -1.1844905221038926 
1.9699999999997995, -1.1837874396228336 
1.9799999999997984, -1.1836369653069068 
1.9899999999997973, -1.1836914560813658 
1.9999999999997962, -1.1837185823857885 
2.0099999999998173, -1.183587688438695 
2.0199999999998384, -1.1832078930104477 
2.0299999999998595, -1.1824669064435898 
2.0399999999998806, -1.181175536101735 
2.0499999999999017, -1.1790089484745656 
2.059999999999923, -1.175449153987983 
2.069999999999944, -1.1697740933788638 
2.079999999999965, -1.1612035789162418 
2.089999999999986, -1.1493352916682944 
2.100000000000007, -1.1348188700195334 
2.1100000000000283, -1.1197518866544756 
2.1200000000000494, -1.10703182800843 
2.1300000000000705, -1.0987287287535856 
2.1400000000000916, -1.0949239705536313 
2.1500000000001127, -1.0941660017774393 
2.160000000000134, -1.0947833742521587 
2.170000000000155, -1.095689181330168 
2.180000000000176, -1.0964108105821886 
2.190000000000197, -1.0968223000428963 
2.2000000000002182, -1.0969230847119875 
2.2100000000002393, -1.0967238723741877 
2.2200000000002604, -1.096195311892846 
2.2300000000002815, -1.0952351886320528 
2.2400000000003026, -1.0936283707007395 
2.2500000000003237, -1.0909893044379064 
2.260000000000345, -1.0867025402802073 
2.270000000000366, -1.0799418711097768 
2.280000000000387, -1.0699627087192467 
2.290000000000408, -1.0568720098518323 
2.3000000000004293, -1.0425559600417906 
2.3100000000004504, -1.0304780312578548 
2.3200000000004715, -1.0235665462660584 
2.3300000000004926, -1.0221176498279385 
2.3400000000005137, -1.0241355792291418 
2.3500000000005348, -1.0272814043054919 
2.360000000000556, -1.030133317962684 
2.370000000000577, -1.0322116841972127 
2.380000000000598, -1.0335328692622165 
2.390000000000619, -1.0342603945995776 
2.4000000000006403, -1.0345468666912827 
2.4100000000006614, -1.0344869176554576 
2.4200000000006825, -1.0341093877587635 
2.4300000000007036, -1.0333733174046507 
2.4400000000007247, -1.0321539016086656 
2.450000000000746, -1.0302153577516049 
2.460000000000767, -1.027181132424204 
2.470000000000788, -1.0225447589302217 
2.480000000000809, -1.0158260354352424 
2.49000000000083, -1.007008266796536 
2.5000000000008513, -0.9971779010618231 
2.5100000000008724, -0.9886989421246689 
2.5200000000008935, -0.984090868466429 
2.5300000000009146, -0.9842097304437706 
2.5400000000009357, -0.9877270751440477 
2.550000000000957, -0.9924345987879739 
2.560000000000978, -0.9967071892897061 
2.570000000000999, -0.9999036728781163 
2.58000000000102, -1.0020245836069503 
2.5900000000010412, -1.0033015267430048 
2.6000000000010624, -1.0039731569286392 
2.6100000000010835, -1.0042107280700736 
2.6200000000011046, -1.004109013171749 
2.6300000000011257, -1.0036922481000539 
2.6400000000011468, -1.002914202613041 
2.650000000001168, -1.0016450928376006 
2.660000000001189, -0.999644641088757 
2.67000000000121, -0.9965315607076912 
2.680000000001231, -0.9917887912300744 
2.6900000000012523, -0.9848980452095804 
2.7000000000012734, -0.9757272089234486 
2.7100000000012945, -0.9651219217326981 
2.7200000000013156, -0.955158485334888 
2.7300000000013367, -0.9483058935712914 
2.740000000001358, -0.9458229317352492 
2.750000000001379, -0.9470125257326016 
2.7600000000014, -0.9500731968156838 
2.770000000001421, -0.9533978646325743 
2.780000000001442, -0.9561444691560567 
2.7900000000014633, -0.9580979467811174 
2.8000000000014844, -0.9593439718239687 
2.8100000000015055, -0.9600434295495284 
2.8200000000015266, -0.9603331101512553 
2.8300000000015477, -0.9602964902142871 
2.840000000001569, -0.9599585598618517 
2.85000000000159, -0.959280864380062 
2.860000000001611, -0.9581454789137236 
2.870000000001632, -0.9563216254651946 
2.8800000000016532, -0.9534137256386535 
2.8900000000016743, -0.9488070586409544 
2.9000000000016954, -0.9416749730358915 
2.9100000000017165, -0.931190160865895 
2.9200000000017377, -0.9170869389591196 
2.9300000000017588, -0.9003983860391879 
2.94000000000178, -0.8835989495092897 
2.950000000001801, -0.869528685047122 
2.960000000001822, -0.8598572086603383 
2.970000000001843, -0.8545191318678859 
2.9800000000018643, -0.8523425143425103 
2.9900000000018854, -0.8519688140715609 
3.0000000000019065, -0.852378933587039 
3.0100000000019276, -0.8529837259071822 
3.0200000000019487, -0.8535089041062702 
3.03000000000197, -0.853854341255089 
3.040000000001991, -0.8539944951063762 
3.050000000002012, -0.8539218764554644 
3.060000000002033, -0.8536170686076809 
3.070000000002054, -0.8530305400407828 
3.0800000000020753, -0.8520679646132084 
3.0900000000020964, -0.8505781744523115 
3.1000000000021175, -0.8483525041254266 
3.1100000000021386, -0.8451551955188643 
3.1200000000021597, -0.8408042765672331 
3.130000000002181, -0.8352888261400249 
3.140000000002202, -0.8288506217219549 
3.150000000002223, -0.8219509392163514 
3.160000000002244, -0.8151320670778828 
3.1700000000022652, -0.8088691270337718 
3.1800000000022863, -0.8034879544795641 
3.1900000000023074, -0.7991513481240963 
3.2000000000023285, -0.7958805027905711 
3.2100000000023496, -0.7935874597418048 
3.2200000000023707, -0.7921113706437164 
3.230000000002392, -0.7912568346737736 
3.240000000002413, -0.7908294067778238 
3.250000000002434, -0.7906610807430849 
3.260000000002455, -0.7906216067266236 
3.2700000000024763, -0.7906172344929081 
3.2800000000024974, -0.7905822848984807 
3.2900000000025185, -0.7904693229979898 
3.3000000000025396, -0.7902420964527683 
3.3100000000025607, -0.7898734191563963 
3.3200000000025818, -0.7893479810581917 
3.330000000002603, -0.788667237124827 
3.340000000002624, -0.7878512733016958 
3.350000000002645, -0.7869338561086409 
3.360000000002666, -0.7859522640460531 
3.3700000000026873, -0.7849380582049581 
3.3800000000027084, -0.7839138789864769 
3.3900000000027295, -0.7828964171934757 
3.4000000000027506, -0.7819021211424777 
3.4100000000027717, -0.7809521463563648 
3.420000000002793, -0.7800748693600884 
3.430000000002814, -0.7793057218042693 
3.440000000002835, -0.7786845517259253 
3.450000000002856, -0.7782509005769319 
3.460000000002877, -0.7780381236244802 
3.4700000000028983, -0.778067975593294 
3.4800000000029194, -0.7783474492935603 
3.4900000000029405, -0.7788689140362249 
3.5000000000029616, -0.7796132686153803 
3.5100000000029827, -0.7805545993698495 
3.520000000003004, -0.7816642244989107 
3.530000000003025, -0.782912093316804 
3.540000000003046, -0.784264237257439 
3.550000000003067, -0.785676574369203 
3.5600000000030882, -0.7870881681898894 
3.5700000000031094, -0.7884200723650957 
3.5800000000031305, -0.789585652294527 
3.5900000000031516, -0.7905112798210069 
3.6000000000031727, -0.791156253975679 
3.6100000000031938, -0.7915191032950046 
3.620000000003215, -0.7916281137743147 
3.630000000003236, -0.7915253104363031 
3.640000000003257, -0.791254367215146 
3.650000000003278, -0.790857266382936 
3.6600000000032993, -0.7903800390099532 
3.6700000000033204, -0.7898870520766021 
3.6800000000033415, -0.7894838009767572 
3.6900000000033626, -0.7893469676917605 
3.7000000000033837, -0.7897554842411477 
3.710000000003405, -0.7911075267741948 
3.720000000003426, -0.7938997362358224 
3.730000000003447, -0.7986440322657447 
3.740000000003468, -0.8057108385852482 
3.750000000003489, -0.8151191501637168 
3.7600000000035103, -0.8263482527025834 
3.7700000000035314, -0.8383118389070321 
3.7800000000035525, -0.8496298261110926 
3.7900000000035736, -0.8591363756719534 
3.8000000000035947, -0.8662901774107559 
3.810000000003616, -0.8711952851431828 
3.820000000003637, -0.8743151942341159 
3.830000000003658, -0.8761708948012323 
3.840000000003679, -0.8771824914259717 
3.8500000000037002, -0.8776355894726959 
3.8600000000037213, -0.8777024811609173 
3.8700000000037424, -0.8774724754185215 
3.8800000000037635, -0.8769747530182496 
3.8900000000037847, -0.8761921552425254 
3.9000000000038058, -0.8750707570969125 
3.910000000003827, -0.8735353773809361 
3.920000000003848, -0.8715295168376522 
3.930000000003869, -0.8691072430616478 
3.94000000000389, -0.866595261279031 
3.9500000000039113, -0.8647719997811081 
3.9600000000039324, -0.8648570635794117 
3.9700000000039535, -0.8680340209562155 
3.9800000000039746, -0.8746003732556721 
3.9900000000039957, -0.8835014218423266 
4.000000000004016, -0.8928730475085255 
4.010000000003993, -0.9011000691083577 
4.02000000000397, -0.907421393217194 
4.030000000003946, -0.9118347630844269 
4.040000000003923, -0.914708598930674 
4.0500000000039, -0.9164725771529078 
4.0600000000038765, -0.9174767039479436 
4.070000000003853, -0.9179612244078765 
4.08000000000383, -0.9180699469248823 
4.090000000003807, -0.9178696401830129 
4.100000000003783, -0.9173608080682392 
4.11000000000376, -0.9164747537370055 
4.120000000003737, -0.9150540688066275 
4.130000000003713, -0.9128144268165345 
4.14000000000369, -0.9092918754895957 
4.150000000003667, -0.9038042313894914 
4.1600000000036434, -0.8955126085972689 
4.17000000000362, -0.8837360252726161 
4.180000000003597, -0.8685917064840136 
4.1900000000035735, -0.8515902269801268 
4.20000000000355, -0.8353723356920024 
4.210000000003527, -0.8224013604138486 
4.220000000003504, -0.8137432711714748 
4.23000000000348, -0.8089764271615891 
4.240000000003457, -0.8069346860052962 
4.250000000003434, -0.80644189833622 
4.26000000000341, -0.8066518865465033 
4.270000000003387, -0.8070723383714306 
4.280000000003364, -0.8074620520564924 
4.2900000000033405, -0.8077210134919856 
4.300000000003317, -0.8078130215988077 
4.310000000003294, -0.8077201382861666 
4.320000000003271, -0.8074173647199873 
4.330000000003247, -0.8068576403942102 
4.340000000003224, -0.8059624762935081 
4.350000000003201, -0.8046198094238045 
4.360000000003177, -0.8026971256314827 
4.370000000003154, -0.8000797567136129 
4.380000000003131, -0.7967314591905622 
4.390000000003107, -0.7927462933879179 
4.400000000003084, -0.7883477662100306 
4.410000000003061, -0.7838262223708352 
4.4200000000030375, -0.7794575067259663 
4.430000000003014, -0.7754514979950218 
4.440000000002991, -0.7719415656316501 
4.450000000002968, -0.7689967853900643 
4.460000000002944, -0.7666374094483956 
4.470000000002921, -0.7648454372359738 
4.480000000002898, -0.7635712642835804 
4.490000000002874, -0.7627404141978176 
4.500000000002851, -0.7622628839408268 
4.510000000002828, -0.7620444684043195 
4.520000000002804, -0.7619972181029203 
4.530000000002781, -0.7620462993996336 
4.540000000002758, -0.7621324310196071 
4.5500000000027345, -0.7622111247202079 
4.560000000002711, -0.7622508934164102 
4.570000000002688, -0.7622321025884995 
4.580000000002665, -0.7621465978974103 
4.590000000002641, -0.7619965615811362 
4.600000000002618, -0.7617907307525841 
4.610000000002595, -0.7615380994366293 
4.620000000002571, -0.7612420993772308 
4.630000000002548, -0.7608989519649232 
4.640000000002525, -0.7605012540931305 
4.6500000000025015, -0.7600442857014881 
4.660000000002478, -0.7595313508588373 
4.670000000002455, -0.7589763997578272 
4.6800000000024315, -0.7584048175656177 
4.690000000002408, -0.7578541267576312 
4.700000000002385, -0.7573752859068368 
4.710000000002362, -0.7570336653868804 
4.720000000002338, -0.7569078666939463 
4.730000000002315, -0.7570849001796984 
4.740000000002292, -0.7576517866911313 
4.750000000002268, -0.758685532694231 
4.760000000002245, -0.7602441961265919 
4.770000000002222, -0.7623604649301261 
4.7800000000021985, -0.7650363731831471 
4.790000000002175, -0.7682354041812087 
4.800000000002152, -0.7718687499610415 
4.810000000002129, -0.7757782773001349 
4.820000000002105, -0.7797298872314641 
4.830000000002082, -0.7834392446920584 
4.840000000002059, -0.7866391027436668 
4.850000000002035, -0.7891591302061809 
4.860000000002012, -0.7909646260852519 
4.870000000001989, -0.7921310526848081 
4.880000000001965, -0.7927839920496643 
4.890000000001942, -0.7930471090474442 
4.900000000001919, -0.7930159087986786 
4.9100000000018955, -0.7927522985779909 
4.920000000001872, -0.7922897799780089 
4.930000000001849, -0.791643740044699 
