t, s[1].omega / s[0].omega 
0, -0.6199531391046306 
0.009999999999999995, -0.6154052554545869 
0.019999999999999934, -0.6112811528887785 
0.029999999999999874, -0.6077071104310076 
0.04000000000000012, -0.6047084126926947 
0.050000000000000405, -0.6022536074458715 
0.06000000000000069, -0.6002888415609401 
0.07000000000000098, -0.5987569720827367 
0.08000000000000126, -0.5976054381954591 
0.09000000000000155, -0.5967881136076788 
0.10000000000000184, -0.5962648462129093 
0.11000000000000212, -0.5960007030792562 
0.12000000000000241, -0.595965754175564 
0.130000000000002, -0.5961355432414027 
0.1400000000000009, -0.5964920596313896 
0.1499999999999998, -0.5970248725292364 
0.1599999999999987, -0.597731928429041 
0.1699999999999976, -0.5986191639244598 
0.1799999999999965, -0.599697522454027 
0.1899999999999954, -0.6009755548553966 
0.1999999999999943, -0.6024464739749316 
0.2099999999999932, -0.6040716279625128 
0.2199999999999921, -0.6057681868777365 
0.229999999999991, -0.6074136174315936 
0.2399999999999899, -0.6088742094181125 
0.2499999999999888, -0.6100461530140293 
0.2599999999999877, -0.610882904613806 
0.2699999999999866, -0.6113929475065567 
0.2799999999999855, -0.6116165410110423 
0.2899999999999844, -0.6116003379047397 
0.2999999999999833, -0.6113807557258142 
0.3099999999999822, -0.6109763176491787 
0.3199999999999811, -0.6103847745797395 
0.32999999999998, -0.6095810598199829 
0.3399999999999789, -0.6085132695050012 
0.3499999999999778, -0.6070938029807813 
0.35999999999997667, -0.6051803074065603 
0.36999999999997557, -0.6025353227196711 
0.37999999999997447, -0.5987495046980232 
0.38999999999997337, -0.5931426049614117 
0.39999999999997227, -0.5847928558922182 
0.40999999999997117, -0.5730388467364984 
0.41999999999997006, -0.558464634358405 
0.42999999999996896, -0.5432394153152372 
0.43999999999996786, -0.5298773207035451 
0.44999999999996676, -0.5197430927425679 
0.45999999999996566, -0.5128423640718048 
0.46999999999996456, -0.5084855957796459 
0.47999999999996346, -0.5058836270632606 
0.48999999999996235, -0.5044026239999393 
0.49999999999996125, -0.5036031939489115 
0.5099999999999602, -0.5032024085143247 
0.519999999999959, -0.5030251765527878 
0.529999999999958, -0.5029654217921109 
0.5399999999999568, -0.5029594907901271 
0.5499999999999557, -0.5029693686149653 
0.5599999999999546, -0.5029729567657283 
0.5699999999999535, -0.5029593754388301 
0.5799999999999524, -0.5029277244561963 
0.5899999999999513, -0.5028875399301698 
0.5999999999999502, -0.5028585200646366 
0.6099999999999491, -0.502866949067291 
0.619999999999948, -0.5029377326173627 
0.6299999999999469, -0.5030838299886363 
0.6399999999999458, -0.5032973657725421 
0.6499999999999447, -0.5035472663325635 
0.6599999999999436, -0.5037861641983918 
0.6699999999999425, -0.5039644331868127 
0.6799999999999414, -0.5040441702052066 
0.6899999999999403, -0.5040058561235855 
0.6999999999999392, -0.5038461319970932 
0.7099999999999381, -0.5035707369236018 
0.719999999999937, -0.5031875272716687 
0.7299999999999359, -0.5027020806825319 
0.7399999999999348, -0.5021160717088962 
0.7499999999999337, -0.5014276161242284 
0.7599999999999326, -0.5006323253656707 
0.7699999999999315, -0.49972217175548217 
0.7799999999999304, -0.4986735297007036 
0.7899999999999293, -0.4974014335549749 
0.7999999999999282, -0.4956354077016778 
0.8099999999999271, -0.49268832055831 
0.819999999999926, -0.4872949778421476 
0.8299999999999249, -0.47812313132136336 
0.8399999999999238, -0.46523890128998824 
0.8499999999999227, -0.4508888959708843 
0.8599999999999216, -0.43796850874307935 
0.8699999999999205, -0.42806812841563036 
0.8799999999999194, -0.4212460101462471 
0.8899999999999183, -0.4168353246959632 
0.8999999999999172, -0.4140889948572891 
0.9099999999999161, -0.4124219865346439 
0.919999999999915, -0.41143500035816916 
0.9299999999999139, -0.41087199846535805 
0.9399999999999128, -0.4105737576952568 
0.9499999999999117, -0.4104431815779959 
0.9599999999999106, -0.4104225873245936 
0.9699999999999095, -0.4104799076373954 
0.9799999999999084, -0.4106009948919285 
0.9899999999999073, -0.4107859740105771 
0.9999999999999062, -0.4110479788471929 
1.0099999999999052, -0.41141247608231407 
1.019999999999904, -0.4119149790002002 
1.029999999999903, -0.4125947999446568 
1.039999999999902, -0.413483105525425 
1.0499999999999008, -0.41458549238869996 
1.0599999999998997, -0.41586364714890206 
1.0699999999998986, -0.417227145051099 
1.0799999999998975, -0.418548396690949 
1.0899999999998964, -0.4197007890815915 
1.0999999999998953, -0.4205982519887133 
1.1099999999998942, -0.4212105877176672 
1.119999999999893, -0.42155068191381745 
1.129999999999892, -0.4216497174343057 
1.1399999999998909, -0.4215358369257922 
1.1499999999998898, -0.4212206182283472 
1.1599999999998887, -0.42069013103751585 
1.1699999999998876, -0.41989547515276754 
1.1799999999998865, -0.4187385628164768 
1.1899999999998854, -0.41705160541568276 
1.1999999999998843, -0.4145770095526176 
1.2099999999998832, -0.4109756770700361 
1.219999999999882, -0.40592289327598385 
1.229999999999881, -0.3993357590455743 
1.2399999999998799, -0.3916170867577373 
1.2499999999998788, -0.3836190851521811 
1.2599999999998777, -0.37624161462731165 
1.2699999999998766, -0.3700342623728127 
1.2799999999998755, -0.36512253504056214 
1.2899999999998744, -0.3613673068528115 
1.2999999999998733, -0.35853926886323706 
1.3099999999998722, -0.35641820175882033 
1.319999999999871, -0.3548287579080253 
1.32999999999987, -0.35364455795798116 
1.3399999999998689, -0.3527814882670789 
1.3499999999998678, -0.3521897365144668 
1.3599999999998666, -0.3518480525123731 
1.3699999999998655, -0.35176130550933793 
1.3799999999998644, -0.3519617605121599 
1.3899999999998633, -0.35251460554282665 
1.3999999999998622, -0.3535286206164523 
1.4099999999998611, -0.3551730056019081 
1.41999999999986, -0.3577001921673233 
1.429999999999859, -0.36146908107054626 
1.4399999999998578, -0.36694720905286504 
1.4499999999998567, -0.3746359011744441 
1.4599999999998556, -0.3848238622095596 
1.4699999999998545, -0.3971378993235463 
1.4799999999998534, -0.4102015794732951 
1.4899999999998523, -0.4220462539932293 
1.4999999999998512, -0.4312385584483912 
1.5099999999998501, -0.4375426106432724 
1.519999999999849, -0.4415466925193255 
1.529999999999848, -0.4440011591368031 
1.5399999999998468, -0.44548520587814994 
1.5499999999998457, -0.4463672883639981 
1.5599999999998446, -0.4468630710759737 
1.5699999999998435, -0.4470935541649575 
1.5799999999998424, -0.4471228726646867 
1.5899999999998413, -0.44697978667077676 
1.5999999999998402, -0.4466699542105402 
1.6099999999998391, -0.44618472979218843 
1.619999999999838, -0.445510883568535 
1.629999999999837, -0.44464376794284244 
1.6399999999998358, -0.4436022773321181 
1.6499999999998347, -0.44243801417206124 
1.6599999999998336, -0.441229459941854 
1.6699999999998325, -0.44006066398934635 
1.6799999999998314, -0.43899652375280107 
1.6899999999998303, -0.43806869765952794 
1.6999999999998292, -0.4372763593220629 
1.709999999999828, -0.4365967001486147 
1.719999999999827, -0.43599803758671773 
1.729999999999826, -0.43545060158033755 
1.7399999999998248, -0.43493291710081544 
1.7499999999998237, -0.43443413729854663 
1.7599999999998226, -0.4339542538120151 
1.7699999999998215, -0.43350449145528813 
1.7799999999998204, -0.4331098161068567 
1.7899999999998193, -0.4328151621421794 
1.7999999999998182, -0.4326971894958905 
1.809999999999817, -0.432884006351129 
1.819999999999816, -0.43358545533382226 
1.8299999999998149, -0.4351333697079956 
1.8399999999998138, -0.4380164953518186 
1.8499999999998127, -0.4428513918211263 
1.8599999999998116, -0.45014847055510837 
1.8699999999998105, -0.45971336239712157 
1.8799999999998094, -0.46994605707032705 
1.8899999999998083, -0.4781994299030726 
1.8999999999998072, -0.482750330267225 
1.909999999999806, -0.4841048311052557 
1.919999999999805, -0.4839061625340639 
1.9299999999998039, -0.48339797024403985 
1.9399999999998028, -0.4830700382073171 
1.9499999999998017, -0.482977440371718 
1.9599999999998006, -0.48303847922291 
1.9699999999997995, -0.48316552463420076 
1.9799999999997984, -0.48329776302986227 
1.9899999999997973, -0.48339911837806576 
1.9999999999997962, -0.48344912428099845 
2.0099999999998173, -0.4834352756534276 
2.0199999999998384, -0.4833485379562915 
2.0299999999998595, -0.4831820368765586 
2.0399999999998806, -0.4829327505628861 
2.0499999999999017, -0.4826055756637612 
2.059999999999923, -0.482217779534171 
2.069999999999944, -0.4818002910965779 
2.079999999999965, -0.4813926707360028 
2.089999999999986, -0.4810321860451702 
2.100000000000007, -0.4807417392413977 
2.1100000000000283, -0.48052248250910895 
2.1200000000000494, -0.4803543593035647 
2.1300000000000705, -0.4802040095487835 
2.1400000000000916, -0.48003621499393845 
2.1500000000001127, -0.47982357863049396 
2.160000000000134, -0.47955079022595504 
2.170000000000155, -0.4792136409178288 
2.180000000000176, -0.47881570845510585 
2.190000000000197, -0.4783657709172089 
2.2000000000002182, -0.47787776265363047 
2.2100000000002393, -0.47737415300847685 
2.2200000000002604, -0.4768934922344686 
2.2300000000002815, -0.4765029062088845 
2.2400000000003026, -0.47631481225781824 
2.2500000000003237, -0.4764998660653574 
2.260000000000345, -0.47726623140991764 
2.270000000000366, -0.4787308482564372 
2.280000000000387, -0.48058405584292335 
2.290000000000408, -0.4816546571405868 
2.3000000000004293, -0.48010239218162487 
2.3100000000004504, -0.47493504630741645 
2.3200000000004715, -0.46735493109633763 
2.3300000000004926, -0.4597413015989666 
2.3400000000005137, -0.4537080056193652 
2.3500000000005348, -0.44959594524190327 
2.360000000000556, -0.44705118268700483 
2.370000000000577, -0.4455790627207362 
2.380000000000598, -0.4447757356154411 
2.390000000000619, -0.4443661324818852 
2.4000000000006403, -0.44417780201811785 
2.4100000000006614, -0.4441070046651482 
2.4200000000006825, -0.44409265401200015 
2.4300000000007036, -0.44409936478241974 
2.4400000000007247, -0.4441075642320055 
2.450000000000746, -0.4441086295098627 
2.460000000000767, -0.4441034891155575 
2.470000000000788, -0.44410314770672465 
2.480000000000809, -0.44412907777170474 
2.49000000000083, -0.44421101258131773 
2.5000000000008513, -0.4443803855723143 
2.5100000000008724, -0.44465976713064215 
2.5200000000008935, -0.44505118999789034 
2.5300000000009146, -0.44552820134851306 
2.5400000000009357, -0.44603705558464285 
2.550000000000957, -0.4465096151834616 
2.560000000000978, -0.44688320115924557 
2.570000000000999, -0.4471164366606438 
2.58000000000102, -0.4471929011519259 
2.5900000000010412, -0.4471137423764241 
2.6000000000010624, -0.4468861363213664 
2.6100000000010835, -0.44651297086736463 
2.6200000000011046, -0.44598477639416584 
2.6300000000011257, -0.44527173718192153 
2.6400000000011468, -0.44431174607420204 
2.650000000001168, -0.44298830577822396 
2.660000000001189, -0.4410887287153028 
2.67000000000121, -0.43823206408143556 
2.680000000001231, -0.43377654584637737 
2.6900000000012523, -0.4268064520520508 
2.7000000000012734, -0.4164647425780201 
2.7100000000012945, -0.40280182603964515 
2.7200000000013156, -0.38743273416378937 
2.7300000000013367, -0.3728177960236951 
2.740000000001358, -0.3607309210225862 
2.750000000001379, -0.3516419445319389 
2.7600000000014, -0.34516620347082355 
2.770000000001421, -0.340665994055358 
2.780000000001442, -0.3375653917492858 
2.7900000000014633, -0.3354347380825692 
2.8000000000014844, -0.3339792244583362 
2.8100000000015055, -0.33300521764692154 
2.8200000000015266, -0.3323900463716501 
2.8300000000015477, -0.33206063347842235 
2.840000000001569, -0.3319802120099324 
2.85000000000159, -0.3321413572208656 
2.860000000001611, -0.33256398191353226 
2.870000000001632, -0.3332975137518809 
2.8800000000016532, -0.3344267131706818 
2.8900000000016743, -0.3360800010287114 
2.9000000000016954, -0.3384366914540334 
2.9100000000017165, -0.34172312454516374 
2.9200000000017377, -0.3461754591313294 
2.9300000000017588, -0.35193507091729903 
2.94000000000178, -0.35886507731528805 
2.950000000001801, -0.36638833625688266 
2.960000000001822, -0.3735801615795029 
2.970000000001843, -0.379593650048205 
2.9800000000018643, -0.38405909944914124 
2.9900000000018854, -0.3870913428377552 
3.0000000000019065, -0.3890286613661891 
3.0100000000019276, -0.39020904655694827 
3.0200000000019487, -0.39088350759249707 
3.03000000000197, -0.39121337140615065 
3.040000000001991, -0.3912923955567644 
3.050000000002012, -0.39116780212432156 
3.060000000002033, -0.3908548992659948 
3.070000000002054, -0.39034738818787845 
3.0800000000020753, -0.3896274790706 
3.0900000000020964, -0.38867981957336795 
3.1000000000021175, -0.38751018106077 
3.1100000000021386, -0.38616265791227017 
3.1200000000021597, -0.38472247055379133 
3.130000000002181, -0.38329628942616545 
3.140000000002202, -0.3819794482081538 
3.150000000002223, -0.38083054651477954 
3.160000000002244, -0.37986530732956825 
3.1700000000022652, -0.3790660218594283 
3.1800000000022863, -0.3783968151562765 
3.1900000000023074, -0.3778176334566999 
3.2000000000023285, -0.37729384439132746 
3.2100000000023496, -0.37680092473439986 
3.2200000000023707, -0.37632539447235847 
3.230000000002392, -0.37586407272090583 
3.240000000002413, -0.37542372694558857 
3.250000000002434, -0.3750226753847158 
3.260000000002455, -0.37469549285718295 
3.2700000000024763, -0.37450179865080624 
3.2800000000024974, -0.3745394338604039 
3.2900000000025185, -0.37495864480334007 
3.3000000000025396, -0.37596036660739185 
3.3100000000025607, -0.3777246761248637 
3.3200000000025818, -0.3801513695399271 
3.330000000002603, -0.38231733693185405 
3.340000000002624, -0.38206477052566695 
3.350000000002645, -0.3770531376235626 
3.360000000002666, -0.3673389329700504 
3.3700000000026873, -0.35588719427876236 
3.3800000000027084, -0.3457922341272237 
3.3900000000027295, -0.3383151465429976 
3.4000000000027506, -0.3332831827668093 
3.4100000000027717, -0.3300555579814542 
3.420000000002793, -0.3280323550529616 
3.430000000002814, -0.32678204128837385 
3.440000000002835, -0.32602431442114443 
3.450000000002856, -0.32558541274555475 
3.460000000002877, -0.32536090478234536 
3.4700000000028983, -0.32529091050376535 
3.4800000000029194, -0.3253452717585664 
3.4900000000029405, -0.3255156117347372 
3.5000000000029616, -0.32581200642414004 
3.5100000000029827, -0.3262625862441391 
3.520000000003004, -0.3269144346186601 
3.530000000003025, -0.3278335918596943 
3.540000000003046, -0.32910074869963213 
3.550000000003067, -0.330797335136372 
3.5600000000030882, -0.33297552774656897 
3.5700000000031094, -0.3356108066317596 
3.5800000000031305, -0.33855565884959415 
3.5900000000031516, -0.34154019812764064 
3.6000000000031727, -0.3442543392693296 
3.6100000000031938, -0.3464698382005026 
3.620000000003215, -0.3481069520657271 
3.630000000003236, -0.3492090145487421 
3.640000000003257, -0.3498742029516737 
3.650000000003278, -0.3502007187987891 
3.6600000000032993, -0.35026104436226324 
3.6700000000033204, -0.35009551794083127 
3.6800000000033415, -0.34971333671518867 
3.6900000000033626, -0.34909504716147927 
3.7000000000033837, -0.34819637382043955 
3.710000000003405, -0.34695787008078716 
3.720000000003426, -0.34532754264684046 
3.730000000003447, -0.34329908118978436 
3.740000000003468, -0.3409506319152671 
3.750000000003489, -0.33844982314206484 
3.7600000000035103, -0.33600450750187993 
3.7700000000035314, -0.3337883965279348 
3.7800000000035525, -0.3318946764283666 
3.7900000000035736, -0.33033705397776725 
3.8000000000035947, -0.3290779404658065 
3.810000000003616, -0.3280583831927514 
3.820000000003637, -0.32721861115003054 
3.830000000003658, -0.3265088602346392 
3.840000000003679, -0.3258934817351055 
3.8500000000037002, -0.3253514056232563 
3.8600000000037213, -0.3248754881695263 
3.8700000000037424, -0.32447270522437044 
3.8800000000037635, -0.324166705732826 
3.8900000000037847, -0.3240040921362444 
3.9000000000038058, -0.32406588005342535 
3.910000000003827, -0.32448510586393403 
3.920000000003848, -0.32546763364998244 
3.930000000003869, -0.3272974384553346 
3.94000000000389, -0.3302614244530865 
3.9500000000039113, -0.33434161932716844 
3.9600000000039324, -0.3385321084278406 
3.9700000000039535, -0.34028016292483915 
3.9800000000039746, -0.33675433138649435 
3.9900000000039957, -0.32795572324387884 
4.000000000004016, -0.3171588712943785 
4.010000000003993, -0.3076262182501007 
4.02000000000397, -0.3006000977885771 
4.030000000003946, -0.295881268132099 
4.040000000003923, -0.2928451842533485 
4.0500000000039, -0.29092674129704105 
4.0600000000038765, -0.28972722798731837 
4.070000000003853, -0.28899098364343834 
4.08000000000383, -0.28856141752255116 
4.090000000003807, -0.2883462677959135 
4.100000000003783, -0.28829522414236575 
4.11000000000376, -0.28838709467152446 
4.120000000003737, -0.2886235830816053 
4.130000000003713, -0.28902761317060144 
4.14000000000369, -0.28964470848026047 
4.150000000003667, -0.29054586595177 
4.1600000000036434, -0.29182937234628686 
4.17000000000362, -0.2936165156318021 
4.180000000003597, -0.29603165343842425 
4.1900000000035735, -0.2991533002459704 
4.20000000000355, -0.30293227458669414 
4.210000000003527, -0.30711456948547033 
4.220000000003504, -0.31125972867915747 
4.23000000000348, -0.31490594390047333 
4.240000000003457, -0.31777090092557375 
4.250000000003434, -0.3198167055584302 
4.26000000000341, -0.321166100171682 
4.270000000003387, -0.32198712186787276 
4.280000000003364, -0.3224245350220006 
4.2900000000033405, -0.3225790174661992 
4.300000000003317, -0.32250950764223896 
4.310000000003294, -0.3222415925313896 
4.320000000003271, -0.32177585788002067 
4.330000000003247, -0.3210965790360282 
4.340000000003224, -0.3201839059999857 
4.350000000003201, -0.31903208736350247 
4.360000000003177, -0.3176706497752581 
4.370000000003154, -0.3161763439587475 
4.380000000003131, -0.31466179653615767 
4.390000000003107, -0.31324212129776047 
4.400000000003084, -0.3120002866335889 
4.410000000003061, -0.3109713419341135 
4.4200000000030375, -0.3101473881182557 
4.430000000003014, -0.30949277722218216 
4.440000000002991, -0.3089600398096292 
4.450000000002968, -0.3085022928127553 
4.460000000002944, -0.3080808534146668 
4.470000000002921, -0.3076680484536514 
4.480000000002898, -0.3072463230627243 
4.490000000002874, -0.3068054511111738 
4.500000000002851, -0.30633936398538747 
4.510000000002828, -0.30584306421769314 
4.520000000002804, -0.30530858608323214 
4.530000000002781, -0.304716421235979 
4.540000000002758, -0.3040131468783321 
4.5500000000027345, -0.3030534849159467 
4.560000000002711, -0.3014657612657658 
4.570000000002688, -0.29840978256618605 
4.580000000002665, -0.2923867121012412 
4.590000000002641, -0.2817670009909675 
4.600000000002618, -0.2665651916108732 
4.610000000002595, -0.24957158078844238 
4.620000000002571, -0.23437495163074712 
4.630000000002548, -0.2227794074294835 
4.640000000002525, -0.21468861436889625 
4.6500000000025015, -0.2092523538222059 
4.660000000002478, -0.20562609750541588 
4.670000000002455, -0.20319121478433355 
4.6800000000024315, -0.20154311745678402 
4.690000000002408, -0.20043053803154262 
4.700000000002385, -0.19970377920319488 
4.710000000002362, -0.19928092132614858 
4.720000000002338, -0.19912895729794694 
4.730000000002315, -0.19925616556938833 
4.740000000002292, -0.19971390779395273 
4.750000000002268, -0.20060824353568782 
4.760000000002245, -0.20212386672679333 
4.770000000002222, -0.20456405269548852 
4.7800000000021985, -0.20840650082590023 
4.790000000002175, -0.21435218877349174 
4.800000000002152, -0.2232696659436663 
4.810000000002129, -0.23579259355116094 
4.820000000002105, -0.25134988143818937 
4.830000000002082, -0.267324707612614 
4.840000000002059, -0.28022556491350437 
4.850000000002035, -0.2884123072319211 
4.860000000002012, -0.2927146060735465 
4.870000000001989, -0.2947499704306927 
