t, s[1].omega / s[0].omega 
0, -0.0399978386985418 
0.009999999999999995, -0.039973496322242986 
0.019999999999999934, -0.040313079565600034 
0.029999999999999874, -0.040963350152124864 
0.04000000000000012, -0.04182504124748172 
0.050000000000000405, -0.04276072842070732 
0.06000000000000069, -0.043627289037247295 
0.07000000000000098, -0.04431470621784498 
0.08000000000000126, -0.04476393548704856 
0.09000000000000155, -0.04495698708280214 
0.10000000000000184, -0.044893662998229375 
0.11000000000000212, -0.044570636747122805 
0.12000000000000241, -0.043969697302365746 
0.130000000000002, -0.04305710862479308 
0.1400000000000009, -0.0417970595614527 
0.1499999999999998, -0.04018231717711193 
0.1599999999999987, -0.03827459639723456 
0.1699999999999976, -0.03622567860718288 
0.1799999999999965, -0.034246459305035226 
0.1899999999999954, -0.0325337376271071 
0.1999999999999943, -0.03121068551721747 
0.2099999999999932, -0.03031822283219084 
0.2199999999999921, -0.02984062187451858 
0.229999999999991, -0.02973054142539288 
0.2399999999999899, -0.02991797869614545 
0.2499999999999888, -0.030309825999535717 
0.2599999999999877, -0.03079492204976996 
0.2699999999999866, -0.031261697691603 
0.2799999999999855, -0.03161977580716892 
0.2899999999999844, -0.031810520307898014 
0.2999999999999833, -0.031801118734264666 
0.3099999999999822, -0.03156874538309991 
0.3199999999999811, -0.031083885741966556 
0.32999999999998, -0.030298530529718176 
0.3399999999999789, -0.029143819797043686 
0.3499999999999778, -0.02754521768930085 
0.35999999999997667, -0.025465011382081036 
0.36999999999997557, -0.022965946467601573 
0.37999999999997447, -0.02025014567671684 
0.38999999999997337, -0.017612839687774298 
0.39999999999997227, -0.015323808145899431 
0.40999999999997117, -0.013534677793390104 
0.41999999999997006, -0.012273726169856992 
0.42999999999996896, -0.011494219592455276 
0.43999999999996786, -0.01111879023930688 
0.44999999999996676, -0.011058287297831397 
0.45999999999996566, -0.011214154093265706 
0.46999999999996456, -0.01148080235646774 
0.47999999999996346, -0.01175630373211593 
0.48999999999996235, -0.011956544841131721 
0.49999999999996125, -0.012022155213004822 
0.5099999999999602, -0.011913389962309985 
0.519999999999959, -0.011596722779926913 
0.529999999999958, -0.011029619036738086 
0.5399999999999568, -0.010148615981248865 
0.5499999999999557, -0.008866581308202854 
0.5599999999999546, -0.007090182806542923 
0.5699999999999535, -0.00477096838571824 
0.5799999999999524, -0.001982618728299297 
0.5899999999999513, 0.000885789316969843 
0.5999999999999502, 0.003353433997309141 
0.6099999999999491, 0.005408578518980753 
0.619999999999948, 0.006898869873124226 
0.6299999999999469, 0.007812139950113385 
0.6399999999999458, 0.008213487088127584 
0.6499999999999447, 0.008193840913784398 
0.6599999999999436, 0.007850196354645289 
0.6699999999999425, 0.007284638516822572 
0.6799999999999414, 0.006603777230894441 
0.6899999999999403, 0.005909676431991268 
0.6999999999999392, 0.005286789785545061 
0.7099999999999381, 0.004795400260305885 
0.719999999999937, 0.0044765443057885245 
0.7299999999999359, 0.004364979333308769 
0.7399999999999348, 0.004503801406924531 
0.7499999999999337, 0.00495529083765631 
0.7599999999999326, 0.0058016669222314705 
0.7699999999999315, 0.007124962792050248 
0.7799999999999304, 0.008955329160329557 
0.7899999999999293, 0.011200647456309828 
0.7999999999999282, 0.01361714769929868 
0.8099999999999271, 0.015881897951239062 
0.819999999999926, 0.01772821187384149 
0.8299999999999249, 0.01902823772521694 
0.8399999999999238, 0.019777760844898 
0.8499999999999227, 0.02003760825583803 
0.8599999999999216, 0.019890325297125276 
0.8699999999999205, 0.019426381690717254 
0.8799999999999194, 0.018746015019487118 
0.8899999999999183, 0.017958481259060848 
0.8999999999999172, 0.017170378090376442 
0.9099999999999161, 0.016469360699605654 
0.919999999999915, 0.015915801322449716 
0.9299999999999139, 0.015547765224147104 
0.9399999999999128, 0.015394601941856623 
0.9499999999999117, 0.015491333352502582 
0.9599999999999106, 0.015887732065886742 
0.9699999999999095, 0.016646197623643093 
0.9799999999999084, 0.01782032004716234 
0.9899999999999073, 0.01940955169841081 
0.9999999999999062, 0.0213076856883428 
1.0099999999999052, 0.023294219880221283 
1.019999999999904, 0.02510327258311689 
1.029999999999903, 0.02652614875472046 
1.039999999999902, 0.027464247361025783 
1.0499999999999008, 0.02791125553140903 
1.0599999999998997, 0.027909257984988407 
1.0699999999998986, 0.027520389241402106 
1.0799999999998975, 0.0268223559636147 
1.0899999999998964, 0.025914115964693653 
1.0999999999998953, 0.024913357716080185 
1.1099999999998942, 0.023938151932164572 
1.119999999999893, 0.02308326958585414 
1.129999999999892, 0.022408453562413052 
1.1399999999998909, 0.021944488888756976 
1.1499999999998898, 0.02170919685816198 
1.1599999999998887, 0.021722696755345418 
1.1699999999998876, 0.022015208011073255 
1.1799999999998865, 0.022623029180802792 
1.1899999999998854, 0.023568539790811114 
1.1999999999998843, 0.024825277716401445 
1.2099999999998832, 0.02628602764169479 
1.219999999999882, 0.027767491917815197 
1.229999999999881, 0.02906534405999207 
1.2399999999998799, 0.03002245024618249 
1.2499999999998788, 0.03055892349589227 
1.2599999999998777, 0.0306573311457556 
1.2699999999998766, 0.03033496208329962 
1.2799999999998755, 0.029630831989682072 
1.2899999999998744, 0.02861179095546093 
1.2999999999998733, 0.0273829822439831 
1.3099999999998722, 0.026081568781060067 
1.319999999999871, 0.02484664247588226 
1.32999999999987, 0.023783830553030523 
1.3399999999998689, 0.02295002037400838 
1.3499999999998678, 0.022363441789580624 
1.3599999999998666, 0.022024994978455073 
1.3699999999998655, 0.021936029812230463 
1.3799999999998644, 0.022105857821616164 
1.3899999999998633, 0.02254709483816305 
1.3999999999998622, 0.023258376549441337 
1.4099999999998611, 0.024198608142968182 
1.41999999999986, 0.025267874398523356 
1.429999999999859, 0.026316235412892592 
1.4399999999998578, 0.027183957456193637 
1.4499999999998567, 0.027745653990151286 
1.4599999999998556, 0.027927499278889028 
1.4699999999998545, 0.027696839970498505 
1.4799999999998534, 0.027047183050790062 
1.4899999999998523, 0.025998403609102955 
1.4999999999998512, 0.024613926177046337 
1.5099999999998501, 0.023016327353031173 
1.519999999999849, 0.021374241075455457 
1.529999999999848, 0.019855024851095946 
1.5399999999998468, 0.018575050601096457 
1.5499999999998457, 0.017583511672737334 
1.5599999999998446, 0.016880914399689112 
1.5699999999998435, 0.01644837676350657 
1.5799999999998424, 0.016268661173423262 
1.5899999999998413, 0.016333566311886517 
1.5999999999998402, 0.016638795943011403 
1.6099999999998391, 0.017168583378990042 
1.619999999999838, 0.01787540216384771 
1.629999999999837, 0.018667009500388416 
1.6399999999998358, 0.01941498082632316 
1.6499999999998347, 0.01998457195263127 
1.6599999999998336, 0.02026534486029905 
1.6699999999998325, 0.020182245788242528 
1.6799999999998314, 0.01968874574087698 
1.6899999999998303, 0.01876056094200251 
1.6999999999998292, 0.017406286990360002 
1.709999999999828, 0.01569437079960856 
1.719999999999827, 0.013771979986943381 
1.729999999999826, 0.011841831219588468 
1.7399999999998248, 0.010095999734816171 
1.7499999999998237, 0.008654861861595507 
1.7599999999998226, 0.007554918992577942 
1.7699999999998215, 0.006778114967541061 
1.7799999999998204, 0.006288568280042048 
1.7899999999998193, 0.006055577222357344 
1.7999999999998182, 0.006060181633321842 
1.809999999999817, 0.006289101619779715 
1.819999999999816, 0.006719865825948822 
1.8299999999998149, 0.007302695979068424 
1.8399999999998138, 0.007949721529020327 
1.8499999999998127, 0.00854261125571133 
1.8599999999998116, 0.008957376301784135 
1.8699999999998105, 0.0090891473073812 
1.8799999999998094, 0.00886101249170947 
1.8899999999998083, 0.008219413175810849 
1.8999999999998072, 0.00713284879956882 
1.909999999999806, 0.005608516496328995 
1.919999999999805, 0.0037239458043001874 
1.9299999999998039, 0.0016446302259799969 
1.9399999999998028, -0.0003206794941646322 
1.9499999999998017, -0.0017126960646760025 
1.9599999999998006, -0.0027649229382769964 
1.9699999999997995, -0.003452554733219216 
1.9799999999997984, -0.0038043588090975384 
1.9899999999997973, -0.003863376290562941 
1.9999999999997962, -0.0036644076033571574 
2.0099999999998173, -0.0032287594617897764 
2.0199999999998384, -0.002571331876679393 
2.0299999999998595, -0.0017159592616005734 
2.0399999999998806, -0.0007134315661247374 
2.0499999999999017, 0.0002064824674680909 
2.059999999999923, 0.0007738517011941864 
2.069999999999944, 0.0011608544508978406 
2.079999999999965, 0.0012643565610144238 
2.089999999999986, 0.0010086068860665032 
2.100000000000007, 0.00034122651413795083 
2.1100000000000283, -0.00048700897630140803 
2.1200000000000494, -0.0015877889314799359 
2.1300000000000705, -0.0030340311300290257 
2.1400000000000916, -0.004656869694274654 
2.1500000000001127, -0.00623817841249537 
2.160000000000134, -0.007586725291929395 
2.170000000000155, -0.008596088017321712 
2.180000000000176, -0.009246032637311068 
2.190000000000197, -0.009565833833477734 
2.2000000000002182, -0.009596508413590768 
2.2100000000002393, -0.009369817816911524 
2.2200000000002604, -0.008903913312696599 
2.2300000000002815, -0.008211044595476811 
2.2400000000003026, -0.007313653030703268 
2.2500000000003237, -0.006263203819277198 
2.260000000000345, -0.005150659363497433 
2.270000000000366, -0.00409731047341069 
2.280000000000387, -0.003228166631583424 
2.290000000000408, -0.0026463775562309893 
2.3000000000004293, -0.0024245629698472944 
2.3100000000004504, -0.0026095028637527643 
2.3200000000004715, -0.0032231954962984788 
2.3300000000004926, -0.004247228099206681 
2.3400000000005137, -0.005595741792600711 
2.3500000000005348, -0.007105221295132212 
2.360000000000556, -0.008570364010310784 
2.370000000000577, -0.009813825423526564 
2.380000000000598, -0.010737076562180798 
2.390000000000619, -0.011320000511207004 
2.4000000000006403, -0.011586990970563028 
2.4100000000006614, -0.011572483435591044 
2.4200000000006825, -0.011301750718509456 
2.4300000000007036, -0.010787177046998855 
2.4400000000007247, -0.010036451909156504 
2.450000000000746, -0.009069679721626164 
2.460000000000767, -0.007939536668495426 
2.470000000000788, -0.006742047475561339 
2.480000000000809, -0.00560536978906194 
2.49000000000083, -0.004659529681248112 
2.5000000000008513, -0.004008199670190594 
2.5100000000008724, -0.0037198653992947866 
2.5200000000008935, -0.003833971578988858 
2.5300000000009146, -0.004363979156869768 
2.5400000000009357, -0.005284570250607022 
2.550000000000957, -0.0065087201530702144 
2.560000000000978, -0.007880758907059913 
2.570000000000999, -0.009210319628103066 
2.58000000000102, -0.01033447661015692 
2.5900000000010412, -0.011161680020808414 
2.6000000000010624, -0.011670465008928866 
2.6100000000010835, -0.011878977392464404 
2.6200000000011046, -0.011813963539780066 
2.6300000000011257, -0.011493278024498243 
2.6400000000011468, -0.010922705181129179 
2.650000000001168, -0.010104699496827005 
2.660000000001189, -0.009056777928026439 
2.67000000000121, -0.007833356637703333 
2.680000000001231, -0.006536900769551293 
2.6900000000012523, -0.005304134490085944 
2.7000000000012734, -0.004271310511470009 
2.7100000000012945, -0.0035429748007396117 
2.7200000000013156, -0.0031832710026471187 
2.7300000000013367, -0.0032241037875569687 
2.740000000001358, -0.0036705828582397097 
2.750000000001379, -0.004491051699425644 
2.7600000000014, -0.005597738548690404 
2.770000000001421, -0.006842272964053701 
2.780000000001442, -0.008047455977658944 
2.7900000000014633, -0.009062655595877933 
2.8000000000014844, -0.009801980390076277 
2.8100000000015055, -0.010242428908525104 
2.8200000000015266, -0.010396397466253447 
2.8300000000015477, -0.010283611954694924 
2.840000000001569, -0.009915106739297557 
2.85000000000159, -0.00929058875866019 
2.860000000001611, -0.008407830138630643 
2.870000000001632, -0.007282446720820389 
2.8800000000016532, -0.0059713753001935845 
2.8900000000016743, -0.0045841073074552995 
2.9000000000016954, -0.003265963829676967 
2.9100000000017165, -0.002158923867604685 
2.9200000000017377, -0.0013679246843280903 
2.9300000000017588, -0.0009529148458852624 
2.94000000000178, -0.0009392323703019687 
2.950000000001801, -0.0013251130386313435 
2.960000000001822, -0.0020737235270532426 
2.970000000001843, -0.0030962236349009738 
2.9800000000018643, -0.0042489627108136165 
2.9900000000018854, -0.005363794147483638 
3.0000000000019065, -0.006298818256276377 
3.0100000000019276, -0.006972423191540981 
3.0200000000019487, -0.007360813931461962 
3.03000000000197, -0.007472452516966622 
3.040000000001991, -0.007322060463305238 
3.050000000002012, -0.006915759321073687 
3.060000000002033, -0.006249022009864368 
3.070000000002054, -0.005316786796155092 
3.0800000000020753, -0.004134421228088827 
3.0900000000020964, -0.0027622218642938574 
3.1000000000021175, -0.0013160026444952733 
3.1100000000021386, 0.000034410879681137074 
3.1200000000021597, 0.0007443394551032757 
3.130000000002181, 0.001127955473659068 
3.140000000002202, 0.0011292508590495754 
3.150000000002223, 0.0007277100840875088 
3.160000000002244, -0.00003885815513164116 
3.1700000000022652, -0.0007560298199387283 
3.1800000000022863, -0.0017377408739846511 
3.1900000000023074, -0.0028418228476937324 
3.2000000000023285, -0.003904968615744362 
3.2100000000023496, -0.004791039321784926 
3.2200000000023707, -0.0054221741527932165 
3.230000000002392, -0.005775211154437706 
3.240000000002413, -0.005856884035333995 
3.250000000002434, -0.005679082290319238 
3.260000000002455, -0.0052449119746011364 
3.2700000000024763, -0.004547286556840358 
3.2800000000024974, -0.003579784192093706 
3.2900000000025185, -0.0023585579142123875 
3.3000000000025396, -0.0009473393044862494 
3.3100000000025607, 0.00037533189606300886 
3.3200000000025818, 0.0013332231593241443 
3.330000000002603, 0.002058853433025553 
3.340000000002624, 0.0024504860684134 
3.350000000002645, 0.0024553390838659003 
3.360000000002666, 0.0020562787364515546 
3.3700000000026873, 0.0012631408933370652 
3.3800000000027084, 0.00012003265422406611 
3.3900000000027295, -0.0008851319256583655 
3.4000000000027506, -0.001963194539837913 
3.4100000000027717, -0.00299504355539911 
3.420000000002793, -0.0038488141016953165 
3.430000000002814, -0.004450088774856172 
3.440000000002835, -0.004777015250529789 
3.450000000002856, -0.004835713138780447 
3.460000000002877, -0.004636395800212935 
3.4700000000028983, -0.004180228229191449 
3.4800000000029194, -0.0034585813243177286 
3.4900000000029405, -0.002464625514478681 
3.5000000000029616, -0.0012159978339232702 
3.5100000000029827, 0.00015685981832750507 
3.520000000003004, 0.001219450199573883 
3.530000000003025, 0.0021865919274313347 
3.540000000003046, 0.0029128886277400286 
3.550000000003067, 0.0032990580838237506 
3.5600000000030882, 0.003295230459386335 
3.5700000000031094, 0.002886845850703903 
3.5800000000031305, 0.0020862034210248222 
3.5900000000031516, 0.0009401394813689384 
3.6000000000031727, -0.00031953950875603435 
3.6100000000031938, -0.0013851726096240078 
3.620000000003215, -0.0023979410017557603 
3.630000000003236, -0.003229432280736266 
3.640000000003257, -0.0038085090776893856 
3.650000000003278, -0.004115019029426843 
3.6600000000032993, -0.004155119200140358 
3.6700000000033204, -0.003938045513284416 
3.6800000000033415, -0.0034637024714450843 
3.6900000000033626, -0.002722595522294014 
3.7000000000033837, -0.001708143957697902 
3.710000000003405, -0.0004399498024291946 
3.720000000003426, 0.000714076682728116 
3.730000000003447, 0.0017840515602968216 
3.740000000003468, 0.002749459292777728 
3.750000000003489, 0.0034662528526664535 
3.7600000000035103, 0.003837950894257665 
3.7700000000035314, 0.0038173281695940116 
3.7800000000035525, 0.0033918318829871015 
3.7900000000035736, 0.0025757017245896146 
3.8000000000035947, 0.001418281107927862 
3.810000000003616, 0.00001824617236206761 
3.820000000003637, -0.0010498989837004113 
3.830000000003658, -0.0020510645760122457 
3.840000000003679, -0.0028663940706157016 
3.8500000000037002, -0.0034279671181290427 
3.8600000000037213, -0.003717575016182355 
3.8700000000037424, -0.0037418043476058543 
3.8800000000037635, -0.0035093401999159433 
3.8900000000037847, -0.003019255106955344 
3.9000000000038058, -0.0022616288215281223 
3.910000000003827, -0.001230560924751273 
3.920000000003848, 0.00003681859016076916 
3.930000000003869, 0.0010609080741498886 
3.94000000000389, 0.002131255397636806 
3.9500000000039113, 0.0030879531697629915 
3.9600000000039324, 0.003788919691823079 
3.9700000000039535, 0.004140644119931378 
3.9800000000039746, 0.004098326799189347 
3.9900000000039957, 0.003651055380858613 
4.000000000004016, 0.0028147179419461222 
4.010000000003993, 0.0016410811069369382 
4.02000000000397, 0.0002317271075895249 
4.030000000003946, -0.0008994685886521121 
4.040000000003923, -0.0018930631313290951 
4.0500000000039, -0.002695529063095398 
4.0600000000038765, -0.003242150770498879 
4.070000000003853, -0.0035167882720277136 
4.08000000000383, -0.0035266567193418656 
4.090000000003807, -0.0032801161273728315 
4.100000000003783, -0.002775646649152239 
4.11000000000376, -0.002003160878473967 
4.120000000003737, -0.0009576988212859825 
4.130000000003713, 0.0002310598297638809 
4.14000000000369, 0.0012603626072591324 
4.150000000003667, 0.0023270694277835 
4.1600000000036434, 0.0032711671888623977 
4.17000000000362, 0.003952890910536812 
4.180000000003597, 0.004281753702639871 
4.1900000000035735, 0.004215218337577029 
4.20000000000355, 0.003743805694275117 
4.210000000003527, 0.002884928877760233 
4.220000000003504, 0.0016927828713704206 
4.23000000000348, 0.00027195122727637685 
4.240000000003457, -0.0008733671635199891 
4.250000000003434, -0.001861071816592901 
4.26000000000341, -0.0026520748649598745 
4.270000000003387, -0.0031848671290551555 
4.280000000003364, -0.0034454087089328027 
4.2900000000033405, -0.0034416060274809943 
4.300000000003317, -0.0031815820595352596 
4.310000000003294, -0.0026633356324927346 
4.320000000003271, -0.0018767484392173117 
4.330000000003247, -0.0008179488489309401 
4.340000000003224, 0.0003328812078996744 
4.350000000003201, 0.0013655786172514423 
4.360000000003177, 0.0024266768846406073 
4.370000000003154, 0.0033563556967785594 
4.380000000003131, 0.0040173461903810085 
4.390000000003107, 0.004322175321583058 
4.400000000003084, 0.004230455278547868 
4.410000000003061, 0.0037340446258789283 
4.4200000000030375, 0.0028518668450036914 
4.430000000003014, 0.0016405980134107164 
4.440000000002991, 0.0002078668596555451 
4.450000000002968, -0.0009198746110900047 
4.460000000002944, -0.0019019207798780281 
4.470000000002921, -0.0026817109794867477 
4.480000000002898, -0.0032009373311121963 
4.490000000002874, -0.0034476241160432053 
4.500000000002851, -0.0034303444145384688 
4.510000000002828, -0.00315698735801277 
4.520000000002804, -0.002625103763636058 
4.530000000002781, -0.0018246082376282041 
4.540000000002758, -0.0007528018810390744 
4.5500000000027345, 0.00038427536795427296 
4.560000000002711, 0.001419656979893162 
4.570000000002688, 0.002474399599421386 
4.580000000002665, 0.003389055032661031 
4.590000000002641, 0.004028933603650879 
4.600000000002618, 0.004309538576673335 
4.610000000002595, 0.004192556490571296 
4.620000000002571, 0.00367115657979665 
4.630000000002548, 0.002765818062029505 
4.640000000002525, 0.0015357689479343272 
4.6500000000025015, 0.00009168564623150922 
4.660000000002478, -0.0010047707675770177 
4.670000000002455, -0.0019806245761637897 
4.6800000000024315, -0.002748857138420225 
4.690000000002408, -0.0032543423758529463 
4.700000000002385, -0.003487091252673751 
4.710000000002362, -0.0034562710275800545 
