t, s[1].omega / s[0].omega 
0, -0.7699976644649954 
0.009999999999999995, -0.7697436789888856 
0.019999999999999934, -0.7694438230657186 
0.029999999999999874, -0.7690855584532654 
0.04000000000000012, -0.7686576657584394 
0.050000000000000405, -0.7681583148895419 
0.06000000000000069, -0.7675994217623013 
0.07000000000000098, -0.7670078487051348 
0.08000000000000126, -0.7664259678150216 
0.09000000000000155, -0.7659130119553497 
0.10000000000000184, -0.7655462666568453 
0.11000000000000212, -0.7654195682693821 
0.12000000000000241, -0.7656368880586358 
0.130000000000002, -0.7663010808676328 
0.1400000000000009, -0.767500870170105 
0.1499999999999998, -0.769300479261258 
0.1599999999999987, -0.7717344414839991 
0.1699999999999976, -0.7748059062720501 
0.1799999999999965, -0.7784828760245839 
0.1899999999999954, -0.7826860204535391 
0.1999999999999943, -0.787266588615403 
0.2099999999999932, -0.7919856265045639 
0.2199999999999921, -0.7965220071764374 
0.229999999999991, -0.8005359157890499 
0.2399999999999899, -0.8037730291149245 
0.2499999999999888, -0.8061415054942161 
0.2599999999999877, -0.8077055663905719 
0.2699999999999866, -0.8086144543250369 
0.2799999999999855, -0.8090277634182101 
0.2899999999999844, -0.8090733483853454 
0.2999999999999833, -0.8088366130652126 
0.3099999999999822, -0.8083672410374041 
0.3199999999999811, -0.8076949133907302 
0.32999999999998, -0.8068554527419167 
0.3399999999999789, -0.8059383405722544 
0.3499999999999778, -0.8051746256485803 
0.35999999999997667, -0.8050844577591176 
0.36999999999997557, -0.8066758828381244 
0.37999999999997447, -0.8115979566974787 
0.38999999999997337, -0.821990609565573 
0.39999999999997227, -0.8396621488064827 
0.40999999999997117, -0.8645540729529237 
0.41999999999997006, -0.8935560321791447 
0.42999999999996896, -0.921473516369675 
0.43999999999996786, -0.9439945873295559 
0.44999999999996676, -0.9597154185758674 
0.45999999999996566, -0.9696062596157177 
0.46999999999996456, -0.9754230234576353 
0.47999999999996346, -0.9786894545203941 
0.48999999999996235, -0.9804326815104212 
0.49999999999996125, -0.981263593923155 
0.5099999999999602, -0.9815167304514008 
0.519999999999959, -0.9813549336642599 
0.529999999999958, -0.9808298999522782 
0.5399999999999568, -0.9799118866298538 
0.5499999999999557, -0.9785064199776679 
0.5599999999999546, -0.9764863715121489 
0.5699999999999535, -0.9737973287480992 
0.5799999999999524, -0.9707382273694949 
0.5899999999999513, -0.9684980598003708 
0.5999999999999502, -0.9697187345521829 
0.6099999999999491, -0.9781478545543946 
0.619999999999948, -0.9963032263720877 
0.6299999999999469, -1.0223155595195712 
0.6399999999999458, -1.0499731003649526 
0.6499999999999447, -1.0730978375138234 
0.6599999999999436, -1.0892159957537326 
0.6699999999999425, -1.0991421467202505 
0.6799999999999414, -1.1047989978333594 
0.6899999999999403, -1.1078549079877051 
0.6999999999999392, -1.1094014333263114 
0.7099999999999381, -1.110063998226903 
0.719999999999937, -1.1101711093467235 
0.7299999999999359, -1.1098755015569013 
0.7399999999999348, -1.1092280126075489 
0.7499999999999337, -1.1082342446589037 
0.7599999999999326, -1.1069410253276686 
0.7699999999999315, -1.1056218906186734 
0.7799999999999304, -1.1051069382974035 
0.7899999999999293, -1.1070797263674919 
0.7999999999999282, -1.1137369425612218 
0.8099999999999271, -1.1263593111332555 
0.819999999999926, -1.1438204683234348 
0.8299999999999249, -1.162874198309303 
0.8399999999999238, -1.1800921332565688 
0.8499999999999227, -1.1934816374274413 
0.8599999999999216, -1.2027255933325391 
0.8699999999999205, -1.2085313043243637 
0.8799999999999194, -1.2118973219932945 
0.8899999999999183, -1.213686499955163 
0.8999999999999172, -1.2145000797560248 
0.9099999999999161, -1.2147091491050972 
0.919999999999915, -1.2145310140817254 
0.9299999999999139, -1.214105728312599 
0.9399999999999128, -1.2135693520532622 
0.9499999999999117, -1.2131238495784085 
0.9599999999999106, -1.2130682977022182 
0.9699999999999095, -1.213721505955035 
0.9799999999999084, -1.2152415089711068 
0.9899999999999073, -1.2175094031443368 
0.9999999999999062, -1.2202092219097223 
1.0099999999999052, -1.2230013171361334 
1.019999999999904, -1.2256294235197331 
1.029999999999903, -1.227935162705827 
1.039999999999902, -1.229832526145874 
1.0499999999999008, -1.2312822333979212 
1.0599999999998997, -1.232277698853498 
1.0699999999998986, -1.2328395374415377 
1.0799999999998975, -1.2330113672812906 
1.0899999999998964, -1.2328530093816767 
1.0999999999998953, -1.232433785707236 
1.1099999999998942, -1.2318311449732264 
1.119999999999893, -1.2311347032062625 
1.129999999999892, -1.2304469769223434 
1.1399999999998909, -1.2298701374369265 
1.1499999999998898, -1.2294814900100866 
1.1599999999998887, -1.2293149163732227 
1.1699999999998876, -1.2293570386751 
1.1799999999998865, -1.2295516102001498 
1.1899999999998854, -1.2298106180308817 
1.1999999999998843, -1.2300342393090111 
1.2099999999998832, -1.2301300440747505 
1.219999999999882, -1.2300205811911056 
1.229999999999881, -1.2296417634196586 
1.2399999999998799, -1.2289411310482463 
1.2499999999998788, -1.2278801252686482 
1.2599999999998777, -1.2264379431434116 
1.2699999999998766, -1.2246137910227541 
1.2799999999998755, -1.222428677495081 
1.2899999999998744, -1.2199314999150634 
1.2999999999998733, -1.2172132741901518 
1.3099999999998722, -1.214427841731442 
1.319999999999871, -1.211804936131057 
1.32999999999987, -1.2096215056069657 
1.3399999999998689, -1.2081000520550913 
1.3499999999998678, -1.207279674718146 
1.3599999999998666, -1.206987806895064 
1.3699999999998655, -1.2069533476702177 
1.3799999999998644, -1.2069374232319938 
1.3899999999998633, -1.206774021132119 
1.3999999999998622, -1.2063341747871743 
1.4099999999998611, -1.205465745387959 
1.41999999999986, -1.2039327733242675 
1.429999999999859, -1.2013604993580826 
1.4399999999998578, -1.1972050660288778 
1.4499999999998567, -1.1907984979390143 
1.4599999999998556, -1.1815364747241601 
1.4699999999998545, -1.1692305216210983 
1.4799999999998534, -1.1545248952501437 
1.4899999999998523, -1.1391225104624134 
1.4999999999998512, -1.125450625028926 
1.5099999999998501, -1.1156033403708503 
1.519999999999849, -1.1101937098937602 
1.529999999999848, -1.1082388776944543 
1.5399999999998468, -1.1081503030032451 
1.5499999999998457, -1.108692264103595 
1.5599999999998446, -1.1092285570111775 
1.5699999999998435, -1.1095264692991667 
1.5799999999998424, -1.109521435122176 
1.5899999999998413, -1.1091734545982157 
1.5999999999998402, -1.1083883990020216 
1.6099999999998391, -1.1069527401240413 
1.619999999999838, -1.1044421099020065 
1.629999999999837, -1.1000803939783725 
1.6399999999998358, -1.0925734920262855 
1.6499999999998347, -1.0800907867159486 
1.6599999999998336, -1.0608389557433129 
1.6699999999998325, -1.0346623981459295 
1.6799999999998314, -1.0048504969666252 
1.6899999999998303, -0.9775533574573719 
1.6999999999998292, -0.9580163441607181 
1.709999999999828, -0.947453028594688 
1.719999999999827, -0.9436374205118871 
1.729999999999826, -0.943450893160153 
1.7399999999998248, -0.9445947720524351 
1.7499999999998237, -0.9458851205050826 
1.7599999999998226, -0.9468839463806727 
1.7699999999998215, -0.9475023450394472 
1.7799999999998204, -0.9477642224308894 
1.7899999999998193, -0.947698402115259 
1.7999999999998182, -0.9472927531033355 
1.809999999999817, -0.9464654298375734 
1.819999999999816, -0.9450282790001057 
1.8299999999998149, -0.9426289693380067 
1.8399999999998138, -0.938673263472387 
1.8499999999998127, -0.9322697436659508 
1.8599999999998116, -0.9223240865331768 
1.8699999999998105, -0.9079728952598817 
1.8799999999998094, -0.8893500942116092 
1.8899999999998083, -0.868127860108823 
1.8999999999998072, -0.8470903625798993 
1.909999999999806, -0.8288918166250075 
1.919999999999805, -0.8150279642885531 
1.9299999999998039, -0.8056551774207934 
1.9399999999998028, -0.8000291744620254 
1.9499999999998017, -0.7970706400441964 
1.9599999999998006, -0.7957682748906385 
1.9699999999997995, -0.7953607159742131 
1.9799999999997984, -0.795355474446111 
1.9899999999997973, -0.7954688670085426 
1.9999999999997962, -0.7955496188634897 
2.0099999999998173, -0.7955161372408437 
2.0199999999998384, -0.7953140516027618 
2.0299999999998595, -0.7948907988672469 
2.0399999999998806, -0.7941835995885544 
2.0499999999999017, -0.7931207524838588 
2.059999999999923, -0.7916385672874794 
2.069999999999944, -0.7897115792733225 
2.079999999999965, -0.7873806613270026 
2.089999999999986, -0.784755745282978 
2.100000000000007, -0.7819853093843815 
2.1100000000000283, -0.7792130090793536 
2.1200000000000494, -0.7765493053621569 
2.1300000000000705, -0.7740673672040023 
2.1400000000000916, -0.771813909847978 
2.1500000000001127, -0.7698220664112884 
2.160000000000134, -0.768119008858507 
2.170000000000155, -0.7667269745684245 
2.180000000000176, -0.7656596301216791 
2.190000000000197, -0.7649168897160693 
2.2000000000002182, -0.7644812907083782 
2.2100000000002393, -0.7643180897615809 
2.2200000000002604, -0.7643795361883619 
2.2300000000002815, -0.7646119414096165 
2.2400000000003026, -0.7649631793335553 
2.2500000000003237, -0.7653886144110065 
2.260000000000345, -0.7658545909741834 
2.270000000000366, -0.7663393888101713 
2.280000000000387, -0.7668314008959521 
2.290000000000408, -0.7673239713144024 
2.3000000000004293, -0.7678073137390162 
2.3100000000004504, -0.7682605555893067 
2.3200000000004715, -0.7686491105049471 
2.3300000000004926, -0.7689310276859683 
2.3400000000005137, -0.7690700443220203 
2.3500000000005348, -0.7690475012184097 
2.360000000000556, -0.7688664254166656 
2.370000000000577, -0.7685482194688273 
2.380000000000598, -0.7681279098458218 
2.390000000000619, -0.7676536047906544 
2.4000000000006403, -0.7671923383309853 
2.4100000000006614, -0.766841198639174 
2.4200000000006825, -0.7667400539536933 
2.4300000000007036, -0.7670798397706784 
2.4400000000007247, -0.7680992628235482 
2.450000000000746, -0.7700650469542278 
2.460000000000767, -0.7732366495509952 
2.470000000000788, -0.7778214574507648 
2.480000000000809, -0.7839253008012192 
2.49000000000083, -0.7914966664045255 
2.5000000000008513, -0.8002630442273745 
2.5100000000008724, -0.8096808704010419 
2.5200000000008935, -0.8189641190901998 
2.5300000000009146, -0.8272627401764077 
2.5400000000009357, -0.8339500696721615 
2.550000000000957, -0.838823852353712 
2.560000000000978, -0.8420685061436014 
2.570000000000999, -0.8440541272435205 
2.58000000000102, -0.8451507919774836 
2.5900000000010412, -0.8456408137046323 
2.6000000000010624, -0.8457065181072185 
2.6100000000010835, -0.8454482107721949 
2.6200000000011046, -0.8449061035924885 
2.6300000000011257, -0.8440797472244534 
2.6400000000011468, -0.8429510569673034 
2.650000000001168, -0.841527959137168 
2.660000000001189, -0.8399395151937563 
2.67000000000121, -0.8386234774569014 
2.680000000001231, -0.8386186640855644 
2.6900000000012523, -0.8418323518309198 
2.7000000000012734, -0.8508581820061538 
2.7100000000012945, -0.8677567785666417 
2.7200000000013156, -0.8919862953334856 
2.7300000000013367, -0.919459605800968 
2.740000000001358, -0.9446545845213186 
2.750000000001379, -0.963994734780482 
2.7600000000014, -0.9769884079688064 
2.770000000001421, -0.9849727506544859 
2.780000000001442, -0.9896088898270372 
2.7900000000014633, -0.9921864681486003 
2.8000000000014844, -0.9935322385554564 
2.8100000000015055, -0.9941243012642318 
2.8200000000015266, -0.9942152319092425 
2.8300000000015477, -0.9939136438161359 
2.840000000001569, -0.9932258358180801 
2.85000000000159, -0.9920695455564298 
2.860000000001611, -0.9902748651582375 
2.870000000001632, -0.9876016970019315 
2.8800000000016532, -0.9838437424774995 
2.8900000000016743, -0.9791505320470828 
2.9000000000016954, -0.9746694140206724 
2.9100000000017165, -0.9731852485314839 
2.9200000000017377, -0.9785804406378764 
2.9300000000017588, -0.9931227829139393 
2.94000000000178, -1.0145505219504525 
2.950000000001801, -1.0370086174092081 
2.960000000001822, -1.0554109919270434 
2.970000000001843, -1.0680753869463868 
2.9800000000018643, -1.0758518946667022 
2.9900000000018854, -1.0802984985054411 
3.0000000000019065, -1.082705979378672 
3.0100000000019276, -1.0839073057381916 
3.0200000000019487, -1.0843768163873375 
3.03000000000197, -1.0843574335675492 
3.040000000001991, -1.0839473582925718 
3.050000000002012, -1.0831492486024947 
3.060000000002033, -1.0819056097017064 
3.070000000002054, -1.0801641726093911 
3.0800000000020753, -1.0780586202961684 
3.0900000000020964, -1.076323111888454 
3.1000000000021175, -1.0769006916055635 
3.1100000000021386, -1.0830747655477269 
3.1200000000021597, -1.0978753921156679 
3.130000000002181, -1.121008057686394 
3.140000000002202, -1.147717680822734 
3.150000000002223, -1.1718780618224336 
3.160000000002244, -1.1899216995926805 
3.1700000000022652, -1.2016295508312143 
3.1800000000022863, -1.2085212715675322 
3.1900000000023074, -1.2123032821020376 
3.2000000000023285, -1.214236116967903 
3.2100000000023496, -1.2150953634875619 
3.2200000000023707, -1.2153139024446458 
3.230000000002392, -1.2151219665817086 
3.240000000002413, -1.214651679253175 
3.250000000002434, -1.2140268458167944 
3.260000000002455, -1.2134615175303396 
3.2700000000024763, -1.213343880625072 
3.2800000000024974, -1.2141915352320525 
3.2900000000025185, -1.2163841260827117 
3.3000000000025396, -1.2198649071916783 
3.3100000000025607, -1.2241559536685398 
3.3200000000025818, -1.2286552145582246 
3.330000000002603, -1.2328861909106195 
3.340000000002624, -1.2365613399098452 
3.350000000002645, -1.239542400130969 
3.360000000002666, -1.2417907708923528 
3.3700000000026873, -1.243336693754489 
3.3800000000027084, -1.244259052877434 
3.3900000000027295, -1.2446643541459899 
3.4000000000027506, -1.244665295268619 
3.4100000000027717, -1.2443677122006471 
3.420000000002793, -1.2438718497227008 
3.430000000002814, -1.2432840411051416 
3.440000000002835, -1.24272401239705 
3.450000000002856, -1.2423102361847542 
3.460000000002877, -1.2421248933834965 
3.4700000000028983, -1.2421877298529997 
3.4800000000029194, -1.2424600115917994 
3.4900000000029405, -1.2428652414748371 
3.5000000000029616, -1.2433087628380268 
3.5100000000029827, -1.2436948287822651 
3.520000000003004, -1.243940170520506 
3.530000000003025, -1.243979463703247 
3.540000000003046, -1.243764125960167 
3.550000000003067, -1.2432600260482436 
3.5600000000030882, -1.242446624719935 
3.5700000000031094, -1.2413166878147832 
3.5800000000031305, -1.239876324086564 
3.5900000000031516, -1.2381473104956995 
3.6000000000031727, -1.2361740042040839 
3.6100000000031938, -1.2340353232783206 
3.620000000003215, -1.231859129515487 
3.630000000003236, -1.2298290315434122 
3.640000000003257, -1.228159461312105 
3.650000000003278, -1.2270161606718644 
3.6600000000032993, -1.2264177198059203 
3.6700000000033204, -1.226216661050343 
3.6800000000033415, -1.2261890026968862 
3.6900000000033626, -1.2261343299369116 
3.7000000000033837, -1.2259033109693103 
3.710000000003405, -1.2253642182317033 
3.720000000003426, -1.2243497632413467 
3.730000000003447, -1.2226059604598327 
3.740000000003468, -1.2197554677168043 
3.750000000003489, -1.21530101561016 
3.7600000000035103, -1.2087103921363294 
3.7700000000035314, -1.1996127939622776 
3.7800000000035525, -1.188086577063366 
3.7900000000035736, -1.174949094588616 
3.8000000000035947, -1.1618554949392053 
3.810000000003616, -1.1508952843951392 
3.820000000003637, -1.143596115143569 
3.830000000003658, -1.1400456237309782 
3.840000000003679, -1.139091577180817 
3.8500000000037002, -1.139344868408671 
3.8600000000037213, -1.139878213029563 
3.8700000000037424, -1.140272529671821 
3.8800000000037635, -1.1403908039254762 
3.8900000000037847, -1.1401844142904956 
3.9000000000038058, -1.1395828433523607 
3.910000000003827, -1.1384209589636332 
3.920000000003848, -1.1363546236775313 
3.930000000003869, -1.1327293472528028 
3.94000000000389, -1.1263988992010563 
3.9500000000039113, -1.1156063867885466 
3.9600000000039324, -1.098323226438105 
3.9700000000039535, -1.0736753405293458 
3.9800000000039746, -1.0441997788207855 
3.9900000000039957, -1.0162474369415073 
4.000000000004016, -0.9962066800367202 
4.010000000003993, -0.9860664588506282 
4.02000000000397, -0.9833773265803301 
4.030000000003946, -0.9844087068070942 
4.040000000003923, -0.9864877401488586 
4.0500000000039, -0.9883698664124043 
4.0600000000038765, -0.9897002905482883 
4.070000000003853, -0.9904890219165624 
4.08000000000383, -0.9908313238472664 
4.090000000003807, -0.9907985941295043 
4.100000000003783, -0.9904011600698561 
4.11000000000376, -0.9895658071982927 
4.120000000003737, -0.9880989054436258 
4.130000000003713, -0.9856163203039717 
4.14000000000369, -0.9814284778594008 
4.150000000003667, -0.9744013216450617 
4.1600000000036434, -0.9629227528104589 
4.17000000000362, -0.9453076454149082 
4.180000000003597, -0.9209991694093093 
4.1900000000035735, -0.8920840306769309 
4.20000000000355, -0.8632858727927909 
4.210000000003527, -0.8394972824936691 
4.220000000003504, -0.8231135582919636 
4.23000000000348, -0.8136544220103452 
4.240000000003457, -0.8091538780953618 
4.250000000003434, -0.8075587100538094 
4.26000000000341, -0.8073733631060132 
4.270000000003387, -0.8077170227250343 
4.280000000003364, -0.8081487763374009 
4.2900000000033405, -0.8084780728554465 
4.300000000003317, -0.808631947112117 
4.310000000003294, -0.8085780608833584 
4.320000000003271, -0.8082833234056304 
4.330000000003247, -0.807690754992608 
4.340000000003224, -0.8067058553822266 
4.350000000003201, -0.8051934307768747 
4.360000000003177, -0.8029952710160989 
4.370000000003154, -0.7999811822903712 
4.380000000003131, -0.7961262520550475 
4.390000000003107, -0.7915683061261519 
4.400000000003084, -0.7865898835813551 
4.410000000003061, -0.781527568130575 
4.4200000000030375, -0.776675766787119 
4.430000000003014, -0.772240634629102 
4.440000000002991, -0.7683437279208942 
4.450000000002968, -0.7650455385504398 
4.460000000002944, -0.7623657032954906 
4.470000000002921, -0.7602928673520777 
4.480000000002898, -0.7587874020840885 
4.490000000002874, -0.7577832017828434 
4.500000000002851, -0.7571931899815896 
4.510000000002828, -0.7569193586547157 
4.520000000002804, -0.756864612817137 
4.530000000002781, -0.7569425179226517 
4.540000000002758, -0.7570825964591639 
4.5500000000027345, -0.7572314831637795 
4.560000000002711, -0.757352020458307 
4.570000000002688, -0.7574222787164998 
4.580000000002665, -0.7574347695155615 
4.590000000002641, -0.757394100267109 
4.600000000002618, -0.7573110790960829 
4.610000000002595, -0.7571939400723124 
4.620000000002571, -0.7570409047373711 
4.630000000002548, -0.7568389018863529 
4.640000000002525, -0.7565696161585704 
4.6500000000025015, -0.7562190792038501 
4.660000000002478, -0.7557852777768976 
4.670000000002455, -0.7552811967292892 
4.6800000000024315, -0.7547349839296204 
4.690000000002408, -0.7541904571903911 
4.700000000002385, -0.7537095491469642 
4.710000000002362, -0.7533756400217119 
4.720000000002338, -0.7532948589992045 
4.730000000002315, -0.7535922327884357 
4.740000000002292, -0.7544014019816414 
4.750000000002268, -0.7558498360751931 
4.760000000002245, -0.7580438377787766 
4.770000000002222, -0.7610567257470316 
4.7800000000021985, -0.7649192232363305 
4.790000000002175, -0.7696060292112156 
4.800000000002152, -0.7750113746161114 
4.810000000002129, -0.7809144806674062 
4.820000000002105, -0.7869566578784296 
4.830000000002082, -0.7926739528867109 
4.840000000002059, -0.7976138036419308 
4.850000000002035, -0.8014869825503297 
4.860000000002012, -0.8042444546590042 
4.870000000001989, -0.8060279381017453 
4.880000000001965, -0.8070565557217881 
4.890000000001942, -0.8075355477799899 
4.900000000001919, -0.8076163092082845 
4.9100000000018955, -0.8073923685764646 
4.920000000001872, -0.8069101243642841 
4.930000000001849, -0.8061841607016277 
