t, s[1].omega / s[0].omega 
0, -1.320029256109113 
0.009999999999999995, -1.322489317881344 
0.019999999999999934, -1.324107111272879 
0.029999999999999874, -1.325031385994028 
0.04000000000000012, -1.3254181795404776 
0.050000000000000405, -1.3254057740434662 
0.06000000000000069, -1.3251081333620651 
0.07000000000000098, -1.3246242683570428 
0.08000000000000126, -1.3240551511687617 
0.09000000000000155, -1.3235123741640011 
0.10000000000000184, -1.3231027598495049 
0.11000000000000212, -1.3228950736032101 
0.12000000000000241, -1.3228992739790892 
0.130000000000002, -1.3230727745106665 
0.1400000000000009, -1.32333831224811 
0.1499999999999998, -1.3236024281572802 
0.1599999999999987, -1.3237735017262302 
0.1699999999999976, -1.3237726256543514 
0.1799999999999965, -1.3235333438001484 
0.1899999999999954, -1.3229965737754965 
0.1999999999999943, -1.3221085337143448 
0.2099999999999932, -1.320823798459045 
0.2199999999999921, -1.3191116766245587 
0.229999999999991, -1.3169654083211004 
0.2399999999999899, -1.3144179318246394 
0.2499999999999888, -1.3115699123578919 
0.2599999999999877, -1.3086276931066734 
0.2699999999999866, -1.3059194665506402 
0.2799999999999855, -1.3038187929862324 
0.2899999999999844, -1.3025494422715356 
0.2999999999999833, -1.3020292786919332 
0.3099999999999822, -1.3019488144227553 
0.3199999999999811, -1.3019881332791723 
0.32999999999998, -1.3019351785533875 
0.3399999999999789, -1.3016634920433248 
0.3499999999999778, -1.3010573914690318 
0.35999999999997667, -1.2999341689782564 
0.36999999999997557, -1.297958837714328 
0.37999999999997447, -1.2945388028967135 
0.38999999999997337, -1.2887321982412723 
0.39999999999997227, -1.279343066211713 
0.40999999999997117, -1.2655929925480858 
0.41999999999997006, -1.2486017163941212 
0.42999999999996896, -1.2324387762114062 
0.43999999999996786, -1.222054133157662 
0.44999999999996676, -1.2190057202750118 
0.45999999999996566, -1.2207081268965074 
0.46999999999996456, -1.2237798904186463 
0.47999999999996346, -1.2263858343274856 
0.48999999999996235, -1.228086946862558 
0.49999999999996125, -1.2290115529782677 
0.5099999999999602, -1.2293745995361711 
0.519999999999959, -1.2293256486080144 
0.529999999999958, -1.2289283560320834 
0.5399999999999568, -1.2281723263210704 
0.5499999999999557, -1.2269991881026558 
0.5599999999999546, -1.2253792958112433 
0.5699999999999535, -1.2235290295724748 
0.5799999999999524, -1.22233507856931 
0.5899999999999513, -1.2236797242166761 
0.5999999999999502, -1.2297190972674061 
0.6099999999999491, -1.2408828812626571 
0.619999999999948, -1.2548558851591247 
0.6299999999999469, -1.2682499426099423 
0.6399999999999458, -1.2788427480997164 
0.6499999999999447, -1.2861377514169898 
0.6599999999999436, -1.2906747727257133 
0.6699999999999425, -1.2932657996949863 
0.6799999999999414, -1.294602481995455 
0.6899999999999403, -1.2951596322808352 
0.6999999999999392, -1.2952290872318932 
0.7099999999999381, -1.2949853119766854 
0.719999999999937, -1.294550100304916 
0.7299999999999359, -1.294052826470812 
0.7399999999999348, -1.2936754541493873 
0.7499999999999337, -1.2936420151963426 
0.7599999999999326, -1.2941222880440841 
0.7699999999999315, -1.2951208585628282 
0.7799999999999304, -1.296476343751035 
0.7899999999999293, -1.297965151823451 
0.7999999999999282, -1.2993957295065282 
0.8099999999999271, -1.3006397478537468 
0.819999999999926, -1.301623868005779 
0.8299999999999249, -1.3023124269207975 
0.8399999999999238, -1.302693614271536 
0.8499999999999227, -1.3027713242146137 
0.8599999999999216, -1.302561280586119 
0.8699999999999205, -1.302089533445982 
0.8799999999999194, -1.3013927363083262 
0.8899999999999183, -1.300520768030949 
0.8999999999999172, -1.299540814599064 
0.9099999999999161, -1.2985387149029897 
0.919999999999915, -1.2976130439704332 
0.9299999999999139, -1.2968604604987255 
0.9399999999999128, -1.296350477837494 
0.9499999999999117, -1.2960926431000221 
0.9599999999999106, -1.2960207998052529 
0.9699999999999095, -1.2960180289393775 
0.9799999999999084, -1.2959605623479913 
0.9899999999999073, -1.2957393269483366 
0.9999999999999062, -1.2952500885125358 
1.0099999999999052, -1.294370394383161 
1.019999999999904, -1.2929417853329646 
1.029999999999903, -1.2907692242412578 
1.039999999999902, -1.2876459597040708 
1.0499999999999008, -1.283407943649065 
1.0599999999998997, -1.2780188538995065 
1.0699999999998986, -1.2716860605705143 
1.0799999999998975, -1.2649826101986001 
1.0899999999998964, -1.2588538243000271 
1.0999999999998953, -1.2543009486821837 
1.1099999999998942, -1.251789700651099 
1.119999999999893, -1.2509642662929121 
1.129999999999892, -1.251039266439844 
1.1399999999998909, -1.2513571789740667 
1.1499999999998898, -1.2515750884266637 
1.1599999999998887, -1.2515625226009617 
1.1699999999998876, -1.2512599695448734 
1.1799999999998865, -1.250584225826009 
1.1899999999998854, -1.2493611081117506 
1.1999999999998843, -1.2472527571539547 
1.2099999999998832, -1.2436736526375003 
1.219999999999882, -1.2377716069521056 
1.229999999999881, -1.2287449211123773 
1.2399999999998799, -1.216927435056214 
1.2499999999998788, -1.2052986108648895 
1.2599999999998777, -1.198882513791943 
1.2699999999998766, -1.200420603804642 
1.2799999999998755, -1.2074915649235713 
1.2899999999998744, -1.2155422439075374 
1.2999999999998733, -1.2218313325872328 
1.3099999999998722, -1.2258811819888327 
1.319999999999871, -1.2281992361732403 
1.32999999999987, -1.2293870397954458 
1.3399999999998689, -1.229868422941856 
1.3499999999998678, -1.2298868431504757 
1.3599999999998666, -1.2295597512129959 
1.3699999999998655, -1.228930303120798 
1.3799999999998644, -1.2280246870797331 
1.3899999999998633, -1.2269548174016118 
1.3999999999998622, -1.2261063051015753 
1.4099999999998611, -1.226336501851635 
1.41999999999986, -1.228836562169072 
1.429999999999859, -1.2343577168952837 
1.4399999999998578, -1.2424086196068052 
1.4499999999998567, -1.2514614856139137 
1.4599999999998556, -1.2599264892408104 
1.4699999999998545, -1.2668346008882305 
1.4799999999998534, -1.2719021918200086 
1.4899999999998523, -1.2752930570951149 
1.4999999999998512, -1.2773616192296027 
1.5099999999998501, -1.27847821070769 
1.519999999999849, -1.2789446911124207 
1.529999999999848, -1.2789763427582703 
1.5399999999998468, -1.2787205292196213 
1.5499999999998457, -1.2782913132090374 
1.5599999999998446, -1.2778072270778644 
1.5699999999998435, -1.277414571718967 
1.5799999999998424, -1.2772693149117047 
1.5899999999998413, -1.2774738022629326 
1.5999999999998402, -1.2780225997419525 
1.6099999999998391, -1.2788146028479002 
1.619999999999838, -1.2797113171770218 
1.629999999999837, -1.2805851265596282 
1.6399999999998358, -1.2813385259810683 
1.6499999999998347, -1.281905197016052 
1.6599999999998336, -1.282244106961478 
1.6699999999998325, -1.2823324549941462 
1.6799999999998314, -1.2821603725750639 
1.6899999999998303, -1.28172820579427 
1.6999999999998292, -1.281046117876652 
1.709999999999828, -1.2801358016352744 
1.719999999999827, -1.2790344015875283 
1.729999999999826, -1.2778000841588648 
1.7399999999998248, -1.2765167787856444 
1.7499999999998237, -1.275293804096891 
1.7599999999998226, -1.2742539526368004 
1.7699999999998215, -1.273501051747261 
1.7799999999998204, -1.2730706000345882 
1.7899999999998193, -1.2729008836046767 
1.7999999999998182, -1.2728607289784608 
1.809999999999817, -1.2728078559160276 
1.819999999999816, -1.2726216495357014 
1.8299999999998149, -1.2721945968553883 
1.8399999999998138, -1.2714029370463695 
1.8499999999998127, -1.2700775551388293 
1.8599999999998116, -1.2679886214924418 
1.8699999999998105, -1.2648578980735823 
1.8799999999998094, -1.2604142086160137 
1.8899999999998083, -1.2545013560528444 
1.8999999999998072, -1.2472342608055298 
1.909999999999806, -1.2391694180367705 
1.919999999999805, -1.2313682730718722 
1.9299999999998039, -1.2251200496462202 
1.9399999999998028, -1.221266024213898 
1.9499999999998017, -1.219674230726806 
1.9599999999998006, -1.2194935660016324 
1.9699999999997995, -1.2198480801480918 
1.9799999999997984, -1.2202153984765105 
1.9899999999997973, -1.2203839245241699 
1.9999999999997962, -1.2202858571161115 
2.0099999999998173, -1.2198745064940835 
2.0199999999998384, -1.2190521227469584 
2.0299999999998595, -1.2176113103917328 
2.0399999999998806, -1.2151642817837984 
2.0499999999999017, -1.2110707511126626 
2.059999999999923, -1.2044729621819532 
2.069999999999944, -1.1947382601582368 
2.079999999999965, -1.1826319558629812 
2.089999999999986, -1.1715015160476503 
2.100000000000007, -1.1659865959466182 
2.1100000000000283, -1.1679024485243794 
2.1200000000000494, -1.1745367661705772 
2.1300000000000705, -1.181824069253861 
2.1400000000000916, -1.1874812267661747 
2.1500000000001127, -1.1911446056060992 
2.160000000000134, -1.1932607607462244 
2.170000000000155, -1.1943519162821574 
2.180000000000176, -1.194788982980774 
2.190000000000197, -1.1947857128033268 
2.2000000000002182, -1.1944415689316872 
2.2100000000002393, -1.193782501511261 
2.2200000000002604, -1.1928054721391894 
2.2300000000002815, -1.1915642996208347 
2.2400000000003026, -1.1903538928159445 
2.2500000000003237, -1.1899870694461268 
2.260000000000345, -1.1918820076865724 
2.270000000000366, -1.1974232934070879 
2.280000000000387, -1.2067309522542327 
2.290000000000408, -1.2182004348838167 
2.3000000000004293, -1.2295170575110006 
2.3100000000004504, -1.2389690248920695 
2.3200000000004715, -1.2459193441544731 
2.3300000000004926, -1.2505384260992425 
2.3400000000005137, -1.2533493908372066 
2.3500000000005348, -1.2549023129362997 
2.360000000000556, -1.2556300156437055 
2.370000000000577, -1.2558257477930603 
2.380000000000598, -1.2556747819020742 
2.390000000000619, -1.2553014335688173 
2.4000000000006403, -1.2548188599123313 
2.4100000000006614, -1.2543739693325124 
2.4200000000006825, -1.2541621423326694 
2.4300000000007036, -1.254375546646185 
2.4400000000007247, -1.2551014228717448 
2.450000000000746, -1.2562670263358109 
2.460000000000767, -1.2576899484706994 
2.470000000000788, -1.2591718447643414 
2.480000000000809, -1.260556415337619 
2.49000000000083, -1.2617409218437061 
2.5000000000008513, -1.2626659825229845 
2.5100000000008724, -1.2633021873343269 
2.5200000000008935, -1.2636404002847725 
2.5300000000009146, -1.2636865434949105 
2.5400000000009357, -1.2634591981208714 
2.550000000000957, -1.2629883723326862 
2.560000000000978, -1.2623154673259003 
2.570000000000999, -1.2614953257413535 
2.58000000000102, -1.2605989808826432 
2.5900000000010412, -1.2597121855961266 
2.6000000000010624, -1.2589256239288487 
2.6100000000010835, -1.2583181315921728 
2.6200000000011046, -1.257936007032427 
2.6300000000011257, -1.257772642258788 
2.6400000000011468, -1.257762847267299 
2.650000000001168, -1.2578039361206588 
2.660000000001189, -1.2577882128849633 
2.67000000000121, -1.2576199292086805 
2.680000000001231, -1.2572108300312808 
2.6900000000012523, -1.256467686265985 
2.7000000000012734, -1.2552859895931667 
2.7100000000012945, -1.253556735083821 
2.7200000000013156, -1.2511858499560062 
2.7300000000013367, -1.248121014113877 
2.740000000001358, -1.2443822777477282 
2.750000000001379, -1.2400997029354397 
2.7600000000014, -1.2355587684769394 
2.770000000001421, -1.2312227719707804 
2.780000000001442, -1.2276510802522473 
2.7900000000014633, -1.2252600824633793 
2.8000000000014844, -1.2240739649405232 
2.8100000000015055, -1.2237393034698425 
2.8200000000015266, -1.2237958158621547 
2.8300000000015477, -1.2239038410164516 
2.840000000001569, -1.223879834217129 
2.85000000000159, -1.2236250729058575 
2.860000000001611, -1.223044881998974 
2.870000000001632, -1.2219807748168874 
2.8800000000016532, -1.220139728338341 
2.8900000000016743, -1.2170065716782212 
2.9000000000016954, -1.211762419053153 
2.9100000000017165, -1.2033310164512039 
2.9200000000017377, -1.1908281928451543 
2.9300000000017588, -1.1746340913216207 
2.94000000000178, -1.1574638390642424 
2.950000000001801, -1.1436345905200604 
2.960000000001822, -1.1360744664878155 
2.970000000001843, -1.1342797230141657 
2.9800000000018643, -1.135626657429288 
2.9900000000018854, -1.1377767613665573 
3.0000000000019065, -1.1395913743372899 
3.0100000000019276, -1.1407898584414848 
3.0200000000019487, -1.141433913272482 
3.03000000000197, -1.1416447902250093 
3.040000000001991, -1.1415032833372893 
3.050000000002012, -1.1410242867641545 
3.060000000002033, -1.14014795642121 
3.070000000002054, -1.138730064091886 
3.0800000000020753, -1.1365447447202308 
3.0900000000020964, -1.13336072227777 
3.1000000000021175, -1.129227368388594 
3.1100000000021386, -1.125092754881615 
3.1200000000021597, -1.1233953511345454 
3.130000000002181, -1.1273306260229499 
3.140000000002202, -1.1381205115167476 
3.150000000002223, -1.1530844503690996 
3.160000000002244, -1.167657113755618 
3.1700000000022652, -1.1788571077538899 
3.1800000000022863, -1.1862095149253502 
3.1900000000023074, -1.1905669883498842 
3.2000000000023285, -1.1929629467139748 
3.2100000000023496, -1.1941659502778113 
3.2200000000023707, -1.194648608240068 
3.230000000002392, -1.1946721835715317 
3.240000000002413, -1.194369051034768 
3.250000000002434, -1.1938057636977553 
3.260000000002455, -1.1930458967205158 
3.2700000000024763, -1.1922425633847817 
3.2800000000024974, -1.1917685551449373 
3.2900000000025185, -1.1922932063301035 
3.3000000000025396, -1.1945918658903587 
3.3100000000025607, -1.1990382132097728 
3.3200000000025818, -1.2052275877741514 
3.330000000002603, -1.2121791568652769 
3.340000000002624, -1.2188705073532062 
3.350000000002645, -1.2246007983242624 
3.360000000002666, -1.2290584113437177 
3.3700000000026873, -1.23223395288643 
3.3800000000027084, -1.2342982018407311 
3.3900000000027295, -1.2354926420699983 
3.4000000000027506, -1.2360519273047175 
3.4100000000027717, -1.2361656422666265 
3.420000000002793, -1.2359739776464347 
3.430000000002814, -1.2355853620102337 
3.440000000002835, -1.2351044815032204 
3.450000000002856, -1.2346568775414926 
3.460000000002877, -1.2343883820274815 
3.4700000000028983, -1.2344238210824279 
3.4800000000029194, -1.2348093970212453 
3.4900000000029405, -1.2354933735160705 
3.5000000000029616, -1.2363607883726053 
3.5100000000029827, -1.23728341736102 
3.520000000003004, -1.2381511010888577 
3.530000000003025, -1.2388820853477913 
3.540000000003046, -1.239421781093497 
3.550000000003067, -1.239737126655067 
3.5600000000030882, -1.2398107976265167 
3.5700000000031094, -1.2396373450726856 
3.5800000000031305, -1.2392216204298627 
3.5900000000031516, -1.2385790374855188 
3.6000000000031727, -1.2377373246657841 
3.6100000000031938, -1.23673968063656 
3.620000000003215, -1.2356483420500515 
3.630000000003236, -1.2345455128029883 
3.640000000003257, -1.2335278464229695 
3.650000000003278, -1.2326918479532862 
3.6600000000032993, -1.2321084810505922 
3.6700000000033204, -1.2317921261107272 
3.6800000000033415, -1.2316856668439153 
3.6900000000033626, -1.2316811332705015 
3.7000000000033837, -1.231659836453607 
3.710000000003405, -1.2315171277411672 
3.720000000003426, -1.2311600230877653 
3.730000000003447, -1.230491064690685 
3.740000000003468, -1.229395233546796 
3.750000000003489, -1.2277404535413377 
3.7600000000035103, -1.2253958566356595 
3.7700000000035314, -1.2222650240147086 
3.7800000000035525, -1.2183264521759052 
3.7900000000035736, -1.2136765060526937 
3.8000000000035947, -1.2085749569983044 
3.810000000003616, -1.2034770651992095 
3.820000000003637, -1.1989893484856282 
3.830000000003658, -1.1956712513960075 
3.840000000003679, -1.193744275313922 
3.8500000000037002, -1.1929746122722868 
3.8600000000037213, -1.1928759768391388 
3.8700000000037424, -1.1930061012679576 
3.8800000000037635, -1.193095266705433 
3.8900000000037847, -1.1930096878295768 
3.9000000000038058, -1.1926674265768156 
3.910000000003827, -1.1919665109632653 
3.920000000003848, -1.190723792439965 
3.930000000003869, -1.1886062612577928 
3.94000000000389, -1.1850490767358495 
3.9500000000039113, -1.1792007417858814 
3.9600000000039324, -1.17003732645732 
3.9700000000039535, -1.1568943310197901 
3.9800000000039746, -1.140479924240813 
3.9900000000039957, -1.123594666026531 
4.000000000004016, -1.110119162398484 
4.010000000003993, -1.1024383563779139 
4.02000000000397, -1.1000225012042923 
4.030000000003946, -1.100624349866314 
4.040000000003923, -1.1021977628419808 
4.0500000000039, -1.1036624081004462 
4.0600000000038765, -1.1046786457373163 
4.070000000003853, -1.1052381072184656 
4.08000000000383, -1.1054143148224758 
4.090000000003807, -1.1052607332623827 
4.100000000003783, -1.1047758803191676 
4.11000000000376, -1.1038844469176097 
4.120000000003737, -1.1024125714481634 
4.130000000003713, -1.100055820686131 
4.14000000000369, -1.0963698777052966 
4.150000000003667, -1.0908817297353557 
4.1600000000036434, -1.0835015037125357 
4.17000000000362, -1.075289024598105 
4.180000000003597, -1.0689138827077111 
4.1900000000035735, -1.0674658394027918 
4.20000000000355, -1.071861252176227 
4.210000000003527, -1.0798847568899563 
4.220000000003504, -1.0882510624774202 
4.23000000000348, -1.0949129042024874 
4.240000000003457, -1.0994303859393948 
4.250000000003434, -1.1021927980681612 
4.26000000000341, -1.1037436156067193 
4.270000000003387, -1.1045086803944595 
4.280000000003364, -1.1047567106665985 
4.2900000000033405, -1.1046307625298721 
4.300000000003317, -1.1041831668623894 
4.310000000003294, -1.1033998814871273 
4.320000000003271, -1.1022241901019514 
4.330000000003247, -1.1006107032258048 
4.340000000003224, -1.0986707969192895 
4.350000000003201, -1.0969772105505267 
4.360000000003177, -1.0969427519994792 
4.370000000003154, -1.1007548027659189 
4.380000000003131, -1.110163408791393 
4.390000000003107, -1.124650226015059 
4.400000000003084, -1.1411360561661745 
4.410000000003061, -1.156010049101723 
4.4200000000030375, -1.1672424268023565 
4.430000000003014, -1.174688415812358 
4.440000000002991, -1.1791853653002953 
4.450000000002968, -1.1817073920400802 
4.460000000002944, -1.1830018054914613 
4.470000000002921, -1.183546888646903 
4.480000000002898, -1.1836194459938318 
4.490000000002874, -1.1833710063698537 
4.500000000002851, -1.182890750553579 
4.510000000002828, -1.1822661507225591 
4.520000000002804, -1.181657604497656 
4.530000000002781, -1.1813771761263159 
4.540000000002758, -1.1818947933979076 
4.5500000000027345, -1.1836648107984495 
4.560000000002711, -1.1868292443073103 
4.570000000002688, -1.1910801612849506 
4.580000000002665, -1.1958293790859253 
4.590000000002641, -1.2004878937208698 
4.600000000002618, -1.2046296760524025 
4.610000000002595, -1.208018850195002 
4.620000000002571, -1.2105772575206943 
4.630000000002548, -1.2123416903327429 
4.640000000002525, -1.213420705566416 
4.6500000000025015, -1.213952483190503 
4.660000000002478, -1.2140714861687198 
4.670000000002455, -1.2138921343443174 
4.6800000000024315, -1.2135108523038067 
4.690000000002408, -1.2130210719563568 
4.700000000002385, -1.212530083256659 
4.710000000002362, -1.2121606328438828 
4.720000000002338, -1.212024008667121 
4.730000000002315, -1.2121773706143526 
4.740000000002292, -1.2126019894944073 
4.750000000002268, -1.2132198110375827 
4.760000000002245, -1.2139279162989274 
4.770000000002222, -1.2146262456638082 
4.7800000000021985, -1.2152321757650872 
4.790000000002175, -1.2156849645050545 
4.800000000002152, -1.2159440072050387 
4.810000000002129, -1.2159847393631953 
4.820000000002105, -1.2157949724074668 
4.830000000002082, -1.2153727856652146 
4.840000000002059, -1.2147261464465164 
4.850000000002035, -1.2138742130482265 
4.860000000002012, -1.2128502289399037 
4.870000000001989, -1.2117054323090914 
4.880000000001965, -1.210511977469165 
4.890000000001942, -1.209361374713094 
4.900000000001919, -1.2083548401633606 
4.9100000000018955, -1.2075825072750297 
4.920000000001872, -1.2070922057894364 
4.930000000001849, -1.20686271591622 
4.940000000001826, -1.2068066972280231 
