t, s[1].omega / s[0].omega 
0, -1.2199977052247475 
0.009999999999999995, -1.21961175575518 
0.019999999999999934, -1.2189192456169022 
0.029999999999999874, -1.217936109946202 
0.04000000000000012, -1.2167045898113475 
0.050000000000000405, -1.215304049000826 
0.06000000000000069, -1.213852339277055 
0.07000000000000098, -1.2125049356749373 
0.08000000000000126, -1.2114496807465538 
0.09000000000000155, -1.210835527864888 
0.10000000000000184, -1.210636065767087 
0.11000000000000212, -1.2106321913118754 
0.12000000000000241, -1.2105525722629376 
0.130000000000002, -1.210161098227517 
0.1400000000000009, -1.2092213578155608 
0.1499999999999998, -1.2074417492119836 
0.1599999999999987, -1.204492126512516 
0.1699999999999976, -1.2001035313684154 
0.1799999999999965, -1.1941660524163746 
0.1899999999999954, -1.186746189838545 
0.1999999999999943, -1.1781048079516303 
0.2099999999999932, -1.1688743016508436 
0.2199999999999921, -1.1603230772106339 
0.229999999999991, -1.1540988640140348 
0.2399999999999899, -1.1510002987225085 
0.2499999999999888, -1.150222627704852 
0.2599999999999877, -1.1503733663494535 
0.2699999999999866, -1.1505627176108004 
0.2799999999999855, -1.1504193672997258 
0.2899999999999844, -1.1497063706250303 
0.2999999999999833, -1.1479853879729538 
0.3099999999999822, -1.1442336950176712 
0.3199999999999811, -1.136232853585116 
0.32999999999998, -1.1199166223982744 
0.3399999999999789, -1.0900521930704377 
0.3499999999999778, -1.0443677359458607 
0.35999999999997667, -0.9890004587794546 
0.36999999999997557, -0.9371655040365076 
0.37999999999997447, -0.8998015656381098 
0.38999999999997337, -0.8789976645540817 
0.39999999999997227, -0.8701819735074988 
0.40999999999997117, -0.8676241494855087 
0.41999999999997006, -0.867473587713727 
0.42999999999996896, -0.8679032856115095 
0.43999999999996786, -0.8682462475015092 
0.44999999999996676, -0.8682959671439453 
0.45999999999996566, -0.8679501435412122 
0.46999999999996456, -0.8670491312182986 
0.47999999999996346, -0.8652897129829339 
0.48999999999996235, -0.8622024213550047 
0.49999999999996125, -0.8572919766879018 
0.5099999999999602, -0.8504077629264227 
0.519999999999959, -0.8420511946561993 
0.529999999999958, -0.8331688051161142 
0.5399999999999568, -0.8246321374958501 
0.5499999999999557, -0.816975016221538 
0.5599999999999546, -0.8104584654648107 
0.5699999999999535, -0.8052063590657763 
0.5799999999999524, -0.801264842866228 
0.5899999999999513, -0.7985866911076475 
0.5999999999999502, -0.7970026716814239 
0.6099999999999491, -0.7962390780335257 
0.619999999999948, -0.7959874631886737 
0.6299999999999469, -0.7959784944930136 
0.6399999999999458, -0.7960156144462628 
0.6499999999999447, -0.7959687193764449 
0.6599999999999436, -0.7957563001946678 
0.6699999999999425, -0.7953397113999067 
0.6799999999999414, -0.7947299974529439 
0.6899999999999403, -0.7939849467937333 
0.6999999999999392, -0.7931791610457474 
0.7099999999999381, -0.7923645209946488 
0.719999999999937, -0.7915537384578495 
0.7299999999999359, -0.7907355763558576 
0.7399999999999348, -0.789903902134454 
0.7499999999999337, -0.7890798538169589 
0.7599999999999326, -0.7883196320432858 
0.7699999999999315, -0.7877102400236039 
0.7799999999999304, -0.7873548579649068 
0.7899999999999293, -0.7873492663103511 
0.7999999999999282, -0.7877573823264782 
0.8099999999999271, -0.7885984451247644 
0.819999999999926, -0.7898520828023657 
0.8299999999999249, -0.7914765683463849 
0.8399999999999238, -0.7934296366660023 
0.8499999999999227, -0.7956801951280467 
0.8599999999999216, -0.7981994529618506 
0.8699999999999205, -0.8009242491114454 
0.8799999999999194, -0.8037043384653725 
0.8899999999999183, -0.8062836938537195 
0.8999999999999172, -0.8083780053467636 
0.9099999999999161, -0.8098162077786896 
0.919999999999915, -0.8106056067618469 
0.9299999999999139, -0.8108677298924446 
0.9399999999999128, -0.8107436468433967 
0.9499999999999117, -0.8103562116868407 
0.9599999999999106, -0.8098423621334652 
0.9699999999999095, -0.8094548523306072 
0.9799999999999084, -0.8097465224648746 
0.9899999999999073, -0.8118129956969359 
0.9999999999999062, -0.817434964064936 
1.0099999999999052, -0.8288271665134243 
1.019999999999904, -0.8478279176942753 
1.029999999999903, -0.8747542331571957 
1.039999999999902, -0.9073988136554257 
1.0499999999999008, -0.9408347429057949 
1.0599999999998997, -0.9691044550615037 
1.0699999999998986, -0.9886259874373376 
1.0799999999998975, -0.9998939693634785 
1.0899999999998964, -1.0056012605466207 
1.0999999999998953, -1.0082245948185415 
1.1099999999998942, -1.0092580123622474 
1.119999999999893, -1.0094353393151023 
1.129999999999892, -1.0090697790952308 
1.1399999999998909, -1.0082920177167443 
1.1499999999998898, -1.0072873781714125 
1.1599999999998887, -1.0067553071036124 
1.1699999999998876, -1.0087287006669008 
1.1799999999998865, -1.0170017793554837 
1.1899999999998854, -1.0351981934410721 
1.1999999999998843, -1.0629080000218905 
1.2099999999998832, -1.0948630347830073 
1.219999999999882, -1.124512838768495 
1.229999999999881, -1.1474829395296682 
1.2399999999998799, -1.1626154568762033 
1.2499999999998788, -1.1712383247390266 
1.2599999999998777, -1.175582523137751 
1.2699999999998766, -1.1775136878229138 
1.2799999999998755, -1.1781687353490555 
1.2899999999998744, -1.1781337749263547 
1.2999999999998733, -1.177722081620962 
1.3099999999998722, -1.1772323836146792 
1.319999999999871, -1.177174243497096 
1.32999999999987, -1.178242389932405 
1.3399999999998689, -1.1808075643587135 
1.3499999999998678, -1.1845079806830707 
1.3599999999998666, -1.188610563510265 
1.3699999999998655, -1.1925466840074908 
1.3799999999998644, -1.1960300468844591 
1.3899999999998633, -1.1989390179938744 
1.3999999999998622, -1.2012120531497843 
1.4099999999998611, -1.202814838897246 
1.41999999999986, -1.2037576928913383 
1.429999999999859, -1.2041142244728793 
1.4399999999998578, -1.2040075646367945 
1.4499999999998567, -1.2035848839130034 
1.4599999999998556, -1.203014548975503 
1.4699999999998545, -1.2024882506080201 
1.4799999999998534, -1.2021749818850316 
1.4899999999998523, -1.2021479871144811 
1.4999999999998512, -1.2023789293913751 
1.5099999999998501, -1.2027846590655678 
1.519999999999849, -1.2032481218013238 
1.529999999999848, -1.2036327203437196 
1.5399999999998468, -1.2038147655062592 
1.5499999999998457, -1.203705761493956 
1.5599999999998446, -1.2032560608733398 
1.5699999999998435, -1.2024501643806724 
1.5799999999998424, -1.2012950420208244 
1.5899999999998413, -1.1998072363298402 
1.5999999999998402, -1.1980121033544244 
1.6099999999998391, -1.1959587118293817 
1.619999999999838, -1.1937439872776296 
1.629999999999837, -1.191544699296479 
1.6399999999998358, -1.1896400889435197 
1.6499999999998347, -1.1883330545567021 
1.6599999999998336, -1.187723519015158 
1.6699999999998325, -1.18758890696285 
1.6799999999998314, -1.1875663051808842 
1.6899999999998303, -1.1873515311116452 
1.6999999999998292, -1.1866912137393368 
1.709999999999828, -1.1852673764527173 
1.719999999999827, -1.1826095780311168 
1.729999999999826, -1.1781263357778737 
1.7399999999998248, -1.1713011641228224 
1.7499999999998237, -1.1619369860218012 
1.7599999999998226, -1.1502696999153483 
1.7699999999998215, -1.1370389867926376 
1.7799999999998204, -1.1237189825307532 
1.7899999999998193, -1.1125588406029225 
1.7999999999998182, -1.1055188895277466 
1.809999999999817, -1.1026206894611772 
1.819999999999816, -1.1021545972742632 
1.8299999999998149, -1.1024503324118258 
1.8399999999998138, -1.1026769681588653 
1.8499999999998127, -1.1025338193080023 
1.8599999999998116, -1.1018157286538688 
1.8699999999998105, -1.1001083290283757 
1.8799999999998094, -1.0964499054976689 
1.8899999999998083, -1.0888144353013802 
1.8999999999998072, -1.073661440343457 
1.909999999999806, -1.0468042026108197 
1.919999999999805, -1.0069877005602323 
1.9299999999998039, -0.959579376484581 
1.9399999999998028, -0.9146911057002555 
1.9499999999998017, -0.8806813834034058 
1.9599999999998006, -0.859953047330486 
1.9699999999997995, -0.8498743142755655 
1.9799999999997984, -0.8461487976619902 
1.9899999999997973, -0.8453328332784064 
1.9999999999997962, -0.8454898233805043 
2.0099999999998173, -0.8457742466663905 
2.0199999999998384, -0.8458744429027103 
2.0299999999998595, -0.845657721386608 
2.0399999999998806, -0.8449939031657427 
2.0499999999999017, -0.8436732050999317 
2.059999999999923, -0.8413951114040031 
2.069999999999944, -0.837874166962683 
2.079999999999965, -0.8330708420337135 
2.089999999999986, -0.8273457116399084 
2.100000000000007, -0.821300709742216 
2.1100000000000283, -0.8154647826408675 
2.1200000000000494, -0.8101490444697252 
2.1300000000000705, -0.8054980183751247 
2.1400000000000916, -0.8015847138797318 
2.1500000000001127, -0.7984604568039387 
2.160000000000134, -0.7961517397518626 
2.170000000000155, -0.7946295005370337 
2.180000000000176, -0.793786218619558 
2.190000000000197, -0.7934478004485439 
2.2000000000002182, -0.7934169355473579 
2.2100000000002393, -0.7935179347058231 
2.2200000000002604, -0.7936191023561064 
2.2300000000002815, -0.7936348051644196 
2.2400000000003026, -0.7935230748188841 
2.2500000000003237, -0.7932855275666327 
2.260000000000345, -0.7929594093233104 
2.270000000000366, -0.7925916988524008 
2.280000000000387, -0.792207246061095 
2.290000000000408, -0.7917958563350517 
2.3000000000004293, -0.7913278545810498 
2.3100000000004504, -0.7907836716023557 
2.3200000000004715, -0.790176126285179 
2.3300000000004926, -0.7895583288986089 
2.3400000000005137, -0.7890235203858867 
2.3500000000005348, -0.7886993478593473 
2.360000000000556, -0.7887302843473213 
2.370000000000577, -0.7892462063885989 
2.380000000000598, -0.7903306870267569 
2.390000000000619, -0.7920089250758227 
2.4000000000006403, -0.7942613852221333 
2.4100000000006614, -0.7970501516001192 
2.4200000000006825, -0.8003372227357883 
2.4300000000007036, -0.8040754134007928 
2.4400000000007247, -0.8081592815816201 
2.450000000000746, -0.8123498702430235 
2.460000000000767, -0.8162483943925166 
2.470000000000788, -0.8194214345860753 
2.480000000000809, -0.8216266325921846 
2.49000000000083, -0.8229044561084365 
2.5000000000008513, -0.8234591549160964 
2.5100000000008724, -0.823502195472933 
2.5200000000008935, -0.8231869294345824 
2.5300000000009146, -0.8226314652265794 
2.5400000000009357, -0.8220131055261017 
2.550000000000957, -0.82176863191341 
2.560000000000978, -0.8229567513562266 
2.570000000000999, -0.8277224072843725 
2.58000000000102, -0.8394550854929306 
2.5900000000010412, -0.8618961323338413 
2.6000000000010624, -0.8968048125647425 
2.6100000000010835, -0.9411754125048354 
2.6200000000011046, -0.9866956618598312 
2.6300000000011257, -1.023878505331813 
2.6400000000011468, -1.0482231857110793 
2.650000000001168, -1.0615245896613736 
2.660000000001189, -1.0679569535947053 
2.67000000000121, -1.0708129565591724 
2.680000000001231, -1.071913130574765 
2.6900000000012523, -1.072104961102506 
2.7000000000012734, -1.071744511004599 
2.7100000000012945, -1.0710015220405327 
2.7200000000013156, -1.0701547350944007 
2.7300000000013367, -1.0700846787716607 
2.740000000001358, -1.072804740392002 
2.750000000001379, -1.0808711057127398 
2.7600000000014, -1.0950548930267159 
2.770000000001421, -1.1131208017363128 
2.780000000001442, -1.131625198146122 
2.7900000000014633, -1.1479163186614831 
2.8000000000014844, -1.160584852884835 
2.8100000000015055, -1.1692872388939686 
2.8200000000015266, -1.1745369722406276 
2.8300000000015477, -1.1773033016851857 
2.840000000001569, -1.1785216067748325 
2.85000000000159, -1.1788422525177105 
2.860000000001611, -1.17865199127482 
2.870000000001632, -1.1782198911256596 
2.8800000000016532, -1.1778685092727927 
2.8900000000016743, -1.178052252226397 
2.9000000000016954, -1.179157173406873 
2.9100000000017165, -1.1811647632494495 
2.9200000000017377, -1.1836823086388835 
2.9300000000017588, -1.1862837660591592 
2.94000000000178, -1.188699087874284 
2.950000000001801, -1.1907948915882542 
2.960000000001822, -1.1925079236033838 
2.970000000001843, -1.1938004297962608 
2.9800000000018643, -1.1946448894680373 
2.9900000000018854, -1.1950348106207702 
3.0000000000019065, -1.1950025728538909 
3.0100000000019276, -1.1946230692548503 
3.0200000000019487, -1.1940077380685832 
3.03000000000197, -1.1933013156763046 
3.040000000001991, -1.1926636244038216 
3.050000000002012, -1.1922203892225847 
3.060000000002033, -1.1920276053764718 
3.070000000002054, -1.1920791998742157 
3.0800000000020753, -1.1923094737990942 
3.0900000000020964, -1.1925899910374016 
3.1000000000021175, -1.1927654709990334 
3.1100000000021386, -1.1926991514789522 
3.1200000000021597, -1.1922893067242353 
3.130000000002181, -1.191472580952042 
3.140000000002202, -1.190227291518894 
3.150000000002223, -1.1885657336875048 
3.160000000002244, -1.1865164398427368 
3.1700000000022652, -1.184117455081781 
3.1800000000022863, -1.1814337762782021 
3.1900000000023074, -1.1785979035481555 
3.2000000000023285, -1.1758655169881145 
3.2100000000023496, -1.1736245047554197 
3.2200000000023707, -1.1722189931925293 
3.230000000002392, -1.1716508870609543 
3.240000000002413, -1.1715623575364205 
3.250000000002434, -1.1715342773734503 
3.260000000002455, -1.1712614018370815 
3.2700000000024763, -1.170482139733565 
3.2800000000024974, -1.168830004487195 
3.2900000000025185, -1.165725460208814 
3.3000000000025396, -1.1604059953960852 
3.3100000000025607, -1.1521834324141234 
3.3200000000025818, -1.1408105496826042 
3.330000000002603, -1.1266835491146032 
3.340000000002624, -1.1109159304413527 
3.350000000002645, -1.0954925048850426 
3.360000000002666, -1.083061450358279 
3.3700000000026873, -1.0755357521057807 
3.3800000000027084, -1.072542385130131 
3.3900000000027295, -1.072078542824278 
3.4000000000027506, -1.07239124672952 
3.4100000000027717, -1.0726429003160698 
3.420000000002793, -1.0725385446534383 
3.430000000002814, -1.07189142036409 
3.440000000002835, -1.0703393582171525 
3.450000000002856, -1.0670601338377461 
3.460000000002877, -1.0603767757832958 
3.4700000000028983, -1.0474896494508406 
3.4800000000029194, -1.0252928445002134 
3.4900000000029405, -0.993035648574948 
3.5000000000029616, -0.9546393823826022 
3.5100000000029827, -0.9172452384348214 
3.520000000003004, -0.8872086849795181 
3.530000000003025, -0.8673024729524045 
3.540000000003046, -0.8565583931730675 
3.550000000003067, -0.852004880335668 
3.5600000000030882, -0.850673998833977 
3.5700000000031094, -0.8506085372623485 
3.5800000000031305, -0.8508350490986252 
3.5900000000031516, -0.8509552577271763 
3.6000000000031727, -0.8508024721731776 
3.6100000000031938, -0.8502478655758515 
3.620000000003215, -0.8491069024602056 
3.630000000003236, -0.8471187058308783 
3.640000000003257, -0.8440287867472612 
3.650000000003278, -0.8397829096912751 
3.6600000000032993, -0.8346703449983854 
3.6700000000033204, -0.8292071875671939 
3.6800000000033415, -0.8238672710064997 
3.6900000000033626, -0.8189417350112548 
3.7000000000033837, -0.8145735020320931 
3.710000000003405, -0.8108409719631416 
3.720000000003426, -0.8078062413461882 
3.730000000003447, -0.8055146194678086 
3.740000000003468, -0.8039643214529887 
3.750000000003489, -0.8030776826696826 
3.7600000000035103, -0.8027034481159273 
3.7700000000035314, -0.8026545461709934 
3.7800000000035525, -0.8027550666502231 
3.7900000000035736, -0.802868373039258 
3.8000000000035947, -0.8029030562386829 
3.810000000003616, -0.8028113831670738 
3.820000000003637, -0.8025892933925406 
3.830000000003658, -0.8022698569098837 
3.840000000003679, -0.8018992667066059 
3.8500000000037002, -0.8015049157622642 
3.8600000000037213, -0.8010802779526066 
3.8700000000037424, -0.8005981805180512 
3.8800000000037635, -0.8000396528673935 
3.8900000000037847, -0.7994169049152829 
3.9000000000038058, -0.7987820254909664 
3.910000000003827, -0.79822671278875 
3.920000000003848, -0.797875487429958 
3.930000000003869, -0.7978667343129406 
3.94000000000389, -0.7983207554914405 
3.9500000000039113, -0.7993092720640406 
3.9600000000039324, -0.8008455814399088 
3.9700000000039535, -0.8028997125966714 
3.9800000000039746, -0.8054251147359174 
3.9900000000039957, -0.8083777267357912 
4.000000000004016, -0.8117106810509828 
4.010000000003993, -0.8153338730724641 
4.02000000000397, -0.8190489681087739 
4.030000000003946, -0.8225204021850842 
4.040000000003923, -0.825370401530033 
4.0500000000039, -0.8273694842616158 
4.0600000000038765, -0.8285310406135772 
4.070000000003853, -0.8290237828700936 
4.08000000000383, -0.8290361436890684 
4.090000000003807, -0.8287145208208989 
4.100000000003783, -0.8281852268014531 
4.11000000000376, -0.8276486853771988 
4.120000000003737, -0.8275681121242595 
4.130000000003713, -0.8289677221187558 
4.14000000000369, -0.8337167879443196 
4.150000000003667, -0.8444248365981903 
4.1600000000036434, -0.8635492832110562 
4.17000000000362, -0.8918511978531121 
4.180000000003597, -0.927003597257518 
4.1900000000035735, -0.9634281389824277 
4.20000000000355, -0.9943985383554707 
4.210000000003527, -1.0158561737079728 
4.220000000003504, -1.0282551169319747 
4.23000000000348, -1.03452613582422 
4.240000000003457, -1.037405906136224 
4.250000000003434, -1.0385546220959478 
4.26000000000341, -1.0387904344022507 
4.270000000003387, -1.038468752850093 
4.280000000003364, -1.0377500392109809 
4.2900000000033405, -1.0368559911713084 
4.300000000003317, -1.036515218583902 
4.310000000003294, -1.0386076308402734 
4.320000000003271, -1.0461105308494267 
4.330000000003247, -1.0610348241826697 
4.340000000003224, -1.0820312847382856 
4.350000000003201, -1.1051286598360568 
4.360000000003177, -1.1263693061898494 
4.370000000003154, -1.1432518941226955 
4.380000000003131, -1.1549332399405576 
4.390000000003107, -1.1619806178127627 
4.400000000003084, -1.1657128506696643 
4.410000000003061, -1.167424101037404 
4.4200000000030375, -1.1680001340855048 
4.430000000003014, -1.1679410309430096 
4.440000000002991, -1.167540342244026 
4.450000000002968, -1.1670925577126272 
4.460000000002944, -1.1670653054198987 
4.470000000002921, -1.1680302851172437 
4.480000000002898, -1.1702364934712266 
4.490000000002874, -1.173353183338045 
4.500000000002851, -1.1767946067814647 
4.510000000002828, -1.1801139200352586 
4.520000000002804, -1.1830783002766185 
4.530000000002781, -1.1855807164630425 
4.540000000002758, -1.1875608684884178 
4.5500000000027345, -1.1889765017910665 
4.560000000002711, -1.189816878606475 
4.570000000002688, -1.1901253652078447 
4.580000000002665, -1.1899972865401027 
4.590000000002641, -1.1895607638053631 
4.600000000002618, -1.1889707448423943 
4.610000000002595, -1.1884078551548944 
4.620000000002571, -1.1880375664699583 
4.630000000002548, -1.1879426214005029 
4.640000000002525, -1.1881102524929947 
4.6500000000025015, -1.1884693498270067 
4.660000000002478, -1.1889090740161172 
4.670000000002455, -1.189293390784223 
4.6800000000024315, -1.1894950996939657 
4.690000000002408, -1.1894210940713286 
4.700000000002385, -1.1890178929527828 
4.710000000002362, -1.1882680119249744 
4.720000000002338, -1.1871788408990447 
4.730000000002315, -1.185768400564954 
4.740000000002292, -1.1840618227725057 
4.750000000002268, -1.1821039607319586 
4.760000000002245, -1.1799807870835202 
4.770000000002222, -1.177845044522994 
4.7800000000021985, -1.175938474825294 
4.790000000002175, -1.174547187852857 
4.800000000002152, -1.1738201772333985 
4.810000000002129, -1.1736132422891503 
4.820000000002105, -1.1735963700339942 
4.830000000002082, -1.1734604515373095 
4.840000000002059, -1.172960010673925 
4.850000000002035, -1.1718264290999885 
4.860000000002012, -1.1696873477220244 
4.870000000001989, -1.166083231559591 
4.880000000001965, -1.1606169235069836 
4.890000000001942, -1.153140381970547 
4.900000000001919, -1.1438201770588343 
4.9100000000018955, -1.1331298445831839 
4.920000000001872, -1.1219742309060428 
4.930000000001849, -1.1118697819838526 
