t, s[1].omega / s[0].omega 
0, -0.5801143751206269 
0.009999999999999995, -0.5916073613270728 
0.019999999999999934, -0.6022589451808396 
0.029999999999999874, -0.6109555218507252 
0.04000000000000012, -0.6173110523687297 
0.050000000000000405, -0.6215834620867053 
0.06000000000000069, -0.6242947335129018 
0.07000000000000098, -0.6259394168711073 
0.08000000000000126, -0.6268799587947578 
0.09000000000000155, -0.6273492549569482 
0.10000000000000184, -0.6274827823015838 
0.11000000000000212, -0.6273467498955962 
0.12000000000000241, -0.6269543573938393 
0.130000000000002, -0.6262707026343993 
0.1400000000000009, -0.6252088524351602 
0.1499999999999998, -0.6236219225860993 
0.1599999999999987, -0.6213029976054425 
0.1699999999999976, -0.6180169386801584 
0.1799999999999965, -0.6135920407351414 
0.1899999999999954, -0.6080607439596566 
0.1999999999999943, -0.6017524552327213 
0.2099999999999932, -0.5952195322213012 
0.2199999999999921, -0.5890223361908005 
0.229999999999991, -0.5835441569686726 
0.2399999999999899, -0.5789459856231971 
0.2499999999999888, -0.5752247939399194 
0.2599999999999877, -0.5722933014100582 
0.2699999999999866, -0.5700372235554088 
0.2799999999999855, -0.5683448997326155 
0.2899999999999844, -0.5671185494689756 
0.2999999999999833, -0.5662764323910514 
0.3099999999999822, -0.5657516359656515 
0.3199999999999811, -0.5654902466734164 
0.32999999999998, -0.5654499300163918 
0.3399999999999789, -0.5655991301387255 
0.3499999999999778, -0.5659167965529517 
0.35999999999997667, -0.5663924319489829 
0.36999999999997557, -0.5670260745864663 
0.37999999999997447, -0.5678274010744236 
0.38999999999997337, -0.5688124739406 
0.39999999999997227, -0.5699961692252367 
0.40999999999997117, -0.5713789335310333 
0.41999999999997006, -0.5729295174785706 
0.42999999999996896, -0.5745712031239284 
0.43999999999996786, -0.5761843652717487 
0.44999999999996676, -0.5776338092607628 
0.45999999999996566, -0.5788106126566874 
0.46999999999996456, -0.5796618776154755 
0.47999999999996346, -0.5801907341713263 
0.48999999999996235, -0.5804339342537213 
0.49999999999996125, -0.58043606686356 
0.5099999999999602, -0.580231966557067 
0.519999999999959, -0.5798378516514646 
0.529999999999958, -0.5792467670749619 
0.5399999999999568, -0.578423632106084 
0.5499999999999557, -0.577295692888833 
0.5599999999999546, -0.5757332214829403 
0.5699999999999535, -0.573512249562359 
0.5799999999999524, -0.5702484837825267 
0.5899999999999513, -0.5653047450769597 
0.5999999999999502, -0.5577497075194049 
0.6099999999999491, -0.5466179411579863 
0.619999999999948, -0.5317301400523861 
0.6299999999999469, -0.5145595853710825 
0.6399999999999458, -0.4978103589903219 
0.6499999999999447, -0.483767111934075 
0.6599999999999436, -0.4732696549592991 
0.6699999999999425, -0.4660019923525362 
0.6799999999999414, -0.4612057102152495 
0.6899999999999403, -0.45813618174844556 
0.6999999999999392, -0.45621786858206387 
0.7099999999999381, -0.4550496849229907 
0.719999999999937, -0.45436571354374455 
0.7299999999999359, -0.45399414898165436 
0.7399999999999348, -0.45382586121361584 
0.7499999999999337, -0.453792940053708 
0.7599999999999326, -0.4538549802273118 
0.7699999999999315, -0.453990905351865 
0.7799999999999304, -0.45419463810051797 
0.7899999999999293, -0.4544731734729209 
0.7999999999999282, -0.4548454161687695 
0.8099999999999271, -0.4553396874903008 
0.819999999999926, -0.45598763020421557 
0.8299999999999249, -0.45681298757089006 
0.8399999999999238, -0.45781593813259347 
0.8499999999999227, -0.45895778290214845 
0.8599999999999216, -0.460155790862009 
0.8699999999999205, -0.46129813475342524 
0.8799999999999194, -0.4622769879510825 
0.8899999999999183, -0.4630208344084628 
0.8999999999999172, -0.46350576202370675 
0.9099999999999161, -0.463743739315478 
0.919999999999915, -0.463761382694059 
0.9299999999999139, -0.4635816723279359 
0.9399999999999128, -0.4632119910855499 
0.9499999999999117, -0.4626355314361179 
0.9599999999999106, -0.46180113486119045 
0.9699999999999095, -0.4606063017606303 
0.9799999999999084, -0.45886816761478466 
0.9899999999999073, -0.4562807825264418 
0.9999999999999062, -0.4523756150181334 
1.0099999999999052, -0.44655488630336454 
1.019999999999904, -0.4383330297161826 
1.029999999999903, -0.42782262827890083 
1.039999999999902, -0.4160668529649576 
1.0499999999999008, -0.40464544584962675 
1.0599999999998997, -0.39481397121577794 
1.0699999999998986, -0.38705507527302385 
1.0799999999998975, -0.38124703726918197 
1.0899999999998964, -0.37701610661191565 
1.0999999999998953, -0.3739698136707967 
1.1099999999998942, -0.3717876763275521 
1.119999999999893, -0.3702350453638601 
1.129999999999892, -0.369149958699072 
1.1399999999998909, -0.3684257008153273 
1.1499999999998898, -0.36799657429526833 
1.1599999999998887, -0.3678283539687612 
1.1699999999998876, -0.36791309784677795 
1.1799999999998865, -0.3682677566545328 
1.1899999999998854, -0.3689362166242457 
1.1999999999998843, -0.36999450769855613 
1.2099999999998832, -0.3715584439003948 
1.219999999999882, -0.373791087222264 
1.229999999999881, -0.3769025188367617 
1.2399999999998799, -0.3811245198894885 
1.2499999999998788, -0.386630531748533 
1.2599999999998777, -0.3933787822866832 
1.2699999999998766, -0.40093341014595774 
1.2799999999998755, -0.4084566238276456 
1.2899999999998744, -0.41503362236095376 
1.2999999999998733, -0.42011834247793917 
1.3099999999998722, -0.423680347680773 
1.319999999999871, -0.42600720526966984 
1.32999999999987, -0.4274511146033696 
1.3399999999998689, -0.42829741152125933 
1.3499999999998678, -0.4287387355932518 
1.3599999999998666, -0.42889122943354285 
1.3699999999998655, -0.4288161531756958 
1.3799999999998644, -0.42853580996269924 
1.3899999999998633, -0.42804379052580865 
1.3999999999998622, -0.4273132745253913 
1.4099999999998611, -0.4263085948265851 
1.41999999999986, -0.42500475879841987 
1.429999999999859, -0.4234139290258474 
1.4399999999998578, -0.42160607361120944 
1.4499999999998567, -0.4197040550742336 
1.4599999999998556, -0.41784784891504323 
1.4699999999998545, -0.4161497537500457 
1.4799999999998534, -0.4146690633399965 
1.4899999999998523, -0.4134140442742309 
1.4999999999998512, -0.41235956149894426 
1.5099999999998501, -0.41146657065270575 
1.519999999999849, -0.4106965419016775 
1.529999999999848, -0.41001962874515296 
1.5399999999998468, -0.4094180799310858 
1.5499999999998457, -0.4088872613762711 
1.5599999999998446, -0.40843660435474105 
1.5699999999998435, -0.40809237966704687 
1.5799999999998424, -0.40790393864063706 
1.5899999999998413, -0.40795528527063507 
1.5999999999998402, -0.4083845376930918 
1.6099999999998391, -0.4094144666113424 
1.619999999999838, -0.41139588916660763 
1.629999999999837, -0.41485611272117395 
1.6399999999998358, -0.4205116964421244 
1.6499999999998347, -0.4291275850559669 
1.6599999999998336, -0.4410213346435488 
1.6699999999998325, -0.45521156539011703 
1.6799999999998314, -0.46908151342571697 
1.6899999999998303, -0.47980749908544224 
1.6999999999998292, -0.48644235390978474 
1.709999999999828, -0.48997168911867606 
1.719999999999827, -0.49180923845016916 
1.729999999999826, -0.4928795046392411 
1.7399999999998248, -0.49360370994302116 
1.7499999999998237, -0.4941373550137877 
1.7599999999998226, -0.49453314860363157 
1.7699999999998215, -0.49481108050494826 
1.7799999999998204, -0.4949811837176594 
1.7899999999998193, -0.49504879743270813 
1.7999999999998182, -0.4950149166428665 
1.809999999999817, -0.4948761302585609 
1.819999999999816, -0.49462593270295524 
1.8299999999998149, -0.4942584435975319 
1.8399999999998138, -0.4937747730048316 
1.8499999999998127, -0.4931903050575028 
1.8599999999998116, -0.49253857292183084 
1.8699999999998105, -0.4918670827966102 
1.8799999999998094, -0.4912248727996433 
1.8899999999998083, -0.4906478025116428 
1.8999999999998072, -0.4901492677279052 
1.909999999999806, -0.4897200245672626 
1.919999999999805, -0.48933565084159303 
1.9299999999998039, -0.4889672609308267 
1.9399999999998028, -0.4885907522656989 
1.9499999999998017, -0.48819174019340145 
1.9599999999998006, -0.4877663514480509 
1.9699999999997995, -0.4873202014300687 
1.9799999999997984, -0.486868202987495 
1.9899999999997973, -0.48643716948721094 
1.9999999999997962, -0.48607271630786836 
2.0099999999998173, -0.4858522311900416 
2.0199999999998384, -0.4859064092851618 
2.0299999999998595, -0.48645197840133914 
2.0399999999998806, -0.4878347567676212 
2.0499999999999017, -0.49056712409777326 
2.059999999999923, -0.4953020356938477 
2.069999999999944, -0.5026120489130503 
2.079999999999965, -0.5124360644330087 
2.089999999999986, -0.5234364032180385 
2.100000000000007, -0.5332486504026923 
2.1100000000000283, -0.5400937528890275 
2.1200000000000494, -0.5439774881942046 
2.1300000000000705, -0.5460109468538406 
2.1400000000000916, -0.5472026245967804 
2.1500000000001127, -0.5480594877423025 
2.160000000000134, -0.5487493769433802 
2.170000000000155, -0.5493065659803114 
2.180000000000176, -0.549733534097946 
2.190000000000197, -0.5500319385695176 
2.2000000000002182, -0.5502059969172242 
2.2100000000002393, -0.5502590064212837 
2.2200000000002604, -0.5501898200843786 
2.2300000000002815, -0.5499910145993443 
2.2400000000003026, -0.5496494976077935 
2.2500000000003237, -0.5491505475591303 
2.260000000000345, -0.5484859744717454 
2.270000000000366, -0.5476648106599439 
2.280000000000387, -0.5467209773639748 
2.290000000000408, -0.5457107541178584 
2.3000000000004293, -0.5446982692267855 
2.3100000000004504, -0.5437365453783725 
2.3200000000004715, -0.5428549588108958 
2.3300000000004926, -0.54205817775575 
2.3400000000005137, -0.5413339741410297 
2.3500000000005348, -0.5406640498079021 
2.360000000000556, -0.5400330829377568 
2.370000000000577, -0.5394340584740009 
2.380000000000598, -0.5388705865644432 
2.390000000000619, -0.5383582052536269 
2.4000000000006403, -0.5379265994809587 
2.4100000000006614, -0.5376240425032329 
2.4200000000006825, -0.5375248866982538 
2.4300000000007036, -0.5377407786219952 
2.4400000000007247, -0.5384362105001461 
2.450000000000746, -0.539848466472509 
2.460000000000767, -0.542309713451521 
2.470000000000788, -0.5462621964677843 
2.480000000000809, -0.5522416134516631 
2.49000000000083, -0.5607764401953415 
2.5000000000008513, -0.5721328295332591 
2.5100000000008724, -0.585908868049348 
2.5200000000008935, -0.6007478278673395 
2.5300000000009146, -0.6146676097786326 
2.5400000000009357, -0.6260284101194749 
2.550000000000957, -0.6342668520760932 
2.560000000000978, -0.6397589038229535 
2.570000000000999, -0.6432356624589268 
2.58000000000102, -0.6453662920956599 
2.5900000000010412, -0.6466283055316577 
2.6000000000010624, -0.6473248912560223 
2.6100000000010835, -0.6476352894349577 
2.6200000000011046, -0.6476558354373427 
2.6300000000011257, -0.6474246542092028 
2.6400000000011468, -0.6469327292829535 
2.650000000001168, -0.6461251661502873 
2.660000000001189, -0.6448970795259946 
2.67000000000121, -0.6430923656048134 
2.680000000001231, -0.640521740565517 
2.6900000000012523, -0.6370218985676362 
2.7000000000012734, -0.632558649166068 
2.7100000000012945, -0.6273194142681854 
2.7200000000013156, -0.6217010208964984 
2.7300000000013367, -0.6161708202712148 
2.740000000001358, -0.6111043182049503 
2.750000000001379, -0.6067092737309916 
2.7600000000014, -0.6030444535479281 
2.770000000001421, -0.6000770337998469 
2.780000000001442, -0.5977335736483158 
2.7900000000014633, -0.5959307672574066 
2.8000000000014844, -0.5945895067325129 
2.8100000000015055, -0.5936394368877471 
2.8200000000015266, -0.5930194346173542 
2.8300000000015477, -0.5926770051781908 
2.840000000001569, -0.5925678494595956 
2.85000000000159, -0.5926559001670867 
2.860000000001611, -0.5929137204635081 
2.870000000001632, -0.5933230472673966 
2.8800000000016532, -0.5938751901814356 
2.8900000000016743, -0.5945707429583305 
2.9000000000016954, -0.5954175460575757 
2.9100000000017165, -0.596425318496889 
2.9200000000017377, -0.5975956062042231 
2.9300000000017588, -0.5989077315400486 
2.94000000000178, -0.6003058021982304 
2.950000000001801, -0.6016965672748936 
2.960000000001822, -0.6029667167403784 
2.970000000001843, -0.6040156973940077 
2.9800000000018643, -0.6047847968004278 
2.9900000000018854, -0.6052643059255957 
3.0000000000019065, -0.6054790345994927 
3.0100000000019276, -0.6054665041799449 
3.0200000000019487, -0.6052600065218274 
3.03000000000197, -0.6048796632456719 
3.040000000001991, -0.6043290579038625 
3.050000000002012, -0.6035941790775967 
3.060000000002033, -0.6026423922244565 
3.070000000002054, -0.6014196361292975 
3.0800000000020753, -0.5998424418348415 
3.0900000000020964, -0.5977756566051566 
3.1000000000021175, -0.5949762991308091 
3.1100000000021386, -0.5909847411221332 
3.1200000000021597, -0.5850242789032972 
3.130000000002181, -0.5762000242718932 
3.140000000002202, -0.56432850795433 
3.150000000002223, -0.550795869297025 
3.160000000002244, -0.5380221133829286 
3.1700000000022652, -0.5278469119163351 
3.1800000000022863, -0.5207411515515895 
3.1900000000023074, -0.516229089821759 
3.2000000000023285, -0.5135591637946906 
3.2100000000023496, -0.5120719921847142 
3.2200000000023707, -0.5112962859957275 
3.230000000002392, -0.5109269564771869 
3.240000000002413, -0.5107766988232536 
3.250000000002434, -0.5107337311415846 
3.260000000002455, -0.5107320572362779 
3.2700000000024763, -0.510732534353477 
3.2800000000024974, -0.5107118204813179 
3.2900000000025185, -0.5106569359046873 
3.3000000000025396, -0.5105638449441783 
3.3100000000025607, -0.5104384461283697 
3.3200000000025818, -0.510297619518405 
3.330000000002603, -0.5101674067048085 
3.340000000002624, -0.5100764525054312 
3.350000000002645, -0.5100458128119334 
3.360000000002666, -0.5100792131190433 
3.3700000000026873, -0.5101586209836887 
3.3800000000027084, -0.5102480936156361 
3.3900000000027295, -0.5103048669495921 
3.4000000000027506, -0.5102922804995789 
3.4100000000027717, -0.5101879655992362 
3.420000000002793, -0.5099845059493351 
3.430000000002814, -0.5096849171358554 
3.440000000002835, -0.509297259413604 
3.450000000002856, -0.5088313880801684 
3.460000000002877, -0.508298945060244 
3.4700000000028983, -0.5077168572872425 
3.4800000000029194, -0.50711467219409 
3.4900000000029405, -0.5065458665536335 
3.5000000000029616, -0.5061004816142134 
3.5100000000029827, -0.5059059089621718 
3.520000000003004, -0.5060760265462454 
3.530000000003025, -0.5065310055853864 
3.540000000003046, -0.5066495440486782 
3.550000000003067, -0.505058897935593 
3.5600000000030882, -0.5003475001227405 
3.5700000000031094, -0.49262942766448214 
3.5800000000031305, -0.48387456807832524 
3.5900000000031516, -0.47623222201591975 
3.6000000000031727, -0.47066379951788556 
3.6100000000031938, -0.46706551246598726 
3.620000000003215, -0.4649232933599377 
3.630000000003236, -0.4637275604095371 
3.640000000003257, -0.4631025028107551 
3.650000000003278, -0.46280343542824787 
3.6600000000032993, -0.46268051963138285 
3.6700000000033204, -0.46264479058325814 
3.6800000000033415, -0.4626441599723089 
3.6900000000033626, -0.46264841336409956 
3.7000000000033837, -0.462640809849047 
3.710000000003405, -0.4626143556503683 
3.720000000003426, -0.4625712648684943 
3.730000000003447, -0.4625239362566572 
3.740000000003468, -0.46249511343439975 
3.750000000003489, -0.46251468623132597 
3.7600000000035103, -0.4626119025030606 
3.7700000000035314, -0.46280441503540315 
3.7800000000035525, -0.46308805494039856 
3.7900000000035736, -0.463432287913188 
3.8000000000035947, -0.46378528153671655 
3.810000000003616, -0.4640882346131055 
3.820000000003637, -0.46429226122065026 
3.830000000003658, -0.4643686424338614 
3.840000000003679, -0.4643083795819324 
3.8500000000037002, -0.464114369916569 
3.8600000000037213, -0.46379203032637034 
3.8700000000037424, -0.46334173795180433 
3.8800000000037635, -0.46275311045855816 
3.8900000000037847, -0.46199903772215445 
3.9000000000038058, -0.46102581218905225 
3.910000000003827, -0.4597328776672381 
3.920000000003848, -0.4579299033312241 
3.930000000003869, -0.4552517377334727 
3.94000000000389, -0.45102319885372444 
3.9500000000039113, -0.4441653547028407 
3.9600000000039324, -0.4334885413972692 
3.9700000000039535, -0.4187421694089566 
3.9800000000039746, -0.40166333486610356 
3.9900000000039957, -0.3852588488669426 
4.000000000004016, -0.371782445494383 
4.010000000003993, -0.36183343585075256 
4.02000000000397, -0.3549247153536709 
4.030000000003946, -0.35026646600589056 
4.040000000003923, -0.3471623529337539 
4.0500000000039, -0.34510495914305084 
4.0600000000038765, -0.3437533181895036 
4.070000000003853, -0.34288702206181804 
4.08000000000383, -0.34236733815284165 
4.090000000003807, -0.34211036322579924 
4.100000000003783, -0.342070257483441 
4.11000000000376, -0.34222979446531243 
4.120000000003737, -0.34259613947511947 
4.130000000003713, -0.3432004613942369 
4.14000000000369, -0.3441002324555654 
4.150000000003667, -0.3453825729763672 
4.1600000000036434, -0.347165238307364 
4.17000000000362, -0.3495880293773709 
4.180000000003597, -0.3527815911325409 
4.1900000000035735, -0.3567983999828325 
4.20000000000355, -0.36151074810031986 
4.210000000003527, -0.3665403639056132 
4.220000000003504, -0.37133185825566795 
4.23000000000348, -0.37538449355690573 
4.240000000003457, -0.37846018955193184 
4.250000000003434, -0.38059654741239474 
4.26000000000341, -0.3819766009610523 
4.270000000003387, -0.38280200246114254 
4.280000000003364, -0.38323209427601607 
4.2900000000033405, -0.3833720746307811 
4.300000000003317, -0.383280311599602 
4.310000000003294, -0.38297832214740035 
4.320000000003271, -0.38245871554943145 
4.330000000003247, -0.38169251548438365 
4.340000000003224, -0.3806403813330445 
4.350000000003201, -0.37927280641948447 
4.360000000003177, -0.37759908629843597 
4.370000000003154, -0.37569182103692766 
4.380000000003131, -0.3736840993429705 
4.390000000003107, -0.37173078681552585 
4.400000000003084, -0.36995734222176374 
4.410000000003061, -0.3684298663423992 
4.4200000000030375, -0.3671567012147121 
4.430000000003014, -0.36610814418379917 
4.440000000002991, -0.3652381415496844 
4.450000000002968, -0.3645002075835312 
4.460000000002944, -0.36385644805480627 
4.470000000002921, -0.36328123674502455 
4.480000000002898, -0.3627618484374382 
4.490000000002874, -0.3622983639518675 
4.500000000002851, -0.3619047937153436 
4.510000000002828, -0.3616130060167897 
4.520000000002804, -0.3614810415140975 
4.530000000002781, -0.3616077293591879 
4.540000000002758, -0.3621554264160442 
4.5500000000027345, -0.3633794138291119 
4.560000000002711, -0.36564777648422375 
4.570000000002688, -0.36939096176858743 
4.580000000002665, -0.3748320827204628 
4.590000000002641, -0.38133230236024795 
4.600000000002618, -0.3867168843685071 
4.610000000002595, -0.388082659772284 
4.620000000002571, -0.3845139382268333 
4.630000000002548, -0.3781356507542682 
4.640000000002525, -0.37175409311882496 
4.6500000000025015, -0.3668100319075206 
4.660000000002478, -0.3634606322639793 
4.670000000002455, -0.3613501687780406 
4.6800000000024315, -0.3600753813934414 
4.690000000002408, -0.3593297004614068 
4.700000000002385, -0.3589103220892816 
4.710000000002362, -0.3586912755168563 
4.720000000002338, -0.3585972316524822 
4.730000000002315, -0.3585851986087788 
4.740000000002292, -0.3586334272825281 
4.750000000002268, -0.3587355812547369 
4.760000000002245, -0.35889846922547425 
4.770000000002222, -0.35914182488292606 
4.7800000000021985, -0.35949840828235885 
4.790000000002175, -0.3600122812646945 
4.800000000002152, -0.36073286637822466 
4.810000000002129, -0.36170263502132904 
4.820000000002105, -0.3629376001425697 
4.830000000002082, -0.3644041795144626 
4.840000000002059, -0.36600475850936376 
4.850000000002035, -0.36759015903290726 
4.860000000002012, -0.36900418518642525 
4.870000000001989, -0.3701355874104481 
4.880000000001965, -0.37094201733955134 
4.890000000001942, -0.37143694906172076 
