t, s[1].omega / s[0].omega 
0, -0.7299976801379168 
0.009999999999999995, -0.7297468817952582 
0.019999999999999934, -0.7294564314972123 
0.029999999999999874, -0.7291209190698988 
0.04000000000000012, -0.7287360585089188 
0.050000000000000405, -0.7283026235971141 
0.06000000000000069, -0.727828556015336 
0.07000000000000098, -0.7273295357177932 
0.08000000000000126, -0.7268293479716901 
0.09000000000000155, -0.7263610586825662 
0.10000000000000184, -0.7259690218103161 
0.11000000000000212, -0.7257108473208755 
0.12000000000000241, -0.7256579975272603 
0.130000000000002, -0.7258937674349093 
0.1400000000000009, -0.726508013575154 
0.1499999999999998, -0.7275887923634691 
0.1599999999999987, -0.729211408257209 
0.1699999999999976, -0.7314247881097845 
0.1799999999999965, -0.7342341023157195 
0.1899999999999954, -0.7375791552082318 
0.1999999999999943, -0.7413131810108764 
0.2099999999999932, -0.7451967867137655 
0.2199999999999921, -0.7489283121009398 
0.229999999999991, -0.7522171591248534 
0.2399999999999899, -0.7548685759210855 
0.2499999999999888, -0.7568262764747522 
0.2599999999999877, -0.7581502874169466 
0.2699999999999866, -0.7589585110778827 
0.2799999999999855, -0.7593738147130292 
0.2899999999999844, -0.7594953351518089 
0.2999999999999833, -0.7593900951872449 
0.3099999999999822, -0.7590945460209442 
0.3199999999999811, -0.7586185924850877 
0.32999999999998, -0.7579489210185298 
0.3399999999999789, -0.7570513678822748 
0.3499999999999778, -0.7558739431505827 
0.35999999999997667, -0.7543535802246757 
0.36999999999997557, -0.7524303505588134 
0.37999999999997447, -0.750070998388685 
0.38999999999997337, -0.7472978565520529 
0.39999999999997227, -0.7442143825522269 
0.40999999999997117, -0.7410242254060095 
0.41999999999997006, -0.7380402898725497 
0.42999999999996896, -0.7356381446270144 
0.43999999999996786, -0.7341061128494138 
0.44999999999996676, -0.7334879468700375 
0.45999999999996566, -0.7335812246250845 
0.46999999999996456, -0.7340796526706184 
0.47999999999996346, -0.7347141887943895 
0.48999999999996235, -0.7353115471568942 
0.49999999999996125, -0.7357863560531459 
0.5099999999999602, -0.7361095535730227 
0.519999999999959, -0.7362789242601799 
0.529999999999958, -0.7362991369259443 
0.5399999999999568, -0.7361698868269531 
0.5499999999999557, -0.7358788804181846 
0.5599999999999546, -0.7353974117522724 
0.5699999999999535, -0.7346783004155337 
0.5799999999999524, -0.733658465727827 
0.5899999999999513, -0.7322705018069893 
0.5999999999999502, -0.7304664100341267 
0.6099999999999491, -0.7282484734736789 
0.619999999999948, -0.7256900771490449 
0.6299999999999469, -0.7229278316437 
0.6399999999999458, -0.7201254669886554 
0.6499999999999447, -0.717432045866508 
0.6599999999999436, -0.714957029892554 
0.6699999999999425, -0.7127668005032972 
0.6799999999999414, -0.7108934897059408 
0.6899999999999403, -0.7093458702069798 
0.6999999999999392, -0.7081172115667866 
0.7099999999999381, -0.7071895982830066 
0.719999999999937, -0.706536238090315 
0.7299999999999359, -0.7061234184584934 
0.7399999999999348, -0.7059130206008561 
0.7499999999999337, -0.7058656121261566 
0.7599999999999326, -0.7059435677217083 
0.7699999999999315, -0.7061135873449518 
0.7799999999999304, -0.7063482696854158 
0.7899999999999293, -0.706626733105798 
0.7999999999999282, -0.7069343517937211 
0.8099999999999271, -0.707261433580044 
0.819999999999926, -0.7076004453678452 
0.8299999999999249, -0.7079417979702768 
0.8399999999999238, -0.7082694919118825 
0.8499999999999227, -0.7085592636463434 
0.8599999999999216, -0.7087815461491384 
0.8699999999999205, -0.7089087472131274 
0.8799999999999194, -0.7089229638492258 
0.8899999999999183, -0.7088197646663924 
0.8999999999999172, -0.7086068766939397 
0.9099999999999161, -0.7083002480061197 
0.919999999999915, -0.7079209585370616 
0.9299999999999139, -0.7074952075680513 
0.9399999999999128, -0.7070581305453992 
0.9499999999999117, -0.7066614479746761 
0.9599999999999106, -0.7063845572161422 
0.9699999999999095, -0.7063478680598619 
0.9799999999999084, -0.7067253768289886 
0.9899999999999073, -0.7077504908536282 
0.9999999999999062, -0.7097052801971946 
1.0099999999999052, -0.7128798656201097 
1.019999999999904, -0.717489253339907 
1.029999999999903, -0.7235488736374349 
1.039999999999902, -0.7307500362338587 
1.0499999999999008, -0.7384325349140355 
1.0599999999998997, -0.7457499277055843 
1.0699999999998986, -0.7519823002035719 
1.0799999999998975, -0.7567810862248315 
1.0899999999998964, -0.7601797220956057 
1.0999999999998953, -0.7624308654636066 
1.1099999999998942, -0.7638350088754398 
1.119999999999893, -0.7646461816726886 
1.129999999999892, -0.7650459768709958 
1.1399999999998909, -0.7651499389976271 
1.1499999999998898, -0.7650213878375097 
1.1599999999998887, -0.7646820007634194 
1.1699999999998876, -0.764115992117918 
1.1799999999998865, -0.7632672463344594 
1.1899999999998854, -0.7620294191701892 
1.1999999999998843, -0.7602304233433714 
1.2099999999998832, -0.7576180091901266 
1.219999999999882, -0.7538663507381598 
1.229999999999881, -0.7486433862131765 
1.2399999999998799, -0.7417791079358127 
1.2499999999998788, -0.7334979595892 
1.2599999999998777, -0.7245304031135603 
1.2699999999998766, -0.7159093952455103 
1.2799999999998755, -0.7085427636811175 
1.2899999999998744, -0.7028962026573075 
1.2999999999998733, -0.6989717698082877 
1.3099999999998722, -0.6964815194487546 
1.319999999999871, -0.695040621487027 
1.32999999999987, -0.6942917226190928 
1.3399999999998689, -0.693956490290642 
1.3499999999998678, -0.6938409154474304 
1.3599999999998666, -0.6938197638553599 
1.3699999999998655, -0.6938159136975801 
1.3799999999998644, -0.6937819783171244 
1.3899999999998633, -0.6936866123982257 
1.3999999999998622, -0.6935056781173264 
1.4099999999998611, -0.6932179348647727 
1.41999999999986, -0.6928050509690697 
1.429999999999859, -0.6922554754465975 
1.4399999999998578, -0.6915703013907978 
1.4499999999998567, -0.690767258026031 
1.4599999999998556, -0.6898788176860385 
1.4699999999998545, -0.6889439716730406 
1.4799999999998534, -0.6879980977409876 
1.4899999999998523, -0.6870665979175405 
1.4999999999998512, -0.6861646352010817 
1.5099999999998501, -0.6853011963609411 
1.519999999999849, -0.6844842187840944 
1.529999999999848, -0.6837245451881564 
1.5399999999998468, -0.6830381170644053 
1.5499999999998457, -0.682446740445762 
1.5599999999998446, -0.6819778438408378 
1.5699999999998435, -0.6816634264203784 
1.5799999999998424, -0.6815383067321167 
1.5899999999998413, -0.6816379144932234 
1.5999999999998402, -0.681996041488588 
1.6099999999998391, -0.6826429322705342 
1.619999999999838, -0.6836036973503018 
1.629999999999837, -0.6848963040691027 
1.6399999999998358, -0.6865275933391196 
1.6499999999998347, -0.6884854290557253 
1.6599999999998336, -0.69072622289437 
1.6699999999998325, -0.6931609765573793 
1.6799999999998314, -0.6956494191470912 
1.6899999999998303, -0.6980154432038055 
1.6999999999998292, -0.7000879976673571 
1.709999999999828, -0.7017496490578623 
1.719999999999827, -0.7029624275972005 
1.729999999999826, -0.7037572394868289 
1.7399999999998248, -0.7042013296645058 
1.7499999999998237, -0.7043669331016558 
1.7599999999998226, -0.7043127111205376 
1.7699999999998215, -0.7040769427754363 
1.7799999999998204, -0.7036770396692855 
1.7899999999998193, -0.7031110859545062 
1.7999999999998182, -0.7023594510670422 
1.809999999999817, -0.7013863133099393 
1.819999999999816, -0.7001419883156628 
1.8299999999998149, -0.6985671935706695 
1.8399999999998138, -0.6965992680163281 
1.8499999999998127, -0.6941782609026824 
1.8599999999998116, -0.691253440617873 
1.8699999999998105, -0.687809113879085 
1.8799999999998094, -0.6839455200593915 
1.8899999999998083, -0.6799845993100624 
1.8999999999998072, -0.6764379265050782 
1.909999999999806, -0.6737589048722888 
1.919999999999805, -0.6721032251020743 
1.9299999999998039, -0.6713243063138694 
1.9399999999998028, -0.6711362188725247 
1.9499999999998017, -0.671264662513513 
1.9599999999998006, -0.6715125811422608 
1.9699999999997995, -0.6717621874482823 
1.9799999999997984, -0.6719524520009916 
1.9899999999997973, -0.6720550309292515 
1.9999999999997962, -0.6720562851762577 
2.0099999999998173, -0.67194570624923 
2.0199999999998384, -0.6717091101988575 
2.0299999999998595, -0.6713254155398632 
2.0399999999998806, -0.6707670714793099 
2.0499999999999017, -0.6700052555624045 
2.059999999999923, -0.6690205228990621 
2.069999999999944, -0.66781637118687 
2.079999999999965, -0.6664284136050358 
2.089999999999986, -0.6649210986604966 
2.100000000000007, -0.6633714633841853 
2.1100000000000283, -0.6618493532351414 
2.1200000000000494, -0.660405108584629 
2.1300000000000705, -0.6590683097250867 
2.1400000000000916, -0.6578537853390009 
2.1500000000001127, -0.6567692818541231 
2.160000000000134, -0.6558213074234047 
2.170000000000155, -0.6550182268485334 
2.180000000000176, -0.6543710884919999 
2.190000000000197, -0.6538930218802211 
2.2000000000002182, -0.6535979559839171 
2.2100000000002393, -0.653499257430536 
2.2200000000002604, -0.6536087489296493 
2.2300000000002815, -0.6539363726227954 
2.2400000000003026, -0.6544904555379272 
2.2500000000003237, -0.6552781201774014 
2.260000000000345, -0.656304907721651 
2.270000000000366, -0.6575722454684361 
2.280000000000387, -0.659071295699881 
2.290000000000408, -0.660772683552309 
2.3000000000004293, -0.6626145837568134 
2.3100000000004504, -0.664496487215299 
2.3200000000004715, -0.6662887683271272 
2.3300000000004926, -0.6678617811775103 
2.3400000000005137, -0.6691222095455855 
2.3500000000005348, -0.6700343696837228 
2.360000000000556, -0.6706149772781189 
2.370000000000577, -0.6709103432684381 
2.380000000000598, -0.6709726948558239 
2.390000000000619, -0.6708450629801257 
2.4000000000006403, -0.670554909968837 
2.4100000000006614, -0.6701128620474799 
2.4200000000006825, -0.6695133376454513 
2.4300000000007036, -0.6687354626717668 
2.4400000000007247, -0.667743922190027 
2.450000000000746, -0.6664899153927603 
2.460000000000767, -0.6649118682098532 
2.470000000000788, -0.6629338683549816 
2.480000000000809, -0.660459487683107 
2.49000000000083, -0.6573700472821713 
2.5000000000008513, -0.6535688953587335 
2.5100000000008724, -0.6491209170993131 
2.5200000000008935, -0.6444086809098124 
2.5300000000009146, -0.6400670274854953 
2.5400000000009357, -0.6366515877327992 
2.550000000000957, -0.6343652416772889 
2.560000000000978, -0.6330734534522247 
2.570000000000999, -0.6324880133580414 
2.58000000000102, -0.6323244973906444 
2.5900000000010412, -0.6323701082311847 
2.6000000000010624, -0.6324889590572371 
2.6100000000010835, -0.6326029721020545 
2.6200000000011046, -0.6326700357252184 
2.6300000000011257, -0.6326669782840024 
2.6400000000011468, -0.6325782432143574 
2.650000000001168, -0.632389213808457 
2.660000000001189, -0.6320832960928573 
2.67000000000121, -0.6316426251927316 
2.680000000001231, -0.6310526183828169 
2.6900000000012523, -0.6303096161488086 
2.7000000000012734, -0.6294283180716955 
2.7100000000012945, -0.6284436682344033 
2.7200000000013156, -0.6274038561094294 
2.7300000000013367, -0.6263573003268388 
2.740000000001358, -0.6253410835756706 
2.750000000001379, -0.6243765148393323 
2.7600000000014, -0.6234719193370276 
2.770000000001421, -0.6226289843008549 
2.780000000001442, -0.6218489330926775 
2.7900000000014633, -0.6211367444795572 
2.8000000000014844, -0.6205034325942574 
2.8100000000015055, -0.6199671481167737 
2.8200000000015266, -0.619553761051523 
2.8300000000015477, -0.6192972116115698 
2.840000000001569, -0.6192396496206417 
2.85000000000159, -0.6194313007577268 
2.860000000001611, -0.6199299806599843 
2.870000000001632, -0.6208000203529532 
2.8800000000016532, -0.6221098458766221 
2.8900000000016743, -0.6239264228578084 
2.9000000000016954, -0.6263034003275166 
2.9100000000017165, -0.6292591297001363 
2.9200000000017377, -0.6327436012925516 
2.9300000000017588, -0.6366037536476099 
2.94000000000178, -0.6405734644333548 
2.950000000001801, -0.6443197645264858 
2.960000000001822, -0.6475433030951685 
2.970000000001843, -0.6500743376506903 
2.9800000000018643, -0.6518982606842785 
2.9900000000018854, -0.6531081815336216 
3.0000000000019065, -0.6538356564190203 
3.0100000000019276, -0.6542018068862707 
3.0200000000019487, -0.654296585236427 
3.03000000000197, -0.6541753714643865 
3.040000000001991, -0.6538613970571735 
3.050000000002012, -0.6533472766995227 
3.060000000002033, -0.6525924985191336 
3.070000000002054, -0.6515153468093342 
3.0800000000020753, -0.6499789249321988 
3.0900000000020964, -0.6477744363092801 
3.1000000000021175, -0.6446150563641216 
3.1100000000021386, -0.6401733734585169 
3.1200000000021597, -0.6342087240245535 
3.130000000002181, -0.6267824198329361 
3.140000000002202, -0.6184174284070149 
3.150000000002223, -0.6099900770842577 
3.160000000002244, -0.6023677071858577 
3.1700000000022652, -0.5960873479021616 
3.1800000000022863, -0.5912876501664038 
3.1900000000023074, -0.5878313267398052 
3.2000000000023285, -0.5854610378682901 
3.2100000000023496, -0.5839056002506886 
3.2200000000023707, -0.5829301999024868 
3.230000000002392, -0.582350903466221 
3.240000000002413, -0.5820320743086917 
3.250000000002434, -0.5818776428241705 
3.260000000002455, -0.5818214625610593 
3.2700000000024763, -0.5818189023031594 
3.2800000000024974, -0.5818404132052807 
3.2900000000025185, -0.5818672195508527 
3.3000000000025396, -0.581888971662384 
3.3100000000025607, -0.5819028261573673 
3.3200000000025818, -0.5819128617796975 
3.330000000002603, -0.581928297385519 
3.340000000002624, -0.5819593494034694 
3.350000000002645, -0.5820111528939471 
3.360000000002666, -0.5820782187866409 
3.3700000000026873, -0.5821427453696455 
3.3800000000027084, -0.5821785616580382 
3.3900000000027295, -0.5821591073496133 
3.4000000000027506, -0.5820651385757762 
3.4100000000027717, -0.5818883447168367 
3.420000000002793, -0.5816303368499287 
3.430000000002814, -0.5812993575039744 
3.440000000002835, -0.5809075441432541 
3.450000000002856, -0.5804704810972464 
3.460000000002877, -0.5800097610485646 
3.4700000000028983, -0.5795590244250712 
3.4800000000029194, -0.5791741714142613 
3.4900000000029405, -0.5789484423112189 
3.5000000000029616, -0.5790316944021369 
3.5100000000029827, -0.5796483863226508 
3.520000000003004, -0.5810975311359332 
3.530000000003025, -0.5837002987657238 
3.540000000003046, -0.5876547592507462 
3.550000000003067, -0.59281518793584 
3.5600000000030882, -0.598567457871618 
3.5700000000031094, -0.6040407660772248 
3.5800000000031305, -0.6085762258794197 
3.5900000000031516, -0.6119933140553745 
3.6000000000031727, -0.6144546315650963 
3.6100000000031938, -0.616208664295277 
3.620000000003215, -0.6174561067240587 
3.630000000003236, -0.6183327356517293 
3.640000000003257, -0.618928802706033 
3.650000000003278, -0.6193059771408174 
3.6600000000032993, -0.6195062085903061 
3.6700000000033204, -0.6195556412690946 
3.6800000000033415, -0.619466220448243 
3.6900000000033626, -0.6192362890670651 
3.7000000000033837, -0.6188510812914882 
3.710000000003405, -0.6182844798294445 
3.720000000003426, -0.6175042199689738 
3.730000000003447, -0.6164827581886984 
3.740000000003468, -0.6152133552349193 
3.750000000003489, -0.6137249627296215 
3.7600000000035103, -0.6120850201613405 
3.7700000000035314, -0.6103843563810911 
3.7800000000035525, -0.6087118273676609 
3.7900000000035736, -0.6071339508720647 
3.8000000000035947, -0.6056885407083509 
3.810000000003616, -0.6043901863297353 
3.820000000003637, -0.6032403140113306 
3.830000000003658, -0.6022361548603798 
3.840000000003679, -0.6013764827215574 
3.8500000000037002, -0.6006643648662028 
3.8600000000037213, -0.6001079676912199 
3.8700000000037424, -0.5997203683034666 
3.8800000000037635, -0.599519001978942 
3.8900000000037847, -0.5995251250290211 
3.9000000000038058, -0.5997635108667204 
3.910000000003827, -0.6002624236102557 
3.920000000003848, -0.601053611905615 
3.930000000003869, -0.6021715403172231 
3.94000000000389, -0.6036502915233166 
3.9500000000039113, -0.6055157119120028 
3.9600000000039324, -0.6077702283587962 
3.9700000000039535, -0.6103702142902658 
3.9800000000039746, -0.6132031454757058 
3.9900000000039957, -0.61608245350952 
4.000000000004016, -0.6187797474069611 
4.010000000003993, -0.6210912342128424 
4.02000000000397, -0.6229000347178121 
4.030000000003946, -0.6241930641072065 
4.040000000003923, -0.625030788210309 
4.0500000000039, -0.6255015414384351 
4.0600000000038765, -0.6256876638627159 
4.070000000003853, -0.6256495783531102 
4.08000000000383, -0.6254214902219163 
4.090000000003807, -0.6250110846532477 
4.100000000003783, -0.624398234787799 
4.11000000000376, -0.6235299154440008 
4.120000000003737, -0.62230961189445 
4.130000000003713, -0.6205808410839981 
4.14000000000369, -0.6181090750135504 
4.150000000003667, -0.6145797485829516 
4.1600000000036434, -0.6096539948075534 
4.17000000000362, -0.6031320863976158 
4.180000000003597, -0.5951948463358887 
4.1900000000035735, -0.5865221635410827 
4.20000000000355, -0.5780797588133997 
4.210000000003527, -0.5706964692569245 
4.220000000003504, -0.5647892105068962 
4.23000000000348, -0.560378447337342 
4.240000000003457, -0.5572547850134738 
4.250000000003434, -0.5551348633184079 
4.26000000000341, -0.5537504434485757 
4.270000000003387, -0.5528825636087789 
4.280000000003364, -0.5523660551722925 
4.2900000000033405, -0.5520821462659301 
4.300000000003317, -0.5519481307795127 
4.310000000003294, -0.5519077975804011 
4.320000000003271, -0.5519238252719647 
4.330000000003247, -0.5519723540139214 
4.340000000003224, -0.5520395780012215 
4.350000000003201, -0.5521199627268013 
4.360000000003177, -0.5522153186984021 
4.370000000003154, -0.5523334807366735 
4.380000000003131, -0.5524851759588791 
4.390000000003107, -0.552678434941857 
4.400000000003084, -0.5529117195470414 
4.410000000003061, -0.5531688761824217 
4.4200000000030375, -0.5534194691020267 
4.430000000003014, -0.5536257914921912 
4.440000000002991, -0.5537535957630129 
4.450000000002968, -0.5537807239764281 
4.460000000002944, -0.5536994816405263 
4.470000000002921, -0.5535132413437286 
4.480000000002898, -0.5532308361523784 
4.490000000002874, -0.5528619866502221 
4.500000000002851, -0.5524151468167856 
4.510000000002828, -0.551897833621861 
4.520000000002804, -0.5513191863781446 
4.530000000002781, -0.5506946117418299 
4.540000000002758, -0.5500520288602084 
4.5500000000027345, -0.5494371941677875 
4.560000000002711, -0.5489100995886721 
4.570000000002688, -0.5485153383606485 
4.580000000002665, -0.5482074591062405 
4.590000000002641, -0.5477535343013464 
4.600000000002618, -0.546743146539241 
4.610000000002595, -0.5448599675951964 
4.620000000002571, -0.5422439126747857 
4.630000000002548, -0.5394690675717401 
4.640000000002525, -0.5371155553713358 
4.6500000000025015, -0.535448048430046 
4.660000000002478, -0.5344323093010426 
4.670000000002455, -0.5338993039711858 
4.6800000000024315, -0.5336703391218955 
4.690000000002408, -0.5336073606087528 
4.700000000002385, -0.5336183951699157 
4.710000000002362, -0.5336469417981183 
4.720000000002338, -0.5336594581754999 
4.730000000002315, -0.5336355704186155 
4.740000000002292, -0.5335616993354622 
4.750000000002268, -0.533427748251348 
4.760000000002245, -0.5332264765524204 
4.770000000002222, -0.5329551730263105 
4.7800000000021985, -0.5326186787577752 
4.790000000002175, -0.5322317170555864 
4.800000000002152, -0.5318178951908779 
4.810000000002129, -0.531404097000032 
4.820000000002105, -0.531012117206297 
4.830000000002082, -0.5306517436220506 
4.840000000002059, -0.5303188495172797 
4.850000000002035, -0.5299990672782529 
4.860000000002012, -0.5296746285906765 
4.870000000001989, -0.5293308084173208 
4.880000000001965, -0.5289595457680736 
4.890000000001942, -0.5285601193272369 
4.900000000001919, -0.5281384443796928 
4.9100000000018955, -0.5277068424225682 
4.920000000001872, -0.5272855963132496 
