t, s[1].omega / s[0].omega 
0, -1.160006443565381 
0.009999999999999995, -1.1605100406946895 
0.019999999999999934, -1.1607355911690385 
0.029999999999999874, -1.1606967365721703 
0.04000000000000012, -1.1604223503448712 
0.050000000000000405, -1.1599538998031496 
0.06000000000000069, -1.1593442892701327 
0.07000000000000098, -1.1586591819929029 
0.08000000000000126, -1.1579771913021955 
0.09000000000000155, -1.1573825415634393 
0.10000000000000184, -1.1569483191702559 
0.11000000000000212, -1.15671773901084 
0.12000000000000241, -1.1566933976597764 
0.130000000000002, -1.1568378201372633 
0.1400000000000009, -1.1570836490601493 
0.1499999999999998, -1.1573502747618942 
0.1599999999999987, -1.1575602775324285 
0.1699999999999976, -1.1576488609899414 
0.1799999999999965, -1.1575657383063356 
0.1899999999999954, -1.1572740526812748 
0.1999999999999943, -1.1567499828335002 
0.2099999999999932, -1.1559831626761115 
0.2199999999999921, -1.1549766350841946 
0.229999999999991, -1.1537464553357872 
0.2399999999999899, -1.1523225997183284 
0.2499999999999888, -1.1507523663164014 
0.2599999999999877, -1.1491053607108836 
0.2699999999999866, -1.1474767629977476 
0.2799999999999855, -1.1459834099423436 
0.2899999999999844, -1.144745828387527 
0.2999999999999833, -1.1438530887445582 
0.3099999999999822, -1.143323205066595 
0.3199999999999811, -1.1430891782227819 
0.32999999999998, -1.14302752281214 
0.3399999999999789, -1.143005950942252 
0.3499999999999778, -1.1429129425945515 
0.35999999999997667, -1.142657760378081 
0.36999999999997557, -1.142154150491005 
0.37999999999997447, -1.1413042349365523 
0.38999999999997337, -1.1399933614713658 
0.39999999999997227, -1.1381018363471218 
0.40999999999997117, -1.1355333233652432 
0.41999999999997006, -1.1322504994413687 
0.42999999999996896, -1.1283040450896438 
0.43999999999996786, -1.1238485546243717 
0.44999999999996676, -1.119148707608664 
0.45999999999996566, -1.1145725843206375 
0.46999999999996456, -1.1105470126366759 
0.47999999999996346, -1.1074459642217822 
0.48999999999996235, -1.1054399298321989 
0.49999999999996125, -1.1044180637083825 
0.5099999999999602, -1.104068336115248 
0.519999999999959, -1.104046923032906 
0.529999999999958, -1.1040959893193523 
0.5399999999999568, -1.1040602006531925 
0.5499999999999557, -1.103845504495729 
0.5599999999999546, -1.1033685522378127 
0.5699999999999535, -1.1025136385424514 
0.5799999999999524, -1.1010960961738192 
0.5899999999999513, -1.0988333115848914 
0.5999999999999502, -1.0953406919423119 
0.6099999999999491, -1.0901902027732944 
0.619999999999948, -1.0830676852978949 
0.6299999999999469, -1.074008531584776 
0.6399999999999458, -1.0635952342778625 
0.6499999999999447, -1.0529542585232243 
0.6599999999999436, -1.0434608819774576 
0.6699999999999425, -1.03623087293014 
0.6799999999999414, -1.0316749827287945 
0.6899999999999403, -1.0294324350002706 
0.6999999999999392, -1.028716348760723 
0.7099999999999381, -1.028754754980639 
0.719999999999937, -1.029024303929937 
0.7299999999999359, -1.0292522728441484 
0.7399999999999348, -1.0293210279423433 
0.7499999999999337, -1.0291764965410735 
0.7599999999999326, -1.0287672845544822 
0.7699999999999315, -1.0280042427006149 
0.7799999999999304, -1.0267251281658294 
0.7899999999999293, -1.0246567275800158 
0.7999999999999282, -1.0213834012397551 
0.8099999999999271, -1.0163605634686963 
0.819999999999926, -1.009043186120182 
0.8299999999999249, -0.9991768920595083 
0.8399999999999238, -0.9871549621861611 
0.8499999999999227, -0.9741613613311376 
0.8599999999999216, -0.9618658692527269 
0.8699999999999205, -0.9517824866091791 
0.8799999999999194, -0.9446986374689331 
0.8899999999999183, -0.9405206137070914 
0.8999999999999172, -0.9385512351742309 
0.9099999999999161, -0.9379314375637822 
0.919999999999915, -0.937959487652423 
0.9299999999999139, -0.9381916661681693 
0.9399999999999128, -0.9383970780194725 
0.9499999999999117, -0.9384708334877947 
0.9599999999999106, -0.9383618188114857 
0.9699999999999095, -0.9380255988303918 
0.9799999999999084, -0.9373942985493742 
0.9899999999999073, -0.936354472384993 
0.9999999999999062, -0.9347308899499 
1.0099999999999052, -0.9322854901975386 
1.019999999999904, -0.9287527758979058 
1.029999999999903, -0.9239306623164577 
1.039999999999902, -0.9178081007148584 
1.0499999999999008, -0.9106537680301761 
1.0599999999998997, -0.9029887962847443 
1.0699999999998986, -0.8954512532878564 
1.0799999999998975, -0.8886350224542771 
1.0899999999998964, -0.8829716781373822 
1.0999999999998953, -0.8786717905146506 
1.1099999999998942, -0.875719959022104 
1.119999999999893, -0.8739193093011256 
1.129999999999892, -0.8729731740657014 
1.1399999999998909, -0.8725738239378075 
1.1499999999998898, -0.8724649475345062 
1.1599999999998887, -0.8724639336153187 
1.1699999999998876, -0.8724529030281036 
1.1799999999998865, -0.8723561897625529 
1.1899999999998854, -0.8721177414747376 
1.1999999999998843, -0.8716848227029486 
1.2099999999998832, -0.8710005909690877 
1.219999999999882, -0.8700073784409531 
1.229999999999881, -0.8686611286659376 
1.2399999999998799, -0.8669519148670318 
1.2499999999998788, -0.8649181549722422 
1.2599999999998777, -0.8626427649222006 
1.2699999999998766, -0.8602324735054246 
1.2799999999998755, -0.8577943381241996 
1.2899999999998744, -0.8554222033734247 
1.2999999999998733, -0.8531947417258099 
1.3099999999998722, -0.851178752631564 
1.319999999999871, -0.8494309862608516 
1.32999999999987, -0.8479953698288198 
1.3399999999998689, -0.8468964438921811 
1.3499999999998678, -0.8461325719638918 
1.3599999999998666, -0.8456733442606745 
1.3699999999998655, -0.8454639045328738 
1.3799999999998644, -0.8454352306678032 
1.3899999999998633, -0.8455161529079245 
1.3999999999998622, -0.8456426058344796 
1.4099999999998611, -0.8457621947130824 
1.41999999999986, -0.8458351599771916 
1.429999999999859, -0.8458340380691711 
1.4399999999998578, -0.845743363221913 
1.4499999999998567, -0.8455588344895008 
1.4599999999998556, -0.8452844590335822 
1.4699999999998545, -0.8449275739840504 
1.4799999999998534, -0.8444941505476231 
1.4899999999998523, -0.8439874235105144 
1.4999999999998512, -0.8434105883634745 
1.5099999999998501, -0.8427714613406048 
1.519999999999849, -0.842086423204312 
1.529999999999848, -0.8413825570936082 
1.5399999999998468, -0.8406982996226496 
1.5499999999998457, -0.8400827348634406 
1.5599999999998446, -0.8395926695509471 
1.5699999999998435, -0.8392864813635066 
1.5799999999998424, -0.8392151751475957 
1.5899999999998413, -0.8394132143288259 
1.5999999999998402, -0.8398926356002694 
1.6099999999998391, -0.8406426427564332 
1.619999999999838, -0.8416341931223679 
1.629999999999837, -0.8428268812182097 
1.6399999999998358, -0.8441747664229136 
1.6499999999998347, -0.8456285932680547 
1.6599999999998336, -0.8471336791439621 
1.6699999999998325, -0.84862541150109 
1.6799999999998314, -0.8500272467215328 
1.6899999999998303, -0.8512570278617707 
1.6999999999998292, -0.8522430139257093 
1.709999999999828, -0.8529422031123255 
1.719999999999827, -0.8533490557484559 
1.729999999999826, -0.8534895312759992 
1.7399999999998248, -0.8534067159308188 
1.7499999999998237, -0.853148417857222 
1.7599999999998226, -0.8527630066709895 
1.7699999999998215, -0.8523045944951392 
1.7799999999998204, -0.8518461835925504 
1.7899999999998193, -0.8514980069631454 
1.7999999999998182, -0.8514251989826193 
1.809999999999817, -0.8518540676622177 
1.819999999999816, -0.8530540653159246 
1.8299999999998149, -0.8552895300154519 
1.8399999999998138, -0.8587510578950793 
1.8499999999998127, -0.8634888109174069 
1.8599999999998116, -0.8693676330286835 
1.8699999999998105, -0.8760531723156628 
1.8799999999998094, -0.8830372095275939 
1.8899999999998083, -0.8897190827776618 
1.8999999999998072, -0.895547724521036 
1.909999999999806, -0.9001746394504891 
1.919999999999805, -0.9035257226491167 
1.9299999999998039, -0.9057486549511629 
1.9399999999998028, -0.9070914734575064 
1.9499999999998017, -0.9077980333077968 
1.9599999999998006, -0.9080574013381526 
1.9699999999997995, -0.9079958263557758 
1.9799999999997984, -0.9076884756838964 
1.9899999999997973, -0.9071776341251478 
1.9999999999997962, -0.9064958517767575 
2.0099999999998173, -0.905701220743512 
2.0199999999998384, -0.9049369645315345 
2.0299999999998595, -0.904523453032932 
2.0399999999998806, -0.9050635982804438 
2.0499999999999017, -0.9074820131662114 
2.059999999999923, -0.9128578957221698 
2.069999999999944, -0.9219578598896752 
2.079999999999965, -0.9346181596809574 
2.089999999999986, -0.9494335625075067 
2.100000000000007, -0.9641840499848193 
2.1100000000000283, -0.9768414338797164 
2.1200000000000494, -0.9863860816188048 
2.1300000000000705, -0.9928697594479434 
2.1400000000000916, -0.9969341519537298 
2.1500000000001127, -0.9993187017257336 
2.160000000000134, -1.000614248921559 
2.170000000000155, -1.0012166592274334 
2.180000000000176, -1.0013634873247566 
2.190000000000197, -1.0011830981022563 
2.2000000000002182, -1.0007336112504683 
2.2100000000002393, -1.0000332960806184 
2.2200000000002604, -0.999095629806917 
2.2300000000002815, -0.9979917218337626 
2.2400000000003026, -0.9969681930028795 
2.2500000000003237, -0.9966240641343858 
2.260000000000345, -0.9980490686364554 
2.270000000000366, -1.0026673086283027 
2.280000000000387, -1.0115550168384007 
2.290000000000408, -1.0244983112614614 
2.3000000000004293, -1.0396523357931164 
2.3100000000004504, -1.0543617577195448 
2.3200000000004715, -1.066524064720782 
2.3300000000004926, -1.0753428467948214 
2.3400000000005137, -1.0811164680754992 
2.3500000000005348, -1.0846096327027919 
2.360000000000556, -1.0865769084675203 
2.370000000000577, -1.08757722694522 
2.380000000000598, -1.087967450576239 
2.390000000000619, -1.087954691235101 
2.4000000000006403, -1.0876507168496792 
2.4100000000006614, -1.0871175248127927 
2.4200000000006825, -1.0864145252967643 
2.4300000000007036, -1.085665817013256 
2.4400000000007247, -1.0851570118612308 
2.450000000000746, -1.0854221376845317 
2.460000000000767, -1.087196407490709 
2.470000000000788, -1.0911165246081416 
2.480000000000809, -1.097294504618727 
2.49000000000083, -1.1051364433097257 
2.5000000000008513, -1.1135864871640924 
2.5100000000008724, -1.1215671244869436 
2.5200000000008935, -1.1283098486628491 
2.5300000000009146, -1.1334715914127012 
2.5400000000009357, -1.1370797320962687 
2.550000000000957, -1.139386578700412 
2.560000000000978, -1.1407158550549428 
2.570000000000999, -1.1413591969192343 
2.58000000000102, -1.141535440863596 
2.5900000000010412, -1.1413937360627413 
2.6000000000010624, -1.141038138965824 
2.6100000000010835, -1.1405619904341882 
2.6200000000011046, -1.140086780488374 
2.6300000000011257, -1.1397921632418924 
2.6400000000011468, -1.1399059977633343 
2.650000000001168, -1.1406295805356879 
2.660000000001189, -1.142034340747474 
2.67000000000121, -1.1440192324768557 
2.680000000001231, -1.1463652424150157 
2.6900000000012523, -1.1488280795441188 
2.7000000000012734, -1.151200757514967 
2.7100000000012945, -1.1533322783312305 
2.7200000000013156, -1.1551228994372793 
2.7300000000013367, -1.156515801050944 
2.740000000001358, -1.1574924606693044 
2.750000000001379, -1.1580691624362878 
2.7600000000014, -1.1582896998328591 
2.770000000001421, -1.1582140412539652 
2.780000000001442, -1.1579083180991803 
2.7900000000014633, -1.1574417842449893 
2.8000000000014844, -1.1568913130254685 
2.8100000000015055, -1.1563470066472175 
2.8200000000015266, -1.1559078849805993 
2.8300000000015477, -1.1556613130588012 
2.840000000001569, -1.1556556663783248 
2.85000000000159, -1.1558860207761135 
2.860000000001611, -1.1563012402454738 
2.870000000001632, -1.156823341943056 
2.8800000000016532, -1.157367473265264 
2.8900000000016743, -1.1578568056064116 
2.9000000000016954, -1.1582303658255466 
2.9100000000017165, -1.1584444906259717 
2.9200000000017377, -1.158470801045502 
2.9300000000017588, -1.158293447031583 
2.94000000000178, -1.1579069293965147 
2.950000000001801, -1.1573150398233656 
2.960000000001822, -1.1565313049433674 
2.970000000001843, -1.1555809971458495 
2.9800000000018643, -1.1545042352154222 
2.9900000000018854, -1.1533588602654437 
3.0000000000019065, -1.1522205300938142 
3.0100000000019276, -1.1511769326987933 
3.0200000000019487, -1.1503141984251537 
3.03000000000197, -1.149695857405714 
3.040000000001991, -1.1493395181416042 
3.050000000002012, -1.1492047283042244 
3.060000000002033, -1.1492047796948641 
3.070000000002054, -1.1492360331078553 
3.0800000000020753, -1.1492026104172637 
3.0900000000020964, -1.1490232012203139 
3.1000000000021175, -1.148624995385906 
3.1100000000021386, -1.1479368561207268 
3.1200000000021597, -1.146890189820603 
3.130000000002181, -1.1454289982319144 
3.140000000002202, -1.1435241315500908 
3.150000000002223, -1.1411843895270843 
3.160000000002244, -1.1384615237146876 
3.1700000000022652, -1.135453094703842 
3.1800000000022863, -1.1323080456907664 
3.1900000000023074, -1.1292315276551204 
3.2000000000023285, -1.1264723306168167 
3.2100000000023496, -1.1242708470431109 
3.2200000000023707, -1.1227697899249627 
3.230000000002392, -1.121943193339551 
3.240000000002413, -1.1216129961976224 
3.250000000002434, -1.1215444871134497 
3.260000000002455, -1.1215365700332085 
3.2700000000024763, -1.1214506948960465 
3.2800000000024974, -1.1211902016231403 
3.2900000000025185, -1.1206634059244953 
3.3000000000025396, -1.1197491098464956 
3.3100000000025607, -1.1182706842265966 
3.3200000000025818, -1.1159864558454742 
3.330000000002603, -1.1126130760194162 
3.340000000002624, -1.1078995900078532 
3.350000000002645, -1.1017476041609835 
3.360000000002666, -1.0943347618632808 
3.3700000000026873, -1.0861796322282227 
3.3800000000027084, -1.078098432556847 
3.3900000000027295, -1.0710230860483838 
3.4000000000027506, -1.0656953390266326 
3.4100000000027717, -1.0623723024363285 
3.420000000002793, -1.0607654572338807 
3.430000000002814, -1.0602773508953434 
3.440000000002835, -1.0603241314174865 
3.450000000002856, -1.0605097146117402 
3.460000000002877, -1.0606247222035798 
3.4700000000028983, -1.0605707445324684 
3.4800000000029194, -1.0602868715511558 
3.4900000000029405, -1.0596974274128583 
3.5000000000029616, -1.0586719361338934 
3.5100000000029827, -1.0569863107045998 
3.520000000003004, -1.0542857135436858 
3.530000000003025, -1.050073609045934 
3.540000000003046, -1.0437852213846148 
3.550000000003067, -1.0350116909568352 
3.5600000000030882, -1.0238526976205191 
3.5700000000031094, -1.0111904207332107 
3.5800000000031305, -0.9985918321862112 
3.5900000000031516, -0.9877616644181497 
3.6000000000031727, -0.9798447423724035 
3.6100000000031938, -0.9750380748535049 
3.620000000003215, -0.9727366584326239 
3.630000000003236, -0.9720154977419974 
3.640000000003257, -0.9720617632855012 
3.650000000003278, -0.9723494399407941 
3.6600000000032993, -0.9726078246465661 
3.6700000000033204, -0.9727202342867687 
3.6800000000033415, -0.9726359077499943 
3.6900000000033626, -0.9723132629912886 
3.7000000000033837, -0.971684261311756 
3.710000000003405, -0.9706266712525748 
3.720000000003426, -0.9689379930888501 
3.730000000003447, -0.966317597389674 
3.740000000003468, -0.9623829916847297 
3.750000000003489, -0.9567615983313393 
3.7600000000035103, -0.9492754850481864 
3.7700000000035314, -0.9401466826413556 
3.7800000000035525, -0.9300679542832373 
3.7900000000035736, -0.9200443910522095 
3.8000000000035947, -0.9110842163347215 
3.810000000003616, -0.9039078424442206 
3.820000000003637, -0.8987943678885832 
3.830000000003658, -0.8955969045315182 
3.840000000003679, -0.893889875568234 
3.8500000000037002, -0.8931633295421936 
3.8600000000037213, -0.8929736787624429 
3.8700000000037424, -0.8930077649862469 
3.8800000000037635, -0.893075495484237 
3.8900000000037847, -0.8930705176551902 
3.9000000000038058, -0.8929288976933497 
3.910000000003827, -0.8925976422002739 
3.920000000003848, -0.8920140960648721 
3.930000000003869, -0.8910954134724103 
3.94000000000389, -0.8897404675449611 
3.9500000000039113, -0.8878493110244616 
3.9600000000039324, -0.8853606179712351 
3.9700000000039535, -0.8822923999727396 
3.9800000000039746, -0.8787587853117458 
3.9900000000039957, -0.8749475477297881 
4.000000000004016, -0.8710736991472038 
4.010000000003993, -0.8673387646524446 
4.02000000000397, -0.8639105732878102 
4.030000000003946, -0.8609179496959397 
4.040000000003923, -0.8584483513512954 
4.0500000000039, -0.856542472320308 
4.0600000000038765, -0.8551885420389563 
4.070000000003853, -0.854323584495759 
4.08000000000383, -0.8538463369187737 
4.090000000003807, -0.8536389305306429 
4.100000000003783, -0.853588459737775 
4.11000000000376, -0.8536004047226818 
4.120000000003737, -0.8536018490854008 
4.130000000003713, -0.853537928997158 
4.14000000000369, -0.8533667978321237 
4.150000000003667, -0.8530572022620542 
4.1600000000036434, -0.8525900525984043 
4.17000000000362, -0.851962044572583 
4.180000000003597, -0.8511870174123694 
4.1900000000035735, -0.8502918330066327 
4.20000000000355, -0.8493081910899984 
4.210000000003527, -0.8482654994675165 
4.220000000003504, -0.8471887817786522 
4.23000000000348, -0.8461014151154208 
4.240000000003457, -0.8450296660150913 
4.250000000003434, -0.8440060720918205 
4.26000000000341, -0.8430700987786729 
4.270000000003387, -0.8422655763514435 
4.280000000003364, -0.8416351478703012 
4.2900000000033405, -0.8412129030827377 
4.300000000003317, -0.841017403901198 
4.310000000003294, -0.8410476130817518 
4.320000000003271, -0.8412833101679824 
4.330000000003247, -0.8416898001113786 
4.340000000003224, -0.8422250612718472 
4.350000000003201, -0.8428468010117328 
4.360000000003177, -0.8435173520575343 
4.370000000003154, -0.8442053599223414 
4.380000000003131, -0.844884146870535 
4.390000000003107, -0.8455275841666584 
4.400000000003084, -0.8461057034934619 
4.410000000003061, -0.8465835202971018 
4.4200000000030375, -0.8469256370064986 
4.430000000003014, -0.8471052266758828 
4.440000000002991, -0.8471119808634979 
4.450000000002968, -0.8469542243782726 
4.460000000002944, -0.8466555246466537 
4.470000000002921, -0.8462503337156045 
4.480000000002898, -0.8457830097721788 
4.490000000002874, -0.845311546806472 
4.500000000002851, -0.8449141160546676 
4.510000000002828, -0.8446939905233736 
4.520000000002804, -0.8447771548934566 
4.530000000002781, -0.8452985675202915 
4.540000000002758, -0.846378630835703 
4.5500000000027345, -0.8480979559487967 
4.560000000002711, -0.8504799903501887 
4.570000000002688, -0.8534852182927217 
4.580000000002665, -0.8570126721068215 
4.590000000002641, -0.8609020781891898 
4.600000000002618, -0.8649361107005623 
4.610000000002595, -0.8688529347780729 
4.620000000002571, -0.8723834138287921 
4.630000000002548, -0.8753121907589667 
4.640000000002525, -0.8775329986433664 
4.6500000000025015, -0.8790605605315289 
4.660000000002478, -0.8799936614412734 
4.670000000002455, -0.880460314633509 
4.6800000000024315, -0.880577050937181 
4.690000000002408, -0.8804321566673717 
4.700000000002385, -0.880087046860683 
4.710000000002362, -0.8795886330311127 
4.720000000002338, -0.8789909162459736 
4.730000000002315, -0.8783890859216721 
4.740000000002292, -0.8779698092508289 
4.750000000002268, -0.8780720296494255 
4.760000000002245, -0.8792292792587023 
4.770000000002222, -0.8821359069749342 
4.7800000000021985, -0.8874782957612627 
4.790000000002175, -0.8956343015649398 
4.800000000002152, -0.9063575455238888 
4.810000000002129, -0.9186505407611516 
4.820000000002105, -0.9309960524694171 
4.830000000002082, -0.9419065298362128 
4.840000000002059, -0.9504707148239641 
4.850000000002035, -0.9565345704604006 
4.860000000002012, -0.9604783604737422 
4.870000000001989, -0.9628641328804509 
4.880000000001965, -0.9641967014064106 
4.890000000001942, -0.9648405418875609 
4.900000000001919, -0.9650265104652865 
4.9100000000018955, -0.9648857748566984 
4.920000000001872, -0.9644825635327112 
4.930000000001849, -0.9638413336773854 
