t, s[1].omega / s[0].omega 
0, -0.5699977391315236 
0.009999999999999995, -0.5698036292704842 
0.019999999999999934, -0.5696598968735047 
0.029999999999999874, -0.5695331708113915 
0.04000000000000012, -0.5693827029488316 
0.050000000000000405, -0.5691745274327452 
0.06000000000000069, -0.5688901680276933 
0.07000000000000098, -0.5685280189610669 
0.08000000000000126, -0.5681007718341087 
0.09000000000000155, -0.5676339456900038 
0.10000000000000184, -0.567169340919809 
0.11000000000000212, -0.5667760097588801 
0.12000000000000241, -0.5665716675817515 
0.130000000000002, -0.5667592351727138 
0.1400000000000009, -0.5676855600561506 
0.1499999999999998, -0.5699303685350708 
0.1599999999999987, -0.5744269903973878 
0.1699999999999976, -0.5825842892492544 
0.1799999999999965, -0.5962819050933029 
0.1899999999999954, -0.6174176498667376 
0.1999999999999943, -0.6465918292693059 
0.2099999999999932, -0.6812895132369675 
0.2199999999999921, -0.715769694742768 
0.229999999999991, -0.7442981634398802 
0.2399999999999899, -0.7645550675551844 
0.2499999999999888, -0.7775232149768972 
0.2599999999999877, -0.7853617050067478 
0.2699999999999866, -0.7899690642318616 
0.2799999999999855, -0.7926272899286272 
0.2899999999999844, -0.7941104633604684 
0.2999999999999833, -0.7948605500109669 
0.3099999999999822, -0.7951157968515902 
0.3199999999999811, -0.7949850861703206 
0.32999999999998, -0.7944819665810778 
0.3399999999999789, -0.7935280707724703 
0.3499999999999778, -0.7919281570937963 
0.35999999999997667, -0.7893146127989151 
0.36999999999997557, -0.7850670722664853 
0.37999999999997447, -0.7782552901158933 
0.38999999999997337, -0.7677535143585396 
0.39999999999997227, -0.7527498163142003 
0.40999999999997117, -0.7335985087942155 
0.41999999999997006, -0.7122531378287786 
0.42999999999996896, -0.6915016933981318 
0.43999999999996786, -0.6735919278740393 
0.44999999999996676, -0.659519519989356 
0.45999999999996566, -0.6492252859649781 
0.46999999999996456, -0.6421112442606592 
0.47999999999996346, -0.637437061585452 
0.48999999999996235, -0.6345201024177318 
0.49999999999996125, -0.632805969441192 
0.5099999999999602, -0.6318763821452913 
0.519999999999959, -0.6314319633738253 
0.529999999999958, -0.6312673066456485 
0.5399999999999568, -0.6312460506823896 
0.5499999999999557, -0.6312795153820394 
0.5599999999999546, -0.6313105044489332 
0.5699999999999535, -0.6313028495629088 
0.5799999999999524, -0.631236526468968 
0.5899999999999513, -0.631107064309435 
0.5999999999999502, -0.6309261950784589 
0.6099999999999491, -0.6307193696490021 
0.619999999999948, -0.6305172287190814 
0.6299999999999469, -0.6303427950399204 
0.6399999999999458, -0.6302004731144157 
0.6499999999999447, -0.6300730015518464 
0.6599999999999436, -0.6299283122270275 
0.6699999999999425, -0.6297326177107359 
0.6799999999999414, -0.6294626279036738 
0.6899999999999403, -0.6291115469147917 
0.6999999999999392, -0.6286890285735603 
0.7099999999999381, -0.6282194482514865 
0.719999999999937, -0.6277430862934836 
0.7299999999999359, -0.6273229846116479 
0.7399999999999348, -0.6270587853752931 
0.7499999999999337, -0.6271083133280924 
0.7599999999999326, -0.6277172709844568 
0.7699999999999315, -0.6292562022720716 
0.7799999999999304, -0.632260567010553 
0.7899999999999293, -0.6374615141631454 
0.7999999999999282, -0.6457755236886585 
0.8099999999999271, -0.6581827738735914 
0.819999999999926, -0.6753790022709021 
0.8299999999999249, -0.6971301133771907 
0.8399999999999238, -0.7216016352694401 
0.8499999999999227, -0.7454949012070482 
0.8599999999999216, -0.7655315711740788 
0.8699999999999205, -0.7801450212024525 
0.8799999999999194, -0.7897100917493064 
0.8899999999999183, -0.7955347696090505 
0.8999999999999172, -0.7989205268153625 
0.9099999999999161, -0.8008053255426004 
0.919999999999915, -0.8017702931336089 
0.9299999999999139, -0.8021439765262641 
0.9399999999999128, -0.8020915788296582 
0.9499999999999117, -0.8016669573256976 
0.9599999999999106, -0.8008308909317069 
0.9699999999999095, -0.7994388525319145 
0.9799999999999084, -0.7971941189703153 
0.9899999999999073, -0.7935543456035439 
0.9999999999999062, -0.7875819010014091 
1.0099999999999052, -0.7777756873098166 
1.019999999999904, -0.7620958385465826 
1.029999999999903, -0.7387007883763632 
1.039999999999902, -0.7077636168531145 
1.0499999999999008, -0.6730265136192852 
1.0599999999998997, -0.6403976913833709 
1.0699999999998986, -0.6142984436904582 
1.0799999999998975, -0.595861253040235 
1.0899999999998964, -0.5839347336634597 
1.0999999999998953, -0.5766904476744654 
1.1099999999998942, -0.5725090005790521 
1.119999999999893, -0.5702162062738128 
1.129999999999892, -0.569038171962 
1.1399999999998909, -0.5684908803785164 
1.1499999999998898, -0.5682811415456438 
1.1599999999998887, -0.568234763402684 
1.1699999999998876, -0.5682488994148831 
1.1799999999998865, -0.5682621819318596 
1.1899999999998854, -0.5682373446424984 
1.1999999999998843, -0.5681527956841904 
1.2099999999998832, -0.5680006474090434 
1.219999999999882, -0.5677883752104527 
1.229999999999881, -0.5675398806196468 
1.2399999999998799, -0.5672913323658832 
1.2499999999998788, -0.5670801295576046 
1.2599999999998777, -0.5669306342653726 
1.2699999999998766, -0.5668435065716176 
1.2799999999998755, -0.5667941429047963 
1.2899999999998744, -0.5667413684334791 
1.2999999999998733, -0.5666422818182261 
1.3099999999998722, -0.5664656721713213 
1.319999999999871, -0.5661981082653837 
1.32999999999987, -0.5658427628430929 
1.3399999999998689, -0.5654157175236659 
1.3499999999998678, -0.5649448779852567 
1.3599999999998666, -0.5644748879583431 
1.3699999999998655, -0.5640806054273374 
1.3799999999998644, -0.5638927898937218 
1.3899999999998633, -0.56414222414595 
1.3999999999998622, -0.5652315181440721 
1.4099999999998611, -0.5678443175971282 
1.41999999999986, -0.5730893691146602 
1.429999999999859, -0.5826229850446003 
1.4399999999998578, -0.5985436070055783 
1.4499999999998567, -0.6226136542764187 
1.4599999999998556, -0.6544831516082361 
1.4699999999998545, -0.6900661401693011 
1.4799999999998534, -0.7228985495848278 
1.4899999999998523, -0.7483038038156224 
1.4999999999998512, -0.7655462869885441 
1.5099999999998501, -0.7763615151129899 
1.519999999999849, -0.7828837557686279 
1.529999999999848, -0.7867424466590661 
1.5399999999998468, -0.7889843570769401 
1.5499999999998457, -0.7902335941613761 
1.5599999999998446, -0.7908461678454939 
1.5699999999998435, -0.7910116948316561 
1.5799999999998424, -0.7908094614932205 
1.5899999999998413, -0.7902312352826099 
1.5999999999998402, -0.7891775328568297 
1.6099999999998391, -0.787428391663213 
1.619999999999838, -0.7845894685690656 
1.629999999999837, -0.7800308893915228 
1.6399999999998358, -0.7728897375923095 
1.6499999999998347, -0.7622893687772122 
1.6599999999998336, -0.7478929741046663 
1.6699999999998325, -0.7305161842569329 
1.6799999999998314, -0.7120964782503869 
1.6899999999998303, -0.6948141190953862 
1.6999999999998292, -0.6801639144191206 
1.709999999999828, -0.6686875871665034 
1.719999999999827, -0.6602351044364927 
1.729999999999826, -0.6543254617505652 
1.7399999999998248, -0.6503938434187335 
1.7499999999998237, -0.6479151195121959 
1.7599999999998226, -0.6464513757915471 
1.7699999999998215, -0.6456616653353455 
1.7799999999998204, -0.6452943587310682 
1.7899999999998193, -0.6451719519582183 
1.7999999999998182, -0.6451736730691469 
1.809999999999817, -0.6452192791482585 
1.819999999999816, -0.6452562363098331 
1.8299999999998149, -0.6452514922639849 
1.8399999999998138, -0.6451880002600502 
1.8499999999998127, -0.6450646041489604 
1.8599999999998116, -0.6448959294834417 
1.8699999999998105, -0.6447081290273953 
1.8799999999998094, -0.644528796136197 
1.8899999999998083, -0.644374321330949 
1.8999999999998072, -0.6442412265783518 
1.909999999999806, -0.6441065783435446 
1.919999999999805, -0.6439375160677694 
1.9299999999998039, -0.6437045850251639 
1.9399999999998028, -0.643391833703227 
1.9499999999998017, -0.6430002443041103 
1.9599999999998006, -0.6425466364253923 
1.9699999999997995, -0.6420628401569946 
1.9799999999997984, -0.6415989773302165 
1.9899999999997973, -0.6412326717426716 
1.9999999999997962, -0.6410846759389282 
2.0099999999998173, -0.6413406354264828 
2.0199999999998384, -0.6422777229606147 
2.0299999999998595, -0.6442929857905344 
2.0399999999998806, -0.6479264828311292 
2.0499999999999017, -0.6538640760843049 
2.059999999999923, -0.6628871002753034 
2.069999999999944, -0.6757067982797963 
2.079999999999965, -0.6926052169838113 
2.089999999999986, -0.712899468117439 
2.100000000000007, -0.7345763085119458 
2.1100000000000283, -0.7547499069191523 
2.1200000000000494, -0.7710215654158504 
2.1300000000000705, -0.7825756122529598 
2.1400000000000916, -0.7900214926081132 
2.1500000000001127, -0.7945143985558085 
2.160000000000134, -0.797098091877872 
2.170000000000155, -0.7984985988522963 
2.180000000000176, -0.7991576079164503 
2.190000000000197, -0.7993182909903778 
2.2000000000002182, -0.7990918451279028 
2.2100000000002393, -0.7984923504461295 
2.2200000000002604, -0.7974423311086757 
2.2300000000002815, -0.7957490168728075 
2.2400000000003026, -0.7930441090430456 
2.2500000000003237, -0.7886736239056924 
2.260000000000345, -0.781532844135353 
2.270000000000366, -0.7699111340189457 
2.280000000000387, -0.7516357314920052 
2.290000000000408, -0.725122528110834 
2.3000000000004293, -0.691482210386888 
2.3100000000004504, -0.6556293677576901 
2.3200000000004715, -0.6237926503705996 
2.3300000000004926, -0.5996498315324422 
2.3400000000005137, -0.5833827178492783 
2.3500000000005348, -0.5732921847516137 
2.360000000000556, -0.567399510358082 
2.370000000000577, -0.5641331382509127 
2.380000000000598, -0.5624241150988608 
2.390000000000619, -0.5615995255520135 
2.4000000000006403, -0.5612537477588498 
2.4100000000006614, -0.5611485410233628 
2.4200000000006825, -0.5611457547648965 
2.4300000000007036, -0.5611649758198693 
2.4400000000007247, -0.5611582839635609 
2.450000000000746, -0.5610966259544501 
2.460000000000767, -0.5609644063884943 
2.470000000000788, -0.5607597212333598 
2.480000000000809, -0.5604968704685471 
2.49000000000083, -0.5602063684148691 
2.5000000000008513, -0.5599283041714961 
2.5100000000008724, -0.5596992458215985 
2.5200000000008935, -0.5595381281450856 
2.5300000000009146, -0.5594381059474017 
2.5400000000009357, -0.5593685145172363 
2.550000000000957, -0.5592862214512507 
2.560000000000978, -0.5591508041976846 
2.570000000000999, -0.5589360115250679 
2.58000000000102, -0.5586333448175616 
2.5900000000010412, -0.5582496325204278 
2.6000000000010624, -0.5578037806217877 
2.6100000000010835, -0.5573272708911267 
2.6200000000011046, -0.5568713493819402 
2.6300000000011257, -0.5565236581472296 
2.6400000000011468, -0.5564387586839719 
2.650000000001168, -0.5568900189046759 
2.660000000001189, -0.558353360709259 
2.67000000000121, -0.5616318237288909 
2.680000000001231, -0.5680084016783085 
2.6900000000012523, -0.5793328464776477 
2.7000000000012734, -0.5977480237043793 
2.7100000000012945, -0.6245430639514568 
2.7200000000013156, -0.6581272856432994 
2.7300000000013367, -0.6931467423867121 
2.740000000001358, -0.7232902057903824 
2.750000000001379, -0.7453595780185432 
2.7600000000014, -0.7598519487365616 
2.770000000001421, -0.7688265895818913 
2.780000000001442, -0.7742374111070626 
2.7900000000014633, -0.7774525093223343 
2.8000000000014844, -0.7793238322224546 
2.8100000000015055, -0.7803549077195026 
2.8200000000015266, -0.7808313171698656 
2.8300000000015477, -0.7809008986185503 
2.840000000001569, -0.7806155841266903 
2.85000000000159, -0.7799451869474268 
2.860000000001611, -0.7787678184492187 
2.870000000001632, -0.7768381918355456 
2.8800000000016532, -0.7737397958728451 
2.8900000000016743, -0.7688522670632033 
2.9000000000016954, -0.7614217865626312 
2.9100000000017165, -0.7508623130678931 
2.9200000000017377, -0.7372681080815647 
2.9300000000017588, -0.7217324893469953 
2.94000000000178, -0.7060034996886055 
2.950000000001801, -0.6916931126459003 
2.960000000001822, -0.6797402903621341 
2.970000000001843, -0.6703940385919304 
2.9800000000018643, -0.6634631734527604 
2.9900000000018854, -0.6585609571750138 
3.0000000000019065, -0.6552561717182297 
3.0100000000019276, -0.6531469256400668 
3.0200000000019487, -0.6518908826510791 
3.03000000000197, -0.6512138693904345 
3.040000000001991, -0.6509073804508622 
3.050000000002012, -0.6508199677482949 
3.060000000002033, -0.6508457618497674 
3.070000000002054, -0.650912860978226 
3.0800000000020753, -0.6509738069896227 
3.0900000000020964, -0.6509995619704902 
3.1000000000021175, -0.6509771706257217 
3.1100000000021386, -0.6509094855243412 
3.1200000000021597, -0.6508135239919712 
3.130000000002181, -0.6507140717119333 
3.140000000002202, -0.6506324259611558 
3.150000000002223, -0.6505747776666825 
3.160000000002244, -0.6505266277835874 
3.1700000000022652, -0.6504569788054323 
3.1800000000022863, -0.6503304207680239 
3.1900000000023074, -0.6501203726089109 
3.2000000000023285, -0.6498168160897683 
3.2100000000023496, -0.649427107651752 
3.2200000000023707, -0.6489737570617625 
3.230000000002392, -0.648494274291789 
3.240000000002413, -0.6480463673999832 
3.250000000002434, -0.6477198187949589 
3.260000000002455, -0.6476553237878444 
3.2700000000024763, -0.6480698069524597 
3.2800000000024974, -0.6492863321773223 
3.2900000000025185, -0.6517639599902373 
3.3000000000025396, -0.6561174636019198 
3.3100000000025607, -0.6631053286460211 
3.3200000000025818, -0.6735417986390309 
3.330000000002603, -0.6880585325691075 
3.340000000002624, -0.7066518747610887 
3.350000000002645, -0.7281322802221741 
3.360000000002666, -0.7499912140290043 
3.3700000000026873, -0.7692778016211573 
3.3800000000027084, -0.7840706038048016 
3.3900000000027295, -0.7941582669277241 
3.4000000000027506, -0.800476698402637 
3.4100000000027717, -0.8042143336724086 
3.420000000002793, -0.8063223366743866 
3.430000000002814, -0.8074244175319911 
3.440000000002835, -0.8078862562455947 
3.450000000002856, -0.8079000960405679 
3.460000000002877, -0.8075411414053943 
3.4700000000028983, -0.8067923559564335 
3.4800000000029194, -0.8055406533141225 
3.4900000000029405, -0.8035427134798507 
3.5000000000029616, -0.8003514361042339 
3.5100000000029827, -0.7951904663244684 
3.520000000003004, -0.7867836025015948 
3.530000000003025, -0.7732472645439614 
3.540000000003046, -0.7524260889978447 
3.550000000003067, -0.7232929975885877 
3.5600000000030882, -0.6881124008773001 
3.5700000000031094, -0.652687677103498 
3.5800000000031305, -0.6229404633337878 
3.5900000000031516, -0.6014775122781092 
3.6000000000031727, -0.5876353046273943 
3.6100000000031938, -0.5793973319217922 
3.620000000003215, -0.5747946633560674 
3.630000000003236, -0.5723765453379076 
3.640000000003257, -0.5712014153843044 
3.650000000003278, -0.5706980074071896 
3.6600000000032993, -0.5705332318396504 
3.6700000000033204, -0.5705173570183583 
3.6800000000033415, -0.5705429658573797 
3.6900000000033626, -0.5705479449910195 
3.7000000000033837, -0.5704944431376644 
3.710000000003405, -0.5703586502047179 
3.720000000003426, -0.5701283488002107 
3.730000000003447, -0.5698055816429047 
3.740000000003468, -0.5694103344683978 
3.750000000003489, -0.5689796599404462 
3.7600000000035103, -0.5685585772942995 
3.7700000000035314, -0.5681850377376392 
3.7800000000035525, -0.5678763310005619 
3.7900000000035736, -0.5676238128274876 
3.8000000000035947, -0.567398101264292 
3.810000000003616, -0.5671617029205467 
3.820000000003637, -0.5668826585101043 
3.830000000003658, -0.5665431833279364 
3.840000000003679, -0.5661416459790674 
3.8500000000037002, -0.5656909563219623 
3.8600000000037213, -0.5652180111621821 
3.8700000000037424, -0.5647678081461571 
3.8800000000037635, -0.5644147300130962 
3.8900000000037847, -0.564283704248014 
3.9000000000038058, -0.5645853438023671 
3.910000000003827, -0.5656709685028 
3.920000000003848, -0.5681137685770876 
3.930000000003869, -0.5728157707724064 
3.94000000000389, -0.5811109396439124 
3.9500000000039113, -0.5947489476315405 
3.9600000000039324, -0.6154764432768107 
3.9700000000039535, -0.6438478729117121 
3.9800000000039746, -0.6775564876448325 
3.9900000000039957, -0.7112258102521262 
4.000000000004016, -0.7392967314757553 
4.010000000003993, -0.7593469100718179 
4.02000000000397, -0.7722069182368991 
4.030000000003946, -0.779965194844035 
4.040000000003923, -0.7845057406792317 
4.0500000000039, -0.7871101780872642 
4.0600000000038765, -0.788551518245199 
4.070000000003853, -0.7892687727554353 
4.08000000000383, -0.7894965595663799 
4.090000000003807, -0.7893400213162194 
4.100000000003783, -0.7888086273141574 
4.11000000000376, -0.7878187313125793 
4.120000000003737, -0.7861669940156875 
4.130000000003713, -0.7834720546546146 
4.14000000000369, -0.7790896993740548 
4.150000000003667, -0.7720511200230437 
4.1600000000036434, -0.7611805397216859 
4.17000000000362, -0.7456323202168931 
4.180000000003597, -0.7257965849891634 
4.1900000000035735, -0.7037531052166064 
4.20000000000355, -0.6824359054576693 
4.210000000003527, -0.6641631367200318 
4.220000000003504, -0.649909465872904 
4.23000000000348, -0.6395522780556684 
4.240000000003457, -0.6324333387355867 
4.250000000003434, -0.6277728681840448 
4.26000000000341, -0.6248688180149672 
4.270000000003387, -0.6231606629434356 
4.280000000003364, -0.622230778921632 
4.2900000000033405, -0.6217828389492828 
4.300000000003317, -0.6216145823695434 
4.310000000003294, -0.6215920697705416 
4.320000000003271, -0.621628318089089 
4.330000000003247, -0.621667425562386 
4.340000000003224, -0.6216744537870239 
4.350000000003201, -0.6216307157401569 
4.360000000003177, -0.6215330865497706 
4.370000000003154, -0.6213942870488613 
4.380000000003131, -0.6212399397506413 
4.390000000003107, -0.6210997506714632 
4.400000000003084, -0.6209946981639123 
4.410000000003061, -0.6209262005430467 
4.4200000000030375, -0.6208733226298597 
4.430000000003014, -0.620800083821236 
4.440000000002991, -0.6206692111980379 
4.450000000002968, -0.6204548980475795 
4.460000000002944, -0.620148789405971 
4.470000000002921, -0.6197593216501438 
4.480000000002898, -0.6193091026072619 
4.490000000002874, -0.6188353135914296 
4.500000000002851, -0.6183962224178375 
4.510000000002828, -0.6180855832388115 
4.520000000002804, -0.6180565895756895 
4.530000000002781, -0.6185572992483991 
4.540000000002758, -0.6199788126364183 
4.5500000000027345, -0.6229140420121776 
4.560000000002711, -0.6282143180626627 
4.570000000002688, -0.6370036974722628 
4.580000000002665, -0.650553187803632 
4.590000000002641, -0.6698425894036594 
4.600000000002618, -0.6946897786668951 
4.610000000002595, -0.7228320612438222 
4.620000000002571, -0.7501553322008763 
4.630000000002548, -0.7727289398212738 
4.640000000002525, -0.7888912754327093 
4.6500000000025015, -0.7992960698718066 
4.660000000002478, -0.8055583239870927 
4.670000000002455, -0.8091770343284018 
4.6800000000024315, -0.8111932137355591 
4.690000000002408, -0.8122384475058635 
4.700000000002385, -0.8126664444093119 
4.710000000002362, -0.8126558075859979 
4.720000000002338, -0.8122683021948658 
4.730000000002315, -0.8114700531157342 
4.740000000002292, -0.8101206760684848 
4.750000000002268, -0.8079269218886852 
4.760000000002245, -0.804349580014979 
4.770000000002222, -0.7984557777377247 
4.7800000000021985, -0.7887596608132937 
4.790000000002175, -0.7732694418209214 
4.800000000002152, -0.7502432206097687 
4.810000000002129, -0.7199452736569334 
4.820000000002105, -0.6860440786461871 
4.830000000002082, -0.6541931504980092 
4.840000000002059, -0.6286115907260448 
4.850000000002035, -0.6104252497327056 
4.860000000002012, -0.5985847260715181 
4.870000000001989, -0.5913574712986037 
4.880000000001965, -0.5871769564375529 
4.890000000001942, -0.5848882578031074 
4.900000000001919, -0.5837199962676425 
4.9100000000018955, -0.5831850141715174 
4.920000000001872, -0.5829864081682384 
