t, s[1].omega / s[0].omega 
0, -1.039995314696616 
0.009999999999999995, -1.0394458605537633 
0.019999999999999934, -1.0387436668758168 
0.029999999999999874, -1.0379051166249642 
0.04000000000000012, -1.0369554036532398 
0.050000000000000405, -1.035931339754934 
0.06000000000000069, -1.0348831763464905 
0.07000000000000098, -1.033873497945452 
0.08000000000000126, -1.03297130794891 
0.09000000000000155, -1.0322408787833504 
0.10000000000000184, -1.0317276004085234 
0.11000000000000212, -1.0314453388883256 
0.12000000000000241, -1.0313707323288657 
0.130000000000002, -1.031448317713577 
0.1400000000000009, -1.0316050027196966 
0.1499999999999998, -1.0317664308509247 
0.1599999999999987, -1.0318677768477393 
0.1699999999999976, -1.031857414456346 
0.1799999999999965, -1.0316969532034577 
0.1899999999999954, -1.0313612545987245 
0.1999999999999943, -1.0308390030383687 
0.2099999999999932, -1.030132174834837 
0.2199999999999921, -1.0292535365678448 
0.229999999999991, -1.0282237074698253 
0.2399999999999899, -1.0270701435587994 
0.2499999999999888, -1.0258287613213404 
0.2599999999999877, -1.0245467552955554 
0.2699999999999866, -1.0232840562653744 
0.2799999999999855, -1.0221108360048357 
0.2899999999999844, -1.0210993512019224 
0.2999999999999833, -1.020310378174395 
0.3099999999999822, -1.0197773491640068 
0.3199999999999811, -1.019494408045014 
0.32999999999998, -1.0194155573408659 
0.3399999999999789, -1.0194671456328794 
0.3499999999999778, -1.0195670088874853 
0.35999999999997667, -1.0196397538302693 
0.36999999999997557, -1.0196230394519752 
0.37999999999997447, -1.0194674831723645 
0.38999999999997337, -1.019135703355047 
0.39999999999997227, -1.01860359563829 
0.40999999999997117, -1.0178627910299096 
0.41999999999997006, -1.016921132928001 
0.42999999999996896, -1.0157997631814624 
0.43999999999996786, -1.0145289348622224 
0.44999999999996676, -1.013145873516304 
0.45999999999996566, -1.011695856312389 
0.46999999999996456, -1.0102347799575124 
0.47999999999996346, -1.0088300637745071 
0.48999999999996235, -1.007556914482197 
0.49999999999996125, -1.0064883159725375 
0.5099999999999602, -1.0056795774859266 
0.519999999999959, -1.005151928282602 
0.529999999999958, -1.0048831073713587 
0.5399999999999568, -1.0048118938418154 
0.5499999999999557, -1.0048553930263577 
0.5599999999999546, -1.0049290223038871 
0.5699999999999535, -1.0049591053766496 
0.5799999999999524, -1.0048859343754004 
0.5899999999999513, -1.0046620613538513 
0.5999999999999502, -1.004251488608795 
0.6099999999999491, -1.003631941630757 
0.619999999999948, -1.0027981311730665 
0.6299999999999469, -1.0017622291407176 
0.6399999999999458, -1.0005502511864592 
0.6499999999999447, -0.9991970460012448 
0.6599999999999436, -0.9977436615669004 
0.6699999999999425, -0.9962382513118572 
0.6799999999999414, -0.9947385178587911 
0.6899999999999403, -0.9933123314813994 
0.6999999999999392, -0.9920335801812321 
0.7099999999999381, -0.9909718887021473 
0.719999999999937, -0.9901774725036017 
0.7299999999999359, -0.9896659570190585 
0.7399999999999348, -0.9894108234876873 
0.7499999999999337, -0.9893492987058895 
0.7599999999999326, -0.9893995252120596 
0.7699999999999315, -0.9894793024792958 
0.7799999999999304, -0.9895175293683287 
0.7899999999999293, -0.9894569382715301 
0.7999999999999282, -0.9892526885358922 
0.8099999999999271, -0.9888718651208646 
0.819999999999926, -0.9882955352464323 
0.8299999999999249, -0.9875211582874373 
0.8399999999999238, -0.9865620187930023 
0.8499999999999227, -0.9854430512567671 
0.8599999999999216, -0.9841960176879571 
0.8699999999999205, -0.9828574500364707 
0.8799999999999194, -0.9814700160341179 
0.8899999999999183, -0.9800851651800366 
0.8999999999999172, -0.9787639646196922 
0.9099999999999161, -0.9775736053152816 
0.919999999999915, -0.9765785297466187 
0.9299999999999139, -0.9758273629305968 
0.9399999999999128, -0.9753395376689827 
0.9499999999999117, -0.9750975854216245 
0.9599999999999106, -0.9750501198610102 
0.9699999999999095, -0.9751250562407122 
0.9799999999999084, -0.9752461928182721 
0.9899999999999073, -0.9753452939817742 
0.9999999999999062, -0.9753669141404695 
1.0099999999999052, -0.9752686550828891 
1.019999999999904, -0.975020876801388 
1.029999999999903, -0.9746074875710482 
1.039999999999902, -0.974026403083905 
1.0499999999999008, -0.9732876066917008 
1.0599999999998997, -0.9724090522942678 
1.0699999999998986, -0.9714131228023419 
1.0799999999998975, -0.9703260248655111 
1.0899999999998964, -0.9691800020260682 
1.0999999999998953, -0.968016295279517 
1.1099999999998942, -0.9668864170969039 
1.119999999999893, -0.96584979038187 
1.129999999999892, -0.9649667695235143 
1.1399999999998909, -0.964287791789854 
1.1499999999998898, -0.9638415533555257 
1.1599999999998887, -0.9636265672558286 
1.1699999999998876, -0.963610162642933 
1.1799999999998865, -0.9637361596770422 
1.1899999999998854, -0.9639379523806071 
1.1999999999998843, -0.9641510344310766 
1.2099999999998832, -0.9643207355814487 
1.219999999999882, -0.964405073162203 
1.229999999999881, -0.9643750625407834 
1.2399999999998799, -0.9642141776650328 
1.2499999999998788, -0.9639168516489791 
1.2599999999998777, -0.9634855530983171 
1.2699999999998766, -0.9629274540716051 
1.2799999999998755, -0.9622528044403282 
1.2899999999998744, -0.9614760783768359 
1.2999999999998733, -0.9606189306866423 
1.3099999999998722, -0.9597131438589948 
1.319999999999871, -0.9588021370228509 
1.32999999999987, -0.9579398661588195 
1.3399999999998689, -0.9571858791427952 
1.3499999999998678, -0.9565961689827821 
1.3599999999998666, -0.9562117380357872 
1.3699999999998655, -0.9560488257778428 
1.3799999999998644, -0.9560947135055267 
1.3899999999998633, -0.9563108850031128 
1.3999999999998622, -0.9566422928490004 
1.4099999999998611, -0.9570289589568016 
1.41999999999986, -0.9574156816313417 
1.429999999999859, -0.957757581932559 
1.4399999999998578, -0.9580217187285773 
1.4499999999998567, -0.9581860341654458 
1.4599999999998556, -0.9582366686458155 
1.4699999999998545, -0.9581647423532033 
1.4799999999998534, -0.957964323899885 
1.4899999999998523, -0.9576330464063234 
1.4999999999998512, -0.9571750225215198 
1.5099999999998501, -0.9566041051361835 
1.519999999999849, -0.9559459650292899 
1.529999999999848, -0.9552389759497728 
1.5399999999998468, -0.9545341584028855 
1.5499999999998457, -0.953893017601193 
1.5599999999998446, -0.9533811131725585 
1.5699999999998435, -0.9530568125021667 
1.5799999999998424, -0.9529584037178115 
1.5899999999998413, -0.9530951234345328 
1.5999999999998402, -0.953446050649206 
1.6099999999998391, -0.9539667218618533 
1.619999999999838, -0.9546000855583069 
1.629999999999837, -0.955287507367656 
1.6399999999998358, -0.9559765615230663 
1.6499999999998347, -0.956624324845792 
1.6599999999998336, -0.9571967202449786 
1.6699999999998325, -0.9576656212871703 
1.6799999999998314, -0.9580061499006851 
1.6899999999998303, -0.9581966184992583 
1.6999999999998292, -0.9582219257951394 
1.709999999999828, -0.9580783666109894 
1.719999999999827, -0.9577765506762838 
1.729999999999826, -0.9573412049954444 
1.7399999999998248, -0.9568097450075237 
1.7499999999998237, -0.9562320528066426 
1.7599999999998226, -0.9556713560214577 
1.7699999999998215, -0.9552028569466936 
1.7799999999998204, -0.9549058935796557 
1.7899999999998193, -0.9548489067523322 
1.7999999999998182, -0.9550726929785018 
1.809999999999817, -0.9555805402004095 
1.819999999999816, -0.956339999396629 
1.8299999999998149, -0.9572939113726932 
1.8399999999998138, -0.9583743184362661 
1.8499999999998127, -0.9595136380624061 
1.8599999999998116, -0.9606504071175115 
1.8699999999998105, -0.961729811399867 
1.8799999999998094, -0.9627014561013614 
1.8899999999998083, -0.9635181426221864 
1.8999999999998072, -0.9641388488879967 
1.909999999999806, -0.9645357865493708 
1.919999999999805, -0.9647011630545391 
1.9299999999998039, -0.9646486413132409 
1.9399999999998028, -0.9644089979425425 
1.9499999999998017, -0.9640244358755833 
1.9599999999998006, -0.9635464845845153 
1.9699999999997995, -0.9630388203425628 
1.9799999999997984, -0.9625817164927432 
1.9899999999997973, -0.9622714835878181 
1.9999999999997962, -0.9622087017211884 
2.0099999999998173, -0.9624756987004176 
2.0199999999998384, -0.9631134670457374 
2.0299999999998595, -0.964111247298829 
2.0399999999998806, -0.9654135270535029 
2.0499999999999017, -0.9669377082695073 
2.059999999999923, -0.9685917703745623 
2.069999999999944, -0.9702851997070813 
2.079999999999965, -0.9719324344199103 
2.089999999999986, -0.9734524784414476 
2.100000000000007, -0.974770251856458 
2.1100000000000283, -0.9758236241776986 
2.1200000000000494, -0.9765744968541273 
2.1300000000000705, -0.9770166281150713 
2.1400000000000916, -0.9771737747769562 
2.1500000000001127, -0.9770894691988607 
2.160000000000134, -0.9768161214562703 
2.170000000000155, -0.9764104385114747 
2.180000000000176, -0.9759371223941548 
2.190000000000197, -0.9754777600600668 
2.2000000000002182, -0.9751376206285288 
2.2100000000002393, -0.9750406091299629 
2.2200000000002604, -0.9753063995076549 
2.2300000000002815, -0.9760164714598913 
2.2400000000003026, -0.9771880476123563 
2.2500000000003237, -0.9787715392516272 
2.260000000000345, -0.9806695210103513 
2.270000000000366, -0.9827622199869073 
2.280000000000387, -0.9849262747918601 
2.290000000000408, -0.9870431765214471 
2.3000000000004293, -0.9890019031730256 
2.3100000000004504, -0.9907032299093149 
2.3200000000004715, -0.9920702412326052 
2.3300000000004926, -0.9930617498512413 
2.3400000000005137, -0.9936790009931613 
2.3500000000005348, -0.9939591619870092 
2.360000000000556, -0.9939595553680978 
2.370000000000577, -0.993743031339646 
2.380000000000598, -0.9933722578597972 
2.390000000000619, -0.9929144022689608 
2.4000000000006403, -0.9924526859532982 
2.4100000000006614, -0.9920971513262785 
2.4200000000006825, -0.9919832504987205 
2.4300000000007036, -0.9922488748235481 
2.4400000000007247, -0.9929943437056323 
2.450000000000746, -0.9942475232223865 
2.460000000000767, -0.9959564168620274 
2.470000000000788, -0.9980102618057908 
2.480000000000809, -1.000270978329681 
2.49000000000083, -1.0025972535098289 
2.5000000000008513, -1.0048559844238028 
2.5100000000008724, -1.0069263303805331 
2.5200000000008935, -1.0087048749506005 
2.5300000000009146, -1.0101164105441156 
2.5400000000009357, -1.011126258991761 
2.550000000000957, -1.0117443426286163 
2.560000000000978, -1.0120157698687053 
2.570000000000999, -1.0120034836475298 
2.58000000000102, -1.011773800920786 
2.5900000000010412, -1.0113919428446274 
2.6000000000010624, -1.0109281139018897 
2.6100000000010835, -1.010469707471654 
2.6200000000011046, -1.0101308440160044 
2.6300000000011257, -1.010047096266145 
2.6400000000011468, -1.010347648423689 
2.650000000001168, -1.0111140361743722 
2.660000000001189, -1.0123508574053504 
2.67000000000121, -1.0139875681431059 
2.680000000001231, -1.0159057415361226 
2.6900000000012523, -1.0179709057887938 
2.7000000000012734, -1.0200536092662396 
2.7100000000012945, -1.0220376045861435 
2.7200000000013156, -1.0238215038162686 
2.7300000000013367, -1.025321717518396 
2.740000000001358, -1.0264802968986502 
2.750000000001379, -1.0272739843836063 
2.7600000000014, -1.0277164935156091 
2.770000000001421, -1.0278502254340312 
2.780000000001442, -1.0277324062675137 
2.7900000000014633, -1.027424580118526 
2.8000000000014844, -1.0269909891731461 
2.8100000000015055, -1.0265053645463116 
2.8200000000015266, -1.02606030127524 
2.8300000000015477, -1.0257691243106355 
2.840000000001569, -1.0257503542731046 
2.85000000000159, -1.0260955032958685 
2.860000000001611, -1.0268376311483576 
2.870000000001632, -1.027941904730569 
2.8800000000016532, -1.0293222724174478 
2.8900000000016743, -1.030869684528093 
2.9000000000016954, -1.0324754657467055 
2.9100000000017165, -1.0340431981105598 
2.9200000000017377, -1.035491140831075 
2.9300000000017588, -1.036750830504277 
2.94000000000178, -1.0377673773054383 
2.950000000001801, -1.038503856108877 
2.960000000001822, -1.038947207864665 
2.970000000001843, -1.0391101642244194 
2.9800000000018643, -1.0390265350191532 
2.9900000000018854, -1.0387432028161314 
3.0000000000019065, -1.0383149133582157 
3.0100000000019276, -1.0378052039516314 
3.0200000000019487, -1.0372913509481188 
3.03000000000197, -1.0368662068528962 
3.040000000001991, -1.0366285429116098 
3.050000000002012, -1.0366601784366938 
3.060000000002033, -1.0370007470041134 
3.070000000002054, -1.0376363750165618 
3.0800000000020753, -1.038508384484326 
3.0900000000020964, -1.039533781397969 
3.1000000000021175, -1.0406254239960806 
3.1100000000021386, -1.0417050640299084 
3.1200000000021597, -1.0427083725598696 
3.130000000002181, -1.0435843022451852 
3.140000000002202, -1.0442923983258823 
3.150000000002223, -1.0448015214330053 
3.160000000002244, -1.0450916743504015 
3.1700000000022652, -1.0451576065415196 
3.1800000000022863, -1.045010917527847 
3.1900000000023074, -1.0446788600073624 
3.2000000000023285, -1.0442015791005173 
3.2100000000023496, -1.0436309673643884 
3.2200000000023707, -1.0430318063788575 
3.230000000002392, -1.0424815034123829 
3.240000000002413, -1.0420626370545938 
3.250000000002434, -1.0418464008704538 
3.260000000002455, -1.0418734940781773 
3.2700000000024763, -1.0421433860204077 
3.2800000000024974, -1.042617322179502 
3.2900000000025185, -1.0432314371478513 
3.3000000000025396, -1.0439127291937838 
3.3100000000025607, -1.044592243416567 
3.3200000000025818, -1.0452127301443932 
3.330000000002603, -1.0457307618559109 
3.340000000002624, -1.046115131300759 
3.350000000002645, -1.0463439285269944 
3.360000000002666, -1.046402467174286 
3.3700000000026873, -1.0462833972051389 
3.3800000000027084, -1.0459887331519133 
3.3900000000027295, -1.045532135293432 
3.4000000000027506, -1.0449401606476432 
3.4100000000027717, -1.0442527763757226 
3.420000000002793, -1.0435236866358661 
3.430000000002814, -1.0428190339767989 
3.440000000002835, -1.0422112103366898 
3.450000000002856, -1.0417662578644074 
3.460000000002877, -1.041528482204595 
3.4700000000028983, -1.0415092783282194 
3.4800000000029194, -1.0416850204119457 
3.4900000000029405, -1.042004116528649 
3.5000000000029616, -1.0423999341790215 
3.5100000000029827, -1.0428045975768474 
3.520000000003004, -1.0431590253676126 
3.530000000003025, -1.0434174898589006 
3.540000000003046, -1.0435480376745674 
3.550000000003067, -1.0435308467599669 
3.5600000000030882, -1.0433557747010531 
3.5700000000031094, -1.0430200051769773 
3.5800000000031305, -1.0425269436129614 
3.5900000000031516, -1.041887051576735 
3.6000000000031727, -1.0411201026630836 
3.6100000000031938, -1.040257702918909 
3.620000000003215, -1.039345050274101 
3.630000000003236, -1.038440634843716 
3.640000000003257, -1.0376118739754139 
3.650000000003278, -1.0369253618389194 
3.6600000000032993, -1.0364332981017215 
3.6700000000033204, -1.0361605290677462 
3.6800000000033415, -1.0360971864725717 
3.6900000000033626, -1.0362003866515184 
3.7000000000033837, -1.0364050836253111 
3.710000000003405, -1.036639357319522 
3.720000000003426, -1.0368371456278684 
3.730000000003447, -1.03694466092905 
3.740000000003468, -1.0369218502699908 
3.750000000003489, -1.0367421148764322 
3.7600000000035103, -1.0363917736299182 
3.7700000000035314, -1.0358687486678606 
3.7800000000035525, -1.0351801541647088 
3.7900000000035736, -1.0343400660785196 
3.8000000000035947, -1.0333691967867296 
3.810000000003616, -1.0322968117549127 
3.820000000003637, -1.0311635986670695 
3.830000000003658, -1.0300234239753945 
3.840000000003679, -1.0289417290700063 
3.8500000000037002, -1.0279887807132218 
3.8600000000037213, -1.0272276732794523 
3.8700000000037424, -1.026699556850634 
3.8800000000037635, -1.026411033977039 
3.8900000000037847, -1.0263299173187541 
3.9000000000038058, -1.0263930942285944 
3.910000000003827, -1.0265231843086287 
3.920000000003848, -1.0266449254790688 
3.930000000003869, -1.0266943208753219 
3.94000000000389, -1.0266206700003537 
3.9500000000039113, -1.0263860218456557 
3.9600000000039324, -1.0259656092192768 
3.9700000000039535, -1.0253492075714152 
3.9800000000039746, -1.0245410959276062 
3.9900000000039957, -1.0235574461345447 
4.000000000004016, -1.0224228638261665 
4.010000000003993, -1.0211688586490604 
4.02000000000397, -1.0198352085314317 
4.030000000003946, -1.0184726890494142 
4.040000000003923, -1.0171443574269763 
4.0500000000039, -1.0159226182324956 
4.0600000000038765, -1.014880368212625 
4.070000000003853, -1.0140766480841343 
4.08000000000383, -1.0135403894726442 
4.090000000003807, -1.0132592288765578 
4.100000000003783, -1.0131807149667855 
4.11000000000376, -1.0132269194692733 
4.120000000003737, -1.0133142193267752 
4.130000000003713, -1.0133676370453846 
4.14000000000369, -1.013325763596663 
4.150000000003667, -1.0131398814874324 
4.1600000000036434, -1.0127729812481792 
4.17000000000362, -1.012201449263841 
4.180000000003597, -1.0114179458023933 
4.1900000000035735, -1.0104319972655555 
4.20000000000355, -1.009266845573134 
4.210000000003527, -1.0079548755279932 
4.220000000003504, -1.0065351762646086 
4.23000000000348, -1.0050544781668642 
4.240000000003457, -1.0035696548989175 
4.250000000003434, -1.0021485341044452 
4.26000000000341, -1.0008660209856486 
4.270000000003387, -0.9997939765391726 
4.280000000003364, -0.9989858415884478 
4.2900000000033405, -0.9984606545069153 
4.300000000003317, -0.9981943541427946 
4.310000000003294, -0.9981248963838307 
4.320000000003271, -0.9981695750425352 
4.330000000003247, -0.9982445702437548 
4.340000000003224, -0.9982770962435419 
4.350000000003201, -0.9982083116070651 
4.360000000003177, -0.9979916986421253 
4.370000000003154, -0.9975923576113747 
4.380000000003131, -0.996989210584414 
4.390000000003107, -0.9961779775028445 
4.400000000003084, -0.9951712869735448 
4.410000000003061, -0.9939948317881392 
4.4200000000030375, -0.9926823647029156 
4.430000000003014, -0.9912732072632426 
4.440000000002991, -0.9898132844407218 
4.450000000002968, -0.9883576453385933 
4.460000000002944, -0.9869712107687546 
4.470000000002921, -0.9857249680390046 
4.480000000002898, -0.9846863716130494 
4.490000000002874, -0.9839051507283927 
4.500000000002851, -0.9833988907016661 
4.510000000002828, -0.9831452829545941 
4.520000000002804, -0.9830865940166273 
4.530000000002781, -0.9831450740857939 
4.540000000002758, -0.983240865034432 
4.5500000000027345, -0.9833038661628557 
4.560000000002711, -0.9832774498387977 
4.570000000002688, -0.9831177696256725 
4.580000000002665, -0.9827933138239381 
4.590000000002641, -0.9822863922748883 
4.600000000002618, -0.9815947055427662 
4.610000000002595, -0.9807301868100005 
4.620000000002571, -0.9797148304324157 
4.630000000002548, -0.978576359635646 
4.640000000002525, -0.9773467346422867 
4.6500000000025015, -0.9760638620656537 
4.660000000002478, -0.9747744035372776 
4.670000000002455, -0.973534864399196 
4.6800000000024315, -0.9724086839860068 
4.690000000002408, -0.9714583219669578 
4.700000000002385, -0.9707333217673287 
4.710000000002362, -0.9702576864014849 
4.720000000002338, -0.970021667453857 
4.730000000002315, -0.9699826211827647 
4.740000000002292, -0.9700755399619101 
4.750000000002268, -0.9702281891276083 
4.760000000002245, -0.9703736748504816 
4.770000000002222, -0.970456760877091 
4.7800000000021985, -0.9704353035168483 
4.790000000002175, -0.9702801574561766 
4.800000000002152, -0.9699752952341546 
4.810000000002129, -0.9695173406532451 
4.820000000002105, -0.9689131505632853 
4.830000000002082, -0.9681760085213977 
4.840000000002059, -0.9673228747920625 
4.850000000002035, -0.966374519479607 
4.860000000002012, -0.96535808319831 
4.870000000001989, -0.9643101083242028 
4.880000000001965, -0.9632780105977543 
4.890000000001942, -0.9623183359424567 
4.900000000001919, -0.9614907062067578 
4.9100000000018955, -0.9608477872911683 
4.920000000001872, -0.9604237806072049 
4.930000000001849, -0.9602254687543859 
