t, s[1].omega / s[0].omega 
0, -0.20000079435538934 
0.009999999999999995, -0.20018107175232674 
0.019999999999999934, -0.20054349536438565 
0.029999999999999874, -0.20103611575922192 
0.04000000000000012, -0.2015805707306757 
0.050000000000000405, -0.20209130149835816 
0.06000000000000069, -0.20249789677788782 
0.07000000000000098, -0.20275778881688794 
0.08000000000000126, -0.2028540709481339 
0.09000000000000155, -0.20278366173955686 
0.10000000000000184, -0.20254372267689463 
0.11000000000000212, -0.20212040488895378 
0.12000000000000241, -0.2014801769018268 
0.130000000000002, -0.20056345486332955 
0.1400000000000009, -0.1992833810932096 
0.1499999999999998, -0.1975387632553666 
0.1599999999999987, -0.19525457857308615 
0.1699999999999976, -0.1924509183379135 
0.1799999999999965, -0.1892997243198778 
0.1899999999999954, -0.18609898349605208 
0.1999999999999943, -0.1831544513348803 
0.2099999999999932, -0.18066210491505355 
0.2199999999999921, -0.17867662760337696 
0.229999999999991, -0.17715266110859068 
0.2399999999999899, -0.17600052579623515 
0.2499999999999888, -0.17512387136682667 
0.2599999999999877, -0.1744375365222455 
0.2699999999999866, -0.17387356132240223 
0.2799999999999855, -0.17338136101608254 
0.2899999999999844, -0.17292495579390615 
0.2999999999999833, -0.17247863437250704 
0.3099999999999822, -0.1720216615051288 
0.3199999999999811, -0.17153158601588478 
0.32999999999998, -0.17097378024180507 
0.3399999999999789, -0.17028121798176007 
0.3499999999999778, -0.16931188967056376 
0.35999999999997667, -0.1677631506638681 
0.36999999999997557, -0.16503322550773739 
0.37999999999997447, -0.16012696188062864 
0.38999999999997337, -0.1519798505277571 
0.39999999999997227, -0.1405499308896755 
0.40999999999997117, -0.12767171434565444 
0.41999999999997006, -0.11593754553928289 
0.42999999999996896, -0.10681992990633578 
0.43999999999996786, -0.10036412759689653 
0.44999999999996676, -0.09596816999934148 
0.45999999999996566, -0.09298896023663085 
0.46999999999996456, -0.09094207009576583 
0.47999999999996346, -0.08950558893465789 
0.48999999999996235, -0.08847688824342634 
0.49999999999996125, -0.08773320793968264 
0.5099999999999602, -0.08720525897114738 
0.519999999999959, -0.08686211766418804 
0.529999999999958, -0.08670466135387708 
0.5399999999999568, -0.08676580122153911 
0.5499999999999557, -0.08711620858651418 
0.5599999999999546, -0.08787159299246153 
0.5699999999999535, -0.08918453347711136 
0.5799999999999524, -0.09116009557463142 
0.5899999999999513, -0.09353050791202908 
0.5999999999999502, -0.09486557676247746 
0.6099999999999491, -0.09184797056566715 
0.619999999999948, -0.0812504698726991 
0.6299999999999469, -0.06478821803670416 
0.6399999999999458, -0.048384047627114055 
0.6499999999999447, -0.0359020741724707 
0.6599999999999436, -0.027595469063120888 
0.6699999999999425, -0.022314359402561608 
0.6799999999999414, -0.01895489471266377 
0.6899999999999403, -0.01677591752442978 
0.6999999999999392, -0.015332217898762771 
0.7099999999999381, -0.01436742045352917 
0.719999999999937, -0.013739828912397533 
0.7299999999999359, -0.0133804685629328 
0.7399999999999348, -0.013273084893620132 
0.7499999999999337, -0.01344940311499401 
0.7599999999999326, -0.013997133634507266 
0.7699999999999315, -0.01508018647620695 
0.7799999999999304, -0.01696523110400666 
0.7899999999999293, -0.02001592889107561 
0.7999999999999282, -0.024497733370528234 
0.8099999999999271, -0.02978560897591368 
0.819999999999926, -0.03278281777281949 
0.8299999999999249, -0.028172180152666527 
0.8399999999999238, -0.014623212760517867 
0.8499999999999227, 0.0017384558247510993 
0.8599999999999216, 0.014636200927965855 
0.8699999999999205, 0.0231581436189292 
0.8799999999999194, 0.028347906287798024 
0.8899999999999183, 0.03142581384625956 
0.8999999999999172, 0.033228019103197295 
0.9099999999999161, 0.03425119158728986 
0.919999999999915, 0.03477642712589678 
0.9299999999999139, 0.03495674056566068 
0.9399999999999128, 0.03486608609374801 
0.9499999999999117, 0.03452275509052875 
0.9599999999999106, 0.033895933420696155 
0.9699999999999095, 0.032899664203530514 
0.9799999999999084, 0.0313780082429859 
0.9899999999999073, 0.029097354312873146 
0.9999999999999062, 0.025816031421932877 
1.0099999999999052, 0.021660572561020938 
1.019999999999904, 0.018211627257701122 
1.029999999999903, 0.019671633170953655 
1.039999999999902, 0.030021770658575475 
1.0499999999999008, 0.04639417414554307 
1.0599999999998997, 0.061630071336549096 
1.0699999999998986, 0.07229935336447056 
1.0799999999998975, 0.07886989758108999 
1.0899999999998964, 0.08274136040498557 
1.0999999999998953, 0.0849957167150436 
1.1099999999998942, 0.08629189159567804 
1.119999999999893, 0.08700481315692402 
1.129999999999892, 0.08734375884553644 
1.1399999999998909, 0.08742271323292997 
1.1499999999998898, 0.08729816039968379 
1.1599999999998887, 0.08698869958656466 
1.1699999999998876, 0.08648650891863637 
1.1799999999998865, 0.08577164506781998 
1.1899999999998854, 0.08485284197966991 
1.1999999999998843, 0.08389508603748236 
1.2099999999998832, 0.08354839274195437 
1.219999999999882, 0.08546655258951723 
1.229999999999881, 0.09208444959503852 
1.2399999999998799, 0.10397487522996729 
1.2499999999998788, 0.11762690911833765 
1.2599999999998777, 0.12886800711985114 
1.2699999999998766, 0.136427964348399 
1.2799999999998755, 0.14104069125358118 
1.2899999999998744, 0.1437491025268346 
1.2999999999998733, 0.14531153573361877 
1.3099999999998722, 0.14619303950866938 
1.319999999999871, 0.1466674461954524 
1.32999999999987, 0.14689798020713768 
1.3399999999998689, 0.14698640320630335 
1.3499999999998678, 0.14700251572841247 
1.3599999999998666, 0.1470048022871204 
1.3699999999998655, 0.1470603924700496 
1.3799999999998644, 0.14727171708075443 
1.3899999999998633, 0.14781572637147436 
1.3999999999998622, 0.1489884532584202 
1.4099999999998611, 0.15119998977486598 
1.41999999999986, 0.15479159162424724 
1.429999999999859, 0.15963625338846524 
1.4399999999998578, 0.16493113515678753 
1.4499999999998567, 0.16965831585401647 
1.4599999999998556, 0.17323871313675354 
1.4699999999998545, 0.17564270604664595 
1.4799999999998534, 0.17710963615193104 
1.4899999999998523, 0.17791044617992074 
1.4999999999998512, 0.17826107866917007 
1.5099999999998501, 0.17831797798375262 
1.519999999999849, 0.17819515255435778 
1.529999999999848, 0.17797895347463882 
1.5399999999998468, 0.17773657659937203 
1.5499999999998457, 0.1775210810549763 
1.5599999999998446, 0.1773760766310443 
1.5699999999998435, 0.1773410834364828 
1.5799999999998424, 0.1774562421421932 
1.5899999999998413, 0.1777632377016414 
1.5999999999998402, 0.17829803280061507 
1.6099999999998391, 0.1790721499001667 
1.619999999999838, 0.18004709859542664 
1.629999999999837, 0.18112045726967302 
1.6399999999998358, 0.1821449800461581 
1.6499999999998347, 0.1829762797738544 
1.6599999999998336, 0.18351415567286797 
1.6699999999998325, 0.18371068770024496 
1.6799999999998314, 0.18355288755425683 
1.6899999999998303, 0.18304457426566206 
1.6999999999998292, 0.18220377610194607 
1.709999999999828, 0.18107627427425826 
1.719999999999827, 0.17975139498034792 
1.729999999999826, 0.17835832131492005 
1.7399999999998248, 0.17703342708486652 
1.7499999999998237, 0.17587820354970313 
1.7599999999998226, 0.1749384089225624 
1.7699999999998215, 0.17421250001439031 
1.7799999999998204, 0.1736732312209966 
1.7899999999998193, 0.17328528387545805 
1.7999999999998182, 0.17301303008177266 
1.809999999999817, 0.1728203666327484 
1.819999999999816, 0.17266652493610185 
1.8299999999998149, 0.17250115397308213 
1.8399999999998138, 0.1722605226153841 
1.8499999999998127, 0.1718644170432343 
1.8599999999998116, 0.1712108901761328 
1.8699999999998105, 0.17016582661654783 
1.8799999999998094, 0.16854958328894873 
1.8899999999998083, 0.16613789198646448 
1.8999999999998072, 0.16272097146531164 
1.909999999999806, 0.1582756130959157 
1.919999999999805, 0.15319650899049572 
1.9299999999998039, 0.14828751478813723 
1.9399999999998028, 0.14430760066000548 
1.9499999999998017, 0.14151794405094703 
1.9599999999998006, 0.1397245377421663 
1.9699999999997995, 0.13859040734270783 
1.9799999999997984, 0.13783625937684202 
1.9899999999997973, 0.13728051835022465 
1.9999999999997962, 0.13681320428969523 
2.0099999999998173, 0.1363628527478239 
2.0199999999998384, 0.13587154655931666 
2.0299999999998595, 0.1352763068612091 
2.0399999999998806, 0.1344915833084336 
2.0499999999999017, 0.13338673344402738 
2.059999999999923, 0.13175073768722947 
2.069999999999944, 0.12923529553595187 
2.079999999999965, 0.12527811321013566 
2.089999999999986, 0.11907177636325719 
2.100000000000007, 0.10984023097718773 
2.1100000000000283, 0.09786329623698707 
2.1200000000000494, 0.08567472915400179 
2.1300000000000705, 0.07673699984767116 
2.1400000000000916, 0.0721322637859845 
2.1500000000001127, 0.0704597007236754 
2.160000000000134, 0.07008002928025509 
2.170000000000155, 0.07008235903563526 
2.180000000000176, 0.07010696221987334 
2.190000000000197, 0.07004127554138082 
2.2000000000002182, 0.06985637194583502 
2.2100000000002393, 0.0695404250772189 
2.2200000000002604, 0.06907254412651839 
2.2300000000002815, 0.06840845665495535 
2.2400000000003026, 0.06746494360999487 
2.2500000000003237, 0.06609438324171112 
2.260000000000345, 0.06403938002920938 
2.270000000000366, 0.06085466266958968 
2.280000000000387, 0.05579385034501716 
2.290000000000408, 0.04774158804825847 
2.3000000000004293, 0.03557246660936568 
2.3100000000004504, 0.019705124777626183 
2.3200000000004715, 0.0041182766458612895 
2.3300000000004926, -0.005602548673014933 
2.3400000000005137, -0.008648242503852212 
2.3500000000005348, -0.008073578584418963 
2.360000000000556, -0.006483730561377815 
2.370000000000577, -0.004988277531852854 
2.380000000000598, -0.0038493800276511447 
2.390000000000619, -0.0030485912950207468 
2.4000000000006403, -0.0025164733687705696 
2.4100000000006614, -0.0021986862372349444 
2.4200000000006825, -0.0020693957498680634 
2.4300000000007036, -0.0021333311955224424 
2.4400000000007247, -0.0024297745433797526 
2.450000000000746, -0.0030438435623324576 
2.460000000000767, -0.004130008326269209 
2.470000000000788, -0.005955148270984678 
2.480000000000809, -0.00896950162266867 
2.49000000000083, -0.013898595826045945 
2.5000000000008513, -0.021765551315341518 
2.5100000000008724, -0.0335049222868565 
2.5200000000008935, -0.04862600583606343 
2.5300000000009146, -0.06371684672351227 
2.5400000000009357, -0.07427251677828393 
2.550000000000957, -0.07905632158377182 
2.560000000000978, -0.08011671884752375 
2.570000000000999, -0.07969006509458951 
2.58000000000102, -0.07893884557851898 
2.5900000000010412, -0.0782662347703047 
2.6000000000010624, -0.07775946846902224 
2.6100000000010835, -0.07741087781286786 
2.6200000000011046, -0.07719789898249738 
2.6300000000011257, -0.07710723729913778 
2.6400000000011468, -0.07714177021814453 
2.650000000001168, -0.0773242835399974 
2.660000000001189, -0.07770313056029282 
2.67000000000121, -0.07836232150723058 
2.680000000001231, -0.07943819915106305 
2.6900000000012523, -0.08114444735177764 
2.7000000000012734, -0.08380286046042254 
2.7100000000012945, -0.08785911528507548 
2.7200000000013156, -0.09381359755901006 
2.7300000000013367, -0.10193068285053737 
2.740000000001358, -0.11168935650800464 
2.750000000001379, -0.1214998756154064 
2.7600000000014, -0.12951629996598796 
2.770000000001421, -0.13492353232374374 
2.780000000001442, -0.1380936317404925 
2.7900000000014633, -0.13981017037811486 
2.8000000000014844, -0.14070898755789044 
2.8100000000015055, -0.1411729860375712 
2.8200000000015266, -0.14140599310555796 
2.8300000000015477, -0.1415130043170672 
2.840000000001569, -0.1415501147572817 
2.85000000000159, -0.1415513950343768 
2.860000000001611, -0.14154353616364831 
2.870000000001632, -0.14155493346636167 
2.8800000000016532, -0.1416223379239662 
2.8900000000016743, -0.14179603408006 
2.9000000000016954, -0.14214334749420027 
2.9100000000017165, -0.14274964183230218 
2.9200000000017377, -0.14371468649598984 
2.9300000000017588, -0.14513895738503108 
2.94000000000178, -0.14709057579755913 
2.950000000001801, -0.1495487370931313 
2.960000000001822, -0.15234794207299265 
2.970000000001843, -0.15518526189374499 
2.9800000000018643, -0.15772911842599263 
2.9900000000018854, -0.1597597371226234 
3.0000000000019065, -0.16122424271080835 
3.0100000000019276, -0.16218865610278255 
3.0200000000019487, -0.16276043925199082 
3.03000000000197, -0.16303787491378924 
3.040000000001991, -0.1630920886725666 
3.050000000002012, -0.1629672545062038 
3.060000000002033, -0.16268750244707408 
3.070000000002054, -0.16226598633596337 
3.0800000000020753, -0.1617153341417898 
3.0900000000020964, -0.1610587861133977 
3.1000000000021175, -0.1603388537032281 
3.1100000000021386, -0.15961823253728968 
3.1200000000021597, -0.15897014851645158 
3.130000000002181, -0.15846222955175723 
3.140000000002202, -0.158142182354065 
3.150000000002223, -0.15802995193534317 
3.160000000002244, -0.1581150343027766 
3.1700000000022652, -0.15835694846190432 
3.1800000000022863, -0.15869070739925267 
3.1900000000023074, -0.1590399794918455 
3.2000000000023285, -0.1593348637797313 
3.2100000000023496, -0.15952531184108923 
3.2200000000023707, -0.15958351862154313 
3.230000000002392, -0.15949651082326338 
3.240000000002413, -0.15925472552670975 
3.250000000002434, -0.1588410553069525 
3.260000000002455, -0.15822178844325235 
3.2700000000024763, -0.157339930074856 
3.2800000000024974, -0.15611387589330314 
3.2900000000025185, -0.15444994661967534 
3.3000000000025396, -0.1522810788188241 
3.3100000000025607, -0.14963162376346334 
3.3200000000025818, -0.1466690882124293 
3.330000000002603, -0.14367720457997826 
3.340000000002624, -0.14094323497444744 
3.350000000002645, -0.13864842433333677 
3.360000000002666, -0.13684047167883623 
3.3700000000026873, -0.1354735725371822 
3.3800000000027084, -0.13446066366227805 
3.3900000000027295, -0.1337079925831501 
3.4000000000027506, -0.13313133112905143 
3.4100000000027717, -0.13266172062343182 
3.420000000002793, -0.13224610747741983 
3.430000000002814, -0.13184493039489423 
3.440000000002835, -0.1314274342730423 
3.450000000002856, -0.13096508003730262 
3.460000000002877, -0.13042255704493882 
3.4700000000028983, -0.12974412862238766 
3.4800000000029194, -0.12883041116569588 
3.4900000000029405, -0.1274984249293079 
3.5000000000029616, -0.12542292244977998 
3.5100000000029827, -0.12209273645651184 
3.520000000003004, -0.11691101855940181 
3.530000000003025, -0.10962160478498315 
3.540000000003046, -0.10087329326045144 
3.550000000003067, -0.09211566642231621 
3.5600000000030882, -0.08465303549006135 
3.5700000000031094, -0.07897753050603766 
3.5800000000031305, -0.07492551857336677 
3.5900000000031516, -0.07210088362520221 
3.6000000000031727, -0.07012785598933792 
3.6100000000031938, -0.0687244351344418 
3.620000000003215, -0.06769763157620419 
3.630000000003236, -0.06692066838820024 
3.640000000003257, -0.06631238098720009 
3.650000000003278, -0.06582236071304627 
3.6600000000032993, -0.06542074220242033 
3.6700000000033204, -0.06509056630634971 
3.6800000000033415, -0.06481968797031773 
3.6900000000033626, -0.06458605924200318 
3.7000000000033837, -0.06432174031429674 
3.710000000003405, -0.06382300468379135 
3.720000000003426, -0.06255556990803425 
3.730000000003447, -0.059376586929319394 
3.740000000003468, -0.052610173959235215 
3.750000000003489, -0.04140103190961612 
3.7600000000035103, -0.027587479148330263 
3.7700000000035314, -0.014684228628058033 
3.7800000000035525, -0.004832979653752656 
3.7900000000035736, 0.0017513470140570978 
3.8000000000035947, 0.005714798392881 
3.810000000003616, 0.008155073854196912 
3.820000000003637, 0.009638664065168613 
3.830000000003658, 0.010522754171414206 
3.840000000003679, 0.011024250831604706 
3.8500000000037002, 0.011273085048960454 
3.8600000000037213, 0.011345653302434172 
3.8700000000037424, 0.011284706599822374 
3.8800000000037635, 0.011111783568955808 
3.8900000000037847, 0.010837746077190496 
3.9000000000038058, 0.010479695013107273 
3.910000000003827, 0.010102474533209296 
3.920000000003848, 0.009925260822345735 
3.930000000003869, 0.010554257448323359 
3.94000000000389, 0.013291455361079837 
3.9500000000039113, 0.019913552217826303 
3.9600000000039324, 0.030917603606417855 
3.9700000000039535, 0.04381012437990046 
3.9800000000039746, 0.05506484419328883 
3.9900000000039957, 0.06311184403054357 
4.000000000004016, 0.06827616106198933 
4.010000000003993, 0.07143489736885862 
4.02000000000397, 0.07332733263664473 
4.030000000003946, 0.07444221336895925 
4.040000000003923, 0.07507916432876374 
4.0500000000039, 0.07541937775427308 
4.0600000000038765, 0.07557387263689738 
4.070000000003853, 0.07561321368569614 
4.08000000000383, 0.07558690984077072 
4.090000000003807, 0.07553959796357125 
4.100000000003783, 0.07553141135752858 
4.11000000000376, 0.07567323907916153 
4.120000000003737, 0.07619190643909418 
4.130000000003713, 0.07752891661265505 
4.14000000000369, 0.08039293032862249 
4.150000000003667, 0.08549142034116054 
4.1600000000036434, 0.09274051918651217 
4.17000000000362, 0.10076548383335929 
4.180000000003597, 0.10781878793198181 
4.1900000000035735, 0.11303162459486363 
4.20000000000355, 0.11648307230730803 
4.210000000003527, 0.11862175917862612 
4.220000000003504, 0.11988222666962252 
4.23000000000348, 0.12058093790708238 
4.240000000003457, 0.12092909775280822 
4.250000000003434, 0.12106639884165671 
4.26000000000341, 0.12108787241633749 
4.270000000003387, 0.12106192036055552 
4.280000000003364, 0.12104333929038105 
4.2900000000033405, 0.12108491001664554 
4.300000000003317, 0.1212499101543995 
4.310000000003294, 0.12162631599868193 
4.320000000003271, 0.12233937707595813 
4.330000000003247, 0.12354887668899248 
4.340000000003224, 0.12540239314504165 
4.350000000003201, 0.12792393221085 
4.360000000003177, 0.13089698420842885 
4.370000000003154, 0.13389277004358455 
4.380000000003131, 0.13648278678531608 
4.390000000003107, 0.1384350203506371 
4.400000000003084, 0.13973031070068115 
4.410000000003061, 0.1404652317209714 
4.4200000000030375, 0.14076452983255486 
4.430000000003014, 0.14074272895169074 
4.440000000002991, 0.1404983274028584 
4.450000000002968, 0.14011790307086563 
4.460000000002944, 0.13967800325484347 
4.470000000002921, 0.13924303558678489 
4.480000000002898, 0.13886293891244103 
4.490000000002874, 0.13857419729494722 
4.500000000002851, 0.1384042980138617 
4.510000000002828, 0.13837691979640449 
4.520000000002804, 0.13851434797979298 
4.530000000002781, 0.13883398475980985 
4.540000000002758, 0.13933730978362274 
4.5500000000027345, 0.1399940713639331 
4.560000000002711, 0.14073186000769583 
4.570000000002688, 0.14144389728919268 
4.580000000002665, 0.1420159971566233 
4.590000000002641, 0.14235526527970316 
4.600000000002618, 0.1424016944952197 
4.610000000002595, 0.14212203363372572 
4.620000000002571, 0.14150054748818275 
4.630000000002548, 0.14054086452982395 
4.640000000002525, 0.13928196134791615 
4.6500000000025015, 0.1378155705597466 
4.660000000002478, 0.13628138040932333 
4.670000000002455, 0.13482888184134045 
4.6800000000024315, 0.1335684830300133 
4.690000000002408, 0.13254778676027396 
4.700000000002385, 0.1317620613280565 
4.710000000002362, 0.13117953840869306 
4.720000000002338, 0.1307616940589303 
4.730000000002315, 0.130472168339733 
4.740000000002292, 0.13027677567272342 
4.750000000002268, 0.13013890414030332 
4.760000000002245, 0.13001386868777864 
4.770000000002222, 0.12984470111577143 
4.7800000000021985, 0.12956014065808102 
4.790000000002175, 0.12907311620968306 
4.800000000002152, 0.12827671402349303 
4.810000000002129, 0.1270375729433094 
4.820000000002105, 0.12519602633499502 
4.830000000002082, 0.12259768548558962 
4.840000000002059, 0.11918907448962439 
4.850000000002035, 0.11516340053232148 
4.860000000002012, 0.1110142521068465 
