t, s[1].omega / s[0].omega 
0, -1.100007500533762 
0.009999999999999995, -1.1006260861608075 
0.019999999999999934, -1.1009781226533804 
0.029999999999999874, -1.101068649798385 
0.04000000000000012, -1.1009207561477965 
0.050000000000000405, -1.1005720528567884 
0.06000000000000069, -1.1000713917180198 
0.07000000000000098, -1.0994787656225196 
0.08000000000000126, -1.0988671752692114 
0.09000000000000155, -1.0983205190648833 
0.10000000000000184, -1.097921526330167 
0.11000000000000212, -1.0977315022742251 
0.12000000000000241, -1.097772948427623 
0.130000000000002, -1.0980252809797044 
0.1400000000000009, -1.0984338193885494 
0.1499999999999998, -1.0989254903318137 
0.1599999999999987, -1.0994247953658185 
0.1699999999999976, -1.0998655306064313 
0.1799999999999965, -1.100196305724565 
0.1899999999999954, -1.1003810166552417 
0.1999999999999943, -1.100396842882761 
0.2099999999999932, -1.1002316869106088 
0.2199999999999921, -1.0998821309104143 
0.229999999999991, -1.0993527113048942 
0.2399999999999899, -1.098656840583172 
0.2499999999999888, -1.0978189366475841 
0.2599999999999877, -1.096876929691478 
0.2699999999999866, -1.095884027513288 
0.2799999999999855, -1.094907723555595 
0.2899999999999844, -1.0940235340926665 
0.2999999999999833, -1.0933026659536327 
0.3099999999999822, -1.0927960049561778 
0.3199999999999811, -1.0925192160319663 
0.32999999999998, -1.0924453696219718 
0.3399999999999789, -1.0925108842813853 
0.3499999999999778, -1.0926333949967366 
0.35999999999997667, -1.0927310929162806 
0.36999999999997557, -1.0927335935848783 
0.37999999999997447, -1.092583612346094 
0.38999999999997337, -1.0922354254742825 
0.39999999999997227, -1.0916553514669012 
0.40999999999997117, -1.090824790749258 
0.41999999999997006, -1.0897428093232002 
0.42999999999996896, -1.0884257751213176 
0.43999999999996786, -1.0869050143711037 
0.44999999999996676, -1.085225649963666 
0.45999999999996566, -1.0834484031156308 
0.46999999999996456, -1.0816528758444484 
0.47999999999996346, -1.0799381534725703 
0.48999999999996235, -1.0784153202706055 
0.49999999999996125, -1.077187433705036 
0.5099999999999602, -1.0763186324250624 
0.519999999999959, -1.075806488731455 
0.529999999999958, -1.075578775799992 
0.5399999999999568, -1.0755207851851096 
0.5499999999999557, -1.0755131634703066 
0.5599999999999546, -1.0754549453830557 
0.5699999999999535, -1.0752649367094498 
0.5799999999999524, -1.0748712713246367 
0.5899999999999513, -1.0742017297937978 
0.5999999999999502, -1.0731829856448423 
0.6099999999999491, -1.0717513266200203 
0.619999999999948, -1.0698707403415189 
0.6299999999999469, -1.0675485755606196 
0.6399999999999458, -1.064840451252381 
0.6499999999999447, -1.0618453174424478 
0.6599999999999436, -1.0586986634153095 
0.6699999999999425, -1.0555686530501909 
0.6799999999999414, -1.0526499275555192 
0.6899999999999403, -1.0501422942784495 
0.6999999999999392, -1.0482057244583087 
0.7099999999999381, -1.046904492766347 
0.719999999999937, -1.046178040548542 
0.7299999999999359, -1.0458682102988086 
0.7399999999999348, -1.0457856655426248 
0.7499999999999337, -1.0457669059642636 
0.7599999999999326, -1.0456931317499714 
0.7699999999999315, -1.0454780682884892 
0.7799999999999304, -1.0450448090937061 
0.7899999999999293, -1.0443057876731905 
0.7999999999999282, -1.0431532989952472 
0.8099999999999271, -1.0414663134708662 
0.819999999999926, -1.0391370885133635 
0.8299999999999249, -1.0361115519418453 
0.8399999999999238, -1.0324245736589286 
0.8499999999999227, -1.0282110643838998 
0.8599999999999216, -1.0236915932543915 
0.8699999999999205, -1.0191464220551678 
0.8799999999999194, -1.014886135972412 
0.8899999999999183, -1.011210964433263 
0.8999999999999172, -1.0083493071612502 
0.9099999999999161, -1.0063902135672813 
0.919999999999915, -1.005253381395385 
0.9299999999999139, -1.0047294730779437 
0.9399999999999128, -1.0045682045355784 
0.9499999999999117, -1.004554777896735 
0.9599999999999106, -1.004538439105854 
0.9699999999999095, -1.0044206969735876 
0.9799999999999084, -1.0041278171397972 
0.9899999999999073, -1.003584701699054 
0.9999999999999062, -1.0026971916579999 
1.0099999999999052, -1.0013470750560276 
1.019999999999904, -0.9994056562474384 
1.029999999999903, -0.9967691139538525 
1.039999999999902, -0.9934058350600704 
1.0499999999999008, -0.9893907728486582 
1.0599999999998997, -0.9849056339767056 
1.0699999999998986, -0.9802086566583638 
1.0799999999998975, -0.975595172951359 
1.0899999999998964, -0.9713615056837602 
1.0999999999998953, -0.9677671281460702 
1.1099999999998942, -0.9649882239266901 
1.119999999999893, -0.9630738908954799 
1.129999999999892, -0.9619338974859148 
1.1399999999998909, -0.9613764556460394 
1.1499999999998898, -0.9611778007302231 
1.1599999999998887, -0.9611424088993596 
1.1699999999998876, -0.9611278831800627 
1.1799999999998865, -0.9610382568029383 
1.1899999999998854, -0.9608033088942218 
1.1999999999998843, -0.960358106972152 
1.2099999999998832, -0.9596299976092906 
1.219999999999882, -0.9585371147022934 
1.229999999999881, -0.9570013430341838 
1.2399999999998799, -0.9549739563145832 
1.2499999999998788, -0.9524623681422917 
1.2599999999998777, -0.9495408428525913 
1.2699999999998766, -0.9463377697320657 
1.2799999999998755, -0.9430100271057824 
1.2899999999998744, -0.9397209575621905 
1.2999999999998733, -0.936628328470453 
1.3099999999998722, -0.9338765542701296 
1.319999999999871, -0.9315844016164669 
1.32999999999987, -0.9298254838135056 
1.3399999999998689, -0.9286089746629219 
1.3499999999998678, -0.9278742601409944 
1.3599999999998666, -0.9275078137140458 
1.3699999999998655, -0.927375425725485 
1.3799999999998644, -0.9273524709464238 
1.3899999999998633, -0.9273392475915807 
1.3999999999998622, -0.9272607667241461 
1.4099999999998611, -0.9270585334551866 
1.41999999999986, -0.9266826133199005 
1.429999999999859, -0.9260893856985686 
1.4399999999998578, -0.9252466054094179 
1.4499999999998567, -0.9241428255273985 
1.4599999999998556, -0.9227942243141269 
1.4699999999998545, -0.9212426533271417 
1.4799999999998534, -0.9195455648551831 
1.4899999999998523, -0.9177649034828772 
1.4999999999998512, -0.9159613576205915 
1.5099999999998501, -0.9141945972507217 
1.519999999999849, -0.9125256758922573 
1.529999999999848, -0.9110172052920834 
1.5399999999998468, -0.9097287780205168 
1.5499999999998457, -0.90870772508226 
1.5599999999998446, -0.9079779826516695 
1.5699999999998435, -0.9075319149937959 
1.5799999999998424, -0.9073298667139372 
1.5899999999998413, -0.9073087809010252 
1.5999999999998402, -0.9073960793727247 
1.6099999999998391, -0.9075224134216701 
1.619999999999838, -0.9076290583961679 
1.629999999999837, -0.907670123414189 
1.6399999999998358, -0.9076124297281035 
1.6499999999998347, -0.9074354293543365 
1.6599999999998336, -0.9071311951359682 
1.6699999999998325, -0.906702825656869 
1.6799999999998314, -0.9061604588336575 
1.6899999999998303, -0.9055166701006169 
1.6999999999998292, -0.9047842256950034 
1.709999999999828, -0.9039774226205621 
1.719999999999827, -0.903115624546278 
1.729999999999826, -0.9022266994884781 
1.7399999999998248, -0.9013488245020114 
1.7499999999998237, -0.9005298278511372 
1.7599999999998226, -0.8998233068195004 
1.7699999999998215, -0.8992812142370562 
1.7799999999998204, -0.8989441983691802 
1.7899999999998193, -0.8988327901572009 
1.7999999999998182, -0.8989428665137533 
1.809999999999817, -0.8992471636420097 
1.819999999999816, -0.8997020522347541 
1.8299999999998149, -0.9002567952602133 
1.8399999999998138, -0.9008620120862139 
1.8499999999998127, -0.9014750708690503 
1.8599999999998116, -0.9020617034645216 
1.8699999999998105, -0.9025943409169045 
1.8799999999998094, -0.9030485339180594 
1.8899999999998083, -0.9033997910632339 
1.8999999999998072, -0.9036235761821043 
1.909999999999806, -0.9036995618182166 
1.919999999999805, -0.9036178791040073 
1.9299999999998039, -0.9033832866417397 
1.9399999999998028, -0.9030153002642709 
1.9499999999998017, -0.90254614798906 
1.9599999999998006, -0.9020198309987142 
1.9699999999997995, -0.9014935903027395 
1.9799999999997984, -0.901039739707808 
1.9899999999997973, -0.9007435100403928 
1.9999999999997962, -0.9006931966492004 
2.0099999999998173, -0.9009633652631346 
2.0199999999998384, -0.9015976852059806 
2.0299999999998595, -0.9025997457258008 
2.0399999999998806, -0.9039354961178144 
2.0499999999999017, -0.9055438905324342 
2.059999999999923, -0.9073487809446028 
2.069999999999944, -0.9092665100901073 
2.079999999999965, -0.9112077448522771 
2.089999999999986, -0.9130765985864675 
2.100000000000007, -0.9147732793857111 
2.1100000000000283, -0.9162056049221011 
2.1200000000000494, -0.9173076302686203 
2.1300000000000705, -0.918054765225954 
2.1400000000000916, -0.918464529494986 
2.1500000000001127, -0.9185830070052379 
2.160000000000134, -0.9184673743917369 
2.170000000000155, -0.9181749272526372 
2.180000000000176, -0.9177627332668632 
2.190000000000197, -0.9172970081291776 
2.2000000000002182, -0.9168688183477322 
2.2100000000002393, -0.9166097202728783 
2.2200000000002604, -0.9166963202588828 
2.2300000000002815, -0.917331293229984 
2.2400000000003026, -0.9186980663481872 
2.2500000000003237, -0.920905697346002 
2.260000000000345, -0.9239515024792221 
2.270000000000366, -0.927716888950793 
2.280000000000387, -0.9319886384678264 
2.290000000000408, -0.9364884214266336 
2.3000000000004293, -0.9409038081159533 
2.3100000000004504, -0.9449282480559296 
2.3200000000004715, -0.948315353713707 
2.3300000000004926, -0.9509311133957039 
2.3400000000005137, -0.952771814810529 
2.3500000000005348, -0.9539337507259222 
2.360000000000556, -0.9545569567998677 
2.370000000000577, -0.9547771218443275 
2.380000000000598, -0.9547022215241124 
2.390000000000619, -0.9544112402605178 
2.4000000000006403, -0.9539671383764803 
2.4100000000006614, -0.953440074768721 
2.4200000000006825, -0.952940451698761 
2.4300000000007036, -0.9526578779797085 
2.4400000000007247, -0.95288837489899 
2.450000000000746, -0.9540156243625224 
2.460000000000767, -0.9564184532725403 
2.470000000000788, -0.9603255994849631 
2.480000000000809, -0.9656943492585206 
2.49000000000083, -0.9721835111817718 
2.5000000000008513, -0.9792261396376167 
2.5100000000008724, -0.9861603789572216 
2.5200000000008935, -0.9923789044467402 
2.5300000000009146, -0.9974638275260853 
2.5400000000009357, -1.001260442675329 
2.550000000000957, -1.003853277629824 
2.560000000000978, -1.0054657882375717 
2.570000000000999, -1.0063508496446911 
2.58000000000102, -1.006722548401474 
2.5900000000010412, -1.0067349633621476 
2.6000000000010624, -1.0064899713680533 
2.6100000000010835, -1.0060584254976805 
2.6200000000011046, -1.0055098546909826 
2.6300000000011257, -1.0049528465469122 
2.6400000000011468, -1.004584795024272 
2.650000000001168, -1.0047303260478087 
2.660000000001189, -1.0058204990371953 
2.67000000000121, -1.0082705380171524 
2.680000000001231, -1.0122904791847032 
2.6900000000012523, -1.0177499652754352 
2.7000000000012734, -1.0241924805448455 
2.7100000000012945, -1.030974142932398 
2.7200000000013156, -1.037436100898105 
2.7300000000013367, -1.0430487361179248 
2.740000000001358, -1.0475044637772344 
2.750000000001379, -1.050741037382583 
2.7600000000014, -1.0528887037702799 
2.770000000001421, -1.054172566061528 
2.780000000001442, -1.0548232916878086 
2.7900000000014633, -1.0550281237333183 
2.8000000000014844, -1.0549206633642227 
2.8100000000015055, -1.054593972899158 
2.8200000000015266, -1.0541258783512322 
2.8300000000015477, -1.0536128779140692 
2.840000000001569, -1.0532085007659724 
2.85000000000159, -1.053148155951628 
2.860000000001611, -1.0537251101780432 
2.870000000001632, -1.0551959543518619 
2.8800000000016532, -1.0576584781958558 
2.8900000000016743, -1.0609935275325726 
2.9000000000016954, -1.0649120288045801 
2.9100000000017165, -1.0690560693501485 
2.9200000000017377, -1.0730837526416765 
2.9300000000017588, -1.076715127853047 
2.94000000000178, -1.0797542336668815 
2.950000000001801, -1.0821017292088286 
2.960000000001822, -1.0837552873790623 
2.970000000001843, -1.0847893496768712 
2.9800000000018643, -1.085318600390823 
2.9900000000018854, -1.0854622776841774 
3.0000000000019065, -1.0853238702321053 
3.0100000000019276, -1.0849895014100475 
3.0200000000019487, -1.0845407777233438 
3.03000000000197, -1.0840750836108939 
3.040000000001991, -1.0837220100668286 
3.050000000002012, -1.0836383688852316 
3.060000000002033, -1.0839693131502854 
3.070000000002054, -1.0847910901453142 
3.0800000000020753, -1.0860774871815515 
3.0900000000020964, -1.0877155767874158 
3.1000000000021175, -1.0895523325684926 
3.1100000000021386, -1.0914370711701693 
3.1200000000021597, -1.0932429040702751 
3.130000000002181, -1.0948708401069838 
3.140000000002202, -1.0962469166133588 
3.150000000002223, -1.0973204075641037 
3.160000000002244, -1.0980655960416734 
3.1700000000022652, -1.0984840284600206 
3.1800000000022863, -1.098602441580871 
3.1900000000023074, -1.0984654825387188 
3.2000000000023285, -1.0981277267821832 
3.2100000000023496, -1.0976504983304247 
3.2200000000023707, -1.0971048284236817 
3.230000000002392, -1.0965757083818157 
3.240000000002413, -1.0961585001566303 
3.250000000002434, -1.0959412574152825 
3.260000000002455, -1.095978989656643 
3.2700000000024763, -1.0962765620440087 
3.2800000000024974, -1.0967911652447446 
3.2900000000025185, -1.0974495750441968 
3.3000000000025396, -1.0981685295392007 
3.3100000000025607, -1.0988704818239703 
3.3200000000025818, -1.0994922374423277 
3.330000000002603, -1.0999871354796567 
3.340000000002624, -1.1003231827027338 
3.350000000002645, -1.1004798999421532 
3.360000000002666, -1.1004459809680573 
3.3700000000026873, -1.1002188204543264 
3.3800000000027084, -1.099805681889844 
3.3900000000027295, -1.0992253872702804 
3.4000000000027506, -1.0985097704560203 
3.4100000000027717, -1.0977049184603946 
3.420000000002793, -1.096871523604587 
3.430000000002814, -1.0960816930025754 
3.440000000002835, -1.0954094451704548 
3.450000000002856, -1.0949158533789078 
3.460000000002877, -1.0946340839049356 
3.4700000000028983, -1.0945600669028455 
3.4800000000029194, -1.0946525418727011 
3.4900000000029405, -1.0948435653869812 
3.5000000000029616, -1.0950554355324331 
3.5100000000029827, -1.09521566912246 
3.520000000003004, -1.095264429893172 
3.530000000003025, -1.0951557085226915 
3.540000000003046, -1.0948567860732974 
3.550000000003067, -1.094348469291407 
3.5600000000030882, -1.093625377661192 
3.5700000000031094, -1.0926949244191002 
3.5800000000031305, -1.0915755180560975 
3.5900000000031516, -1.0902959851028518 
3.6000000000031727, -1.0888973962767032 
3.6100000000031938, -1.0874363450985034 
3.620000000003215, -1.0859869465257097 
3.630000000003236, -1.084638020317577 
3.640000000003257, -1.0834822251258571 
3.650000000003278, -1.0825959334103161 
3.6600000000032993, -1.0820142255669671 
3.6700000000033204, -1.0817139152813235 
3.6800000000033415, -1.0816187518858285 
3.6900000000033626, -1.0816256629285192 
3.7000000000033837, -1.0816333364874813 
3.710000000003405, -1.0815562349389904 
3.720000000003426, -1.0813231165786195 
3.730000000003447, -1.0808698204671636 
3.740000000003468, -1.080135973627519 
3.750000000003489, -1.0790699968739168 
3.7600000000035103, -1.077640384366744 
3.7700000000035314, -1.0758463131809108 
3.7800000000035525, -1.0737211983665107 
3.7900000000035736, -1.0713293301841786 
3.8000000000035947, -1.0687614561084962 
3.810000000003616, -1.0661338559232116 
3.820000000003637, -1.063588762057622 
3.830000000003658, -1.0612874525668718 
3.840000000003679, -1.0593857395807178 
3.8500000000037002, -1.0579904454232412 
3.8600000000037213, -1.057116211931299 
3.8700000000037424, -1.056676022805766 
3.8800000000037635, -1.0565185686894563 
3.8900000000037847, -1.0564848628150132 
3.9000000000038058, -1.0564451253353238 
3.910000000003827, -1.0563031774400042 
3.920000000003848, -1.0559808220198919 
3.930000000003869, -1.0553988036435666 
3.94000000000389, -1.0544649820455523 
3.9500000000039113, -1.0530760569168554 
3.9600000000039324, -1.0511361075626018 
3.9700000000039535, -1.0485878990678548 
3.9800000000039746, -1.045442662796046 
3.9900000000039957, -1.0417925076388699 
4.000000000004016, -1.0378027483628829 
4.010000000003993, -1.0336950282970445 
4.02000000000397, -1.0297294768093272 
4.030000000003946, -1.0261796342861313 
4.040000000003923, -1.0232865478980058 
4.0500000000039, -1.021193383977904 
4.0600000000038765, -1.0198935043608792 
4.070000000003853, -1.0192363664699262 
4.08000000000383, -1.0189959775797879 
4.090000000003807, -1.018953458300637 
4.100000000003783, -1.018943343867965 
4.11000000000376, -1.0188547757274014 
4.120000000003737, -1.0186083429540678 
4.130000000003713, -1.0181292580548784 
4.14000000000369, -1.0173270860933665 
4.150000000003667, -1.0160870585065374 
4.1600000000036434, -1.0142786833991386 
4.17000000000362, -1.0117862366315409 
4.180000000003597, -1.0085550717758855 
4.1900000000035735, -1.0046317538715153 
4.20000000000355, -1.0001743288337424 
4.210000000003527, -0.995430183699451 
4.220000000003504, -0.9906993845225147 
4.23000000000348, -0.9862974174171812 
4.240000000003457, -0.9825137371307309 
4.250000000003434, -0.9795583211869324 
4.26000000000341, -0.9775073386067457 
4.270000000003387, -0.9762816027379377 
4.280000000003364, -0.9756831726825377 
4.2900000000033405, -0.9754726272559265 
4.300000000003317, -0.9754389044873072 
4.310000000003294, -0.9754292656190101 
4.320000000003271, -0.9753425434856728 
4.330000000003247, -0.9751059637174271 
4.340000000003224, -0.974651767149143 
4.350000000003201, -0.9739013227878534 
4.360000000003177, -0.9727608914160714 
4.370000000003154, -0.9711331304040222 
4.380000000003131, -0.9689451437113451 
4.390000000003107, -0.96618323572472 
4.400000000003084, -0.9629142647085329 
4.410000000003061, -0.9592793160280817 
4.4200000000030375, -0.9554662971856503 
4.430000000003014, -0.951680655557718 
4.440000000002991, -0.9481252173980792 
4.450000000002968, -0.9449848870982864 
4.460000000002944, -0.9424064806264203 
4.470000000002921, -0.9404717032969963 
4.480000000002898, -0.9391749823733907 
4.490000000002874, -0.938424141277701 
4.500000000002851, -0.9380702959805232 
4.510000000002828, -0.9379519861994596 
4.520000000002804, -0.9379297055325505 
4.530000000002781, -0.9378983483862132 
4.540000000002758, -0.9377814883854363 
4.5500000000027345, -0.9375184731158905 
4.560000000002711, -0.9370536292378582 
4.570000000002688, -0.9363330458192595 
4.580000000002665, -0.9353110284182945 
4.590000000002641, -0.9339638021491867 
4.600000000002618, -0.9323023614523785 
4.610000000002595, -0.9303748592092462 
4.620000000002571, -0.9282561926357824 
4.630000000002548, -0.9260324986890257 
4.640000000002525, -0.9237903000229755 
4.6500000000025015, -0.921613395533931 
4.660000000002478, -0.9195836497973555 
4.670000000002455, -0.9177798706593757 
4.6800000000024315, -0.9162710993567533 
4.690000000002408, -0.9151045561697158 
4.700000000002385, -0.9142927551745125 
4.710000000002362, -0.9138069959653923 
4.720000000002338, -0.913582632099412 
4.730000000002315, -0.9135347765408275 
4.740000000002292, -0.9135765590501526 
4.750000000002268, -0.9136317458620675 
4.760000000002245, -0.9136390300532418 
4.770000000002222, -0.9135509102653566 
4.7800000000021985, -0.9133318798500962 
4.790000000002175, -0.9129588459365474 
4.800000000002152, -0.912423273166848 
4.810000000002129, -0.9117319319293994 
4.820000000002105, -0.9109036991338959 
4.830000000002082, -0.9099634777288055 
4.840000000002059, -0.9089371772718652 
4.850000000002035, -0.9078506922894803 
4.860000000002012, -0.906732466975325 
4.870000000001989, -0.9056170581899348 
4.880000000001965, -0.904547138282578 
4.890000000001942, -0.9035723217885344 
4.900000000001919, -0.9027441523884633 
4.9100000000018955, -0.9021078113682088 
4.920000000001872, -0.9016926998480098 
4.930000000001849, -0.9015051715034954 
