t, s[1].omega / s[0].omega 
0, -0.5299977490352658 
0.009999999999999995, -0.5297900367310202 
0.019999999999999934, -0.5296091485864731 
0.029999999999999874, -0.5294354860046814 
0.04000000000000012, -0.5292449844709437 
0.050000000000000405, -0.5290170821477106 
0.06000000000000069, -0.5287395342385782 
0.07000000000000098, -0.5284091186521161 
0.08000000000000126, -0.5280298872671514 
0.09000000000000155, -0.5276114098442952 
0.10000000000000184, -0.5271687969077204 
0.11000000000000212, -0.526725475770709 
0.12000000000000241, -0.5263194298471692 
0.130000000000002, -0.5260137651261289 
0.1400000000000009, -0.525912379220768 
0.1499999999999998, -0.5261798306573315 
0.1599999999999987, -0.5270584513617917 
0.1699999999999976, -0.5288609148284134 
0.1799999999999965, -0.531892661418328 
0.1899999999999954, -0.5362536356821338 
0.1999999999999943, -0.5415678160962483 
0.2099999999999932, -0.5469253275071791 
0.2199999999999921, -0.5513369869679069 
0.229999999999991, -0.5543744430782928 
0.2399999999999899, -0.5562669066079104 
0.2499999999999888, -0.5574721626629973 
0.2599999999999877, -0.5583260455105414 
0.2699999999999866, -0.5589865119615033 
0.2799999999999855, -0.5595076695290485 
0.2899999999999844, -0.559905286885723 
0.2999999999999833, -0.5601864734013696 
0.3099999999999822, -0.5603574931859315 
0.3199999999999811, -0.560423345736913 
0.32999999999998, -0.5603855836086333 
0.3399999999999789, -0.5602406150911363 
0.3499999999999778, -0.5599793249104404 
0.35999999999997667, -0.5595887739953656 
0.36999999999997557, -0.5590568470278197 
0.37999999999997447, -0.5583799181637752 
0.38999999999997337, -0.5575712023025289 
0.39999999999997227, -0.5566646596562309 
0.40999999999997117, -0.5557097803172161 
0.41999999999997006, -0.5547582670033949 
0.42999999999996896, -0.5538499436959501 
0.43999999999996786, -0.553005437625912 
0.44999999999996676, -0.5522276617933037 
0.45999999999996566, -0.5515088851997986 
0.46999999999996456, -0.5508387814710493 
0.47999999999996346, -0.5502104439980037 
0.48999999999996235, -0.5496237328540915 
0.49999999999996125, -0.5490869354625232 
0.5099999999999602, -0.5486181541171479 
0.519999999999959, -0.5482475001409377 
0.529999999999958, -0.5480206844194009 
0.5399999999999568, -0.5480042542959811 
0.5499999999999557, -0.5482924986843175 
0.5599999999999546, -0.5490156620592057 
0.5699999999999535, -0.5503480779514867 
0.5799999999999524, -0.5525122733079435 
0.5899999999999513, -0.5557697462477111 
0.5999999999999502, -0.5603805938843577 
0.6099999999999491, -0.5665079954792307 
0.619999999999948, -0.5740608655007828 
0.6299999999999469, -0.5825409044267269 
0.6399999999999458, -0.5910610007061641 
0.6499999999999447, -0.5986540175529681 
0.6599999999999436, -0.6046927175232228 
0.6699999999999425, -0.6090642829198227 
0.6799999999999414, -0.6120183853258268 
0.6899999999999403, -0.6139190438674347 
0.6999999999999392, -0.6150890823237622 
0.7099999999999381, -0.6157626871331204 
0.719999999999937, -0.6160920659743347 
0.7299999999999359, -0.6161673831766914 
0.7399999999999348, -0.6160334847186438 
0.7499999999999337, -0.6156997689830399 
0.7599999999999326, -0.6151439201028006 
0.7699999999999315, -0.614311671840945 
0.7799999999999304, -0.6131166032363154 
0.7899999999999293, -0.6114475658966891 
0.7999999999999282, -0.6091949194611745 
0.8099999999999271, -0.6063021768029404 
0.819999999999926, -0.60282677795074 
0.8299999999999249, -0.5989644114739369 
0.8399999999999238, -0.5950006996237247 
0.8499999999999227, -0.591215306546112 
0.8599999999999216, -0.5878053940229231 
0.8699999999999205, -0.5848658400073543 
0.8799999999999194, -0.5824120539699712 
0.8899999999999183, -0.5804143213755231 
0.8999999999999172, -0.5788248174084817 
0.9099999999999161, -0.5775931840039432 
0.919999999999915, -0.5766734468236749 
0.9299999999999139, -0.5760261053584015 
0.9399999999999128, -0.5756181782888412 
0.9499999999999117, -0.575422751347346 
0.9599999999999106, -0.5754187073550584 
0.9699999999999095, -0.575590820218384 
0.9799999999999084, -0.5759301316473245 
0.9899999999999073, -0.5764343500250328 
0.9999999999999062, -0.5771077702055245 
1.0099999999999052, -0.5779598172349283 
1.019999999999904, -0.5790008529917784 
1.029999999999903, -0.5802338179226598 
1.039999999999902, -0.5816415538955224 
1.0499999999999008, -0.5831732405573773 
1.0599999999998997, -0.584738502717862 
1.0699999999998986, -0.5862193073178109 
1.0799999999998975, -0.587500646572882 
1.0899999999998964, -0.5885043703858935 
1.0999999999998953, -0.5892048188852401 
1.1099999999998942, -0.5896197880128206 
1.119999999999893, -0.5897885585142626 
1.129999999999892, -0.5897516717273682 
1.1399999999998909, -0.5895386536849696 
1.1499999999998898, -0.5891623041937413 
1.1599999999998887, -0.5886157267193802 
1.1699999999998876, -0.5878686955312711 
1.1799999999998865, -0.5868606368918187 
1.1899999999998854, -0.58548747530867 
1.1999999999998843, -0.5835794015730457 
1.2099999999998832, -0.5808694674848187 
1.219999999999882, -0.5769683103617035 
1.229999999999881, -0.5714022818541178 
1.2399999999998799, -0.5638186076365119 
1.2499999999998788, -0.5543718479841475 
1.2599999999998777, -0.5439757148577581 
1.2699999999998766, -0.5339899999407152 
1.2799999999998755, -0.5255260709067303 
1.2899999999998744, -0.5190387256655715 
1.2999999999998733, -0.514422731123799 
1.3099999999998722, -0.5113096848881036 
1.319999999999871, -0.5092939772155989 
1.32999999999987, -0.5080345286641909 
1.3399999999998689, -0.507277414746339 
1.3499999999998678, -0.5068454743533425 
1.3599999999998666, -0.5066197057775075 
1.3699999999998655, -0.506522126174181 
1.3799999999998644, -0.506502670544177 
1.3899999999998633, -0.506530125316467 
1.3999999999998622, -0.5065864208710662 
1.4099999999998611, -0.5066635280000351 
1.41999999999986, -0.5067621056385938 
1.429999999999859, -0.5068907065712677 
1.4399999999998578, -0.5070639307740156 
1.4499999999998567, -0.5072979986243408 
1.4599999999998556, -0.5076033813852266 
1.4699999999998545, -0.5079762730577746 
1.4799999999998534, -0.5083928092146436 
1.4899999999998523, -0.5088104115155934 
1.4999999999998512, -0.5091777993888335 
1.5099999999998501, -0.50944952471709 
1.519999999999849, -0.5095970275059731 
1.529999999999848, -0.5096108030233218 
1.5399999999998468, -0.5094948413284117 
1.5499999999998457, -0.5092583542165803 
1.5599999999998446, -0.5089087922367292 
1.5699999999998435, -0.5084472784029785 
1.5799999999998424, -0.5078656102950452 
1.5899999999998413, -0.5071431997143356 
1.5999999999998402, -0.5062417579963903 
1.6099999999998391, -0.5050941595361383 
1.619999999999838, -0.5035812232509141 
1.629999999999837, -0.5014883496030339 
1.6399999999998358, -0.49844535729226935 
1.6499999999998347, -0.49390743448517505 
1.6599999999998336, -0.48733392490611827 
1.6699999999998325, -0.47867167660733967 
1.6799999999998314, -0.46877957926994646 
1.6899999999998303, -0.45912970746330756 
1.6999999999998292, -0.45094897671727735 
1.709999999999828, -0.4447175528336273 
1.719999999999827, -0.4403055646613246 
1.729999999999826, -0.437325623068773 
1.7399999999998248, -0.4353745874583691 
1.7499999999998237, -0.4341278893688423 
1.7599999999998226, -0.433352135933052 
1.7699999999998215, -0.43288890533738716 
1.7799999999998204, -0.43263422888337233 
1.7899999999998193, -0.4325217208610466 
1.7999999999998182, -0.43251064947270795 
1.809999999999817, -0.4325782408879489 
1.819999999999816, -0.43271518320749874 
1.8299999999998149, -0.4329233507433702 
1.8399999999998138, -0.4332146984211024 
1.8499999999998127, -0.43360996003610985 
1.8599999999998116, -0.43413540327144107 
1.8699999999998105, -0.43481589692780354 
1.8799999999998094, -0.4356635216915487 
1.8899999999998083, -0.4366635231458852 
1.8999999999998072, -0.4377636563885375 
1.909999999999806, -0.4388763271505992 
1.919999999999805, -0.43989905185387135 
1.9299999999998039, -0.4407453044916586 
1.9399999999998028, -0.4413669943154536 
1.9499999999998017, -0.44175626782975785 
1.9599999999998006, -0.44193108397873226 
1.9699999999997995, -0.4419170916158771 
1.9799999999997984, -0.4417339324913069 
1.9899999999997973, -0.44138683070518764 
1.9999999999997962, -0.44086061391386544 
2.0099999999998173, -0.44011282912601263 
2.0199999999998384, -0.4390635036187975 
2.0299999999998595, -0.43758130678155255 
2.0399999999998806, -0.4354719911989098 
2.0499999999999017, -0.43248900609083024 
2.059999999999923, -0.42840364872749204 
2.069999999999944, -0.4231576104539324 
2.079999999999965, -0.4170233639426696 
2.089999999999986, -0.4105927077855046 
2.100000000000007, -0.4045292237921977 
2.1100000000000283, -0.39929042820463734 
2.1200000000000494, -0.39503748743566464 
2.1300000000000705, -0.3917161205653441 
2.1400000000000916, -0.38917649521687014 
2.1500000000001127, -0.3872550583731482 
2.160000000000134, -0.38581163634834037 
2.170000000000155, -0.38473942087478147 
2.180000000000176, -0.38396329548297586 
2.190000000000197, -0.3834349497812587 
2.2000000000002182, -0.3831284207152949 
2.2100000000002393, -0.3830373482495425 
2.2200000000002604, -0.3831743102806796 
2.2300000000002815, -0.38357231697547267 
2.2400000000003026, -0.38428841159690375 
2.2500000000003237, -0.38540894061123815 
2.260000000000345, -0.387054849520053 
2.270000000000366, -0.38938237011773924 
2.280000000000387, -0.3925685514770618 
2.290000000000408, -0.3967632390784509 
2.3000000000004293, -0.40198977704476235 
2.3100000000004504, -0.4080131876954559 
2.3200000000004715, -0.4142799812403813 
2.3300000000004926, -0.4200689747020111 
2.3400000000005137, -0.4248132918010269 
2.3500000000005348, -0.42831927343917203 
2.360000000000556, -0.4307157667558389 
2.370000000000577, -0.4322654333416609 
2.380000000000598, -0.4332207208695699 
2.390000000000619, -0.43376999716001424 
2.4000000000006403, -0.4340366681343659 
2.4100000000006614, -0.43409423547793036 
2.4200000000006825, -0.43398077417356495 
2.4300000000007036, -0.43370907844907336 
2.4400000000007247, -0.43327362388277607 
2.450000000000746, -0.4326570718353495 
2.460000000000767, -0.4318394475914421 
2.470000000000788, -0.4308119294556606 
2.480000000000809, -0.42959286283326464 
2.49000000000083, -0.4282372579349197 
2.5000000000008513, -0.4268297367091513 
2.5100000000008724, -0.42546102339817865 
2.5200000000008935, -0.4242016801418481 
2.5300000000009146, -0.42308804911637815 
2.5400000000009357, -0.4221239796302356 
2.550000000000957, -0.42129193961639577 
2.560000000000978, -0.42056566598003303 
2.570000000000999, -0.41991982471100214 
2.58000000000102, -0.4193355445192086 
2.5900000000010412, -0.4188027250411389 
2.6000000000010624, -0.4183208244089095 
2.6100000000010835, -0.417899799446226 
2.6200000000011046, -0.41756251153945884 
2.6300000000011257, -0.4173496556312199 
2.6400000000011468, -0.41732826479749996 
2.650000000001168, -0.41760486837368366 
2.660000000001189, -0.41834365673728524 
2.67000000000121, -0.41978649649535155 
2.680000000001231, -0.42226084844297745 
2.6900000000012523, -0.42613730625141544 
2.7000000000012734, -0.4316667344617432 
2.7100000000012945, -0.4386541507102721 
2.7200000000013156, -0.44615692549082125 
2.7300000000013367, -0.45272081878205794 
2.740000000001358, -0.45729324224500284 
2.750000000001379, -0.4598640860990015 
2.7600000000014, -0.4611104963173007 
2.770000000001421, -0.4617112894408283 
2.780000000001442, -0.4620595856321642 
2.7900000000014633, -0.4623152889833608 
2.8000000000014844, -0.46252354279379304 
2.8100000000015055, -0.46268901926251793 
2.8200000000015266, -0.46280701020463233 
2.8300000000015477, -0.46287268348779564 
2.840000000001569, -0.4628822887879987 
2.85000000000159, -0.4628324069082497 
2.860000000001611, -0.46271955560980305 
2.870000000001632, -0.46254105627242736 
2.8800000000016532, -0.4622974670764114 
2.8900000000016743, -0.4619961348270327 
2.9000000000016954, -0.46165420715783323 
2.9100000000017165, -0.4612985031574947 
2.9200000000017377, -0.4609604284825396 
2.9300000000017588, -0.460667001790983 
2.94000000000178, -0.46043192945764366 
2.950000000001801, -0.4602510273850401 
2.960000000001822, -0.4601040962973883 
2.970000000001843, -0.45996224888768655 
2.9800000000018643, -0.4597971197927538 
2.9900000000018854, -0.45958773727852187 
3.0000000000019065, -0.45932277551222817 
3.0100000000019276, -0.458998910854125 
3.0200000000019487, -0.45861765804097077 
3.03000000000197, -0.4581827476150254 
3.040000000001991, -0.45769897782920815 
3.050000000002012, -0.45717259328181326 
3.060000000002033, -0.4566126928938755 
3.070000000002054, -0.45603225398534136 
3.0800000000020753, -0.455444726163248 
3.0900000000020964, -0.4548458059137612 
3.1000000000021175, -0.45415974115393787 
3.1100000000021386, -0.45312936735376425 
3.1200000000021597, -0.4511922574884137 
3.130000000002181, -0.4475623890529036 
3.140000000002202, -0.44178544115581964 
3.150000000002223, -0.43441449138722665 
3.160000000002244, -0.4268413181029306 
3.1700000000022652, -0.4203309817155031 
3.1800000000022863, -0.4154108430939213 
3.1900000000023074, -0.41199473468887204 
3.2000000000023285, -0.40974593346331023 
3.2100000000023496, -0.408315982150112 
3.2200000000023707, -0.40743110385434766 
3.230000000002392, -0.4069000672280524 
3.240000000002413, -0.40659702461793223 
3.250000000002434, -0.4064420928581006 
3.260000000002455, -0.40638626470227673 
3.2700000000024763, -0.40640127715138813 
3.2800000000024974, -0.406473499523068 
3.2900000000025185, -0.406600749668928 
3.3000000000025396, -0.4067909983146477 
3.3100000000025607, -0.40706176736628563 
3.3200000000025818, -0.4074386656009331 
3.330000000002603, -0.40795124294615287 
3.340000000002624, -0.4086246626325149 
3.350000000002645, -0.4094670930338705 
3.360000000002666, -0.41045573680415137 
3.3700000000026873, -0.41152877694643103 
3.3800000000027084, -0.4125925491714778 
3.3900000000027295, -0.4135463849928052 
3.4000000000027506, -0.4143130128920163 
3.4100000000027717, -0.41485569198604166 
3.420000000002793, -0.41517445469372916 
3.430000000002814, -0.4152896309605554 
3.440000000002835, -0.41522472061527294 
3.450000000002856, -0.4149944245923157 
3.460000000002877, -0.4145972228932437 
3.4700000000028983, -0.4140094048297257 
3.4800000000029194, -0.41317769169806323 
3.4900000000029405, -0.4120092091544059 
3.5000000000029616, -0.41036142709032913 
3.5100000000029827, -0.4080435398276238 
3.520000000003004, -0.40485447111556383 
3.530000000003025, -0.4006838364391144 
3.540000000003046, -0.3956505788383841 
3.550000000003067, -0.3901588441394994 
3.5600000000030882, -0.38476267413635823 
3.5700000000031094, -0.37992645177751144 
3.5800000000031305, -0.37588244575776375 
3.5900000000031516, -0.3726500607632797 
3.6000000000031727, -0.37013022442986976 
3.6100000000031938, -0.3681879837305 
3.620000000003215, -0.36669764919495607 
3.630000000003236, -0.3655595027135516 
3.640000000003257, -0.36470213160479104 
3.650000000003278, -0.364079626691389 
3.6600000000032993, -0.36366820090161406 
3.6700000000033204, -0.36346414579618497 
3.6800000000033415, -0.3634838995912449 
3.6900000000033626, -0.3637666429626631 
3.7000000000033837, -0.36437978101137036 
3.710000000003405, -0.3654274949110513 
3.720000000003426, -0.3670616013473824 
3.730000000003447, -0.369490884903917 
3.740000000003468, -0.3729774006593919 
3.750000000003489, -0.37779386239994694 
3.7600000000035103, -0.38410272259265515 
3.7700000000035314, -0.39174442434414725 
3.7800000000035525, -0.4000525298423788 
3.7900000000035736, -0.4079671474312178 
3.8000000000035947, -0.41453412625784763 
3.810000000003616, -0.41936365401064457 
3.820000000003637, -0.42262034736005677 
3.830000000003658, -0.42470645756853564 
3.840000000003679, -0.42600565354430453 
3.8500000000037002, -0.4267944250201989 
3.8600000000037213, -0.42724836773894204 
3.8700000000037424, -0.4274721100280254 
3.8800000000037635, -0.4275247834783184 
3.8900000000037847, -0.42743654674105114 
3.9000000000038058, -0.427218630072778 
3.910000000003827, -0.42687022828374416 
3.920000000003848, -0.4263851079138212 
3.930000000003869, -0.4257598626617042 
3.94000000000389, -0.4250036787201954 
3.9500000000039113, -0.4241460953127169 
3.9600000000039324, -0.4232370000286193 
3.9700000000039535, -0.4223359903032257 
3.9800000000039746, -0.4214956896829178 
3.9900000000039957, -0.42074823262561434 
4.000000000004016, -0.4201010261531882 
4.010000000003993, -0.41954134320428454 
4.02000000000397, -0.41904546518081665 
4.030000000003946, -0.41858790922089 
4.040000000003923, -0.41814786411955557 
4.0500000000039, -0.417712036233066 
4.0600000000038765, -0.4172748631477223 
4.070000000003853, -0.41683782405471304 
4.08000000000383, -0.4164093905777187 
4.090000000003807, -0.41600663590977094 
4.100000000003783, -0.41565914338911913 
4.11000000000376, -0.41541559145966583 
4.120000000003737, -0.4153525709056939 
4.130000000003713, -0.4155821249321594 
4.14000000000369, -0.4162457424198651 
4.150000000003667, -0.4174641313187564 
4.1600000000036434, -0.41919331944822125 
4.17000000000362, -0.4209829236233927 
4.180000000003597, -0.42186056986633147 
4.1900000000035735, -0.42080011704845566 
4.20000000000355, -0.4176601293162605 
4.210000000003527, -0.41342439513385204 
4.220000000003504, -0.4093360516126415 
4.23000000000348, -0.4060999761463141 
4.240000000003457, -0.4038331096275889 
4.250000000003434, -0.40236174830358234 
4.26000000000341, -0.40145404185328964 
4.270000000003387, -0.4009162301932768 
4.280000000003364, -0.40061107625271514 
4.2900000000033405, -0.4004488078038676 
4.300000000003317, -0.40037338373663023 
4.310000000003294, -0.4003512886521787 
4.320000000003271, -0.4003640587673244 
4.330000000003247, -0.400404035758046 
4.340000000003224, -0.40047253609432587 
4.350000000003201, -0.40057951006404185 
4.360000000003177, -0.40074345960424146 
4.370000000003154, -0.40098999137005453 
4.380000000003131, -0.40134734751010137 
4.390000000003107, -0.40183802960458215 
4.400000000003084, -0.40246736322501314 
4.410000000003061, -0.40321250958254107 
4.4200000000030375, -0.4040183065201375 
4.430000000003014, -0.4048062738254462 
4.440000000002991, -0.4054961537260051 
4.450000000002968, -0.406028808040981 
4.460000000002944, -0.40637699315265435 
4.470000000002921, -0.406540500319258 
4.480000000002898, -0.40653280971814815 
4.490000000002874, -0.4063677867151241 
4.500000000002851, -0.4060499795041645 
4.510000000002828, -0.4055675716121076 
4.520000000002804, -0.4048853012442139 
4.530000000002781, -0.40393477921419596 
4.540000000002758, -0.4026011641305701 
4.5500000000027345, -0.4007099357015812 
4.560000000002711, -0.3980295229191647 
4.570000000002688, -0.3943239556649292 
4.580000000002665, -0.38948747369643055 
4.590000000002641, -0.3837143383493238 
4.600000000002618, -0.3775351171312685 
4.610000000002595, -0.37160809801752975 
4.620000000002571, -0.3664273823459928 
4.630000000002548, -0.362193966825188 
4.640000000002525, -0.35887680353391715 
4.6500000000025015, -0.3563342266151005 
4.660000000002478, -0.35440330929509894 
4.670000000002455, -0.3529423006426174 
4.6800000000024315, -0.3518430251936312 
4.690000000002408, -0.35102999297250026 
4.700000000002385, -0.3504557004232843 
4.710000000002362, -0.350096302962683 
4.720000000002338, -0.3499492216490267 
4.730000000002315, -0.35003324673783937 
4.740000000002292, -0.35039145925008475 
4.750000000002268, -0.35109728243345095 
4.760000000002245, -0.35226373773331343 
4.770000000002222, -0.3540547331300116 
4.7800000000021985, -0.35669331373230306 
4.790000000002175, -0.3604524468158307 
4.800000000002152, -0.36559767631422163 
4.810000000002129, -0.37224079247378006 
4.820000000002105, -0.3801109667065463 
4.830000000002082, -0.3884101672520024 
4.840000000002059, -0.3960359496219686 
4.850000000002035, -0.4021399703050387 
4.860000000002012, -0.40649678643431886 
4.870000000001989, -0.40937373612606925 
4.880000000001965, -0.41119280652409307 
