t, s[1].omega / s[0].omega 
0, -1.5600645922493386 
0.009999999999999995, -1.565240686742682 
0.019999999999999934, -1.5683235090517489 
0.029999999999999874, -1.5699705992607964 
0.04000000000000012, -1.5706868122943 
0.050000000000000405, -1.5708064558922386 
0.06000000000000069, -1.5705408198310948 
0.07000000000000098, -1.5700368208847513 
0.08000000000000126, -1.5694258680759365 
0.09000000000000155, -1.568839568135409 
0.10000000000000184, -1.5683830646039367 
0.11000000000000212, -1.568107271919523 
0.12000000000000241, -1.5680104426449044 
0.130000000000002, -1.5680367911776596 
0.1400000000000009, -1.5680766350002575 
0.1499999999999998, -1.5679972945693703 
0.1599999999999987, -1.5676670687214374 
0.1699999999999976, -1.5669351782629766 
0.1799999999999965, -1.5655810141740258 
0.1899999999999954, -1.5632558652451074 
0.1999999999999943, -1.5594392489122755 
0.2099999999999932, -1.5534703717562715 
0.2199999999999921, -1.54482800824366 
0.229999999999991, -1.5339494952235302 
0.2399999999999899, -1.5233263603072924 
0.2499999999999888, -1.516665306486054 
0.2599999999999877, -1.5151089097087458 
0.2699999999999866, -1.5163120186240524 
0.2799999999999855, -1.5178551176992552 
0.2899999999999844, -1.5188499798703845 
0.2999999999999833, -1.5192532447773424 
0.3099999999999822, -1.5191916248131476 
0.3199999999999811, -1.518742300034447 
0.32999999999998, -1.517922236940936 
0.3399999999999789, -1.5167908402369061 
0.3499999999999778, -1.5157219811437959 
0.35999999999997667, -1.515734957545756 
0.36999999999997557, -1.518102945470099 
0.37999999999997447, -1.5229268582621045 
0.38999999999997337, -1.5287782559151375 
0.39999999999997227, -1.5341294672488073 
0.40999999999997117, -1.5382755542802757 
0.41999999999997006, -1.541155685516778 
0.42999999999996896, -1.5429654822926053 
0.43999999999996786, -1.5439459040679278 
0.44999999999996676, -1.5443077620157009 
0.45999999999996566, -1.5442143748855295 
0.46999999999996456, -1.5437884135423956 
0.47999999999996346, -1.5431313241711524 
0.48999999999996235, -1.5423446264789469 
0.49999999999996125, -1.5415376366925113 
0.5099999999999602, -1.5408182621538815 
0.519999999999959, -1.5402803440118407 
0.529999999999958, -1.5399768397290254 
0.5399999999999568, -1.539871745296232 
0.5499999999999557, -1.5398364864427654 
0.5599999999999546, -1.5397120410653014 
0.5699999999999535, -1.539349272573412 
0.5799999999999524, -1.538579954399094 
0.5899999999999513, -1.5371427713013068 
0.5999999999999502, -1.5345862267360941 
0.6099999999999491, -1.530167714616287 
0.619999999999948, -1.522845488618295 
0.6299999999999469, -1.5116853329745636 
0.6399999999999458, -1.4972252958434527 
0.6499999999999447, -1.4832639731785409 
0.6599999999999436, -1.475229562681678 
0.6699999999999425, -1.4742796729108154 
0.6799999999999414, -1.4767156361540343 
0.6899999999999403, -1.4792459677000394 
0.6999999999999392, -1.480854497840617 
0.7099999999999381, -1.481621486814626 
0.719999999999937, -1.4818007116208587 
0.7299999999999359, -1.481559011688968 
0.7399999999999348, -1.480971242787875 
0.7499999999999337, -1.4800973654890102 
0.7599999999999326, -1.4791515751006268 
0.7699999999999315, -1.4787480934693393 
0.7799999999999304, -1.479852659791609 
0.7899999999999293, -1.4829775183029854 
0.7999999999999282, -1.4874812404297018 
0.8099999999999271, -1.4921597111895628 
0.819999999999926, -1.4961681283015844 
0.8299999999999249, -1.499209526339482 
0.8399999999999238, -1.5013063326215221 
0.8499999999999227, -1.5025978325055287 
0.8599999999999216, -1.5032434773177823 
0.8699999999999205, -1.5033867093168147 
0.8799999999999194, -1.5031451449438058 
0.8899999999999183, -1.5026152262785406 
0.8999999999999172, -1.50188649916242 
0.9099999999999161, -1.5010560838599623 
0.919999999999915, -1.5002306389778968 
0.9299999999999139, -1.4995159802804787 
0.9399999999999128, -1.4990018890691688 
0.9499999999999117, -1.4987282336448928 
0.9599999999999106, -1.4986420870599158 
0.9699999999999095, -1.498609363854586 
0.9799999999999084, -1.4984770994294114 
0.9899999999999073, -1.4981038058632536 
0.9999999999999062, -1.4973287027741695 
1.0099999999999052, -1.4959066222213653 
1.019999999999904, -1.4934299106029596 
1.029999999999903, -1.4892582953629918 
1.039999999999902, -1.4825337686333298 
1.0499999999999008, -1.4724979716832256 
1.0599999999998997, -1.4594540723343024 
1.0699999999998986, -1.446106632570622 
1.0799999999998975, -1.436926552044448 
1.0899999999998964, -1.4340034565706108 
1.0999999999998953, -1.4351085672976231 
1.1099999999998942, -1.4371451276289227 
1.119999999999893, -1.4386764600413628 
1.129999999999892, -1.4394949677970545 
1.1399999999998909, -1.4397493524044456 
1.1499999999998898, -1.4395786854548926 
1.1599999999998887, -1.4390415824502758 
1.1699999999998876, -1.4381462846630473 
1.1799999999998865, -1.436965261780855 
1.1899999999998854, -1.4359042378396167 
1.1999999999998843, -1.4360122038409902 
1.2099999999998832, -1.438628621242255 
1.219999999999882, -1.4440281849268957 
1.229999999999881, -1.4508608191976935 
1.2399999999998799, -1.4574018652829253 
1.2499999999998788, -1.4626747210812043 
1.2599999999998777, -1.4664676192307566 
1.2699999999998766, -1.4689518312440917 
1.2799999999998755, -1.4704097982572435 
1.2899999999998744, -1.471112238432849 
1.2999999999998733, -1.4712763005890115 
1.3099999999998722, -1.471062730644323 
1.319999999999871, -1.47059379081875 
1.32999999999987, -1.4699796395698341 
1.3399999999998689, -1.4693356608426753 
1.3499999999998678, -1.4687729175146753 
1.3599999999998666, -1.4683703680580003 
1.3699999999998655, -1.4681593661274037 
1.3799999999998644, -1.4681205127335697 
1.3899999999998633, -1.4681800230474173 
1.3999999999998622, -1.468224814409062 
1.4099999999998611, -1.4681347262941842 
1.41999999999986, -1.4677949992450952 
1.429999999999859, -1.46707771421664 
1.4399999999998578, -1.4658112339116987 
1.4499999999998567, -1.463756894544386 
1.4599999999998556, -1.4606076514153379 
1.4699999999998545, -1.4560312752945312 
1.4799999999998534, -1.4498065902405448 
1.4899999999998523, -1.4421286575653878 
1.4999999999998512, -1.4340430117767944 
1.5099999999998501, -1.4274526441468176 
1.519999999999849, -1.4238961969155741 
1.529999999999848, -1.4231303140536116 
1.5399999999998468, -1.4236955895040035 
1.5499999999998457, -1.4244234197237273 
1.5599999999998446, -1.4248574252824304 
1.5699999999998435, -1.4249206452727063 
1.5799999999998424, -1.424618097850678 
1.5899999999998413, -1.4239116320751395 
1.5999999999998402, -1.4226857813248497 
1.6099999999998391, -1.4207971124687786 
1.619999999999838, -1.4183569648853926 
1.629999999999837, -1.4164729778828173 
1.6399999999998358, -1.4178747484466279 
1.6499999999998347, -1.4251797402552888 
1.6599999999998336, -1.4373344832316843 
1.6699999999998325, -1.450180828714915 
1.6799999999998314, -1.4605048236730942 
1.6899999999998303, -1.4675077178825362 
1.6999999999998292, -1.471755539355382 
1.709999999999828, -1.4741016822854152 
1.719999999999827, -1.475241378322158 
1.729999999999826, -1.4756372807765281 
1.7399999999998248, -1.475571466201669 
1.7499999999998237, -1.475220605354528 
1.7599999999998226, -1.474724576355719 
1.7699999999998215, -1.47423205222155 
1.7799999999998204, -1.4738937612924108 
1.7899999999998193, -1.4738015372228932 
1.7999999999998182, -1.4739460586516293 
1.809999999999817, -1.4742452033518698 
1.819999999999816, -1.4745920995793715 
1.8299999999998149, -1.4748791348376247 
1.8399999999998138, -1.4750090878163857 
1.8499999999998127, -1.4748983039489691 
1.8599999999998116, -1.4744685231403978 
1.8699999999998105, -1.4736350889745025 
1.8799999999998094, -1.472301128020924 
1.8899999999998083, -1.4703612280294291 
1.8999999999998072, -1.4677172718573717 
1.909999999999806, -1.4643184099148148 
1.919999999999805, -1.460251813278617 
1.9299999999998039, -1.4558952538951544 
1.9399999999998028, -1.4520054312232773 
1.9499999999998017, -1.4494147032647537 
1.9599999999998006, -1.4483614932285604 
1.9699999999997995, -1.4483174980997542 
1.9799999999997984, -1.4485818929711836 
1.9899999999997973, -1.4487387969457086 
1.9999999999997962, -1.4486282584178154 
2.0099999999998173, -1.4481694912476617 
2.0199999999998384, -1.4472330236221778 
2.0299999999998595, -1.445557638651548 
2.0399999999998806, -1.4427161714337806 
2.0499999999999017, -1.4383243936237182 
2.059999999999923, -1.4330419105935903 
2.069999999999944, -1.4303972145934414 
2.079999999999965, -1.4358559270635938 
2.089999999999986, -1.4500265648888666 
2.100000000000007, -1.4665158936655556 
2.1100000000000283, -1.479496119210307 
2.1200000000000494, -1.4876870451198398 
2.1300000000000705, -1.49223993499414 
2.1400000000000916, -1.4945478473613443 
2.1500000000001127, -1.4955716437343316 
2.160000000000134, -1.4958633935557633 
2.170000000000155, -1.4957217461458845 
2.180000000000176, -1.4953243611301943 
2.190000000000197, -1.4948269106492775 
2.2000000000002182, -1.4944201912985648 
2.2100000000002393, -1.4942987041351785 
2.2200000000002604, -1.4945465350813953 
2.2300000000002815, -1.4950833481397858 
2.2400000000003026, -1.495744470549834 
2.2500000000003237, -1.4963756579180079 
2.260000000000345, -1.4968624146254879 
2.270000000000366, -1.497124269138213 
2.280000000000387, -1.497102787812397 
2.290000000000408, -1.4967490360680473 
2.3000000000004293, -1.4960144176599735 
2.3100000000004504, -1.4948475798555765 
2.3200000000004715, -1.4931978287283245 
2.3300000000004926, -1.49102828796844 
2.3400000000005137, -1.4883500175095705 
2.3500000000005348, -1.4852947589987024 
2.360000000000556, -1.482216252793417 
2.370000000000577, -1.4796890451030371 
2.380000000000598, -1.4781961688984793 
2.390000000000619, -1.4777079762592542 
2.4000000000006403, -1.47775477825074 
2.4100000000006614, -1.4778734105837492 
2.4200000000006825, -1.477811914372584 
2.4300000000007036, -1.4774457927104327 
2.4400000000007247, -1.4766407857484218 
2.450000000000746, -1.4751393670544304 
2.460000000000767, -1.4724596190389225 
2.470000000000788, -1.4678966944081981 
2.480000000000809, -1.46110395491017 
2.49000000000083, -1.45408267393459 
2.5000000000008513, -1.4529027146878088 
2.5100000000008724, -1.4624472750286301 
2.5200000000008935, -1.4785075524306732 
2.5300000000009146, -1.4930442234197483 
2.5400000000009357, -1.502674787791793 
2.550000000000957, -1.5080777952594389 
2.560000000000978, -1.510817536825197 
2.570000000000999, -1.512054979089951 
2.58000000000102, -1.5124571692572837 
2.5900000000010412, -1.5123751548880051 
2.6000000000010624, -1.5120045530959045 
2.6100000000010835, -1.5115036165128723 
2.6200000000011046, -1.511071150297589 
2.6300000000011257, -1.5109338118802735 
2.6400000000011468, -1.5112164726665853 
2.650000000001168, -1.5118463548604415 
2.660000000001189, -1.5126309584526911 
2.67000000000121, -1.5133869550824381 
2.680000000001231, -1.5139867315309286 
2.6900000000012523, -1.5143486820537058 
2.7000000000012734, -1.5144189231997407 
2.7100000000012945, -1.5141557802579246 
2.7200000000013156, -1.5135191559243582 
2.7300000000013367, -1.512466218963729 
2.740000000001358, -1.5109535201234283 
2.750000000001379, -1.5089482697995984 
2.7600000000014, -1.5064588768871152 
2.770000000001421, -1.5036019339222761 
2.780000000001442, -1.5007006839428143 
2.7900000000014633, -1.4982965744451486 
2.8000000000014844, -1.4968630503378297 
2.8100000000015055, -1.4963889135882025 
2.8200000000015266, -1.4964274948485798 
2.8300000000015477, -1.4965288366318512 
2.840000000001569, -1.496445005036184 
2.85000000000159, -1.496048499567901 
2.860000000001611, -1.495194472622764 
2.870000000001632, -1.4936037537269837 
2.8800000000016532, -1.4907604340738456 
2.8900000000016743, -1.4859459002589386 
2.9000000000016954, -1.478981631853946 
2.9100000000017165, -1.472487610597002 
2.9200000000017377, -1.4730697043697576 
2.9300000000017588, -1.484476199012228 
2.94000000000178, -1.5008939941847927 
2.950000000001801, -1.514620335196505 
2.960000000001822, -1.5233043524386567 
2.970000000001843, -1.5280420756066297 
2.9800000000018643, -1.530386767496561 
2.9900000000018854, -1.5313986942579931 
3.0000000000019065, -1.5316678579792784 
3.0100000000019276, -1.5315034273330281 
3.0200000000019487, -1.5310873559378735 
3.03000000000197, -1.5305851903087508 
3.040000000001991, -1.5302045996731777 
3.050000000002012, -1.5301462859071688 
3.060000000002033, -1.5304713935905032 
3.070000000002054, -1.5310647091252594 
3.0800000000020753, -1.5317436189262408 
3.0900000000020964, -1.5323539797411803 
3.1000000000021175, -1.5327875545731138 
3.1100000000021386, -1.5329693457288944 
3.1200000000021597, -1.532842387413238 
3.130000000002181, -1.5323536389343113 
3.140000000002202, -1.5314446827796842 
3.150000000002223, -1.5300494724136724 
3.160000000002244, -1.5281004911260732 
3.1700000000022652, -1.5255509782475483 
3.1800000000022863, -1.52243403537528 
3.1900000000023074, -1.518981991262433 
3.2000000000023285, -1.5157469523014362 
3.2100000000023496, -1.5134533603332199 
3.2200000000023707, -1.5124362779026534 
3.230000000002392, -1.512331681852493 
3.240000000002413, -1.5125227323103956 
3.250000000002434, -1.5126097199434032 
3.260000000002455, -1.5124244281494268 
3.2700000000024763, -1.5118645219609697 
3.2800000000024974, -1.5107598722972746 
3.2900000000025185, -1.5087826895747314 
3.3000000000025396, -1.505452237719743 
3.3100000000025607, -1.5005971377747187 
3.3200000000025818, -1.4959799987474434 
3.330000000002603, -1.4968100504770088 
3.340000000002624, -1.507265844509919 
3.350000000002645, -1.5234184240762771 
3.360000000002666, -1.5379164987084841 
3.3700000000026873, -1.5476490136118748 
3.3800000000027084, -1.55322397801188 
3.3900000000027295, -1.5561126576144768 
3.4000000000027506, -1.5574474443899395 
3.4100000000027717, -1.557903509395014 
3.420000000002793, -1.5578488357537799 
3.430000000002814, -1.5574928534532924 
3.440000000002835, -1.5569961016127079 
3.450000000002856, -1.556533638104612 
3.460000000002877, -1.5562763098627133 
3.4700000000028983, -1.5563014661190129 
3.4800000000029194, -1.5565566044224988 
3.4900000000029405, -1.5569235272573123 
3.5000000000029616, -1.5572798813647664 
3.5100000000029827, -1.5575155392641664 
3.520000000003004, -1.5575349798069518 
3.530000000003025, -1.5572512862366303 
3.540000000003046, -1.556569610034869 
3.550000000003067, -1.5553704665224095 
3.5600000000030882, -1.5535020868846559 
3.5700000000031094, -1.5507880798006979 
3.5800000000031305, -1.5470684185456014 
3.5900000000031516, -1.5423238844126166 
3.6000000000031727, -1.5369441970609992 
3.6100000000031938, -1.5319883400997165 
3.620000000003215, -1.5287835505815386 
3.630000000003236, -1.5277166267242082 
3.640000000003257, -1.527927042763023 
3.650000000003278, -1.5284068438529954 
3.6600000000032993, -1.5286708293815088 
3.6700000000033204, -1.5285947051217887 
3.6800000000033415, -1.5281393421571985 
3.6900000000033626, -1.5272148638078096 
3.7000000000033837, -1.525652848092991 
3.710000000003405, -1.5233553949226508 
3.720000000003426, -1.5209216583525147 
3.730000000003447, -1.5206939884654391 
3.740000000003468, -1.525913186703188 
3.750000000003489, -1.5364926598383304 
3.7600000000035103, -1.548310804504484 
3.7700000000035314, -1.557863884979147 
3.7800000000035525, -1.5642818250404305 
3.7900000000035736, -1.5681246956183155 
3.8000000000035947, -1.570206895988592 
3.810000000003616, -1.5711717411542518 
3.820000000003637, -1.5714409710271928 
3.830000000003658, -1.5712724423597995 
3.840000000003679, -1.5708332839936823 
3.8500000000037002, -1.5702622411410236 
3.8600000000037213, -1.569699334258543 
3.8700000000037424, -1.569263666609007 
3.8800000000037635, -1.5690132601181992 
3.8900000000037847, -1.5689430266134434 
3.9000000000038058, -1.568999252845738 
3.910000000003827, -1.569082742599036 
3.920000000003848, -1.5690687951160123 
3.930000000003869, -1.5688322194803683 
3.94000000000389, -1.5682387227578216 
3.9500000000039113, -1.5671054536853741 
3.9600000000039324, -1.565153472344932 
3.9700000000039535, -1.5619713285998913 
3.9800000000039746, -1.5570263530010562 
3.9900000000039957, -1.5498299715159234 
4.000000000004016, -1.5404755678271311 
4.010000000003993, -1.5305705853734994 
4.02000000000397, -1.5232499574599871 
4.030000000003946, -1.520477817258575 
4.040000000003923, -1.5209377048225903 
4.0500000000039, -1.5222625656067374 
4.0600000000038765, -1.523258609189925 
4.070000000003853, -1.5237130949324356 
4.08000000000383, -1.5237045241069778 
4.090000000003807, -1.5233015807858965 
4.100000000003783, -1.5225100562460552 
4.11000000000376, -1.5213430319758767 
4.120000000003737, -1.5200672696541238 
4.130000000003713, -1.5196256086596052 
4.14000000000369, -1.5215356365809973 
4.150000000003667, -1.526393865031062 
4.1600000000036434, -1.5328559092811531 
4.17000000000362, -1.539026224966391 
4.180000000003597, -1.5438882292194374 
4.1900000000035735, -1.547286186630613 
4.20000000000355, -1.549438383227201 
4.210000000003527, -1.5506377056158862 
4.220000000003504, -1.5511412788017582 
4.23000000000348, -1.5511450162688543 
4.240000000003457, -1.5507912117444513 
4.250000000003434, -1.550191136430518 
4.26000000000341, -1.54945057928519 
4.270000000003387, -1.5486812377501968 
4.280000000003364, -1.5479907469306853 
4.2900000000033405, -1.5474684214876526 
4.300000000003317, -1.5471665455958596 
4.310000000003294, -1.547060000781755 
4.320000000003271, -1.5470331643672308 
4.330000000003247, -1.5469317900395414 
4.340000000003224, -1.5466079046602494 
4.350000000003201, -1.5458999261257371 
4.360000000003177, -1.544565210213825 
4.370000000003154, -1.5421894564090262 
4.380000000003131, -1.5380911283740872 
4.390000000003107, -1.5312993992220298 
4.400000000003084, -1.520876362393111 
4.410000000003061, -1.507093851227166 
4.4200000000030375, -1.4932137852530498 
4.430000000003014, -1.4845404787058123 
4.440000000002991, -1.4828812288425497 
4.450000000002968, -1.4849763694135616 
4.460000000002944, -1.48742470809316 
4.470000000002921, -1.4890351242313205 
4.480000000002898, -1.489817243124578 
4.490000000002874, -1.4900090627510347 
4.500000000002851, -1.4897759833268869 
4.510000000002828, -1.4891922561849988 
4.520000000002804, -1.488313982162134 
4.530000000002781, -1.4873482110403995 
4.540000000002758, -1.486908417230907 
4.5500000000027345, -1.4879827496243077 
4.560000000002711, -1.4911135383346974 
4.570000000002688, -1.4956534353193462 
4.580000000002665, -1.5003669590470037 
4.590000000002641, -1.504391684322536 
4.600000000002618, -1.5074316361521494 
4.610000000002595, -1.5095165386735245 
4.620000000002571, -1.5107919789567241 
4.630000000002548, -1.5114210478418948 
4.640000000002525, -1.5115486026018317 
4.6500000000025015, -1.5112923720784575 
4.660000000002478, -1.5107485298007863 
4.670000000002455, -1.5100066175949223 
4.6800000000024315, -1.5091641069499944 
4.690000000002408, -1.5083282697077098 
4.700000000002385, -1.507606475797203 
4.710000000002362, -1.5070907617451819 
4.720000000002338, -1.5068201069855747 
4.730000000002315, -1.5067355576030548 
4.740000000002292, -1.506696829091361 
4.750000000002268, -1.5065482414371767 
4.760000000002245, -1.5061459213388537 
4.770000000002222, -1.5053214720074197 
4.7800000000021985, -1.5038109969206286 
4.790000000002175, -1.501169082735251 
4.800000000002152, -1.4966904870813398 
4.810000000002129, -1.4894342917143908 
4.820000000002105, -1.4786210611087258 
4.830000000002082, -1.4647973552994462 
4.840000000002059, -1.451266042148413 
4.850000000002035, -1.442815486976746 
4.860000000002012, -1.4409073217502226 
4.870000000001989, -1.4426156351458554 
4.880000000001965, -1.4448339282214555 
4.890000000001942, -1.4463649048390606 
4.900000000001919, -1.4471395153462547 
4.9100000000018955, -1.447348944945596 
4.920000000001872, -1.447138841851515 
4.930000000001849, -1.4465690849462285 
4.940000000001826, -1.4456616567090683 
