t, s[1].omega / s[0].omega 
0, -0.5299977514091615 
0.009999999999999995, -0.5298137016102576 
0.019999999999999934, -0.5296966625359105 
0.029999999999999874, -0.5296106668608173 
0.04000000000000012, -0.5295107495201512 
0.050000000000000405, -0.5293577083585476 
0.06000000000000069, -0.5291276108554187 
0.07000000000000098, -0.5288134434560119 
0.08000000000000126, -0.5284218022089839 
0.09000000000000155, -0.52796966626852 
0.10000000000000184, -0.5274851735110512 
0.11000000000000212, -0.5270149433024602 
0.12000000000000241, -0.5266407949743017 
0.130000000000002, -0.5265108864994665 
0.1400000000000009, -0.5268937454360701 
0.1499999999999998, -0.5282663755430106 
0.1599999999999987, -0.5314416331634907 
0.1699999999999976, -0.5376993886988436 
0.1799999999999965, -0.5487522091187361 
0.1899999999999954, -0.566122786392466 
0.1999999999999943, -0.5895356589893066 
0.2099999999999932, -0.6153756361423329 
0.2199999999999921, -0.6381722993588353 
0.229999999999991, -0.654739404947864 
0.2399999999999899, -0.665536701708028 
0.2499999999999888, -0.6724534352665319 
0.2599999999999877, -0.6769989952844403 
0.2699999999999866, -0.6800448309009679 
0.2799999999999855, -0.6820819848809897 
0.2899999999999844, -0.6834134289543247 
0.2999999999999833, -0.6842381804008062 
0.3099999999999822, -0.6846855755121757 
0.3199999999999811, -0.6848316750233925 
0.32999999999998, -0.6847077512763025 
0.3399999999999789, -0.6843032580088153 
0.3499999999999778, -0.6835648363541601 
0.35999999999997667, -0.6823954379104605 
0.36999999999997557, -0.6806631533586431 
0.37999999999997447, -0.6782348332594509 
0.38999999999997337, -0.6750429747867963 
0.39999999999997227, -0.6711613515113654 
0.40999999999997117, -0.6668269552993753 
0.41999999999997006, -0.6623690283472634 
0.42999999999996896, -0.6580921011342762 
0.43999999999996786, -0.65419829306301 
0.44999999999996676, -0.650779868748314 
0.45999999999996566, -0.647853177047912 
0.46999999999996456, -0.6453971650868943 
0.47999999999996346, -0.6433793345965377 
0.48999999999996235, -0.641767943212107 
0.49999999999996125, -0.6405350309405429 
0.5099999999999602, -0.6396550422297109 
0.519999999999959, -0.639102397403114 
0.529999999999958, -0.6388499341196023 
0.5399999999999568, -0.638869017730159 
0.5499999999999557, -0.6391312997990656 
0.5599999999999546, -0.6396115852605825 
0.5699999999999535, -0.6402910326573703 
0.5799999999999524, -0.6411598031423967 
0.5899999999999513, -0.6422180133325941 
0.5999999999999502, -0.6434732906350724 
0.6099999999999491, -0.6449327733251401 
0.619999999999948, -0.6465882025549631 
0.6299999999999469, -0.6483964077395596 
0.6399999999999458, -0.6502644684416754 
0.6499999999999447, -0.6520547417700755 
0.6599999999999436, -0.6536185671338574 
0.6699999999999425, -0.6548442688419835 
0.6799999999999414, -0.6556873259817764 
0.6899999999999403, -0.6561648229143333 
0.6999999999999392, -0.6563266975321111 
0.7099999999999381, -0.656227040888042 
0.719999999999937, -0.6559075205734904 
0.7299999999999359, -0.6553926862523809 
0.7399999999999348, -0.6546934393875794 
0.7499999999999337, -0.653817592760215 
0.7599999999999326, -0.6527912249469869 
0.7699999999999315, -0.6516997852767883 
0.7799999999999304, -0.6507610657587612 
0.7899999999999293, -0.6504323935235321 
0.7999999999999282, -0.6515013210369818 
0.8099999999999271, -0.6549715020561593 
0.819999999999926, -0.6614224460873128 
0.8299999999999249, -0.6699391862720759 
0.8399999999999238, -0.6780427291259941 
0.8499999999999227, -0.6837746549424418 
0.8599999999999216, -0.6873573959465593 
0.8699999999999205, -0.6900383130807077 
0.8799999999999194, -0.6925075913560198 
0.8899999999999183, -0.6947887360107697 
0.8999999999999172, -0.6967219102636278 
0.9099999999999161, -0.6982210048040038 
0.919999999999915, -0.6992947454268043 
0.9299999999999139, -0.6999979504828816 
0.9399999999999128, -0.700390305551263 
0.9499999999999117, -0.7005143423385619 
0.9599999999999106, -0.7003853176070599 
0.9699999999999095, -0.6999855781614699 
0.9799999999999084, -0.6992601554295657 
0.9899999999999073, -0.6981155426301809 
0.9999999999999062, -0.696429991480138 
1.0099999999999052, -0.6940880806686144 
1.019999999999904, -0.6910434118389273 
1.029999999999903, -0.687381806703844 
1.039999999999902, -0.6833296987821648 
1.0499999999999008, -0.6791832688549467 
1.0599999999998997, -0.6752076307098999 
1.0699999999998986, -0.6715762473326905 
1.0799999999998975, -0.6683695102328088 
1.0899999999998964, -0.665605231645821 
1.0999999999998953, -0.6632709822263074 
1.1099999999998942, -0.6613450983887252 
1.119999999999893, -0.6598059045401241 
1.129999999999892, -0.6586332268305908 
1.1399999999998909, -0.6578064048549254 
1.1499999999998898, -0.6573018296636022 
1.1599999999998887, -0.6570917678381653 
1.1699999999998876, -0.6571451351973975 
1.1799999999998865, -0.6574300181466951 
1.1899999999998854, -0.6579171994473733 
1.1999999999998843, -0.6585837579702681 
1.2099999999998832, -0.6594157979858954 
1.219999999999882, -0.6604091927571226 
1.229999999999881, -0.6615667692767693 
1.2399999999998799, -0.6628901228638194 
1.2499999999998788, -0.6643654523919589 
1.2599999999998777, -0.6659466997340056 
1.2699999999998766, -0.6675453764679877 
1.2799999999998755, -0.6690396481143897 
1.2899999999998744, -0.670306524075039 
1.2999999999998733, -0.6712609688938787 
1.3099999999998722, -0.6718757856119913 
1.319999999999871, -0.6721723514030282 
1.32999999999987, -0.6721956888951242 
1.3399999999998689, -0.6719923405060759 
1.3499999999998678, -0.6715994638878539 
1.3599999999998666, -0.6710449086233654 
1.3699999999998655, -0.6703568200124866 
1.3799999999998644, -0.6695849797442743 
1.3899999999998633, -0.66884180860983 
1.3999999999998622, -0.6683771596113874 
1.4099999999998611, -0.6687036305835449 
1.41999999999986, -0.6707735198871599 
1.429999999999859, -0.6761376924648529 
1.4399999999998578, -0.6868392405693067 
1.4499999999998567, -0.7045855641432738 
1.4599999999998556, -0.7290661013494038 
1.4699999999998545, -0.7568095282214611 
1.4799999999998534, -0.7827422422458864 
1.4899999999998523, -0.803363169174732 
1.4999999999998512, -0.8179686001283386 
1.5099999999998501, -0.8275769140864717 
1.519999999999849, -0.8336172255594457 
1.529999999999848, -0.837300291212961 
1.5399999999998468, -0.8394804629221906 
1.5499999999998457, -0.8407062104504547 
1.5599999999998446, -0.8413068187576609 
1.5699999999998435, -0.8414629412069958 
1.5799999999998424, -0.841250120092201 
1.5899999999998413, -0.8406563217387418 
1.5999999999998402, -0.8395744813699295 
1.6099999999998391, -0.8377673072183439 
1.619999999999838, -0.8348001819408799 
1.629999999999837, -0.8299513365367662 
1.6399999999998358, -0.822163569615776 
1.6499999999998347, -0.8102166901048934 
1.6599999999998336, -0.7933522806274467 
1.6699999999998325, -0.7722048779528501 
1.6799999999998314, -0.7491341538762335 
1.6899999999998303, -0.7272378274977497 
1.6999999999998292, -0.7088565837107179 
1.709999999999828, -0.6948987978685871 
1.719999999999827, -0.685127203549481 
1.729999999999826, -0.6787482418613452 
1.7399999999998248, -0.6748542465315186 
1.7499999999998237, -0.672645447598571 
1.7599999999998226, -0.671503592299621 
1.7699999999998215, -0.6709901305500616 
1.7799999999998204, -0.6708135582219095 
1.7899999999998193, -0.6707893685721115 
1.7999999999998182, -0.6708038653524848 
1.809999999999817, -0.6707862594097127 
1.819999999999816, -0.6706899574584207 
1.8299999999998149, -0.6704826127519041 
1.8399999999998138, -0.6701440403184944 
1.8499999999998127, -0.6696699137023578 
1.8599999999998116, -0.6690765341465716 
1.8699999999998105, -0.6684000383491633 
1.8799999999998094, -0.6676862998143128 
1.8899999999998083, -0.6669753310790675 
1.8999999999998072, -0.6662891266069257 
1.909999999999806, -0.6656293473244481 
1.919999999999805, -0.6649844113975371 
1.9299999999998039, -0.6643406552427967 
1.9399999999998028, -0.6636918760732462 
1.9499999999998017, -0.6630446776659371 
1.9599999999998006, -0.6624206034149671 
1.9699999999997995, -0.6618574868622183 
1.9799999999997984, -0.6614116245263502 
1.9899999999997973, -0.6611607732500059 
1.9999999999997962, -0.6612068472238403 
2.0099999999998173, -0.6616769566186449 
2.0199999999998384, -0.6627219922787794 
2.0299999999998595, -0.664512828265807 
2.0399999999998806, -0.6672344198057915 
2.0499999999999017, -0.671076371978224 
2.059999999999923, -0.6762140552252845 
2.069999999999944, -0.682767778594889 
2.079999999999965, -0.6907243661427062 
2.089999999999986, -0.6998213291702966 
2.100000000000007, -0.7094498750423166 
2.1100000000000283, -0.718706471361484 
2.1200000000000494, -0.7266814203211147 
2.1300000000000705, -0.7328310518016841 
2.1400000000000916, -0.7371232888138215 
2.1500000000001127, -0.7398770830064882 
2.160000000000134, -0.7415082221693376 
2.170000000000155, -0.7423691690540386 
2.180000000000176, -0.7427017072219685 
2.190000000000197, -0.7426459154616838 
2.2000000000002182, -0.7422604381218986 
2.2100000000002393, -0.7415345506150914 
2.2200000000002604, -0.7403856415739712 
2.2300000000002815, -0.7386382667802854 
2.2400000000003026, -0.7359780507709454 
2.2500000000003237, -0.731868434697246 
2.260000000000345, -0.7254167451090048 
2.270000000000366, -0.7152087476394492 
2.280000000000387, -0.6992974409333953 
2.290000000000408, -0.6759186678790446 
2.3000000000004293, -0.6454577067622128 
2.3100000000004504, -0.6121137865158127 
2.3200000000004715, -0.5820162245541465 
2.3300000000004926, -0.5591096461858366 
2.3400000000005137, -0.5437558880499525 
2.3500000000005348, -0.5343111617285562 
2.360000000000556, -0.5288330119304171 
2.370000000000577, -0.5258024708837101 
2.380000000000598, -0.524208220068468 
2.390000000000619, -0.5234262863321051 
2.4000000000006403, -0.5230863686518397 
2.4100000000006614, -0.5229731228141002 
2.4200000000006825, -0.5229623204644235 
2.4300000000007036, -0.5229820226002356 
2.4400000000007247, -0.5229901207136117 
2.450000000000746, -0.5229625686485848 
2.460000000000767, -0.52288885935484 
2.470000000000788, -0.5227721189361958 
2.480000000000809, -0.5226305818854967 
2.49000000000083, -0.522496281311096 
2.5000000000008513, -0.5224077241943007 
2.5100000000008724, -0.5223970711313076 
2.5200000000008935, -0.5224765165628849 
2.5300000000009146, -0.5226300606398274 
2.5400000000009357, -0.5228153204024217 
2.550000000000957, -0.5229760265416774 
2.560000000000978, -0.5230598355770376 
2.570000000000999, -0.5230321011562087 
2.58000000000102, -0.522879432004816 
2.5900000000010412, -0.5226046618408919 
2.6000000000010624, -0.5222194493781218 
2.6100000000010835, -0.5217397275479498 
2.6200000000011046, -0.5211864498988027 
2.6300000000011257, -0.5205929572613711 
2.6400000000011468, -0.520021321795616 
2.650000000001168, -0.5195922105516986 
2.660000000001189, -0.5195338044560228 
2.67000000000121, -0.5202474778482508 
2.680000000001231, -0.5223478982192247 
2.6900000000012523, -0.5265157039915195 
2.7000000000012734, -0.5328157304747693 
2.7100000000012945, -0.539374077120588 
2.7200000000013156, -0.5420248231648063 
2.7300000000013367, -0.5376204084618591 
2.740000000001358, -0.5279706576412972 
2.750000000001379, -0.5178034546129934 
2.7600000000014, -0.5101625307727495 
2.770000000001421, -0.5054729455701426 
2.780000000001442, -0.5029724858311208 
2.7900000000014633, -0.5018038406040646 
2.8000000000014844, -0.5013552366355676 
2.8100000000015055, -0.5012573866718737 
2.8200000000015266, -0.5013045946210519 
2.8300000000015477, -0.501386701995435 
2.840000000001569, -0.5014449548996945 
2.85000000000159, -0.5014464974825581 
2.860000000001611, -0.5013710720436805 
2.870000000001632, -0.5012058348039793 
2.8800000000016532, -0.5009460501379638 
2.8900000000016743, -0.5005996087948434 
2.9000000000016954, -0.5001917234217634 
2.9100000000017165, -0.4997645747384619 
2.9200000000017377, -0.4993684200555193 
2.9300000000017588, -0.4990463533553779 
2.94000000000178, -0.4988197616819641 
2.950000000001801, -0.49868118580565335 
2.960000000001822, -0.49859740373238354 
2.970000000001843, -0.49852133549497807 
2.9800000000018643, -0.49840749248365784 
2.9900000000018854, -0.49822381065043164 
3.0000000000019065, -0.4979555241725107 
3.0100000000019276, -0.49760243227292067 
3.0200000000019487, -0.49717433768409897 
3.03000000000197, -0.49668897650508576 
3.040000000001991, -0.49617501345636283 
3.050000000002012, -0.49568215508715063 
3.060000000002033, -0.49530170732176015 
3.070000000002054, -0.4952033059945348 
3.0800000000020753, -0.4956948287997345 
3.0900000000020964, -0.49730437497128605 
3.1000000000021175, -0.5008393144628274 
3.1100000000021386, -0.5072418763716503 
3.1200000000021597, -0.5168379830320284 
3.130000000002181, -0.5278050750425406 
3.140000000002202, -0.5355843632427719 
3.150000000002223, -0.536282865621062 
3.160000000002244, -0.5310111500176803 
3.1700000000022652, -0.5241383854656988 
3.1800000000022863, -0.5187323039532641 
3.1900000000023074, -0.5154586361916061 
3.2000000000023285, -0.5138211144667152 
3.2100000000023496, -0.5131666054809915 
3.2200000000023707, -0.5130182455298317 
3.230000000002392, -0.5130902041404085 
3.240000000002413, -0.5132268285580266 
3.250000000002434, -0.513347269271412 
3.260000000002455, -0.5134092833634336 
3.2700000000024763, -0.51338850379841 
3.2800000000024974, -0.5132680668800231 
3.2900000000025185, -0.5130354687041863 
3.3000000000025396, -0.5126850807771774 
3.3100000000025607, -0.512224520471749 
3.3200000000025818, -0.5116808372136024 
3.330000000002603, -0.5111004484906065 
3.340000000002624, -0.5105390298035405 
3.350000000002645, -0.5100445703436701 
3.360000000002666, -0.5096422047929893 
3.3700000000026873, -0.5093279970432718 
3.3800000000027084, -0.5090734099180431 
3.3900000000027295, -0.5088375378051775 
3.4000000000027506, -0.5085813770304495 
3.4100000000027717, -0.5082780829379722 
3.420000000002793, -0.5079163884221406 
3.430000000002814, -0.5074990482352492 
3.440000000002835, -0.5070406023349721 
3.450000000002856, -0.506568290282132 
3.460000000002877, -0.5061288367289636 
3.4700000000028983, -0.5058039663350599 
3.4800000000029194, -0.5057393678757574 
3.4900000000029405, -0.5061950583451862 
3.5000000000029616, -0.5076281137245016 
3.5100000000029827, -0.5108148085404127 
3.520000000003004, -0.5169851294445177 
3.530000000003025, -0.5278214329886205 
3.540000000003046, -0.544917040875933 
3.550000000003067, -0.5682207610511986 
3.5600000000030882, -0.5942923448490733 
3.5700000000031094, -0.6174453816993448 
3.5800000000031305, -0.6341051479561408 
3.5900000000031516, -0.644681914381459 
3.6000000000031727, -0.6512794842589397 
3.6100000000031938, -0.6555709970805932 
3.620000000003215, -0.6584673517678794 
3.630000000003236, -0.6604380843302191 
3.640000000003257, -0.6617551031964856 
3.650000000003278, -0.6625947822798508 
3.6600000000032993, -0.663074040101027 
3.6700000000033204, -0.6632644742509723 
3.6800000000033415, -0.6631989662866733 
3.6900000000033626, -0.6628742235082996 
3.7000000000033837, -0.6622507903919123 
3.710000000003405, -0.6612539543591887 
3.720000000003426, -0.6597831722292188 
3.730000000003447, -0.6577410773355685 
3.740000000003468, -0.6550864718262838 
3.750000000003489, -0.6518901232335063 
3.7600000000035103, -0.648346490920538 
3.7700000000035314, -0.6447156897675044 
3.7800000000035525, -0.6412337270229611 
3.7900000000035736, -0.6380544800375539 
3.8000000000035947, -0.6352455476122382 
3.810000000003616, -0.6328158990693666 
3.820000000003637, -0.6307472148787873 
3.830000000003658, -0.6290153935120442 
3.840000000003679, -0.6276009055681521 
3.8500000000037002, -0.6264913703949453 
3.8600000000037213, -0.6256800599918757 
3.8700000000037424, -0.625163027691476 
3.8800000000037635, -0.6249365484326626 
3.8900000000037847, -0.624995818804709 
3.9000000000038058, -0.6253353025365233 
3.910000000003827, -0.6259506217931639 
3.920000000003848, -0.6268414551929525 
3.930000000003869, -0.6280144543779852 
3.94000000000389, -0.6294845854527217 
3.9500000000039113, -0.6312724263937847 
3.9600000000039324, -0.6333941155744661 
3.9700000000039535, -0.6358411610814033 
3.9800000000039746, -0.6385518806390872 
3.9900000000039957, -0.6413872534876519 
4.000000000004016, -0.6441361283564929 
4.010000000003993, -0.6465678132568093 
4.02000000000397, -0.6485108362637776 
4.030000000003946, -0.6499025819640961 
4.040000000003923, -0.6507782879092668 
4.0500000000039, -0.6512222921661631 
4.0600000000038765, -0.6513216937081692 
4.070000000003853, -0.6511405663033651 
4.08000000000383, -0.6507111038051014 
4.090000000003807, -0.6500322633307739 
4.100000000003783, -0.6490692701922152 
4.11000000000376, -0.6477508179770355 
4.120000000003737, -0.6459619497864518 
4.130000000003713, -0.6435271829400845 
4.14000000000369, -0.6401639644000838 
4.150000000003667, -0.6353514702429799 
4.1600000000036434, -0.6280339614006875 
4.17000000000362, -0.6162832659619044 
4.180000000003597, -0.597835662331225 
4.1900000000035735, -0.5726174024073559 
4.20000000000355, -0.544895749758603 
4.210000000003527, -0.5206234053066037 
4.220000000003504, -0.5029528539546001 
4.23000000000348, -0.4916148268750364 
4.240000000003457, -0.4848960158553985 
4.250000000003434, -0.48111796400414625 
4.26000000000341, -0.47908398465381125 
4.270000000003387, -0.47804326706508665 
4.280000000003364, -0.4775512504774664 
4.2900000000033405, -0.47735159696955015 
4.300000000003317, -0.47729807162304744 
4.310000000003294, -0.4773073651048138 
4.320000000003271, -0.4773320143197302 
4.330000000003247, -0.4773458820242144 
4.340000000003224, -0.47733767530531396 
4.350000000003201, -0.47730957870363466 
4.360000000003177, -0.4772781777572617 
4.370000000003154, -0.4772741292864878 
4.380000000003131, -0.4773371226060038 
4.390000000003107, -0.4775049418940376 
4.400000000003084, -0.4777990123714771 
4.410000000003061, -0.4782114624718461 
4.4200000000030375, -0.47869979622218023 
4.430000000003014, -0.4791943656035313 
4.440000000002991, -0.47961830513135456 
4.450000000002968, -0.47991033193851385 
4.460000000002944, -0.4800373679517257 
4.470000000002921, -0.4799921117731838 
4.480000000002898, -0.4797813985617207 
4.490000000002874, -0.47941377711134814 
4.500000000002851, -0.47889045674688724 
4.510000000002828, -0.47819914295203186 
4.520000000002804, -0.4773077531598666 
4.530000000002781, -0.47615273968229826 
4.540000000002758, -0.4746107122510625 
4.5500000000027345, -0.47242533707801837 
4.560000000002711, -0.46902546443868276 
4.570000000002688, -0.46313782284926547 
4.580000000002665, -0.45227401883264895 
4.590000000002641, -0.43307156114421314 
4.600000000002618, -0.40433334587953995 
4.610000000002595, -0.37076089863940986 
4.620000000002571, -0.34028153253457144 
4.630000000002548, -0.317436343336605 
4.640000000002525, -0.3021211312647566 
4.6500000000025015, -0.2923390853083202 
4.660000000002478, -0.286161513234113 
4.670000000002455, -0.28223954269874446 
4.6800000000024315, -0.27972911089626157 
4.690000000002408, -0.27812221122193914 
4.700000000002385, -0.2771173477212248 
4.710000000002362, -0.2765386204868149 
4.720000000002338, -0.27628906985372165 
4.730000000002315, -0.2763254898067573 
4.740000000002292, -0.27664685162266506 
4.750000000002268, -0.2772923179299797 
4.760000000002245, -0.2783473440435853 
4.770000000002222, -0.2799578264724543 
4.7800000000021985, -0.2823522809820372 
4.790000000002175, -0.28586828110548745 
4.800000000002152, -0.29096514789369093 
4.810000000002129, -0.2981685940140901 
4.820000000002105, -0.30784032097205133 
4.830000000002082, -0.31970470590336814 
4.840000000002059, -0.33243119016052325 
4.850000000002035, -0.3440125063510563 
4.860000000002012, -0.3529675194588246 
4.870000000001989, -0.3590549361856492 
4.880000000001965, -0.36287075707486216 
4.890000000001942, -0.36516311126229384 
4.900000000001919, -0.3665023969613691 
4.9100000000018955, -0.3672470701385313 
