t, s[1].omega / s[0].omega 
0, -0.7499976721604253 
0.009999999999999995, -0.7497429495255246 
0.019999999999999934, -0.7494425653102094 
0.029999999999999874, -0.7490916775168586 
0.04000000000000012, -0.7486870098403603 
0.050000000000000405, -0.7482308181060281 
0.06000000000000069, -0.7477330179303522 
0.07000000000000098, -0.7472118173644626 
0.08000000000000126, -0.7466941753292532 
0.09000000000000155, -0.746216945891878 
0.10000000000000184, -0.7458284618281268 
0.11000000000000212, -0.7455894074781814 
0.12000000000000241, -0.7455715626536434 
0.130000000000002, -0.7458535031756883 
0.1400000000000009, -0.7465134324084702 
0.1499999999999998, -0.7476203369442554 
0.1599999999999987, -0.7492247513006617 
0.1699999999999976, -0.7513492723735171 
0.1799999999999965, -0.7539774509836081 
0.1899999999999954, -0.7570398123969105 
0.1999999999999943, -0.7603998130418242 
0.2099999999999932, -0.7638506482167717 
0.2199999999999921, -0.7671393591384519 
0.229999999999991, -0.770024194239197 
0.2399999999999899, -0.7723421363221987 
0.2499999999999888, -0.7740446708354409 
0.2599999999999877, -0.775181638998585 
0.2699999999999866, -0.7758536666536946 
0.2799999999999855, -0.7761671179569818 
0.2899999999999844, -0.7762085499496684 
0.2999999999999833, -0.7760367489305171 
0.3099999999999822, -0.7756841693565727 
0.3199999999999811, -0.7751618051414355 
0.32999999999998, -0.77446555007888 
0.3399999999999789, -0.7735854533322165 
0.3499999999999778, -0.7725218785750321 
0.35999999999997667, -0.7713139795848073 
0.36999999999997557, -0.7700830499822391 
0.37999999999997447, -0.7690795244212298 
0.38999999999997337, -0.7686932171130517 
0.39999999999997227, -0.7693615127182432 
0.40999999999997117, -0.7713541006554342 
0.41999999999997006, -0.7745610252803808 
0.42999999999996896, -0.7784980196163327 
0.43999999999996786, -0.7825501585993655 
0.44999999999996676, -0.786226675510255 
0.45999999999996566, -0.7892616563839752 
0.46999999999996456, -0.7915877387029596 
0.47999999999996346, -0.7932630045337646 
0.48999999999996235, -0.7943999658305881 
0.49999999999996125, -0.795116556934637 
0.5099999999999602, -0.7955108188486598 
0.519999999999959, -0.7956518304797747 
0.529999999999958, -0.7955782566335078 
0.5399999999999568, -0.7952983334487809 
0.5499999999999557, -0.7947877838669501 
0.5599999999999546, -0.7939841740116768 
0.5699999999999535, -0.7927784719296153 
0.5799999999999524, -0.7910088971854596 
0.5899999999999513, -0.78846997664362 
0.5999999999999502, -0.7849573861879106 
0.6099999999999491, -0.7803609790621974 
0.619999999999948, -0.7747760039268431 
0.6299999999999469, -0.7685503523441463 
0.6399999999999458, -0.7622041591977592 
0.6499999999999447, -0.756262854666033 
0.6599999999999436, -0.7511137949592086 
0.6699999999999425, -0.7469519209604397 
0.6799999999999414, -0.7438006652195975 
0.6899999999999403, -0.7415647480250946 
0.6999999999999392, -0.7400843974546432 
0.7099999999999381, -0.7391789636610967 
0.719999999999937, -0.7386772004523039 
0.7299999999999359, -0.7384345156364043 
0.7399999999999348, -0.7383389934407726 
0.7499999999999337, -0.7383093235880955 
0.7599999999999326, -0.7382883880761214 
0.7699999999999315, -0.7382358642536252 
0.7799999999999304, -0.7381222370128641 
0.7899999999999293, -0.7379255978733497 
0.7999999999999282, -0.7376315907989626 
0.8099999999999271, -0.7372355349813088 
0.819999999999926, -0.7367442637225692 
0.8299999999999249, -0.7361748352656174 
0.8399999999999238, -0.7355492882039363 
0.8499999999999227, -0.7348879387442252 
0.8599999999999216, -0.7342051394291115 
0.8699999999999205, -0.7335094936525278 
0.8799999999999194, -0.7328073939668152 
0.8899999999999183, -0.73210728757147 
0.8999999999999172, -0.7314228289006653 
0.9099999999999161, -0.7307745672339432 
0.919999999999915, -0.730190579739187 
0.9299999999999139, -0.7297062932176138 
0.9399999999999128, -0.7293632944776606 
0.9499999999999117, -0.7292068271841152 
0.9599999999999106, -0.7292820656725533 
0.9699999999999095, -0.7296298580316355 
0.9799999999999084, -0.7302829462608814 
0.9899999999999073, -0.7312633310258979 
0.9999999999999062, -0.7325804855106769 
1.0099999999999052, -0.7342289939778754 
1.019999999999904, -0.7361836225737962 
1.029999999999903, -0.7383907461600304 
1.039999999999902, -0.7407583947395776 
1.0499999999999008, -0.7431526204775774 
1.0599999999998997, -0.7454111232954517 
1.0699999999998986, -0.7473781272255253 
1.0799999999998975, -0.7489464679100648 
1.0899999999998964, -0.750081120604179 
1.0999999999998953, -0.7508108728460603 
1.1099999999998942, -0.7511993163732612 
1.119999999999893, -0.7513157535394227 
1.129999999999892, -0.7512175593067997 
1.1399999999998909, -0.7509440388354546 
1.1499999999998898, -0.7505174024905148 
1.1599999999998887, -0.7499476076368886 
1.1699999999998876, -0.7492406292564209 
1.1799999999998865, -0.7484123715653918 
1.1899999999998854, -0.7475122181866324 
1.1999999999998843, -0.7466594736001267 
1.2099999999998832, -0.746088333642657 
1.219999999999882, -0.7461764490126052 
1.229999999999881, -0.7474011787401489 
1.2399999999998799, -0.7501624599922043 
1.2499999999998788, -0.7545048606190174 
1.2599999999998777, -0.7599524457765632 
1.2699999999998766, -0.7656821705267115 
1.2799999999998755, -0.7709270169190222 
1.2899999999998744, -0.7752507923518942 
1.2999999999998733, -0.7785513773961822 
1.3099999999998722, -0.7809283602390827 
1.319999999999871, -0.7825579998338368 
1.32999999999987, -0.7836185561326652 
1.3399999999998689, -0.7842572368311492 
1.3499999999998678, -0.7845811902450806 
1.3599999999998666, -0.7846590143333642 
1.3699999999998655, -0.7845246085319686 
1.3799999999998644, -0.7841791155870593 
1.3899999999998633, -0.783588998116734 
1.3999999999998622, -0.782679828505527 
1.4099999999998611, -0.7813276688599403 
1.41999999999986, -0.7793549973269595 
1.429999999999859, -0.776546824739063 
1.4399999999998578, -0.7727086902643443 
1.4499999999998567, -0.7677722813459877 
1.4599999999998556, -0.7619024474786027 
1.4699999999998545, -0.755514618926505 
1.4799999999998534, -0.7491586024779426 
1.4899999999998523, -0.7433407497964177 
1.4999999999998512, -0.7383986805812249 
1.5099999999998501, -0.7344728892099918 
1.519999999999849, -0.7315444762563408 
1.529999999999848, -0.7294933414639482 
1.5399999999998468, -0.7281507750757956 
1.5499999999998457, -0.7273384988635417 
1.5599999999998446, -0.7268938267020193 
1.5699999999998435, -0.7266826021810643 
1.5799999999998424, -0.7266024011622281 
1.5899999999998413, -0.7265792063645169 
1.5999999999998402, -0.7265609344844676 
1.6099999999998391, -0.7265106645259481 
1.619999999999838, -0.7264015334469166 
1.629999999999837, -0.7262143534913459 
1.6399999999998358, -0.7259379845970012 
1.6499999999998347, -0.7255711524338544 
1.6599999999998336, -0.7251231780796319 
1.6699999999998325, -0.7246113334726803 
1.6799999999998314, -0.7240549944178482 
1.6899999999998303, -0.7234696555857945 
1.6999999999998292, -0.7228642856692901 
1.709999999999828, -0.7222430191425226 
1.719999999999827, -0.7216093654271233 
1.729999999999826, -0.7209703424456453 
1.7399999999998248, -0.7203391561597885 
1.7499999999998237, -0.7197365594244318 
1.7599999999998226, -0.7191915560132843 
1.7699999999998215, -0.7187417120097315 
1.7799999999998204, -0.7184327347549992 
1.7899999999998193, -0.7183167633978765 
1.7999999999998182, -0.7184491327670977 
1.809999999999817, -0.7188839923154569 
1.819999999999816, -0.7196696112719896 
1.8299999999998149, -0.7208440208900585 
1.8399999999998138, -0.7224307202887668 
1.8499999999998127, -0.7244329300718457 
1.8599999999998116, -0.7268242951440598 
1.8699999999998105, -0.7295354848581499 
1.8799999999998094, -0.7324412178625597 
1.8899999999998083, -0.7353597110551863 
1.8999999999998072, -0.7380787480582305 
1.909999999999806, -0.7404083900407973 
1.919999999999805, -0.7422343409279477 
1.9299999999998039, -0.7435377277033994 
1.9399999999998028, -0.7443730958914065 
1.9499999999998017, -0.7448273298058204 
1.9599999999998006, -0.7449855279057458 
1.9699999999997995, -0.7449134265042804 
1.9799999999997984, -0.7446527420364801 
1.9899999999997973, -0.7442228641304454 
1.9999999999997962, -0.7436247824896262 
2.0099999999998173, -0.7428463169466035 
2.0199999999998384, -0.7418702490577083 
2.0299999999998595, -0.7406887454494245 
2.0399999999998806, -0.73932759910446 
2.0499999999999017, -0.7378790458670785 
2.059999999999923, -0.7365275951771467 
2.069999999999944, -0.7355330448712923 
2.079999999999965, -0.7351395891846859 
2.089999999999986, -0.7354516672396293 
2.100000000000007, -0.7363954479773731 
2.1100000000000283, -0.737800648820569 
2.1200000000000494, -0.7394781002128518 
2.1300000000000705, -0.7412316459646922 
2.1400000000000916, -0.7428753689044987 
2.1500000000001127, -0.7442757081743028 
2.160000000000134, -0.7453729491786211 
2.170000000000155, -0.7461676149055362 
2.180000000000176, -0.746692150429525 
2.190000000000197, -0.7469866039221931 
2.2000000000002182, -0.7470836988644913 
2.2100000000002393, -0.7470010615906763 
2.2200000000002604, -0.7467368534286265 
2.2300000000002815, -0.7462661610013207 
2.2400000000003026, -0.7455374197467097 
2.2500000000003237, -0.7444708155063368 
2.260000000000345, -0.7429642650786752 
2.270000000000366, -0.7409154289953024 
2.280000000000387, -0.7382641063175949 
2.290000000000408, -0.73504206266607 
2.3000000000004293, -0.7313968913602807 
2.3100000000004504, -0.7275629861923009 
2.3200000000004715, -0.7237933706725255 
2.3300000000004926, -0.7202964889094646 
2.3400000000005137, -0.7172079118852801 
2.3500000000005348, -0.7145940301791363 
2.360000000000556, -0.7124694623134851 
2.370000000000577, -0.7108142677447071 
2.380000000000598, -0.7095862920594829 
2.390000000000619, -0.7087294879578447 
2.4000000000006403, -0.708180326733864 
2.4100000000006614, -0.707873536457743 
2.4200000000006825, -0.7077471810862661 
2.4300000000007036, -0.7077464755751067 
2.4400000000007247, -0.7078258850961705 
2.450000000000746, -0.7079496304976481 
2.460000000000767, -0.7080912151076438 
2.470000000000788, -0.7082326461874195 
2.480000000000809, -0.7083635636017076 
2.49000000000083, -0.7084797659209869 
2.5000000000008513, -0.7085802935135769 
2.5100000000008724, -0.7086629904604503 
2.5200000000008935, -0.7087201545645476 
2.5300000000009146, -0.7087370056184815 
2.5400000000009357, -0.7086946435399969 
2.550000000000957, -0.708576209448915 
2.560000000000978, -0.7083726572111557 
2.570000000000999, -0.7080852301552614 
2.58000000000102, -0.7077246773252666 
2.5900000000010412, -0.7073095319446604 
2.6000000000010624, -0.7068658950779938 
2.6100000000010835, -0.7064299838096415 
2.6200000000011046, -0.7060535068089859 
2.6300000000011257, -0.7058110726082316 
2.6400000000011468, -0.7058080325828818 
2.650000000001168, -0.7061861997719507 
2.660000000001189, -0.7071238832321988 
2.67000000000121, -0.7088258549285333 
2.680000000001231, -0.7114982270018211 
2.6900000000012523, -0.7153029809924945 
2.7000000000012734, -0.7202895040144222 
2.7100000000012945, -0.7263128733665337 
2.7200000000013156, -0.7329772942036066 
2.7300000000013367, -0.7396719816086916 
2.740000000001358, -0.7457397681079121 
2.750000000001379, -0.75070607190427 
2.7600000000014, -0.7544100523325337 
2.770000000001421, -0.7569611206509693 
2.780000000001442, -0.7585988335577009 
2.7900000000014633, -0.7595711844690913 
2.8000000000014844, -0.7600755797934668 
2.8100000000015055, -0.7602468361647343 
2.8200000000015266, -0.7601649083312345 
2.8300000000015477, -0.7598653516264497 
2.840000000001569, -0.7593455789796182 
2.85000000000159, -0.7585648381934386 
2.860000000001611, -0.7574373723465068 
2.870000000001632, -0.7558189429465156 
2.8800000000016532, -0.7534893106739017 
2.8900000000016743, -0.7501411690367527 
2.9000000000016954, -0.7454041748473411 
2.9100000000017165, -0.7389564318593735 
2.9200000000017377, -0.7307610826107165 
2.9300000000017588, -0.7213321546887047 
2.94000000000178, -0.7117455674592946 
2.950000000001801, -0.7032217348764147 
2.960000000001822, -0.6965747416525025 
2.970000000001843, -0.6919844794833295 
2.9800000000018643, -0.6891558390888847 
2.9900000000018854, -0.6876062284128632 
3.0000000000019065, -0.6868738297242787 
3.0100000000019276, -0.6866053575744098 
3.0200000000019487, -0.6865644394829327 
3.03000000000197, -0.686606768016131 
3.040000000001991, -0.6866493510946505 
3.050000000002012, -0.6866449585952054 
3.060000000002033, -0.6865641362263196 
3.070000000002054, -0.6863838923078337 
3.0800000000020753, -0.6860817790989074 
3.0900000000020964, -0.685634821865401 
3.1000000000021175, -0.6850233087127581 
3.1100000000021386, -0.6842386349444547 
3.1200000000021597, -0.683291742600799 
3.130000000002181, -0.6822162403140131 
3.140000000002202, -0.6810620695114187 
3.150000000002223, -0.6798821960399196 
3.160000000002244, -0.6787201357178343 
3.1700000000022652, -0.6776045961512861 
3.1800000000022863, -0.676551634347393 
3.1900000000023074, -0.6755706130680259 
3.2000000000023285, -0.6746700906868303 
3.2100000000023496, -0.6738617252871077 
3.2200000000023707, -0.6731620185064164 
3.230000000002392, -0.6725924319839703 
3.240000000002413, -0.6721784064093271 
3.250000000002434, -0.6719476730610526 
3.260000000002455, -0.6719282443513761 
3.2700000000024763, -0.6721465428952201 
3.2800000000024974, -0.6726260809501052 
3.2900000000025185, -0.6733867891767287 
3.3000000000025396, -0.6744445078866785 
3.3100000000025607, -0.6758094187719947 
3.3200000000025818, -0.677481582075617 
3.330000000002603, -0.6794418402551573 
3.340000000002624, -0.681638258830103 
3.350000000002645, -0.6839730964057943 
3.360000000002666, -0.6863016107291497 
3.3700000000026873, -0.6884545770088243 
3.3800000000027084, -0.6902824953410078 
3.3900000000027295, -0.6916979267028657 
3.4000000000027506, -0.6926888425605461 
3.4100000000027717, -0.6932992508986391 
3.420000000002793, -0.6935965402991684 
3.430000000002814, -0.6936452188920611 
3.440000000002835, -0.6934934138081783 
3.450000000002856, -0.693168887758733 
3.460000000002877, -0.6926794652307738 
3.4700000000028983, -0.6920145949946741 
3.4800000000029194, -0.6911469298319978 
3.4900000000029405, -0.6900342545876121 
3.5000000000029616, -0.6886226884144478 
3.5100000000029827, -0.686851327783615 
3.520000000003004, -0.6846557508281739 
3.530000000003025, -0.6819659981509403 
3.540000000003046, -0.678707142849755 
3.550000000003067, -0.6748476607580309 
3.5600000000030882, -0.6705393281076151 
3.5700000000031094, -0.6662365617689356 
3.5800000000031305, -0.6625571457896706 
3.5900000000031516, -0.6599317308787258 
3.6000000000031727, -0.6584068783103687 
3.6100000000031938, -0.6577430483388367 
3.620000000003215, -0.6576184868820945 
3.630000000003236, -0.6577630694508372 
3.640000000003257, -0.6579970549901231 
3.650000000003278, -0.6582181104651764 
3.6600000000032993, -0.6583745537460075 
3.6700000000033204, -0.6584419121420999 
3.6800000000033415, -0.6584067305857645 
3.6900000000033626, -0.6582566024795193 
3.7000000000033837, -0.6579747120623899 
3.710000000003405, -0.6575381263608612 
3.720000000003426, -0.6569203248394323 
3.730000000003447, -0.6560988905764428 
3.740000000003468, -0.6550675208250304 
3.750000000003489, -0.6538472919501696 
3.7600000000035103, -0.6524890089855542 
3.7700000000035314, -0.6510622348953682 
3.7800000000035525, -0.6496363794620867 
3.7900000000035736, -0.6482650821241256 
3.8000000000035947, -0.6469809798230273 
3.810000000003616, -0.6457997162584126 
3.820000000003637, -0.6447277878915724 
3.830000000003658, -0.6437696611758835 
3.840000000003679, -0.6429322788624351 
3.8500000000037002, -0.6422270401659013 
3.8600000000037213, -0.6416700389262271 
3.8700000000037424, -0.6412812944487263 
3.8800000000037635, -0.6410834994106097 
3.8900000000037847, -0.6411006909592377 
3.9000000000038058, -0.6413571895869613 
3.910000000003827, -0.6418770070802245 
3.920000000003848, -0.642683591702635 
3.930000000003869, -0.6437992224408333 
3.94000000000389, -0.6452426383525258 
3.9500000000039113, -0.6470228319885725 
3.9600000000039324, -0.6491270509356684 
3.9700000000039535, -0.6515033874867415 
3.9800000000039746, -0.6540443719655179 
3.9900000000039957, -0.6565858217599028 
4.000000000004016, -0.6589352354375165 
4.010000000003993, -0.6609255073613688 
4.02000000000397, -0.6624635048885641 
4.030000000003946, -0.6635420213345974 
4.040000000003923, -0.6642143633705118 
4.0500000000039, -0.6645565311636259 
4.0600000000038765, -0.6646387858647869 
4.070000000003853, -0.664511894634022 
4.08000000000383, -0.6642031912593224 
4.090000000003807, -0.6637162854980799 
4.100000000003783, -0.6630303660098322 
4.11000000000376, -0.6620969256738162 
4.120000000003737, -0.6608325791207608 
4.130000000003713, -0.659106901801609 
4.14000000000369, -0.6567253376714206 
4.150000000003667, -0.6534134316214869 
4.1600000000036434, -0.6488290702275086 
4.17000000000362, -0.6426658798243053 
4.180000000003597, -0.6349051558635422 
4.1900000000035735, -0.626098954171906 
4.20000000000355, -0.6173312011893369 
4.210000000003527, -0.6097188137203928 
4.220000000003504, -0.6038896575305673 
4.23000000000348, -0.599878379178345 
4.240000000003457, -0.5973568363414965 
4.250000000003434, -0.5958976796587702 
4.26000000000341, -0.5951247093547727 
4.270000000003387, -0.5947597569991883 
4.280000000003364, -0.594616599641844 
4.2900000000033405, -0.5945780354266426 
4.300000000003317, -0.594572816876386 
4.310000000003294, -0.594557745580863 
4.320000000003271, -0.5945054490415509 
4.330000000003247, -0.5943969960482407 
4.340000000003224, -0.5942185035121785 
4.350000000003201, -0.593961102864556 
4.360000000003177, -0.5936233502225103 
4.370000000003154, -0.5932141333522132 
4.380000000003131, -0.592753126142957 
4.390000000003107, -0.5922665684370576 
4.400000000003084, -0.5917792374784527 
4.410000000003061, -0.5913066567947619 
4.4200000000030375, -0.5908517691269797 
4.430000000003014, -0.5904073527233863 
4.440000000002991, -0.5899620727763466 
4.450000000002968, -0.5895066771404861 
4.460000000002944, -0.58903793218847 
4.470000000002921, -0.5885601157605107 
4.480000000002898, -0.5880854635947321 
4.490000000002874, -0.5876352130058976 
4.500000000002851, -0.5872423426482068 
4.510000000002828, -0.5869565185489976 
4.520000000002804, -0.5868513895466159 
4.530000000002781, -0.5870340596844669 
4.540000000002758, -0.5876559129211503 
4.5500000000027345, -0.5889223657904701 
4.560000000002711, -0.5910955797220034 
4.570000000002688, -0.5944775050340254 
4.580000000002665, -0.5993516446520322 
4.590000000002641, -0.6058601545453496 
4.600000000002618, -0.6138253842524725 
4.610000000002595, -0.6226169766096562 
4.620000000002571, -0.6312480927426505 
4.630000000002548, -0.6387577803463308 
4.640000000002525, -0.6446118289269946 
4.6500000000025015, -0.6487923227513868 
4.660000000002478, -0.6515952415279801 
4.670000000002455, -0.6533900017836943 
4.6800000000024315, -0.6544885012022453 
4.690000000002408, -0.6551125652015167 
4.700000000002385, -0.6554050681779763 
4.710000000002362, -0.6554497044566452 
4.720000000002338, -0.6552863938817561 
4.730000000002315, -0.6549197424200001 
4.740000000002292, -0.6543212703522948 
4.750000000002268, -0.6534272377131737 
4.760000000002245, -0.6521357786079187 
4.770000000002222, -0.6503113322522851 
4.7800000000021985, -0.6478098845099585 
4.790000000002175, -0.6445367591281667 
4.800000000002152, -0.6405249332676881 
4.810000000002129, -0.6359817371484754 
4.820000000002105, -0.6312482964357943 
4.830000000002082, -0.6266851967419962 
4.840000000002059, -0.6225652009257582 
4.850000000002035, -0.6190328763524945 
4.860000000002012, -0.6161239961251823 
4.870000000001989, -0.6138065608373695 
4.880000000001965, -0.6120163253964453 
4.890000000001942, -0.610679002391866 
4.900000000001919, -0.6097215376802616 
4.9100000000018955, -0.6090769794245549 
4.920000000001872, -0.6086863257753817 
