t, s[1].omega / s[0].omega 
0, -0.7399976763765032 
0.009999999999999995, -0.7397468497251779 
0.019999999999999934, -0.7394557977703718 
0.029999999999999874, -0.7391160659941222 
0.04000000000000012, -0.7387202184557149 
0.050000000000000405, -0.7382673829875417 
0.06000000000000069, -0.7377662282622254 
0.07000000000000098, -0.7372357544779707 
0.08000000000000126, -0.7367057390241 
0.09000000000000155, -0.7362181671479134 
0.10000000000000184, -0.735829526962142 
0.11000000000000212, -0.7356126007170241 
0.12000000000000241, -0.7356559005439343 
0.130000000000002, -0.7360593812494843 
0.1400000000000009, -0.7369263710386281 
0.1499999999999998, -0.738353026713672 
0.1599999999999987, -0.7404168591836212 
0.1699999999999976, -0.7431643465572144 
0.1799999999999965, -0.7465952522233603 
0.1899999999999954, -0.7506407216606803 
0.1999999999999943, -0.755137490664023 
0.2099999999999932, -0.7598137049726248 
0.2199999999999921, -0.7643147649582567 
0.229999999999991, -0.7682862950034217 
0.2399999999999899, -0.7714828190646161 
0.2499999999999888, -0.7738306359218108 
0.2599999999999877, -0.775405350468678 
0.2699999999999866, -0.7763569791957312 
0.2799999999999855, -0.7768404512309918 
0.2899999999999844, -0.7769786815262654 
0.2999999999999833, -0.776852990333818 
0.3099999999999822, -0.7765065579440634 
0.3199999999999811, -0.7759512485055564 
0.32999999999998, -0.775174605356357 
0.3399999999999789, -0.7741485857294792 
0.3499999999999778, -0.7728453915304114 
0.35999999999997667, -0.7712689613727008 
0.36999999999997557, -0.7695099799532946 
0.37999999999997447, -0.767817411993802 
0.38999999999997337, -0.7666381845706682 
0.39999999999997227, -0.7665281509857944 
0.40999999999997117, -0.7678837459107356 
0.41999999999997006, -0.770665077876443 
0.42999999999996896, -0.774407629461239 
0.43999999999996786, -0.7785004030238476 
0.44999999999996676, -0.7824182498471703 
0.45999999999996566, -0.7858071834834879 
0.46999999999996456, -0.7885017937847688 
0.47999999999996346, -0.7904967601620132 
0.48999999999996235, -0.7918823361847378 
0.49999999999996125, -0.792779683937183 
0.5099999999999602, -0.7932995167369844 
0.519999999999959, -0.7935237557164755 
0.529999999999958, -0.7935001860728244 
0.5399999999999568, -0.793241037241866 
0.5499999999999557, -0.7927199292468599 
0.5599999999999546, -0.791864604380727 
0.5699999999999535, -0.7905459821788662 
0.5799999999999524, -0.7885698666383567 
0.5899999999999513, -0.785688189719549 
0.5999999999999502, -0.7816567439496518 
0.6099999999999491, -0.7763534633564083 
0.619999999999948, -0.7699118668078613 
0.6299999999999469, -0.7627609424559464 
0.6399999999999458, -0.7555061033174703 
0.6499999999999447, -0.7487274221191311 
0.6599999999999436, -0.7428322916231298 
0.6699999999999425, -0.7380180610385753 
0.6799999999999414, -0.7343085252397622 
0.6899999999999403, -0.7316114951639636 
0.6999999999999392, -0.7297700293443528 
0.7099999999999381, -0.7286015044509411 
0.719999999999937, -0.7279258451537627 
0.7299999999999359, -0.7275840344034367 
0.7399999999999348, -0.7274473298760903 
0.7499999999999337, -0.7274184286527343 
0.7599999999999326, -0.7274271571980204 
0.7699999999999315, -0.7274238689697302 
0.7799999999999304, -0.7273733654158179 
0.7899999999999293, -0.7272512166390481 
0.7999999999999282, -0.7270430821473305 
0.8099999999999271, -0.7267459656169687 
0.819999999999926, -0.726368711875383 
0.8299999999999249, -0.7259289619735159 
0.8399999999999238, -0.7254463494986582 
0.8499999999999227, -0.724935263986265 
0.8599999999999216, -0.7244014834095942 
0.8699999999999205, -0.7238442901186096 
0.8799999999999194, -0.7232620324392662 
0.8899999999999183, -0.7226576823369202 
0.8999999999999172, -0.7220423296216716 
0.9099999999999161, -0.7214367784249869 
0.919999999999915, -0.7208724316199114 
0.9299999999999139, -0.7203921564685382 
0.9399999999999128, -0.7200507849778325 
0.9499999999999117, -0.7199142610696089 
0.9599999999999106, -0.7200565978287061 
0.9699999999999095, -0.7205546388236247 
0.9799999999999084, -0.7214815778453032 
0.9899999999999073, -0.7229004888943769 
0.9999999999999062, -0.7248582149778025 
1.0099999999999052, -0.727378082124918 
1.019999999999904, -0.7304482002297126 
1.029999999999903, -0.7340026893514366 
1.039999999999902, -0.7378988592253454 
1.0499999999999008, -0.7419051985288718 
1.0599999999998997, -0.7457249040604617 
1.0699999999998986, -0.7490671887294915 
1.0799999999998975, -0.7517365010363255 
1.0899999999998964, -0.7536801570850986 
1.0999999999998953, -0.7549659436634987 
1.1099999999998942, -0.7557196543886094 
1.119999999999893, -0.7560689343169071 
1.129999999999892, -0.7561137674973936 
1.1399999999998909, -0.7559187384405587 
1.1499999999998898, -0.7555156457913438 
1.1599999999998887, -0.7549089637547747 
1.1699999999998876, -0.7540819232572478 
1.1799999999998865, -0.7530050121518441 
1.1899999999998854, -0.7516519150981527 
1.1999999999998843, -0.7500300250605842 
1.2099999999998832, -0.7482295692378857 
1.219999999999882, -0.7464774942618688 
1.229999999999881, -0.7451438833165613 
1.2399999999998799, -0.7446260058695908 
1.2499999999998788, -0.7451279067848433 
1.2599999999998777, -0.7465453248750913 
1.2699999999998766, -0.7486041462359869 
1.2799999999998755, -0.751031673356123 
1.2899999999998744, -0.753564229664081 
1.2999999999998733, -0.7559382241085734 
1.3099999999998722, -0.7579550670909978 
1.319999999999871, -0.7595281887727603 
1.32999999999987, -0.76066604074758 
1.3399999999998689, -0.7614260443853331 
1.3499999999998678, -0.7618755203543787 
1.3599999999998666, -0.7620694053156543 
1.3699999999998655, -0.762040158690347 
1.3799999999998644, -0.7617929739661159 
1.3899999999998633, -0.7613015184663254 
1.3999999999998622, -0.760502262606028 
1.4099999999998611, -0.7592889995248162 
1.41999999999986, -0.7575146711675906 
1.429999999999859, -0.7550143467478352 
1.4399999999998578, -0.7516628520533983 
1.4499999999998567, -0.7474578775910801 
1.4599999999998556, -0.7425781993630093 
1.4699999999998545, -0.7373581468429772 
1.4799999999998534, -0.7321827719367043 
1.4899999999998523, -0.7273771538511191 
1.4999999999998512, -0.7231518659709485 
1.5099999999998501, -0.7196060322550779 
1.519999999999849, -0.716756220573012 
1.529999999999848, -0.7145656019168076 
1.5399999999998468, -0.712964737971766 
1.5499999999998457, -0.7118653962514404 
1.5599999999998446, -0.7111709397864246 
1.5699999999998435, -0.7107852400394544 
1.5799999999998424, -0.7106200537578332 
1.5899999999998413, -0.7105999561383693 
1.5999999999998402, -0.710664349062722 
1.6099999999998391, -0.7107670437779622 
1.619999999999838, -0.7108746431545165 
1.629999999999837, -0.7109649788004413 
1.6399999999998358, -0.7110261362726624 
1.6499999999998347, -0.711055415496133 
1.6599999999998336, -0.7110567233069047 
1.6699999999998325, -0.7110354828520816 
1.6799999999998314, -0.7109923491917067 
1.6899999999998303, -0.7109191029739613 
1.6999999999998292, -0.7107997035078365 
1.709999999999828, -0.7106163068587871 
1.719999999999827, -0.7103566605209053 
1.729999999999826, -0.7100188534237213 
1.7399999999998248, -0.709612232735641 
1.7499999999998237, -0.709156430851854 
1.7599999999998226, -0.7086813170984807 
1.7699999999998215, -0.7082295628535751 
1.7799999999998204, -0.7078619238486019 
1.7899999999998193, -0.7076640912956548 
1.7999999999998182, -0.7077530284716245 
1.809999999999817, -0.708280060023959 
1.819999999999816, -0.7094278306921505 
1.8299999999998149, -0.7113986031246309 
1.8399999999998138, -0.7143915090924766 
1.8499999999998127, -0.7185653705256196 
1.8599999999998116, -0.7239826274243905 
1.8699999999998105, -0.7305349368011061 
1.8799999999998094, -0.7378727666718372 
1.8899999999998083, -0.7453988625901575 
1.8999999999998072, -0.7523945078878127 
1.909999999999806, -0.7582600790451913 
1.919999999999805, -0.7627159519322524 
1.9299999999998039, -0.7658182717788575 
1.9399999999998028, -0.7678193851530992 
1.9499999999998017, -0.7690114051359187 
1.9599999999998006, -0.7696371150762903 
1.9699999999997995, -0.7698652484154425 
1.9799999999997984, -0.7697968936838893 
1.9899999999997973, -0.7694784984788103 
1.9999999999997962, -0.76891073987209 
2.0099999999998173, -0.7680500992249895 
2.0199999999998384, -0.7668025941418481 
2.0299999999998595, -0.7650099335699362 
2.0399999999998806, -0.7624299170713184 
2.0499999999999017, -0.7587182248365105 
2.059999999999923, -0.7534335843469556 
2.069999999999944, -0.7461202350282291 
2.079999999999965, -0.7365534007668513 
2.089999999999986, -0.7251495741957037 
2.100000000000007, -0.7132128469630395 
2.1100000000000283, -0.7025101850772497 
2.1200000000000494, -0.6943446990674205 
2.1300000000000705, -0.6890173459866603 
2.1400000000000916, -0.686043544362417 
2.1500000000001127, -0.684666387708669 
2.160000000000134, -0.684212730070833 
2.170000000000155, -0.6842127322654872 
2.180000000000176, -0.6843838223620806 
2.190000000000197, -0.6845734112662201 
2.2000000000002182, -0.6847052708522822 
2.2100000000002393, -0.6847416115753034 
2.2200000000002604, -0.6846594942287709 
2.2300000000002815, -0.6844372752484917 
2.2400000000003026, -0.6840479174314148 
2.2500000000003237, -0.6834582268940868 
2.260000000000345, -0.6826348458998812 
2.270000000000366, -0.6815573451699123 
2.280000000000387, -0.6802344121656565 
2.290000000000408, -0.6787131726626427 
2.3000000000004293, -0.6770720999314952 
2.3100000000004504, -0.675399173662901 
2.3200000000004715, -0.6737688009607237 
2.3300000000004926, -0.6722301835105997 
2.3400000000005137, -0.6708090980453759 
2.3500000000005348, -0.6695169251739796 
2.360000000000556, -0.668360127997097 
2.370000000000577, -0.6673466610621277 
2.380000000000598, -0.666488807832178 
2.390000000000619, -0.6658033161894549 
2.4000000000006403, -0.6653098966393949 
2.4100000000006614, -0.665028975083372 
2.4200000000006825, -0.6649794602229737 
2.4300000000007036, -0.6651771848276462 
2.4400000000007247, -0.6656344550249865 
2.450000000000746, -0.6663607131105204 
2.460000000000767, -0.6673637272984051 
2.470000000000788, -0.6686500529620496 
2.480000000000809, -0.6702228737968666 
2.49000000000083, -0.672075045084885 
2.5000000000008513, -0.6741761109200526 
2.5100000000008724, -0.67645573063031 
2.5200000000008935, -0.6787927849297918 
2.5300000000009146, -0.6810248030343923 
2.5400000000009357, -0.6829853192708744 
2.550000000000957, -0.6845538369035384 
2.560000000000978, -0.6856861744038687 
2.570000000000999, -0.6864073882764935 
2.58000000000102, -0.6867801027675143 
2.5900000000010412, -0.6868725484763332 
2.6000000000010624, -0.6867392944829487 
2.6100000000010835, -0.6864141323283774 
2.6200000000011046, -0.6859097482949041 
2.6300000000011257, -0.6852201084026892 
2.6400000000011468, -0.6843242388814439 
2.650000000001168, -0.683192348553559 
2.660000000001189, -0.6817963985023978 
2.67000000000121, -0.680125713698899 
2.680000000001231, -0.6782002076826112 
2.6900000000012523, -0.6760572187706977 
2.7000000000012734, -0.6736832075912143 
2.7100000000012945, -0.6709335891418958 
2.7200000000013156, -0.6676299814015227 
2.7300000000013367, -0.6639136328419037 
2.740000000001358, -0.660408339259427 
2.750000000001379, -0.6578040555272535 
2.7600000000014, -0.6563597183780364 
2.770000000001421, -0.6558803116248454 
2.780000000001442, -0.6559941803927736 
2.7900000000014633, -0.6563737734961895 
2.8000000000014844, -0.656806709387222 
2.8100000000015055, -0.6571807340724636 
2.8200000000015266, -0.6574465036207364 
2.8300000000015477, -0.6575859177611438 
2.840000000001569, -0.6575913581723205 
2.85000000000159, -0.6574535320227268 
2.860000000001611, -0.6571549282828844 
2.870000000001632, -0.6566675246722709 
2.8800000000016532, -0.6559554683691255 
2.8900000000016743, -0.6549846865218983 
2.9000000000016954, -0.6537396532749056 
2.9100000000017165, -0.6522413937021087 
2.9200000000017377, -0.6505543841643855 
2.9300000000017588, -0.6487733101186903 
2.94000000000178, -0.646995616061932 
2.950000000001801, -0.6452970985514989 
2.960000000001822, -0.6437227454106181 
2.970000000001843, -0.6422918556123094 
2.9800000000018643, -0.6410092828967496 
2.9900000000018854, -0.6398757909545995 
3.0000000000019065, -0.6388946080933267 
3.0100000000019276, -0.6380742608839001 
3.0200000000019487, -0.6374288620549888 
3.03000000000197, -0.636976994652468 
3.040000000001991, -0.6367400168410573 
3.050000000002012, -0.6367403962424654 
3.060000000002033, -0.637000560605449 
3.070000000002054, -0.6375425688554046 
3.0800000000020753, -0.6383885433000451 
3.0900000000020964, -0.6395612175510672 
3.1000000000021175, -0.6410831538511703 
3.1100000000021386, -0.6429722753823673 
3.1200000000021597, -0.6452308367310395 
3.130000000002181, -0.6478262204283075 
3.140000000002202, -0.6506673647625554 
3.150000000002223, -0.6535909002266564 
3.160000000002244, -0.6563784038511409 
3.1700000000022652, -0.6588131714796679 
3.1800000000022863, -0.6607493290817679 
3.1900000000023074, -0.6621462831426199 
3.2000000000023285, -0.663050346691543 
3.2100000000023496, -0.6635486649570148 
3.2200000000023707, -0.6637288176000886 
3.230000000002392, -0.6636572099786469 
3.240000000002413, -0.663372067002015 
3.250000000002434, -0.6628826425751358 
3.260000000002455, -0.6621686118635122 
3.2700000000024763, -0.6611763020362915 
3.2800000000024974, -0.6598095166501434 
3.2900000000025185, -0.6579123166041511 
3.3000000000025396, -0.6552401930915079 
3.3100000000025607, -0.6514190235716143 
3.3200000000025818, -0.6459142408635514 
3.330000000002603, -0.6381041155576821 
3.340000000002624, -0.6276293363274708 
3.350000000002645, -0.6149964388218391 
3.360000000002666, -0.6018112301944154 
3.3700000000026873, -0.5900350599892603 
3.3800000000027084, -0.5809049097151171 
3.3900000000027295, -0.5745958298012134 
3.4000000000027506, -0.5706129936235053 
3.4100000000027717, -0.5682808871286092 
3.420000000002793, -0.5670115494449368 
3.430000000002814, -0.5663788753855334 
3.440000000002835, -0.5661027818632396 
3.450000000002856, -0.5660095080228712 
3.460000000002877, -0.5659948069265319 
3.4700000000028983, -0.5659967794636462 
3.4800000000029194, -0.565977903944702 
3.4900000000029405, -0.565914228351306 
3.5000000000029616, -0.565789991763168 
3.5100000000029827, -0.5655964716457303 
3.520000000003004, -0.5653337772543358 
3.530000000003025, -0.5650133553720263 
3.540000000003046, -0.564657949609858 
3.550000000003067, -0.5642964939545226 
3.5600000000030882, -0.5639547255139568 
3.5700000000031094, -0.5636458924760743 
3.5800000000031305, -0.5633665087553734 
3.5900000000031516, -0.5630992283835916 
3.6000000000031727, -0.5628209230456467 
3.6100000000031938, -0.5625115322873471 
3.620000000003215, -0.5621597344329581 
3.630000000003236, -0.561764408357296 
3.640000000003257, -0.5613337190290355 
3.650000000003278, -0.5608845739410373 
3.6600000000032993, -0.560444558973273 
3.6700000000033204, -0.5600576712455777 
3.6800000000033415, -0.559794969130389 
3.6900000000033626, -0.5597715196148757 
3.7000000000033837, -0.5601710847134476 
3.710000000003405, -0.5612785516298495 
3.720000000003426, -0.5635143172336508 
3.730000000003447, -0.5674490407698449 
3.740000000003468, -0.5737450128886107 
3.750000000003489, -0.5829333516077605 
3.7600000000035103, -0.594974509030337 
3.7700000000035314, -0.6088130176370676 
3.7800000000035525, -0.6225013621801903 
3.7900000000035736, -0.6341539945943205 
3.8000000000035947, -0.6429006627927645 
3.810000000003616, -0.6489248370136693 
3.820000000003637, -0.6528808921734931 
3.830000000003658, -0.6554188576570475 
3.840000000003679, -0.6570198006475555 
3.8500000000037002, -0.6580003922015123 
3.8600000000037213, -0.6585585184620464 
3.8700000000037424, -0.6588126267371158 
3.8800000000037635, -0.6588270772955835 
3.8900000000037847, -0.6586260868208804 
3.9000000000038058, -0.6581997123786498 
3.910000000003827, -0.6575049238762534 
3.920000000003848, -0.6564657219252366 
3.930000000003869, -0.6549792564642227 
3.94000000000389, -0.6529383750821356 
3.9500000000039113, -0.6502778800990754 
3.9600000000039324, -0.6470322175450629 
3.9700000000039535, -0.6433645606381772 
3.9800000000039746, -0.6395309418902755 
3.9900000000039957, -0.6357958568553304 
4.000000000004016, -0.6323584647411554 
4.010000000003993, -0.6293278757042361 
4.02000000000397, -0.6267391965654061 
4.030000000003946, -0.6245829984491523 
4.040000000003923, -0.6228297506355883 
4.0500000000039, -0.6214441804225743 
4.0600000000038765, -0.6203915418311419 
4.070000000003853, -0.6196393145237804 
4.08000000000383, -0.619157116705894 
4.090000000003807, -0.6189164644592979 
4.100000000003783, -0.6188910771752689 
4.11000000000376, -0.6190578197894296 
4.120000000003737, -0.619398043506966 
4.130000000003713, -0.6198989380238362 
4.14000000000369, -0.620554384666977 
4.150000000003667, -0.6213645386518765 
4.1600000000036434, -0.622332960841122 
4.17000000000362, -0.623459942559591 
4.180000000003597, -0.6247315796424697 
4.1900000000035735, -0.626107075867839 
4.20000000000355, -0.6275112910339011 
4.210000000003527, -0.6288418567986883 
4.220000000003504, -0.6299939039958293 
4.23000000000348, -0.630891004411388 
4.240000000003457, -0.6315028735819522 
4.250000000003434, -0.6318407233413919 
4.26000000000341, -0.6319384827514165 
4.270000000003387, -0.6318337180312221 
4.280000000003364, -0.6315556400560838 
4.2900000000033405, -0.6311202151523011 
4.300000000003317, -0.6305296729873011 
4.310000000003294, -0.629774329277438 
4.320000000003271, -0.628836100721121 
4.330000000003247, -0.62769390145614 
4.340000000003224, -0.6263298807768807 
4.350000000003201, -0.6247295225850636 
4.360000000003177, -0.6228556902174177 
4.370000000003154, -0.6205688376371532 
4.380000000003131, -0.6175193983465684 
4.390000000003107, -0.6132100843917937 
4.400000000003084, -0.6074666486478345 
4.410000000003061, -0.6009613495314654 
4.4200000000030375, -0.5949470526572262 
4.430000000003014, -0.5903745357656465 
4.440000000002991, -0.5874487206662529 
4.450000000002968, -0.5858554184369624 
4.460000000002944, -0.5851407321186255 
4.470000000002921, -0.5849231770705147 
4.480000000002898, -0.5849451220239674 
4.490000000002874, -0.5850526854226347 
4.500000000002851, -0.585160685698085 
4.510000000002828, -0.5852234511103835 
4.520000000002804, -0.5852151339688924 
4.530000000002781, -0.5851178953742437 
4.540000000002758, -0.5849158976983753 
4.5500000000027345, -0.5845939906543913 
4.560000000002711, -0.5841407202282501 
4.570000000002688, -0.5835547767830905 
4.580000000002665, -0.5828518216483205 
4.590000000002641, -0.5820664269397449 
4.600000000002618, -0.5812452393998534 
4.610000000002595, -0.5804334694488854 
4.620000000002571, -0.5796622076302221 
4.630000000002548, -0.5789432214712105 
4.640000000002525, -0.5782722910136028 
4.6500000000025015, -0.5776374214978887 
4.660000000002478, -0.577027229068388 
4.670000000002455, -0.5764366237386505 
4.6800000000024315, -0.5758695609910978 
4.690000000002408, -0.575340358162977 
4.700000000002385, -0.5748753386979882 
4.710000000002362, -0.5745159774911888 
4.720000000002338, -0.5743240619969459 
4.730000000002315, -0.5743889779462596 
4.740000000002292, -0.5748369648920212 
4.750000000002268, -0.5758417200215372 
4.760000000002245, -0.5776344353027146 
4.770000000002222, -0.5805080634327735 
4.7800000000021985, -0.5848035468619296 
4.790000000002175, -0.5908541999528658 
4.800000000002152, -0.5988558921107335 
4.810000000002129, -0.6086550635478267 
4.820000000002105, -0.6195500408593848 
4.830000000002082, -0.6303403636890165 
4.840000000002059, -0.6397735023216952 
4.850000000002035, -0.6471048938700026 
4.860000000002012, -0.6522808246883216 
4.870000000001989, -0.6556892970989389 
4.880000000001965, -0.6578246551530127 
4.890000000001942, -0.6591003539366512 
4.900000000001919, -0.65980415524163 
4.9100000000018955, -0.6601160087686181 
4.920000000001872, -0.6601369372966421 
4.930000000001849, -0.6599103786313489 
