t, s[1].omega / s[0].omega 
0, -1.0800835757220848 
0.009999999999999995, -1.0876079507412304 
0.019999999999999934, -1.0933100317666224 
0.029999999999999874, -1.097249312606521 
0.04000000000000012, -1.099744406441857 
0.050000000000000405, -1.1011801462226027 
0.06000000000000069, -1.1018881556406601 
0.07000000000000098, -1.102107710249341 
0.08000000000000126, -1.1019949375043745 
0.09000000000000155, -1.1016513689030887 
0.10000000000000184, -1.1011600440319436 
0.11000000000000212, -1.1006287626767668 
0.12000000000000241, -1.100236642845015 
0.130000000000002, -1.1002580320731896 
0.1400000000000009, -1.1010156100951176 
0.1499999999999998, -1.1027472480123306 
0.1599999999999987, -1.1054693981560901 
0.1699999999999976, -1.1089559909250624 
0.1799999999999965, -1.1128416703677282 
0.1899999999999954, -1.1167501616096271 
0.1999999999999943, -1.1203715338483238 
0.2099999999999932, -1.123487381600035 
0.2199999999999921, -1.1259732544562462 
0.229999999999991, -1.1277944067746657 
0.2399999999999899, -1.128992560584345 
0.2499999999999888, -1.129659814806829 
0.2599999999999877, -1.1299068108287549 
0.2699999999999866, -1.1298384800095815 
0.2799999999999855, -1.1295455378758708 
0.2899999999999844, -1.1291113042484662 
0.2999999999999833, -1.128627653572644 
0.3099999999999822, -1.1282087997719994 
0.3199999999999811, -1.127986708001609 
0.32999999999998, -1.128078143673464 
0.3399999999999789, -1.1285390033707468 
0.3499999999999778, -1.1293418487125066 
0.35999999999997667, -1.1303936890155324 
0.36999999999997557, -1.131574699300502 
0.37999999999997447, -1.1327706252615164 
0.38999999999997337, -1.133888704841863 
0.39999999999997227, -1.1348606136561723 
0.40999999999997117, -1.1356390050951761 
0.41999999999997006, -1.1361929353323892 
0.42999999999996896, -1.1365052970739744 
0.43999999999996786, -1.1365727735637248 
0.44999999999996676, -1.1364065956241836 
0.45999999999996566, -1.136032214820914 
0.46999999999996456, -1.135488095084444 
0.47999999999996346, -1.1348254659149621 
0.48999999999996235, -1.1341092918101572 
0.49999999999996125, -1.1334168005757284 
0.5099999999999602, -1.1328284439387675 
0.519999999999959, -1.1324111731075304 
0.529999999999958, -1.1322014477442315 
0.5399999999999568, -1.1321961834056817 
0.5499999999999557, -1.1323542573877865 
0.5599999999999546, -1.1326073903726965 
0.5699999999999535, -1.1328767543272045 
0.5799999999999524, -1.1330882899091061 
0.5899999999999513, -1.1331809173772176 
0.5999999999999502, -1.1331080611506457 
0.6099999999999491, -1.1328367908861419 
0.619999999999948, -1.1323474174476598 
0.6299999999999469, -1.1316333516440757 
0.6399999999999458, -1.13070030594047 
0.6499999999999447, -1.1295654125410954 
0.6599999999999436, -1.1282578785770463 
0.6699999999999425, -1.1268219182712076 
0.6799999999999414, -1.1253207347691982 
0.6899999999999403, -1.1238385170832883 
0.6999999999999392, -1.1224762829620412 
0.7099999999999381, -1.1213372212018506 
0.719999999999937, -1.1204998568502993 
0.7299999999999359, -1.1199870046067577 
0.7399999999999348, -1.1197509555408063 
0.7499999999999337, -1.119690462724477 
0.7599999999999326, -1.1196878535317762 
0.7699999999999315, -1.1196379196384822 
0.7799999999999304, -1.1194542162606034 
0.7899999999999293, -1.119059746088439 
0.7999999999999282, -1.1183759302180367 
0.8099999999999271, -1.1173199545223178 
0.819999999999926, -1.115814507507555 
0.8299999999999249, -1.1138070232659323 
0.8399999999999238, -1.1112892402826047 
0.8499999999999227, -1.1083081224562525 
0.8599999999999216, -1.1049676576215126 
0.8699999999999205, -1.1014282792451204 
0.8799999999999194, -1.0979066501594827 
0.8899999999999183, -1.0946650502916326 
0.8999999999999172, -1.0919695409571994 
0.9099999999999161, -1.0900095120338666 
0.919999999999915, -1.0888162241911292 
0.9299999999999139, -1.0882494077527147 
0.9399999999999128, -1.0880732441573113 
0.9499999999999117, -1.088058070420112 
0.9599999999999106, -1.088035152951471 
0.9699999999999095, -1.0878934567925187 
0.9799999999999084, -1.0875480963716053 
0.9899999999999073, -1.0869059068400777 
0.9999999999999062, -1.0858379768800543 
1.0099999999999052, -1.0841640106288426 
1.019999999999904, -1.0816585666428913 
1.029999999999903, -1.0780937120804361 
1.039999999999902, -1.0733217693793282 
1.0499999999999008, -1.0673726219607933 
1.0599999999998997, -1.0605184346867478 
1.0699999999998986, -1.0532717090363146 
1.0799999999998975, -1.0463098115894676 
1.0899999999998964, -1.0403272518883062 
1.0999999999998953, -1.0358329876097487 
1.1099999999998942, -1.032974246512906 
1.119999999999893, -1.0315133401464134 
1.129999999999892, -1.0309907845152124 
1.1399999999998909, -1.0309466439391226 
1.1499999999998898, -1.0310507062310466 
1.1599999999998887, -1.031112715983978 
1.1699999999998876, -1.0310320348216153 
1.1799999999998865, -1.0307414385538238 
1.1899999999998854, -1.0301637038630678 
1.1999999999998843, -1.0291787721108885 
1.2099999999998832, -1.0275974563845012 
1.219999999999882, -1.0251475540479427 
1.229999999999881, -1.0214941324857694 
1.2399999999998799, -1.0163243064224765 
1.2499999999998788, -1.0095012045594791 
1.2599999999998777, -1.0012249500911037 
1.2699999999998766, -0.9920916841723798 
1.2799999999998755, -0.9829873969451475 
1.2899999999998744, -0.974851968403919 
1.2999999999998733, -0.968407382413593 
1.3099999999998722, -0.9639567314486419 
1.319999999999871, -0.9613474050143923 
1.32999999999987, -0.9601173398181844 
1.3399999999998689, -0.9597259119567394 
1.3499999999998678, -0.9597296884564788 
1.3599999999998666, -0.9598408930214811 
1.3699999999998655, -0.95990055956731 
1.3799999999998644, -0.9598241389731175 
1.3899999999998633, -0.9595534088745156 
1.3999999999998622, -0.9590222374220513 
1.4099999999998611, -0.9581330231640225 
1.41999999999986, -0.9567422660504658 
1.429999999999859, -0.954661675029939 
1.4399999999998578, -0.9516889485265049 
1.4499999999998567, -0.9476774715001204 
1.4599999999998556, -0.9426255521917668 
1.4699999999998545, -0.9367321657407786 
1.4799999999998534, -0.9303754521496336 
1.4899999999998523, -0.9240266989713118 
1.4999999999998512, -0.9181503682071419 
1.5099999999998501, -0.9131240945354115 
1.519999999999849, -0.9091826252671618 
1.529999999999848, -0.9063862156840562 
1.5399999999998468, -0.9046258113189113 
1.5499999999998457, -0.9036731063194928 
1.5599999999998446, -0.9032580029697244 
1.5699999999998435, -0.9031373212805238 
1.5799999999998424, -0.9031289517723252 
1.5899999999998413, -0.9031115395551534 
1.5999999999998402, -0.9030055832562942 
1.6099999999998391, -0.9027512901340173 
1.619999999999838, -0.9022915755414657 
1.629999999999837, -0.9015639089672242 
1.6399999999998358, -0.9005034572860582 
1.6499999999998347, -0.899058409587816 
1.6599999999998336, -0.8972124781365347 
1.6699999999998325, -0.8950015356721911 
1.6799999999998314, -0.892511503079545 
1.6899999999998303, -0.8898580128194462 
1.6999999999998292, -0.8871620860626799 
1.709999999999828, -0.8845351410724233 
1.719999999999827, -0.8820752136593807 
1.729999999999826, -0.8798678301426136 
1.7399999999998248, -0.8779844852390062 
1.7499999999998237, -0.8764758563558808 
1.7599999999998226, -0.8753619116567147 
1.7699999999998215, -0.8746246663042602 
1.7799999999998204, -0.8742094639634812 
1.7899999999998193, -0.8740363179396182 
1.7999999999998182, -0.8740166708661985 
1.809999999999817, -0.8740680759422214 
1.819999999999816, -0.874121967651196 
1.8299999999998149, -0.8741248150462966 
1.8399999999998138, -0.8740362779945565 
1.8499999999998127, -0.8738280301108661 
1.8599999999998116, -0.873484591590139 
1.8699999999998105, -0.8730045591012268 
1.8799999999998094, -0.8723992545477287 
1.8899999999998083, -0.8716876837843044 
1.8999999999998072, -0.8708903224801674 
1.909999999999806, -0.870025673569691 
1.919999999999805, -0.8691112506193909 
1.9299999999998039, -0.8681674019357732 
1.9399999999998028, -0.8672212288819159 
1.9499999999998017, -0.8663087018978631 
1.9599999999998006, -0.865474106089474 
1.9699999999997995, -0.8647663650221069 
1.9799999999997984, -0.8642323145722562 
1.9899999999997973, -0.863908242689637 
1.9999999999997962, -0.863812343557756 
2.0099999999998173, -0.8639409206922833 
2.0199999999998384, -0.8642697912639565 
2.0299999999998595, -0.8647601938544962 
2.0399999999998806, -0.865366814452944 
2.0499999999999017, -0.8660451112978927 
2.059999999999923, -0.8667558827004548 
2.069999999999944, -0.8674662531389092 
2.079999999999965, -0.868147367640192 
2.089999999999986, -0.8687702432294939 
2.100000000000007, -0.8693025977585236 
2.1100000000000283, -0.8697099428814598 
2.1200000000000494, -0.869962006432007 
2.1300000000000705, -0.8700412433255371 
2.1400000000000916, -0.8699479769965294 
2.1500000000001127, -0.869699626382246 
2.160000000000134, -0.8693266012167825 
2.170000000000155, -0.8688695718607292 
2.180000000000176, -0.8683808879479953 
2.190000000000197, -0.8679294266689654 
2.2000000000002182, -0.8676050646866335 
2.2100000000002393, -0.8675172363592744 
2.2200000000002604, -0.8677832007279502 
2.2300000000002815, -0.8685068948381618 
2.2400000000003026, -0.869756088679775 
2.2500000000003237, -0.8715478356698083 
2.260000000000345, -0.8738467851414324 
2.270000000000366, -0.8765724196746311 
2.280000000000387, -0.8796071841818656 
2.290000000000408, -0.8828006736028886 
2.3000000000004293, -0.8859730272524123 
2.3100000000004504, -0.8889278232701336 
2.3200000000004715, -0.8914829980800084 
2.3300000000004926, -0.8935128151573487 
2.3400000000005137, -0.8949764697961913 
2.3500000000005348, -0.895913077204803 
2.360000000000556, -0.8964088181313812 
2.370000000000577, -0.8965600671961692 
2.380000000000598, -0.8964505089700788 
2.390000000000619, -0.8961455649983702 
2.4000000000006403, -0.8957001632319631 
2.4100000000006614, -0.8951767907889835 
2.4200000000006825, -0.8946735114224238 
2.4300000000007036, -0.8943604470579791 
2.4400000000007247, -0.8945143647384244 
2.450000000000746, -0.8955260533279426 
2.460000000000767, -0.8978477204526074 
2.470000000000788, -0.9018682970735948 
2.480000000000809, -0.9077522869165671 
2.49000000000083, -0.9153139417013577 
2.5000000000008513, -0.9239899586488447 
2.5100000000008724, -0.9329376605360075 
2.5200000000008935, -0.9412478847977462 
2.5300000000009146, -0.9482079013959801 
2.5400000000009357, -0.9534879469898933 
2.550000000000957, -0.9571458665824604 
2.560000000000978, -0.9594765124558859 
2.570000000000999, -0.9608334551376853 
2.58000000000102, -0.9615179153034263 
2.5900000000010412, -0.9617438084240988 
2.6000000000010624, -0.9616456869341159 
2.6100000000010835, -0.9613009454367951 
2.6200000000011046, -0.9607552275848704 
2.6300000000011257, -0.9600536725971848 
2.6400000000011468, -0.9592887900373972 
2.650000000001168, -0.9586764274271085 
2.660000000001189, -0.9586532617712441 
2.67000000000121, -0.9599385562054016 
2.680000000001231, -0.9634415890983077 
2.6900000000012523, -0.9699213807413448 
2.7000000000012734, -0.9795000783846051 
2.7100000000012945, -0.9913602818748946 
2.7200000000013156, -1.0039263359886612 
2.7300000000013367, -1.0154847398009665 
2.740000000001358, -1.0248467143125934 
2.750000000001379, -1.03163711421903 
2.7600000000014, -1.0361286361277149 
2.770000000001421, -1.0388757336457373 
2.780000000001442, -1.0404252665518796 
2.7900000000014633, -1.0411919505733656 
2.8000000000014844, -1.0414474259163096 
2.8100000000015055, -1.0413529673428772 
2.8200000000015266, -1.0409982845165244 
2.8300000000015477, -1.040438295064078 
2.840000000001569, -1.039735971430869 
2.85000000000159, -1.0390256417826007 
2.860000000001611, -1.0386017495693538 
2.870000000001632, -1.0389955524934673 
2.8800000000016532, -1.0409336939429956 
2.8900000000016743, -1.0450758373293578 
2.9000000000016954, -1.0516168687591099 
2.9100000000017165, -1.0600566206204056 
2.9200000000017377, -1.0693476369539927 
2.9300000000017588, -1.0783028963610486 
2.94000000000178, -1.0859904902755368 
2.950000000001801, -1.0919402235767173 
2.960000000001822, -1.096132520480427 
2.970000000001843, -1.0988390810618338 
2.9800000000018643, -1.100431483576377 
2.9900000000018854, -1.1012483343843136 
3.0000000000019065, -1.1015423654916956 
3.0100000000019276, -1.1014817288928604 
3.0200000000019487, -1.1011752161158248 
3.03000000000197, -1.1007065067639417 
3.040000000001991, -1.1001754508719073 
3.050000000002012, -1.0997441201455644 
3.060000000002033, -1.099666765080561 
3.070000000002054, -1.100258483877807 
3.0800000000020753, -1.101776884324411 
3.0900000000020964, -1.1042809060197045 
3.1000000000021175, -1.1075867114117826 
3.1100000000021386, -1.111352779199188 
3.1200000000021597, -1.1152075002554804 
3.130000000002181, -1.1188343339914932 
3.140000000002202, -1.1220028247070872 
3.150000000002223, -1.1245729981255546 
3.160000000002244, -1.1264926339851082 
3.1700000000022652, -1.127787419346095 
3.1800000000022863, -1.1285386330141822 
3.1900000000023074, -1.1288525763945654 
3.2000000000023285, -1.1288344338908873 
3.2100000000023496, -1.128576429953773 
3.2200000000023707, -1.1281616745680356 
3.230000000002392, -1.127678632016563 
3.240000000002413, -1.127236094280017 
3.250000000002434, -1.1269631885989955 
3.260000000002455, -1.1269819368108465 
3.2700000000024763, -1.1273621566466105 
3.2800000000024974, -1.1280925934741957 
3.2900000000025185, -1.129091347227782 
3.3000000000025396, -1.1302422851709193 
3.3100000000025607, -1.1314295307070128 
3.3200000000025818, -1.1325563882450855 
3.330000000002603, -1.1335503722712654 
3.340000000002624, -1.1343606482894413 
3.350000000002645, -1.134953422182201 
3.360000000002666, -1.135308852588785 
3.3700000000026873, -1.1354205777089525 
3.3800000000027084, -1.1352965315431303 
3.3900000000027295, -1.1349589889216742 
3.4000000000027506, -1.1344434885388 
3.4100000000027717, -1.133798297857421 
3.420000000002793, -1.133085282191019 
3.430000000002814, -1.1323793637612476 
3.440000000002835, -1.1317613353421954 
3.450000000002856, -1.1313023924435872 
3.460000000002877, -1.1310464625662584 
3.4700000000028983, -1.1309990652355633 
3.4800000000029194, -1.131126573011986 
3.4900000000029405, -1.1313652654174475 
3.5000000000029616, -1.1316372006148057 
3.5100000000029827, -1.1318664280047908 
3.520000000003004, -1.1319888881788458 
3.530000000003025, -1.131955044295333 
3.540000000003046, -1.1317291956347941 
3.550000000003067, -1.1312889139997924 
3.5600000000030882, -1.130624935863508 
3.5700000000031094, -1.1297404981172394 
3.5800000000031305, -1.1286503218403712 
3.5900000000031516, -1.1273807972853578 
3.6000000000031727, -1.1259724350402265 
3.6100000000031938, -1.1244837928145073 
3.620000000003215, -1.1229941927618765 
3.630000000003236, -1.1216012752109568 
3.640000000003257, -1.1204090263655535 
3.650000000003278, -1.1195036365427156 
3.6600000000032993, -1.118922296728224 
3.6700000000033204, -1.1186329976438738 
3.6800000000033415, -1.118544159806917 
3.6900000000033626, -1.1185392337424287 
3.7000000000033837, -1.1185093002323923 
3.710000000003405, -1.118364465229615 
3.720000000003426, -1.1180270442896465 
3.730000000003447, -1.1174200585256817 
3.740000000003468, -1.116462286991208 
3.750000000003489, -1.1150752153192491 
3.7600000000035103, -1.113200518536813 
3.7700000000035314, -1.110819967099561 
3.7800000000035525, -1.1079680984188174 
3.7900000000035736, -1.10473514331079 
3.8000000000035947, -1.1012661709071858 
3.810000000003616, -1.0977611864740857 
3.820000000003637, -1.0944690085828213 
3.830000000003658, -1.0916555957544472 
3.840000000003679, -1.0895333214892586 
3.8500000000037002, -1.0881755667434518 
3.8600000000037213, -1.0874819332146566 
3.8700000000037424, -1.087233924424411 
3.8800000000037635, -1.0871962696505204 
3.8900000000037847, -1.0871857518081516 
3.9000000000038058, -1.0870803087765777 
3.910000000003827, -1.0867921082476166 
3.920000000003848, -1.0862330425079885 
3.930000000003869, -1.0852857141178047 
3.94000000000389, -1.0837850125387147 
3.9500000000039113, -1.081518619156863 
3.9600000000039324, -1.078260171569027 
3.9700000000039535, -1.073842139325853 
3.9800000000039746, -1.0682498175103412 
3.9900000000039957, -1.0616930604534738 
4.000000000004016, -1.0546188602359565 
4.010000000003993, -1.0476552655394782 
4.02000000000397, -1.041487747772194 
4.030000000003946, -1.0366749355174893 
4.040000000003923, -1.0334609043210856 
4.0500000000039, -1.0317037659415198 
4.0600000000038765, -1.030991491467231 
4.070000000003853, -1.0308578434871642 
4.08000000000383, -1.0309408757221843 
4.090000000003807, -1.031020572029853 
4.100000000003783, -1.030979346823145 
4.11000000000376, -1.0307455961311136 
4.120000000003737, -1.0302474648355047 
4.130000000003713, -1.029378272773099 
4.14000000000369, -1.0279691277545475 
4.150000000003667, -1.0257716470676026 
4.1600000000036434, -1.0224684175666265 
4.17000000000362, -1.0177402071781327 
4.180000000003597, -1.0114029275679353 
4.1900000000035735, -1.0035690682876075 
4.20000000000355, -0.994733037433986 
4.210000000003527, -0.985704778547802 
4.220000000003504, -0.9774069193023293 
4.23000000000348, -0.9706153723457307 
4.240000000003457, -0.9657401655709217 
4.250000000003434, -0.9627416919762288 
4.26000000000341, -0.961228582070681 
4.270000000003387, -0.960672779844043 
4.280000000003364, -0.9606050920357105 
4.2900000000033405, -0.9607029371606821 
4.300000000003317, -0.9607810457052108 
4.310000000003294, -0.9607411191175508 
4.320000000003271, -0.9605215221222219 
4.330000000003247, -0.960060081590011 
4.340000000003224, -0.9592684234766145 
4.350000000003201, -0.9580153710464249 
4.360000000003177, -0.9561236985520546 
4.370000000003154, -0.953392889209623 
4.380000000003131, -0.9496596196346617 
4.390000000003107, -0.9448845552497893 
4.400000000003084, -0.9392187080720602 
4.410000000003061, -0.9329998414948101 
4.4200000000030375, -0.9266786684910351 
4.430000000003014, -0.9207207878697728 
4.440000000002991, -0.9155236397518591 
4.450000000002968, -0.9113565376913003 
4.460000000002944, -0.9083224643860979 
4.470000000002921, -0.9063520731786102 
4.480000000002898, -0.9052421129800363 
4.490000000002874, -0.904728251568123 
4.500000000002851, -0.904558534470065 
4.510000000002828, -0.9045366612833984 
4.520000000002804, -0.904528884365593 
4.530000000002781, -0.9044481160053351 
4.540000000002758, -0.9042316873842108 
4.5500000000027345, -0.903822805661511 
4.560000000002711, -0.9031601865311238 
4.570000000002688, -0.9021784864476938 
4.580000000002665, -0.9008210523744232 
4.590000000002641, -0.8990616996245974 
4.600000000002618, -0.8969239843385898 
4.610000000002595, -0.8944838467986418 
4.620000000002571, -0.8918524729922005 
4.630000000002548, -0.8891515138715498 
4.640000000002525, -0.8864954869767978 
4.6500000000025015, -0.8839858969220599 
4.660000000002478, -0.8817116835460308 
4.670000000002455, -0.8797484998953143 
4.6800000000024315, -0.8781528720560635 
4.690000000002408, -0.8769523995571014 
4.700000000002385, -0.8761372819985358 
4.710000000002362, -0.8756594927215671 
4.720000000002338, -0.8754423741142542 
4.730000000002315, -0.8753971086298549 
4.740000000002292, -0.8754385584635609 
4.750000000002268, -0.8754946537561912 
4.760000000002245, -0.8755086196999848 
4.770000000002222, -0.8754373174713548 
4.7800000000021985, -0.8752496655472155 
4.790000000002175, -0.8749271227732993 
4.800000000002152, -0.8744651826274363 
4.810000000002129, -0.873872886592924 
4.820000000002105, -0.8731685181635903 
4.830000000002082, -0.8723732418476215 
4.840000000002059, -0.8715066999322932 
4.850000000002035, -0.8705869898996965 
4.860000000002012, -0.8696340589730756 
4.870000000001989, -0.8686737935052449 
4.880000000001965, -0.867740608934062 
4.890000000001942, -0.8668774616421029 
4.900000000001919, -0.8661327586514395 
4.9100000000018955, -0.8655541133268697 
4.920000000001872, -0.8651800255432404 
4.930000000001849, -0.8650319586116784 
