t, s[1].omega / s[0].omega 
0, -1.3799975160770435 
0.009999999999999995, -1.3795366526192527 
0.019999999999999934, -1.3786563543250718 
0.029999999999999874, -1.3773644487430012 
0.04000000000000012, -1.3756859907497938 
0.050000000000000405, -1.3736794386525317 
0.06000000000000069, -1.3714744591118524 
0.07000000000000098, -1.369355913479998 
0.08000000000000126, -1.3677720910026852 
0.09000000000000155, -1.3670127023663634 
0.10000000000000184, -1.366865695694173 
0.11000000000000212, -1.3668452136692457 
0.12000000000000241, -1.3665498484734555 
0.130000000000002, -1.3656258983407352 
0.1400000000000009, -1.363470076510936 
0.1499999999999998, -1.3587502193864431 
0.1599999999999987, -1.3486195094728983 
0.1699999999999976, -1.3277686108031013 
0.1799999999999965, -1.2887503655361856 
0.1899999999999954, -1.2273142333208926 
0.1999999999999943, -1.1539501868656483 
0.2099999999999932, -1.094356525004099 
0.2199999999999921, -1.0640402986418795 
0.229999999999991, -1.0557446041841254 
0.2399999999999899, -1.0562153899584779 
0.2499999999999888, -1.0582431585330974 
0.2599999999999877, -1.0597328340554604 
0.2699999999999866, -1.0604594926361868 
0.2799999999999855, -1.0605378645302543 
0.2899999999999844, -1.0599759719756203 
0.2999999999999833, -1.0585090422824979 
0.3099999999999822, -1.0553337004299443 
0.3199999999999811, -1.0484315426462876 
0.32999999999998, -1.0329944004029488 
0.3399999999999789, -0.9987340093069087 
0.3499999999999778, -0.9296137744162134 
0.35999999999997667, -0.8184509533011368 
0.36999999999997557, -0.6921356246237098 
0.37999999999997447, -0.5926084924224788 
0.38999999999997337, -0.5323680545485001 
0.39999999999997227, -0.500392805071604 
0.40999999999997117, -0.4841984769435002 
0.41999999999997006, -0.47611305516632524 
0.42999999999996896, -0.4721250351212834 
0.43999999999996786, -0.4702134923519152 
0.44999999999996676, -0.46935722791394524 
0.45999999999996566, -0.4690332909132996 
0.46999999999996456, -0.4689704946535584 
0.47999999999996346, -0.46902792795741666 
0.48999999999996235, -0.469135995891501 
0.49999999999996125, -0.46927068645347864 
0.5099999999999602, -0.4694456038283064 
0.519999999999959, -0.46970968863618806 
0.529999999999958, -0.4701389888674944 
0.5399999999999568, -0.4708152547497867 
0.5499999999999557, -0.4717912698880012 
0.5599999999999546, -0.47304822507633915 
0.5699999999999535, -0.47446375760641324 
0.5799999999999524, -0.475830299174811 
0.5899999999999513, -0.47694033082649456 
0.5999999999999502, -0.47767514407445866 
0.6099999999999491, -0.4780189167129887 
0.619999999999948, -0.478007587626836 
0.6299999999999469, -0.4776705542660918 
0.6399999999999458, -0.4769900679180766 
0.6499999999999447, -0.4758627863839424 
0.6599999999999436, -0.4740228939005235 
0.6699999999999425, -0.4708336619040285 
0.6799999999999414, -0.46468131847134336 
0.6899999999999403, -0.45129710811718127 
0.6999999999999392, -0.42067653234399394 
0.7099999999999381, -0.36022604196885705 
0.719999999999937, -0.28025878404807153 
0.7299999999999359, -0.2156015879344508 
0.7399999999999348, -0.1781912828319848 
0.7499999999999337, -0.15887229712171588 
0.7599999999999326, -0.14877461340155906 
0.7699999999999315, -0.14320987723633097 
0.7799999999999304, -0.1399709400126696 
0.7899999999999293, -0.13801332243712452 
0.7999999999999282, -0.1368320644084676 
0.8099999999999271, -0.13619195350020546 
0.819999999999926, -0.1360166095895221 
0.8299999999999249, -0.13635806887229782 
0.8399999999999238, -0.1374284435491485 
0.8499999999999227, -0.13972165248238932 
0.8599999999999216, -0.14433273419977777 
0.8699999999999205, -0.15378590564335673 
0.8799999999999194, -0.17420312888036843 
0.8899999999999183, -0.22024784539109063 
0.8999999999999172, -0.3180706463112322 
0.9099999999999161, -0.4684961579951651 
0.919999999999915, -0.594713381032795 
0.9299999999999139, -0.6532360818468168 
0.9399999999999128, -0.674949319071002 
0.9499999999999117, -0.6850562029915203 
0.9599999999999106, -0.6910781301690656 
0.9699999999999095, -0.6948622558813862 
0.9799999999999084, -0.6971771626352626 
0.9899999999999073, -0.6985158289212621 
0.9999999999999062, -0.6991938497799353 
1.0099999999999052, -0.6993825706512119 
1.019999999999904, -0.6991327975084568 
1.029999999999903, -0.6983807273534532 
1.039999999999902, -0.6969386693104027 
1.0499999999999008, -0.694501331877516 
1.0599999999998997, -0.6907428770162113 
1.0699999999998986, -0.6855656074627534 
1.0799999999998975, -0.6793469666226412 
1.0899999999998964, -0.6728405099960427 
1.0999999999998953, -0.666754991410575 
1.1099999999998942, -0.6614686129365187 
1.119999999999893, -0.6570587895703452 
1.129999999999892, -0.6534558313312864 
1.1399999999998909, -0.6505576904593656 
1.1499999999998898, -0.6482789765914138 
1.1599999999998887, -0.6465588643834382 
1.1699999999998876, -0.6453517379351703 
1.1799999999998865, -0.6446147176797631 
1.1899999999998854, -0.6442992552217685 
1.1999999999998843, -0.6443496081630578 
1.2099999999998832, -0.644707861140753 
1.219999999999882, -0.6453230713020931 
1.229999999999881, -0.6461614468489428 
1.2399999999998799, -0.6472145787045995 
1.2499999999998788, -0.6485019104348467 
1.2599999999998777, -0.6500613129268118 
1.2699999999998766, -0.6519205765453926 
1.2799999999998755, -0.654048483065223 
1.2899999999998744, -0.6563048666925695 
1.2999999999998733, -0.658441217326638 
1.3099999999998722, -0.6601930313580958 
1.319999999999871, -0.6614054419692911 
1.32999999999987, -0.6620735027034407 
1.3399999999998689, -0.6622812227078022 
1.3499999999998678, -0.6621236957410457 
1.3599999999998666, -0.6616687426310373 
1.3699999999998655, -0.6609603697162367 
1.3799999999998644, -0.6600620378370671 
1.3899999999998633, -0.659174153975139 
1.3999999999998622, -0.6589367546608959 
1.4099999999998611, -0.661180528744223 
1.41999999999986, -0.6706321666022363 
1.429999999999859, -0.6980438335956206 
1.4399999999998578, -0.7627057256362528 
1.4499999999998567, -0.8830845397480926 
1.4599999999998556, -1.043522194687099 
1.4699999999998545, -1.1827851369810778 
1.4799999999998534, -1.2623096204039246 
1.4899999999998523, -1.2969611532787175 
1.4999999999998512, -1.3105569466920526 
1.5099999999998501, -1.3157816259161448 
1.519999999999849, -1.3177034080352439 
1.529999999999848, -1.3181991397219317 
1.5399999999998468, -1.3179531727921976 
1.5499999999998457, -1.3172568333486512 
1.5599999999998446, -1.3164998957925835 
1.5699999999998435, -1.3166740732204318 
1.5799999999998424, -1.3192382318896394 
1.5899999999998413, -1.324565457076532 
1.5999999999998402, -1.3312342095401812 
1.6099999999998391, -1.3376120361457553 
1.619999999999838, -1.3429328846474697 
1.629999999999837, -1.347058817695374 
1.6399999999998358, -1.350067082731956 
1.6499999999998347, -1.35207710127102 
1.6599999999998336, -1.3532230990746652 
1.6699999999998325, -1.3536589056365844 
1.6799999999998314, -1.3535486123246907 
1.6899999999998303, -1.3530546195128117 
1.6999999999998292, -1.3523443217151778 
1.709999999999828, -1.3515932423392976 
1.719999999999827, -1.3509472245461454 
1.729999999999826, -1.350490004597465 
1.7399999999998248, -1.3502668083904188 
1.7499999999998237, -1.350270332258648 
1.7599999999998226, -1.3503796006302464 
1.7699999999998215, -1.3503882972871424 
1.7799999999998204, -1.3500808227236856 
1.7899999999998193, -1.3492365498667658 
1.7999999999998182, -1.3475911815740769 
1.809999999999817, -1.3448302078180279 
1.819999999999816, -1.3406277340319988 
1.8299999999998149, -1.3346882194214083 
1.8399999999998138, -1.3267808655871427 
1.8499999999998127, -1.316898181684743 
1.8599999999998116, -1.3057826101603691 
1.8699999999998105, -1.295615544379175 
1.8799999999998094, -1.2891936566301585 
1.8899999999998083, -1.287064463675486 
1.8999999999998072, -1.2872066654005283 
1.909999999999806, -1.2877425675868215 
1.919999999999805, -1.287932160962828 
1.9299999999998039, -1.2875508151102175 
1.9399999999998028, -1.2862995412304645 
1.9499999999998017, -1.2833252183168973 
1.9599999999998006, -1.276278827621864 
1.9699999999997995, -1.2589470428293734 
1.9799999999997984, -1.2168033830886096 
1.9899999999997973, -1.127606027562528 
1.9999999999997962, -0.9892773814727553 
2.0099999999998173, -0.8461556005790346 
2.0199999999998384, -0.7440529220989155 
2.0299999999998595, -0.6905342814939358 
2.0399999999998806, -0.6687767210691788 
2.0499999999999017, -0.6619226084581057 
2.059999999999923, -0.6606960668318994 
2.069999999999944, -0.6611712565175157 
2.079999999999965, -0.6619280020796998 
2.089999999999986, -0.662524988561711 
2.100000000000007, -0.6628526732207002 
2.1100000000000283, -0.662885551725758 
2.1200000000000494, -0.6625908393892376 
2.1300000000000705, -0.6618962204930822 
2.1400000000000916, -0.6606912741775982 
2.1500000000001127, -0.658872542554377 
2.160000000000134, -0.656435886366151 
2.170000000000155, -0.653553336893991 
2.180000000000176, -0.6505305607505818 
2.190000000000197, -0.6476584486552514 
2.2000000000002182, -0.6451022390691447 
2.2100000000002393, -0.6429003755249202 
2.2200000000002604, -0.6410224691542232 
2.2300000000002815, -0.6394245288548589 
2.2400000000003026, -0.6380800665127953 
2.2500000000003237, -0.6369899443513038 
2.260000000000345, -0.6361795253818335 
2.270000000000366, -0.6356900935909913 
2.280000000000387, -0.6355689028640807 
2.290000000000408, -0.6358609740376812 
2.3000000000004293, -0.6366053769482256 
2.3100000000004504, -0.6378378431106794 
2.3200000000004715, -0.6395996842179164 
2.3300000000004926, -0.6419503174727959 
2.3400000000005137, -0.6449767926287341 
2.3500000000005348, -0.6487870936683732 
2.360000000000556, -0.653464186538712 
2.370000000000577, -0.6589550709341445 
2.380000000000598, -0.664914998318279 
2.390000000000619, -0.6706605691950174 
2.4000000000006403, -0.6754332626645926 
2.4100000000006614, -0.6788242098768016 
2.4200000000006825, -0.6809008463938216 
2.4300000000007036, -0.6819751445773388 
2.4400000000007247, -0.6823506115901282 
2.450000000000746, -0.6822170545031263 
2.460000000000767, -0.6816389160148904 
2.470000000000788, -0.6805587236019673 
2.480000000000809, -0.6787758488337903 
2.49000000000083, -0.6758746310923668 
2.5000000000008513, -0.6710401437795079 
2.5100000000008724, -0.6625005757516815 
2.5200000000008935, -0.6454727925904288 
2.5300000000009146, -0.6054770441182737 
2.5400000000009357, -0.511193503369687 
2.550000000000957, -0.35731227160528256 
2.560000000000978, -0.22287696758710832 
2.570000000000999, -0.15157481079725174 
2.58000000000102, -0.11979312157588741 
2.5900000000010412, -0.10528522398187148 
2.6000000000010624, -0.0981262918951276 
2.6100000000010835, -0.09432562527665542 
2.6200000000011046, -0.09221531341981838 
2.6300000000011257, -0.09106004350218762 
2.6400000000011468, -0.09053697629238942 
2.650000000001168, -0.09053984368093423 
2.660000000001189, -0.09112013616785497 
2.67000000000121, -0.0925139769424455 
2.680000000001231, -0.0952771281805886 
2.6900000000012523, -0.10065061257331952 
2.7000000000012734, -0.11152454743036866 
2.7100000000012945, -0.1349754927903065 
2.7200000000013156, -0.187734908069055 
2.7300000000013367, -0.2959535909826246 
2.740000000001358, -0.44616893507828925 
2.750000000001379, -0.5582220121663738 
2.7600000000014, -0.6097146202003411 
2.770000000001421, -0.6305509337998326 
2.780000000001442, -0.639971876076462 
2.7900000000014633, -0.6448279073033797 
2.8000000000014844, -0.6475026518382223 
2.8100000000015055, -0.64898134870689 
2.8200000000015266, -0.6497322574401917 
2.8300000000015477, -0.6499794519229293 
2.840000000001569, -0.6498010041906707 
2.85000000000159, -0.6491627433644908 
2.860000000001611, -0.6479261642707037 
2.870000000001632, -0.6458680343243353 
2.8800000000016532, -0.6427710324546912 
2.8900000000016743, -0.6386161883602884 
2.9000000000016954, -0.6337429971807937 
2.9100000000017165, -0.6287404864100482 
2.9200000000017377, -0.624128410912891 
2.9300000000017588, -0.6201627900010622 
2.94000000000178, -0.6168728828086095 
2.950000000001801, -0.614182319465314 
2.960000000001822, -0.6119984489351632 
2.970000000001843, -0.6102519596786781 
2.9800000000018643, -0.6089047414514599 
2.9900000000018854, -0.6079432968007868 
3.0000000000019065, -0.6073680417556797 
3.0100000000019276, -0.607183880021514 
3.0200000000019487, -0.6073948210924007 
3.03000000000197, -0.6080039551876998 
3.040000000001991, -0.6090188906245626 
3.050000000002012, -0.6104614976742674 
3.060000000002033, -0.6123791851310104 
3.070000000002054, -0.6148520216437533 
3.0800000000020753, -0.6179844252839635 
3.0900000000020964, -0.6218619254179343 
3.1000000000021175, -0.626451942840358 
3.1100000000021386, -0.6314681891063064 
3.1200000000021597, -0.6363314997387973 
3.130000000002181, -0.6403939436569939 
3.140000000002202, -0.6432957703685187 
3.150000000002223, -0.6450749873528706 
3.160000000002244, -0.645979593566276 
3.1700000000022652, -0.6462561046590755 
3.1800000000022863, -0.6460553767328652 
3.1900000000023074, -0.6454142148452366 
3.2000000000023285, -0.6442451823899468 
3.2100000000023496, -0.6422897164166971 
3.2200000000023707, -0.6389783083585825 
3.230000000002392, -0.6330372546451514 
3.240000000002413, -0.6212922094814117 
3.250000000002434, -0.5950896756282389 
3.260000000002455, -0.533798732501892 
3.2700000000024763, -0.4169996234785852 
3.2800000000024974, -0.28313180905244095 
3.2900000000025185, -0.19498108640128392 
3.3000000000025396, -0.1519564971832871 
3.3100000000025607, -0.13195563773504945 
3.3200000000025818, -0.12213403444779977 
3.330000000002603, -0.11694804599735317 
3.340000000002624, -0.11404544899371609 
3.350000000002645, -0.11238117083187349 
3.360000000002666, -0.1114765026146977 
3.3700000000026873, -0.11112868573875112 
3.3800000000027084, -0.11130287371903962 
3.3900000000027295, -0.11211580900981316 
3.4000000000027506, -0.11389900936419632 
3.4100000000027717, -0.11739513175584938 
3.420000000002793, -0.12426945827875822 
3.430000000002814, -0.13845419923059776 
3.440000000002835, -0.1695690762368969 
3.450000000002856, -0.2388356320798791 
3.460000000002877, -0.3692095000083598 
3.4700000000028983, -0.5221429307588411 
3.4800000000029194, -0.6209870102970642 
3.4900000000029405, -0.6654890106775705 
3.5000000000029616, -0.6848250784828884 
3.5100000000029827, -0.6941490515501645 
3.520000000003004, -0.6990364825839568 
3.530000000003025, -0.7016823681311601 
3.540000000003046, -0.7030861203695424 
3.550000000003067, -0.7037356616525468 
3.5600000000030882, -0.7038540428154328 
3.5700000000031094, -0.7034950439842338 
3.5800000000031305, -0.7025673691785764 
3.5900000000031516, -0.7008202862999151 
3.6000000000031727, -0.6978377189550657 
3.6100000000031938, -0.6931486841524853 
3.620000000003215, -0.6865657608343111 
3.630000000003236, -0.6785654046020894 
3.640000000003257, -0.6701824236487165 
3.650000000003278, -0.6624017141699439 
3.6600000000032993, -0.6557362282273074 
3.6700000000033204, -0.6502747444439079 
3.6800000000033415, -0.6459046619636876 
3.6900000000033626, -0.6424702165982384 
3.7000000000033837, -0.6398360965420625 
3.710000000003405, -0.6378968336972956 
3.720000000003426, -0.6365659883774146 
3.730000000003447, -0.6357632296878115 
3.740000000003468, -0.6354071554583136 
3.750000000003489, -0.6354157075445178 
3.7600000000035103, -0.6357123983270337 
3.7700000000035314, -0.6362350497411877 
3.7800000000035525, -0.6369442006073245 
3.7900000000035736, -0.6378291813545047 
3.8000000000035947, -0.6389089173477532 
3.810000000003616, -0.6402218588626557 
3.820000000003637, -0.6417986516071857 
3.830000000003658, -0.6436172229249536 
3.840000000003679, -0.6455581460093094 
3.8500000000037002, -0.6474045883962212 
3.8600000000037213, -0.6489216458776577 
3.8700000000037424, -0.6499659766580667 
3.8800000000037635, -0.6505244175067502 
3.8900000000037847, -0.6506646271222687 
3.9000000000038058, -0.6504681379875131 
3.910000000003827, -0.6499967744079864 
3.920000000003848, -0.6492981968384146 
3.930000000003869, -0.6484530142681129 
3.94000000000389, -0.6477010771719841 
3.9500000000039113, -0.6477605042725131 
3.9600000000039324, -0.6506037518734528 
3.9700000000039535, -0.6611906523491402 
3.9800000000039746, -0.6905866554330544 
3.9900000000039957, -0.7582283404542258 
4.000000000004016, -0.8816493295228581 
4.010000000003993, -1.0426625948926485 
4.02000000000397, -1.1795774847006661 
4.030000000003946, -1.2568039826269466 
4.040000000003923, -1.2903697408900339 
4.0500000000039, -1.3035733145443396 
4.0600000000038765, -1.3086645073463625 
4.070000000003853, -1.3105390675959565 
4.08000000000383, -1.3110158302659907 
4.090000000003807, -1.3107595095800102 
4.100000000003783, -1.3100538395936459 
4.11000000000376, -1.3092855697358279 
4.120000000003737, -1.3094547798355132 
4.130000000003713, -1.3120645369304762 
4.14000000000369, -1.3175515186152527 
4.150000000003667, -1.3244884553749485 
4.1600000000036434, -1.3311699680419269 
4.17000000000362, -1.3367701698499075 
4.180000000003597, -1.34112737697971 
4.1900000000035735, -1.3443149643117949 
4.20000000000355, -1.346456208150457 
4.210000000003527, -1.347693608866954 
4.220000000003504, -1.3481921429928654 
4.23000000000348, -1.3481268422042725 
4.240000000003457, -1.34766800496624 
4.250000000003434, -1.3469879691044624 
4.26000000000341, -1.3462674860136454 
4.270000000003387, -1.3456582676986224 
4.280000000003364, -1.3452425516939024 
4.2900000000033405, -1.3450549531466323 
4.300000000003317, -1.3450836502692936 
4.310000000003294, -1.3452167266365767 
4.320000000003271, -1.3452592529525347 
4.330000000003247, -1.3450045930380574 
4.340000000003224, -1.344246948988054 
4.350000000003201, -1.3427514063410015 
4.360000000003177, -1.3402501452444655 
4.370000000003154, -1.3364763558361406 
4.380000000003131, -1.3311957580551503 
4.390000000003107, -1.3242251145552724 
4.400000000003084, -1.3155427501377566 
4.410000000003061, -1.3056936573336413 
4.4200000000030375, -1.2964030371269695 
4.430000000003014, -1.290141806579241 
4.440000000002991, -1.287767678675921 
4.450000000002968, -1.2877105344225945 
4.460000000002944, -1.288180940823297 
4.470000000002921, -1.2883742196239438 
4.480000000002898, -1.2880281024400422 
4.490000000002874, -1.2868483024403927 
4.500000000002851, -1.2840315917846952 
4.510000000002828, -1.2773735197287102 
4.520000000002804, -1.2610140533091299 
4.530000000002781, -1.2208845025224644 
4.540000000002758, -1.133287745050967 
4.5500000000027345, -0.9895855877501402 
4.560000000002711, -0.831998712425101 
4.570000000002688, -0.7151140027346289 
4.580000000002665, -0.6513185103426827 
4.590000000002641, -0.6231143466031679 
4.600000000002618, -0.612387424691041 
4.610000000002595, -0.6089592156144213 
4.620000000002571, -0.6082571523130765 
4.630000000002548, -0.6084269118379351 
4.640000000002525, -0.608763861072531 
4.6500000000025015, -0.6090140758046303 
4.660000000002478, -0.6090839616325091 
4.670000000002455, -0.608923320063598 
4.6800000000024315, -0.6084822496335222 
4.690000000002408, -0.6077075952207882 
4.700000000002385, -0.6065712207199004 
4.710000000002362, -0.6051158791403249 
4.720000000002338, -0.6034752167427478 
4.730000000002315, -0.6018289107717788 
4.740000000002292, -0.6003223890176699 
4.750000000002268, -0.599019796529493 
4.760000000002245, -0.5979120910162898 
4.770000000002222, -0.5969535360833322 
4.7800000000021985, -0.5960982791808024 
4.790000000002175, -0.5953240749964022 
4.800000000002152, -0.5946424713412268 
4.810000000002129, -0.5941019666034021 
4.820000000002105, -0.5937910006683369 
4.830000000002082, -0.5938434591925639 
4.840000000002059, -0.5944459736066704 
4.850000000002035, -0.5958462635447027 
4.860000000002012, -0.5983644302117781 
4.870000000001989, -0.6024118548291987 
4.880000000001965, -0.6085204717780239 
4.890000000001942, -0.6173696610637751 
4.900000000001919, -0.6297499611111478 
4.9100000000018955, -0.646298612659026 
