t, s[1].omega / s[0].omega 
0, -1.4699969947007603 
0.009999999999999995, -1.4694523312982273 
0.019999999999999934, -1.4684222801413955 
0.029999999999999874, -1.466901960010048 
0.04000000000000012, -1.4648869279982604 
0.050000000000000405, -1.462379158357457 
0.06000000000000069, -1.459399747945674 
0.07000000000000098, -1.4560248525689232 
0.08000000000000126, -1.4524663944060938 
0.09000000000000155, -1.449156835636606 
0.10000000000000184, -1.4466633973583787 
0.11000000000000212, -1.4453238431499615 
0.12000000000000241, -1.4449529341964993 
0.130000000000002, -1.445027051073549 
0.1400000000000009, -1.4450600281894064 
0.1499999999999998, -1.4447247723862306 
0.1599999999999987, -1.443734387498273 
0.1699999999999976, -1.4416315728140705 
0.1799999999999965, -1.4374742332714527 
0.1899999999999954, -1.4292394896742997 
0.1999999999999943, -1.4126157070052583 
0.2099999999999932, -1.378858981016195 
0.2199999999999921, -1.3126810793380257 
0.229999999999991, -1.1963449696553095 
0.2399999999999899, -1.029669901441429 
0.2499999999999888, -0.8479252736724766 
0.2599999999999877, -0.6961997875176927 
0.2699999999999866, -0.5925657808308792 
0.2799999999999855, -0.5298533857885035 
0.2899999999999844, -0.4941003302539196 
0.2999999999999833, -0.4741984302496048 
0.3099999999999822, -0.4632159902311576 
0.3199999999999811, -0.45719614920324125 
0.32999999999998, -0.4539411801932557 
0.3399999999999789, -0.4522319253959127 
0.3499999999999778, -0.45138594860239833 
0.35999999999997667, -0.4510165257405506 
0.36999999999997557, -0.45090168473817843 
0.37999999999997447, -0.45091256813299313 
0.38999999999997337, -0.45097422181876406 
0.39999999999997227, -0.45104477736263804 
0.40999999999997117, -0.4511056318069525 
0.41999999999997006, -0.4511583043074627 
0.42999999999996896, -0.45122456850142595 
0.43999999999996786, -0.45134636677604495 
0.44999999999996676, -0.4515822904054184 
0.45999999999996566, -0.45199900287332156 
0.46999999999996456, -0.4526581683524054 
0.47999999999996346, -0.4536004850894716 
0.48999999999996235, -0.45482846498427837 
0.49999999999996125, -0.45629149971628563 
0.5099999999999602, -0.45788159504122644 
0.519999999999959, -0.45944992675674284 
0.529999999999958, -0.4608442356625606 
0.5399999999999568, -0.4619492738757599 
0.5499999999999557, -0.46270718515902615 
0.5599999999999546, -0.46311043177357203 
0.5699999999999535, -0.4631785283347881 
0.5799999999999524, -0.46293352895610657 
0.5899999999999513, -0.46238117867012674 
0.5999999999999502, -0.4614961258543215 
0.6099999999999491, -0.4602046800627278 
0.619999999999948, -0.4583543234005586 
0.6299999999999469, -0.45564944384023204 
0.6399999999999458, -0.4515071573084167 
0.6499999999999447, -0.44472603525955334 
0.6599999999999436, -0.432747664053879 
0.6699999999999425, -0.41027092574102747 
0.6799999999999414, -0.36807280052923247 
0.6899999999999403, -0.29734935204385327 
0.6999999999999392, -0.2053706177353425 
0.7099999999999381, -0.1197914223893478 
0.719999999999937, -0.06003916418759433 
0.7299999999999359, -0.024392173457776768 
0.7399999999999348, -0.004052521775916925 
0.7499999999999337, 0.007379655467091552 
0.7599999999999326, 0.013977159811361209 
0.7699999999999315, 0.017935911713566434 
0.7799999999999304, 0.020349158990397673 
0.7899999999999293, 0.021815448714042274 
0.7999999999999282, 0.022671636778302934 
0.8099999999999271, 0.023108837257780748 
0.819999999999926, 0.023230532833952072 
0.8299999999999249, 0.02308101898728146 
0.8399999999999238, 0.022657123462192893 
0.8499999999999227, 0.021909205464386388 
0.8599999999999216, 0.020736168208516353 
0.8699999999999205, 0.018987979661813405 
0.8799999999999194, 0.016531316376834426 
0.8899999999999183, 0.013593432397634157 
0.8999999999999172, 0.012098465479948046 
0.9099999999999161, 0.01953382786052776 
0.919999999999915, 0.05375899826256588 
0.9299999999999139, 0.12834746198174868 
0.9399999999999128, 0.21495393301136784 
0.9499999999999117, 0.2748409657709927 
0.9599999999999106, 0.30636991136764685 
0.9699999999999095, 0.3218597617074601 
0.9799999999999084, 0.3296078164626635 
0.9899999999999073, 0.3336069279789526 
0.9999999999999062, 0.33569000469938304 
1.0099999999999052, 0.3367329450882855 
1.019999999999904, 0.33718707079475685 
1.029999999999903, 0.3373093450529941 
1.039999999999902, 0.3372649478691375 
1.0499999999999008, 0.33717559742719905 
1.0599999999998997, 0.3371451747115076 
1.0699999999998986, 0.3372765880390436 
1.0799999999998975, 0.3376846844391435 
1.0899999999998964, 0.3385027871605304 
1.0999999999998953, 0.3398725531174567 
1.1099999999998942, 0.34190149330698955 
1.119999999999893, 0.3445841275542515 
1.129999999999892, 0.3477266655400226 
1.1399999999998909, 0.35095819435534903 
1.1499999999998898, 0.3538628787333264 
1.1599999999998887, 0.35613859718590835 
1.1699999999998876, 0.35765606647029485 
1.1799999999998865, 0.3584054706821407 
1.1899999999998854, 0.3584038654874337 
1.1999999999998843, 0.3576195528723424 
1.2099999999998832, 0.355926121991097 
1.219999999999882, 0.3530897026513314 
1.229999999999881, 0.34882071739903203 
1.2399999999998799, 0.34295415391471573 
1.2499999999998788, 0.3357610621421991 
1.2599999999998777, 0.32813613542499903 
1.2699999999998766, 0.32126718142013794 
1.2799999999998755, 0.3159534305708254 
1.2899999999998744, 0.3122960888020342 
1.2999999999998733, 0.30994698167810625 
1.3099999999998722, 0.3084672824304316 
1.319999999999871, 0.3075053878077365 
1.32999999999987, 0.3068210875991661 
1.3399999999998689, 0.3062527004589554 
1.3499999999998678, 0.3056777887223338 
1.3599999999998666, 0.30497928523847895 
1.3699999999998655, 0.3040123515441541 
1.3799999999998644, 0.30255892750083757 
1.3899999999998633, 0.3002440023684424 
1.3999999999998622, 0.2963548578385364 
1.4099999999998611, 0.2894171356354128 
1.41999999999986, 0.2761567151215336 
1.429999999999859, 0.24904718848642585 
1.4399999999998578, 0.1922977962862268 
1.4499999999998567, 0.08743952070314195 
1.4599999999998556, -0.042183585018918626 
1.4699999999998545, -0.12792262791333353 
1.4799999999998534, -0.15748949037280052 
1.4899999999998523, -0.16109020593060272 
1.4999999999998512, -0.15817428230491068 
1.5099999999998501, -0.1549522742333316 
1.519999999999849, -0.15261696364967584 
1.529999999999848, -0.1511044085912316 
1.5399999999998468, -0.15016904853032303 
1.5499999999998457, -0.1496132501285073 
1.5599999999998446, -0.14930926732088082 
1.5699999999998435, -0.1491833903848528 
1.5799999999998424, -0.14920049546756164 
1.5899999999998413, -0.14935515486275042 
1.5999999999998402, -0.1496689195002087 
1.6099999999998391, -0.15019276131676548 
1.619999999999838, -0.15101428601958772 
1.629999999999837, -0.15227035511447073 
1.6399999999998358, -0.1541670979678682 
1.6499999999998347, -0.15701018938763128 
1.6599999999998336, -0.16124562392457534 
1.6699999999998325, -0.16749674547344662 
1.6799999999998314, -0.1765408838148518 
1.6899999999998303, -0.18909065810357004 
1.6999999999998292, -0.20522262805163036 
1.709999999999828, -0.2236407786943332 
1.719999999999827, -0.24169496784104305 
1.729999999999826, -0.2567750241476989 
1.7399999999998248, -0.2677694201476118 
1.7499999999998237, -0.2750677326334108 
1.7599999999998226, -0.2796591494869323 
1.7699999999998215, -0.2824613990920605 
1.7799999999998204, -0.2841175086285613 
1.7899999999998193, -0.28502432146681955 
1.7999999999998182, -0.2854092284819695 
1.809999999999817, -0.28539236971671506 
1.819999999999816, -0.2850274342028999 
1.8299999999998149, -0.2843289712713627 
1.8399999999998138, -0.28329523621777347 
1.8499999999998127, -0.2819326428620408 
1.8599999999998116, -0.28028158947831405 
1.8699999999998105, -0.27843442647563094 
1.8799999999998094, -0.2765317953105743 
1.8899999999998083, -0.2747332555958989 
1.8999999999998072, -0.2731774000614674 
1.909999999999806, -0.27195420016758776 
1.919999999999805, -0.2710990255424985 
1.9299999999998039, -0.2706006838319547 
1.9399999999998028, -0.2704118955833392 
1.9499999999998017, -0.2704577520320129 
1.9599999999998006, -0.27064494807465467 
1.9699999999997995, -0.27087513413306386 
1.9799999999997984, -0.2710604319848223 
1.9899999999997973, -0.2711345722399521 
1.9999999999997962, -0.27105457617439715 
2.0099999999998173, -0.2707933421931588 
2.0199999999998384, -0.2703268803060537 
2.0299999999998595, -0.2696187579109761 
2.0399999999998806, -0.26860019643963623 
2.0499999999999017, -0.26713855995040436 
2.059999999999923, -0.2649782555782414 
2.069999999999944, -0.26162284032878735 
2.079999999999965, -0.2561069973215156 
2.089999999999986, -0.24662381834463376 
2.100000000000007, -0.23021783581307073 
2.1100000000000283, -0.20357764275122195 
2.1200000000000494, -0.16646315179406218 
2.1300000000000705, -0.12523974425403256 
2.1400000000000916, -0.08917148075003739 
2.1500000000001127, -0.06289698470481045 
2.160000000000134, -0.04561277209778898 
2.170000000000155, -0.03464745966803503 
2.180000000000176, -0.027675379545455 
2.190000000000197, -0.023152083081364724 
2.2000000000002182, -0.020137132720873967 
2.2100000000002393, -0.01806707068233604 
2.2200000000002604, -0.016599952634238854 
2.2300000000002815, -0.015524079347342564 
2.2400000000003026, -0.014706642794877331 
2.2500000000003237, -0.01406448552470797 
2.260000000000345, -0.013546468024424057 
2.270000000000366, -0.01312126820840932 
2.280000000000387, -0.012765537440267425 
2.290000000000408, -0.01244420501249911 
2.3000000000004293, -0.01206272761576163 
2.3100000000004504, -0.011336506429745144 
2.3200000000004715, -0.009436166740932377 
2.3300000000004926, -0.004124041268697897 
2.3400000000005137, 0.009412708203240921 
2.3500000000005348, 0.039035895702469715 
2.360000000000556, 0.08692985732573831 
2.370000000000577, 0.13906621836429364 
2.380000000000598, 0.17871642558072462 
2.390000000000619, 0.2028547923266473 
2.4000000000006403, 0.21629099300192445 
2.4100000000006614, 0.22365243892806078 
2.4200000000006825, 0.22771114895396807 
2.4300000000007036, 0.2299402803429486 
2.4400000000007247, 0.23111739379007357 
2.450000000000746, 0.2316713814000958 
2.460000000000767, 0.23185725010728195 
2.470000000000788, 0.23184160290714823 
2.480000000000809, 0.23174502293252308 
2.49000000000083, 0.231665233849106 
2.5000000000008513, 0.23169348640912213 
2.5100000000008724, 0.23193035762663194 
2.5200000000008935, 0.23250275346919946 
2.5300000000009146, 0.23357850523761867 
2.5400000000009357, 0.23536508203313475 
2.550000000000957, 0.23806502226416767 
2.560000000000978, 0.2417616678377243 
2.570000000000999, 0.24626783682265505 
2.58000000000102, 0.25107784825356755 
2.5900000000010412, 0.2555471892863237 
2.6000000000010624, 0.25918322542847094 
2.6100000000010835, 0.2617900082369984 
2.6200000000011046, 0.26340214753734426 
2.6300000000011257, 0.26414272097468516 
2.6400000000011468, 0.2641206352737532 
2.650000000001168, 0.2633900669105098 
2.660000000001189, 0.2619559332745618 
2.67000000000121, 0.2598135186034058 
2.680000000001231, 0.25701457929816474 
2.6900000000012523, 0.25373323834559236 
2.7000000000012734, 0.250276243586351 
2.7100000000012945, 0.24700028344707853 
2.7200000000013156, 0.24418377881415806 
2.7300000000013367, 0.24195171356923717 
2.740000000001358, 0.2402917920896608 
2.750000000001379, 0.23911732919028458 
2.7600000000014, 0.23832201190730537 
2.770000000001421, 0.23780677932604713 
2.780000000001442, 0.23748463593669134 
2.7900000000014633, 0.2372746203957036 
2.8000000000014844, 0.23709281932428275 
2.8100000000015055, 0.23684391746802141 
2.8200000000015266, 0.23641263644731814 
2.8300000000015477, 0.23565000462781255 
2.840000000001569, 0.2343444920649191 
2.85000000000159, 0.2321617781282697 
2.860000000001611, 0.22852697650563375 
2.870000000001632, 0.2224122042011302 
2.8800000000016532, 0.21202241445485917 
2.8900000000016743, 0.19463688254856687 
2.9000000000016954, 0.16775376181504667 
2.9100000000017165, 0.13313123550238654 
2.9200000000017377, 0.09969285950684784 
2.9300000000017588, 0.07630025447948437 
2.94000000000178, 0.06369800436792536 
2.950000000001801, 0.05786680130286511 
2.960000000001822, 0.05528612441789443 
2.970000000001843, 0.054073713499456895 
2.9800000000018643, 0.05339535050946051 
2.9900000000018854, 0.05290405975381058 
3.0000000000019065, 0.05245287518583826 
3.0100000000019276, 0.05196981575236277 
3.0200000000019487, 0.051404212266763234 
3.03000000000197, 0.05070052623893911 
3.040000000001991, 0.04978037768903289 
3.050000000002012, 0.048522886692058155 
3.060000000002033, 0.04673482016380991 
3.070000000002054, 0.04409777977420078 
3.0800000000020753, 0.04006891014638777 
3.0900000000020964, 0.03369249039644362 
3.1000000000021175, 0.023260082962698367 
3.1100000000021386, 0.005809352439321705 
3.1200000000021597, -0.02272448100067346 
3.130000000002181, -0.06654565465731939 
3.140000000002202, -0.12266205365446979 
3.150000000002223, -0.1768373892777091 
3.160000000002244, -0.21563692758507666 
3.1700000000022652, -0.23796509868055088 
3.1800000000022863, -0.24955596958273998 
3.1900000000023074, -0.2555095690136807 
3.2000000000023285, -0.2586927098026916 
3.2100000000023496, -0.2604883580992776 
3.2200000000023707, -0.2615416751591152 
3.230000000002392, -0.26215941609916604 
3.240000000002413, -0.26249294226388387 
3.250000000002434, -0.2626198397511983 
3.260000000002455, -0.262582049494257 
3.2700000000024763, -0.2624062283723177 
3.2800000000024974, -0.26211735329595864 
3.2900000000025185, -0.26174955855597987 
3.3000000000025396, -0.2613541198011592 
3.3100000000025607, -0.26100236338047555 
3.3200000000025818, -0.2607818766761083 
3.330000000002603, -0.26078740798841094 
3.340000000002624, -0.2611101012469189 
3.350000000002645, -0.2618269701867679 
3.360000000002666, -0.2629880218990779 
3.3700000000026873, -0.2645967728407671 
3.3800000000027084, -0.2665863130623428 
3.3900000000027295, -0.2688063694776034 
3.4000000000027506, -0.2710433331434786 
3.4100000000027717, -0.2730769054007996 
3.420000000002793, -0.2747429278476088 
3.430000000002814, -0.27596279440048077 
3.440000000002835, -0.27672946370749846 
3.450000000002856, -0.2770708803728686 
3.460000000002877, -0.2770141270539893 
3.4700000000028983, -0.2765589500288697 
3.4800000000029194, -0.27565732163686213 
3.4900000000029405, -0.2741920196490305 
3.5000000000029616, -0.2719496730668558 
3.5100000000029827, -0.26859335420201597 
3.520000000003004, -0.2636640105869688 
3.530000000003025, -0.2566812248266574 
3.540000000003046, -0.247423509843595 
3.550000000003067, -0.23631265524697323 
3.5600000000030882, -0.22451909045985952 
3.5700000000031094, -0.21347631375177176 
3.5800000000031305, -0.20418310969324352 
3.5900000000031516, -0.1969369588988206 
3.6000000000031727, -0.1915403823549946 
3.6100000000031938, -0.18760934675992344 
3.620000000003215, -0.18476250831166585 
3.630000000003236, -0.18268875081222072 
3.640000000003257, -0.18115332990401883 
3.650000000003278, -0.17998506534413852 
3.6600000000032993, -0.17906222595773333 
3.6700000000033204, -0.17830138693424688 
3.6800000000033415, -0.1776490462511045 
3.6900000000033626, -0.17707537295841233 
3.7000000000033837, -0.17657006265435224 
3.710000000003405, -0.1761406054267795 
3.720000000003426, -0.17581297259951315 
3.730000000003447, -0.17563309404337182 
3.740000000003468, -0.175661240329652 
3.750000000003489, -0.17592836973055995 
3.7600000000035103, -0.17624244127781102 
3.7700000000035314, -0.17547266231688255 
3.7800000000035525, -0.16930258911324644 
3.7900000000035736, -0.14526889327327253 
3.8000000000035947, -0.0816596610036624 
3.810000000003616, 0.023609635748287207 
3.820000000003637, 0.12429289003913525 
3.830000000003658, 0.1870211496061171 
3.840000000003679, 0.2190966658130606 
3.8500000000037002, 0.23500711775877384 
3.8600000000037213, 0.24316404809578154 
3.8700000000037424, 0.24751759736029103 
3.8800000000037635, 0.24989841878951335 
3.8900000000037847, 0.25119684954150623 
3.9000000000038058, 0.25187705073237265 
3.910000000003827, 0.2522014795585516 
3.920000000003848, 0.2523340260232571 
3.930000000003869, 0.25239267052128833 
3.94000000000389, 0.25248313701940045 
3.9500000000039113, 0.25272983740891003 
3.9600000000039324, 0.2533147313729569 
3.9700000000039535, 0.2545295442736781 
3.9800000000039746, 0.25682794710046825 
3.9900000000039957, 0.2608081987507767 
4.000000000004016, 0.2669745936761563 
4.010000000003993, 0.2752094478536364 
4.02000000000397, 0.2843956127143401 
4.030000000003946, 0.29290224718863467 
4.040000000003923, 0.29959337898158006 
4.0500000000039, 0.30422653834374347 
4.0600000000038765, 0.30711205772330646 
4.070000000003853, 0.3086799170897698 
4.08000000000383, 0.30927043884762256 
4.090000000003807, 0.3090963526152162 
4.100000000003783, 0.30827422794059867 
4.11000000000376, 0.30687664223678623 
4.120000000003737, 0.30498862731510384 
4.130000000003713, 0.3027523175296036 
4.14000000000369, 0.3003748695955941 
4.150000000003667, 0.29808699319859105 
4.1600000000036434, 0.29607732564279415 
4.17000000000362, 0.2944493458065818 
4.180000000003597, 0.2932225536267425 
4.1900000000035735, 0.2923614597227193 
4.20000000000355, 0.29180552852885616 
4.210000000003527, 0.2914863043099917 
4.220000000003504, 0.2913317941827666 
4.23000000000348, 0.2912637512452211 
4.240000000003457, 0.29119311570295553 
4.250000000003434, 0.29101569286907963 
4.26000000000341, 0.2906055565764713 
4.270000000003387, 0.28979861045565036 
4.280000000003364, 0.28835342585196666 
4.2900000000033405, 0.28586833520845567 
4.300000000003317, 0.28161814466861673 
4.310000000003294, 0.2742572671489719 
4.320000000003271, 0.26140146285412014 
4.330000000003247, 0.23961593087218971 
4.340000000003224, 0.20682270162499192 
4.350000000003201, 0.16830446672851468 
4.360000000003177, 0.13650440826307536 
4.370000000003154, 0.11810531778663394 
4.380000000003131, 0.10997494374313323 
4.390000000003107, 0.10695163415594716 
4.400000000003084, 0.10593390277777448 
4.410000000003061, 0.10557623222961722 
4.4200000000030375, 0.10537100010100799 
4.430000000003014, 0.10513660614272319 
4.440000000002991, 0.10480319802625783 
4.450000000002968, 0.104329181824716 
4.460000000002944, 0.10366580836551333 
4.470000000002921, 0.10273548246121324 
4.480000000002898, 0.10140770594535743 
4.490000000002874, 0.09945963692333103 
4.500000000002851, 0.09650095851852125 
4.510000000002828, 0.09182134818906525 
4.520000000002804, 0.084070486158805 
4.530000000002781, 0.07058872705870808 
4.540000000002758, 0.046139324615529165 
4.5500000000027345, 0.0014624288426421971 
4.560000000002711, -0.07329061433841191 
4.570000000002688, -0.17293688860249726 
4.580000000002665, -0.26426204422335153 
4.590000000002641, -0.3220296744891453 
4.600000000002618, -0.3510152783763262 
4.610000000002595, -0.36457336615714137 
4.620000000002571, -0.3711881398485896 
4.630000000002548, -0.3747281744677269 
4.640000000002525, -0.3768055027184464 
4.6500000000025015, -0.3781024554863872 
4.660000000002478, -0.37892670960592734 
4.670000000002455, -0.37942722390436057 
4.6800000000024315, -0.37967918316908983 
4.690000000002408, -0.37971958178233317 
4.700000000002385, -0.379564472712676 
4.710000000002362, -0.3792203485794626 
4.720000000002338, -0.37869501404922107 
4.730000000002315, -0.3780093622269333 
4.740000000002292, -0.3772077043899419 
4.750000000002268, -0.3763613488345273 
4.760000000002245, -0.3755610719924685 
4.770000000002222, -0.37490007413438 
4.7800000000021985, -0.3744549526863466 
4.790000000002175, -0.3742717994289698 
4.800000000002152, -0.3743589795773281 
4.810000000002129, -0.3746847201768223 
4.820000000002105, -0.3751796307037416 
4.830000000002082, -0.37574733322098364 
4.840000000002059, -0.3762841336927683 
4.850000000002035, -0.3767013017831135 
4.860000000002012, -0.3769393468146528 
4.870000000001989, -0.3769685344662601 
4.880000000001965, -0.3767785605493659 
4.890000000001942, -0.3763641502037628 
