t, s[1].omega / s[0].omega 
0, -0.7599976687020824 
0.009999999999999995, -0.7597468350982328 
0.019999999999999934, -0.7594550505369779 
0.029999999999999874, -0.7591084959391419 
0.04000000000000012, -0.7586942613763445 
0.050000000000000405, -0.7582088248094185 
0.06000000000000069, -0.7576626330603433 
0.07000000000000098, -0.7570813114655646 
0.08000000000000126, -0.7565062039458249 
0.09000000000000155, -0.7559959491775184 
0.10000000000000184, -0.7556283772743113 
0.11000000000000212, -0.7555002213108365 
0.12000000000000241, -0.755722100773613 
0.130000000000002, -0.7564081911451426 
0.1400000000000009, -0.7576629850312533 
0.1499999999999998, -0.7595693780523645 
0.1599999999999987, -0.7621810520903408 
0.1699999999999976, -0.7655180399286102 
0.1799999999999965, -0.7695599191740772 
0.1899999999999954, -0.7742295718377544 
0.1999999999999943, -0.7793654645892026 
0.2099999999999932, -0.7846953174742772 
0.2199999999999921, -0.7898444397413731 
0.229999999999991, -0.7944121072002837 
0.2399999999999899, -0.7980983897882177 
0.2499999999999888, -0.8007972451932099 
0.2599999999999877, -0.8025870622170886 
0.2699999999999866, -0.8036439797050979 
0.2799999999999855, -0.8041533867195783 
0.2899999999999844, -0.8042617320232536 
0.2999999999999833, -0.8040649470844231 
0.3099999999999822, -0.8036155168138505 
0.3199999999999811, -0.8029371568562984 
0.32999999999998, -0.8020470862442435 
0.3399999999999789, -0.8009961585606378 
0.3499999999999778, -0.7999473818336414 
0.35999999999997667, -0.7993201319143175 
0.36999999999997557, -0.8000122710502737 
0.37999999999997447, -0.8036332029368107 
0.38999999999997337, -0.8124934809081902 
0.39999999999997227, -0.8288816685138795 
0.40999999999997117, -0.8533715374572169 
0.41999999999997006, -0.8831630509339015 
0.42999999999996896, -0.9127206373876051 
0.43999999999996786, -0.9370412831888629 
0.44999999999996676, -0.9542290372481419 
0.45999999999996566, -0.9651287360245341 
0.46999999999996456, -0.9715787507664579 
0.47999999999996346, -0.9752279652527536 
0.48999999999996235, -0.9772029726905489 
0.49999999999996125, -0.97817930121758 
0.5099999999999602, -0.978530115929568 
0.519999999999959, -0.9784402640585015 
0.529999999999958, -0.9779721733109048 
0.5399999999999568, -0.9770952795284182 
0.5499999999999557, -0.9756932058016219 
0.5599999999999546, -0.9735677750702054 
0.5699999999999535, -0.9704812405610976 
0.5799999999999524, -0.9663279765182052 
0.5899999999999513, -0.9615712719175195 
0.5999999999999502, -0.9579406625548097 
0.6099999999999491, -0.9587722473794316 
0.619999999999948, -0.9676866190648121 
0.6299999999999469, -0.9854504860599848 
0.6399999999999458, -1.008156471230571 
0.6499999999999447, -1.0297668628804277 
0.6599999999999436, -1.0463342100874937 
0.6699999999999425, -1.0572650322339545 
0.6799999999999414, -1.0638175569112027 
0.6899999999999403, -1.0675118480293946 
0.6999999999999392, -1.069482157903415 
0.7099999999999381, -1.0704279102271286 
0.719999999999937, -1.070735903824236 
0.7299999999999359, -1.070594526623328 
0.7399999999999348, -1.0700644461943027 
0.7499999999999337, -1.0691160650725577 
0.7599999999999326, -1.0676587200885281 
0.7699999999999315, -1.0656102411836834 
0.7799999999999304, -1.0631070376680785 
0.7899999999999293, -1.060995354308234 
0.7999999999999282, -1.0615503822795556 
0.8099999999999271, -1.068604414506248 
0.819999999999926, -1.0855803936259847 
0.8299999999999249, -1.1117998659392812 
0.8399999999999238, -1.1413536748589483 
0.8499999999999227, -1.1671941981393936 
0.8599999999999216, -1.1857633053351588 
0.8699999999999205, -1.1973778171043377 
0.8799999999999194, -1.2040078515213273 
0.8899999999999183, -1.2075581832642648 
0.8999999999999172, -1.209330571638922 
0.9099999999999161, -1.2100858574339752 
0.919999999999915, -1.2102328492000476 
0.9299999999999139, -1.2099815965997271 
0.9399999999999128, -1.2094505174068908 
0.9499999999999117, -1.208760984916491 
0.9599999999999106, -1.208150851098487 
0.9699999999999095, -1.2080818265468036 
0.9799999999999084, -1.209196252581172 
0.9899999999999073, -1.211983261128138 
0.9999999999999062, -1.2163799685045928 
1.0099999999999052, -1.2217724207715874 
1.019999999999904, -1.2273811382616242 
1.029999999999903, -1.2325941123398898 
1.039999999999902, -1.237052945814173 
1.0499999999999008, -1.2406015697640382 
1.0599999999998997, -1.24322076805249 
1.0699999999998986, -1.2449833630477292 
1.0799999999998975, -1.2460189640023758 
1.0899999999998964, -1.2464788498563855 
1.0999999999998953, -1.2465069815125687 
1.1099999999998942, -1.2462275841434454 
1.119999999999893, -1.2457519742322722 
1.129999999999892, -1.2451964260834858 
1.1399999999998909, -1.2446924720629033 
1.1499999999998898, -1.244368908779393 
1.1599999999998887, -1.2443088295415001 
1.1699999999998876, -1.2445198233554593 
1.1799999999998865, -1.2449441184239345 
1.1899999999998854, -1.2454893672640934 
1.1999999999998843, -1.2460536328473912 
1.2099999999998832, -1.246541590001579 
1.219999999999882, -1.2468747851832567 
1.229999999999881, -1.2469947880193544 
1.2399999999998799, -1.2468610575691987 
1.2499999999998788, -1.2464478245561101 
1.2599999999998777, -1.2457419258527918 
1.2699999999998766, -1.244741496273744 
1.2799999999998755, -1.243456104247964 
1.2899999999998744, -1.241909894625287 
1.2999999999998733, -1.2401486639700836 
1.3099999999998722, -1.2382500948359993 
1.319999999999871, -1.2363342806235562 
1.32999999999987, -1.234566475922648 
1.3399999999998689, -1.233132557349923 
1.3499999999998678, -1.232169045281851 
1.3599999999998666, -1.2316801905774695 
1.3699999999998655, -1.231526252639624 
1.3799999999998644, -1.231503339449218 
1.3899999999998633, -1.2314281473645308 
1.3999999999998622, -1.2311581576543715 
1.4099999999998611, -1.2305592738540374 
1.41999999999986, -1.2294576616805482 
1.429999999999859, -1.227597211353997 
1.4399999999998578, -1.2246181908668452 
1.4499999999998567, -1.2200818157802518 
1.4599999999998556, -1.2135678583643714 
1.4699999999998545, -1.2048499860194328 
1.4799999999998534, -1.1941192874424096 
1.4899999999998523, -1.182194479548676 
1.4999999999998512, -1.1705742590089578 
1.5099999999998501, -1.161062838527626 
1.519999999999849, -1.1548949768601298 
1.529999999999848, -1.1520142847868218 
1.5399999999998468, -1.151327961985329 
1.5499999999998457, -1.151610532370009 
1.5599999999998446, -1.1520754894177645 
1.5699999999998435, -1.1523763216717868 
1.5799999999998424, -1.1523961410044405 
1.5899999999998413, -1.1520773246418876 
1.5999999999998402, -1.1513208128154557 
1.6099999999998391, -1.1499083896739193 
1.619999999999838, -1.147400438218376 
1.629999999999837, -1.1429771219706213 
1.6399999999998358, -1.135241547614671 
1.6499999999998347, -1.1221759189548395 
1.6599999999998336, -1.101789053691164 
1.6699999999998325, -1.074040182812316 
1.6799999999998314, -1.043033695249152 
1.6899999999998303, -1.016062655919002 
1.6999999999998292, -0.9986588397044919 
1.709999999999828, -0.99109513455531 
1.719999999999827, -0.9899533298894683 
1.729999999999826, -0.9915521571184174 
1.7399999999998248, -0.9936545680788319 
1.7499999999998237, -0.9953653508175506 
1.7599999999998226, -0.996498443611214 
1.7699999999998215, -0.9971155934605951 
1.7799999999998204, -0.9973119148467161 
1.7899999999998193, -0.9971392337409035 
1.7999999999998182, -0.996577860186776 
1.809999999999817, -0.9955100211460992 
1.819999999999816, -0.9936697690308736 
1.8299999999998149, -0.9905511782479433 
1.8399999999998138, -0.9852689735440265 
1.8499999999998127, -0.9764231078152805 
1.8599999999998116, -0.9621811049191387 
1.8699999999998105, -0.9410101202967203 
1.8799999999998094, -0.9132567534928002 
1.8899999999998083, -0.8824277160401213 
1.8999999999998072, -0.8540597870083619 
1.909999999999806, -0.8324991562641729 
1.919999999999805, -0.8188673283180805 
1.9299999999998039, -0.8117109078859146 
1.9399999999998028, -0.8087331054679018 
1.9499999999998017, -0.8079758020863732 
1.9599999999998006, -0.8081726156039881 
1.9699999999997995, -0.8086443790221347 
1.9799999999997984, -0.8090802335420983 
1.9899999999997973, -0.8093582944821204 
1.9999999999997962, -0.8094346139678026 
2.0099999999998173, -0.8092829570066771 
2.0199999999998384, -0.8088627277929421 
2.0299999999998595, -0.8081001100867112 
2.0399999999998806, -0.8068773926780718 
2.0499999999999017, -0.805035959788975 
2.059999999999923, -0.8024072676002951 
2.069999999999944, -0.7988817158207163 
2.079999999999965, -0.7944930960344733 
2.089999999999986, -0.789456268400049 
2.100000000000007, -0.7841124602545851 
2.1100000000000283, -0.7788175975778985 
2.1200000000000494, -0.7738540078746698 
2.1300000000000705, -0.7694039813314024 
2.1400000000000916, -0.7655663332103346 
2.1500000000001127, -0.7623827630031015 
2.160000000000134, -0.7598558116212903 
2.170000000000155, -0.7579563283488792 
2.180000000000176, -0.7566260159305144 
2.190000000000197, -0.7557813725338474 
2.2000000000002182, -0.7553222231939692 
2.2100000000002393, -0.7551437627779233 
2.2200000000002604, -0.7551482914756245 
2.2300000000002815, -0.7552530940086415 
2.2400000000003026, -0.7553934058590848 
2.2500000000003237, -0.7555219672011667 
2.260000000000345, -0.7556076326435269 
2.270000000000366, -0.7556345248721674 
2.280000000000387, -0.7556010301526539 
2.290000000000408, -0.7555162762104154 
2.3000000000004293, -0.7553926823007039 
2.3100000000004504, -0.7552367603365878 
2.3200000000004715, -0.7550432875943123 
2.3300000000004926, -0.754796826308519 
2.3400000000005137, -0.7544797952502004 
2.3500000000005348, -0.7540820403588728 
2.360000000000556, -0.7536069734461374 
2.370000000000577, -0.7530733541397777 
2.380000000000598, -0.7525153641894065 
2.390000000000619, -0.7519838220753747 
2.4000000000006403, -0.7515491080076276 
2.4100000000006614, -0.751303881792187 
2.4200000000006825, -0.7513624175130446 
2.4300000000007036, -0.7518540318977867 
2.4400000000007247, -0.7529106610216261 
2.450000000000746, -0.7546517776385738 
2.460000000000767, -0.7571709926097923 
2.470000000000788, -0.7605261620396963 
2.480000000000809, -0.7647297098960347 
2.49000000000083, -0.7697317376089814 
2.5000000000008513, -0.7753901757965636 
2.5100000000008724, -0.7814351660182837 
2.5200000000008935, -0.78745946042599 
2.5300000000009146, -0.7929813451714968 
2.5400000000009357, -0.797586953972399 
2.550000000000957, -0.8010701639988957 
2.560000000000978, -0.8034634661703046 
2.570000000000999, -0.8049526009064548 
2.58000000000102, -0.805761873303869 
2.5900000000010412, -0.8060806654459538 
2.6000000000010624, -0.8060392912846248 
2.6100000000010835, -0.8057125467049513 
2.6200000000011046, -0.8051328339288183 
2.6300000000011257, -0.8043071622304412 
2.6400000000011468, -0.8032433256687472 
2.650000000001168, -0.8020010474586655 
2.660000000001189, -0.8007951323659757 
2.67000000000121, -0.8001812459189338 
2.680000000001231, -0.8013190271622402 
2.6900000000012523, -0.8061713835398001 
2.7000000000012734, -0.8172412472255524 
2.7100000000012945, -0.8363293010898861 
2.7200000000013156, -0.8625542038472551 
2.7300000000013367, -0.8915742153551575 
2.740000000001358, -0.9178135291182951 
2.750000000001379, -0.9378055026136843 
2.7600000000014, -0.9512027691372961 
2.770000000001421, -0.9594444869272445 
2.780000000001442, -0.9642496962378692 
2.7900000000014633, -0.9669408908626875 
2.8000000000014844, -0.9683651459711043 
2.8100000000015055, -0.9690139998776124 
2.8200000000015266, -0.9691492045017911 
2.8300000000015477, -0.9688855703173157 
2.840000000001569, -0.9682324544497242 
2.85000000000159, -0.9671040424323782 
2.860000000001611, -0.9653078415147396 
2.870000000001632, -0.9625265068609457 
2.8800000000016532, -0.9583341135255496 
2.8900000000016743, -0.9523452025182412 
2.9000000000016954, -0.9446433020149977 
2.9100000000017165, -0.9364776332178609 
2.9200000000017377, -0.9306106484013805 
2.9300000000017588, -0.9302240909456158 
2.94000000000178, -0.9365442312028496 
2.950000000001801, -0.9475814736875663 
2.960000000001822, -0.9596385284322084 
2.970000000001843, -0.9698427970790536 
2.9800000000018643, -0.9771809154439184 
2.9900000000018854, -0.9819325687123843 
3.0000000000019065, -0.9847981779446584 
3.0100000000019276, -0.9864156489977388 
3.0200000000019487, -0.9872276603690283 
3.03000000000197, -0.9874974201897153 
3.040000000001991, -0.9873526354391403 
3.050000000002012, -0.9868146730592976 
3.060000000002033, -0.9858021765765159 
3.070000000002054, -0.9841057809612902 
3.0800000000020753, -0.9813317736952506 
3.0900000000020964, -0.976823739271872 
3.1000000000021175, -0.9696173447487721 
3.1100000000021386, -0.9585909590761788 
3.1200000000021597, -0.9430797362690571 
3.130000000002181, -0.9239858224916169 
3.140000000002202, -0.9045037877078549 
3.150000000002223, -0.8889913464045021 
3.160000000002244, -0.8802427507155777 
3.1700000000022652, -0.8778860396437999 
3.1800000000022863, -0.879455343638412 
3.1900000000023074, -0.8824419951160202 
3.2000000000023285, -0.8853407169928877 
3.2100000000023496, -0.8875824335872402 
3.2200000000023707, -0.8891067205490346 
3.230000000002392, -0.8900316406499073 
3.240000000002413, -0.8904916579758222 
3.250000000002434, -0.8905790714066114 
3.260000000002455, -0.8903269790304004 
3.2700000000024763, -0.8896991971925553 
3.2800000000024974, -0.8885698948097026 
3.2900000000025185, -0.8866831221363423 
3.3000000000025396, -0.8835894855386679 
3.3100000000025607, -0.878580397217462 
3.3200000000025818, -0.8707011885606531 
3.330000000002603, -0.8590063716565842 
3.340000000002624, -0.8431637464060475 
3.350000000002645, -0.8241033517969385 
3.360000000002666, -0.8039981111513173 
3.3700000000026873, -0.7853498194582225 
3.3800000000027084, -0.7699436420822031 
3.3900000000027295, -0.758443498140517 
3.4000000000027506, -0.7506103567972915 
3.4100000000027717, -0.7457297208855642 
3.420000000002793, -0.7429674098406024 
3.430000000002814, -0.741579207759346 
3.440000000002835, -0.7409960697705211 
3.450000000002856, -0.7408289209588029 
3.460000000002877, -0.740833667365385 
3.4700000000028983, -0.7408655108639728 
3.4800000000029194, -0.7408385209324242 
3.4900000000029405, -0.7406962289065672 
3.5000000000029616, -0.7403937686296584 
3.5100000000029827, -0.7398908976074444 
3.520000000003004, -0.7391554316359527 
3.530000000003025, -0.7381749177431796 
3.540000000003046, -0.7369692824081729 
3.550000000003067, -0.7355931719639237 
3.5600000000030882, -0.7341219706295558 
3.5700000000031094, -0.7326288365020768 
3.5800000000031305, -0.7311673482575468 
3.5900000000031516, -0.7297679265982998 
3.6000000000031727, -0.7284453122989206 
3.6100000000031938, -0.7272095531817646 
3.620000000003215, -0.7260746960325711 
3.630000000003236, -0.7250630947484896 
3.640000000003257, -0.7242056796454357 
3.650000000003278, -0.723539225194427 
3.6600000000032993, -0.723101639179974 
3.6700000000033204, -0.7229264473423449 
3.6800000000033415, -0.7230379665780892 
3.6900000000033626, -0.7234486468229249 
3.7000000000033837, -0.7241594057873922 
3.710000000003405, -0.7251626640829363 
3.720000000003426, -0.7264466569190596 
3.730000000003447, -0.7279987666372131 
3.740000000003468, -0.7298051701774825 
3.750000000003489, -0.731844246890204 
3.7600000000035103, -0.7340728591837854 
3.7700000000035314, -0.7364092948339699 
3.7800000000035525, -0.7387242016175584 
3.7900000000035736, -0.7408549549296897 
3.8000000000035947, -0.7426477568335657 
3.810000000003616, -0.7440060586846926 
3.820000000003637, -0.7449118671894169 
3.830000000003658, -0.7454090307850276 
3.840000000003679, -0.7455682395066268 
3.8500000000037002, -0.7454582130577793 
3.8600000000037213, -0.7451327937277693 
3.8700000000037424, -0.7446321629293335 
3.8800000000037635, -0.7439952786744204 
3.8900000000037847, -0.7432853574552165 
3.9000000000038058, -0.742636337577651 
3.910000000003827, -0.7423329345530244 
3.920000000003848, -0.7429347272418487 
3.930000000003869, -0.745432810928987 
3.94000000000389, -0.7513638966831464 
3.9500000000039113, -0.7626850209016605 
3.9600000000039324, -0.7810937915463099 
3.9700000000039535, -0.8066639027389438 
3.9800000000039746, -0.8365895575031568 
3.9900000000039957, -0.8657971843268992 
4.000000000004016, -0.8897486364588936 
4.010000000003993, -0.9067276968091786 
4.02000000000397, -0.91755980763804 
4.030000000003946, -0.9240189140400247 
4.040000000003923, -0.9277074126018936 
4.0500000000039, -0.9297285815266016 
4.0600000000038765, -0.9307493771591199 
4.070000000003853, -0.9311420107704744 
4.08000000000383, -0.9310940685298874 
4.090000000003807, -0.9306724412084684 
4.100000000003783, -0.9298506442249644 
4.11000000000376, -0.9285096165161608 
4.120000000003737, -0.9264206003567607 
4.130000000003713, -0.9232259311798201 
4.14000000000369, -0.9184598081810496 
4.150000000003667, -0.9116986881424906 
4.1600000000036434, -0.9029473384875834 
4.17000000000362, -0.8931887001880934 
4.180000000003597, -0.8845789928311818 
4.1900000000035735, -0.8796344201736988 
4.20000000000355, -0.879691687022653 
4.210000000003527, -0.8840002137532312 
4.220000000003504, -0.8903655535256452 
4.23000000000348, -0.8966494490281438 
4.240000000003457, -0.9016946960597405 
4.250000000003434, -0.9052647147056021 
4.26000000000341, -0.9075836188796229 
4.270000000003387, -0.9089794548268925 
4.280000000003364, -0.9097260246685931 
4.2900000000033405, -0.9100041785344523 
4.300000000003317, -0.9099057236498849 
4.310000000003294, -0.9094403008921301 
4.320000000003271, -0.9085281603758627 
4.330000000003247, -0.9069688671620725 
4.340000000003224, -0.9043762774049208 
4.350000000003201, -0.9000756307322557 
4.360000000003177, -0.8929941810732004 
4.370000000003154, -0.8816833603106703 
4.380000000003131, -0.8647684881131618 
4.390000000003107, -0.8420243416422728 
4.400000000003084, -0.8154499547237993 
4.410000000003061, -0.7889198934459141 
4.4200000000030375, -0.7662098445724458 
4.430000000003014, -0.749259686965854 
4.440000000002991, -0.7380213966072782 
4.450000000002968, -0.7313257184961197 
4.460000000002944, -0.7277479008068843 
4.470000000002921, -0.7260768427818132 
4.480000000002898, -0.7254523134108812 
4.490000000002874, -0.725331782638549 
4.500000000002851, -0.7254021784602537 
4.510000000002828, -0.7254937764402876 
4.520000000002804, -0.7255155677348778 
4.530000000002781, -0.7254130046623197 
4.540000000002758, -0.725143138889589 
4.5500000000027345, -0.7246627421598586 
4.560000000002711, -0.7239277784407956 
4.570000000002688, -0.7229041112940721 
4.580000000002665, -0.7215861943614644 
4.590000000002641, -0.7200127570569248 
4.600000000002618, -0.7182649370244156 
4.610000000002595, -0.716443257701014 
4.620000000002571, -0.7146377645064174 
4.630000000002548, -0.7129098802287752 
4.640000000002525, -0.711292072570734 
4.6500000000025015, -0.7097987217228536 
4.660000000002478, -0.708438781553699 
4.670000000002455, -0.7072246219281471 
4.6800000000024315, -0.7061757441144692 
4.690000000002408, -0.7053183010219461 
4.700000000002385, -0.704681864923604 
4.710000000002362, -0.7042948223322871 
4.720000000002338, -0.704179777347475 
4.730000000002315, -0.7043503251748461 
4.740000000002292, -0.704810198444331 
4.750000000002268, -0.7055550158390214 
4.760000000002245, -0.7065759107299656 
4.770000000002222, -0.7078634766090153 
4.7800000000021985, -0.7094098451553319 
4.790000000002175, -0.7112063300824912 
4.800000000002152, -0.7132343169654162 
4.810000000002129, -0.7154491812502448 
4.820000000002105, -0.7177625410451502 
4.830000000002082, -0.7200360972064282 
4.840000000002059, -0.722102415216436 
4.850000000002035, -0.7238123489561462 
4.860000000002012, -0.725081920121371 
4.870000000001989, -0.7259061324808748 
4.880000000001965, -0.7263359735580743 
4.890000000001942, -0.7264424803868351 
4.900000000001919, -0.7262903624946111 
4.9100000000018955, -0.7259275598637808 
4.920000000001872, -0.7253875714390592 
4.930000000001849, -0.7247018499591713 
