t, s[1].omega / s[0].omega 
0, -0.6499977112951265 
0.009999999999999995, -0.6497753602860472 
0.019999999999999934, -0.6495572753873423 
0.029999999999999874, -0.6493218557289896 
0.04000000000000012, -0.64904459041598 
0.050000000000000405, -0.6487081962599611 
0.06000000000000069, -0.6483083061677635 
0.07000000000000098, -0.6478544102050787 
0.08000000000000126, -0.6473691633716583 
0.09000000000000155, -0.6468895607723952 
0.10000000000000184, -0.6464719950529897 
0.11000000000000212, -0.6462017000505094 
0.12000000000000241, -0.6462061090555457 
0.130000000000002, -0.6466708486028115 
0.1400000000000009, -0.6478560092430106 
0.1499999999999998, -0.6501085820934787 
0.1599999999999987, -0.6538635558174501 
0.1699999999999976, -0.6596189849182797 
0.1799999999999965, -0.6678574386664582 
0.1899999999999954, -0.6788740372620955 
0.1999999999999943, -0.6924935361572999 
0.2099999999999932, -0.707780890418123 
0.2199999999999921, -0.7230531816481094 
0.229999999999991, -0.7364627435993742 
0.2399999999999899, -0.7468418403626067 
0.2499999999999888, -0.7540608849396734 
0.2599999999999877, -0.7586958831258844 
0.2699999999999866, -0.7615031925764003 
0.2799999999999855, -0.7631120306122262 
0.2899999999999844, -0.76395084250672 
0.2999999999999833, -0.7642786001895667 
0.3099999999999822, -0.7642331628280791 
0.3199999999999811, -0.7638653141987338 
0.32999999999998, -0.7631527344640254 
0.3399999999999789, -0.761993578860379 
0.3499999999999778, -0.7601770608075599 
0.35999999999997667, -0.7573251389755051 
0.36999999999997557, -0.7528029993669659 
0.37999999999997447, -0.7456277130296458 
0.38999999999997337, -0.7345049217984879 
0.39999999999997227, -0.7182796171348784 
0.40999999999997117, -0.696978380446115 
0.41999999999997006, -0.6727379026141771 
0.42999999999996896, -0.6491905512610404 
0.43999999999996786, -0.629447881154532 
0.44999999999996676, -0.6147618405195898 
0.45999999999996566, -0.6047784954836064 
0.46999999999996456, -0.5984384412331812 
0.47999999999996346, -0.5946333247901795 
0.48999999999996235, -0.5924730222776279 
0.49999999999996125, -0.5913253406665535 
0.5099999999999602, -0.590771315761948 
0.519999999999959, -0.5905452668771805 
0.529999999999958, -0.5904835226945021 
0.5399999999999568, -0.5904866859068362 
0.5499999999999557, -0.5904940829860796 
0.5599999999999546, -0.5904678348050417 
0.5699999999999535, -0.5903843874284768 
0.5799999999999524, -0.5902318374839696 
0.5899999999999513, -0.590011084903907 
0.5999999999999502, -0.5897375667827569 
0.6099999999999491, -0.5894393793444115 
0.619999999999948, -0.589149281656147 
0.6299999999999469, -0.5888926086597005 
0.6399999999999458, -0.5886769525922386 
0.6499999999999447, -0.5884891556173819 
0.6599999999999436, -0.588301186896682 
0.6699999999999425, -0.5880816445109538 
0.6799999999999414, -0.5878068058822535 
0.6899999999999403, -0.587466477201424 
0.6999999999999392, -0.5870643573901673 
0.7099999999999381, -0.586616285645025 
0.719999999999937, -0.5861503002190115 
0.7299999999999359, -0.5857111857786161 
0.7399999999999348, -0.5853712320678608 
0.7499999999999337, -0.5852489853818782 
0.7599999999999326, -0.5855383899709478 
0.7699999999999315, -0.5865508966989585 
0.7799999999999304, -0.588770948148331 
0.7899999999999293, -0.5929161024407452 
0.7999999999999282, -0.5999666545137061 
0.8099999999999271, -0.6110714601786114 
0.819999999999926, -0.6271596544243963 
0.8299999999999249, -0.6481380061179292 
0.8399999999999238, -0.6720504718694926 
0.8499999999999227, -0.6953248422382458 
0.8599999999999216, -0.7146162939082557 
0.8699999999999205, -0.728559325404597 
0.8799999999999194, -0.7377063059689682 
0.8899999999999183, -0.7433711806410732 
0.8999999999999172, -0.7467693574823849 
0.9099999999999161, -0.7487558571980054 
0.919999999999915, -0.7498633674253689 
0.9299999999999139, -0.7504026093409786 
0.9399999999999128, -0.7505421061758059 
0.9499999999999117, -0.7503558302432953 
0.9599999999999106, -0.7498445909535397 
0.9699999999999095, -0.7489366506471942 
0.9799999999999084, -0.7474698612453663 
0.9899999999999073, -0.7451578629311431 
0.9999999999999062, -0.7415542028354575 
1.0099999999999052, -0.7360615744666041 
1.019999999999904, -0.7280807501498703 
1.029999999999903, -0.7173680929743489 
1.039999999999902, -0.7044376807741887 
1.0499999999999008, -0.6905802995599264 
1.0599999999998997, -0.6773298863587944 
1.0699999999998986, -0.6658282303645046 
1.0799999999998975, -0.6565767900905684 
1.0899999999998964, -0.6495639834739714 
1.0999999999998953, -0.6445027581378884 
1.1099999999998942, -0.6410125225333241 
1.119999999999893, -0.6387184358393669 
1.129999999999892, -0.6372942508803587 
1.1399999999998909, -0.6364754758458098 
1.1499999999998898, -0.6360584795369737 
1.1599999999998887, -0.6358931142884648 
1.1699999999998876, -0.6358726696561994 
1.1799999999998865, -0.6359235282574982 
1.1899999999998854, -0.6359962359655245 
1.1999999999998843, -0.636059148618594 
1.2099999999998832, -0.6360950929340838 
1.219999999999882, -0.6361003458835172 
1.229999999999881, -0.6360837738507423 
1.2399999999998799, -0.6360631748692867 
1.2499999999998788, -0.6360572444265944 
1.2599999999998777, -0.6360751207612607 
1.2699999999998766, -0.6361085772530057 
1.2799999999998755, -0.6361317821768693 
1.2899999999998744, -0.6361096601942242 
1.2999999999998733, -0.6360105128799267 
1.3099999999998722, -0.6358159173862525 
1.319999999999871, -0.6355238023940804 
1.32999999999987, -0.635146250023792 
1.3399999999998689, -0.6347067373013522 
1.3499999999998678, -0.6342409050028415 
1.3599999999998666, -0.6338030690410733 
1.3699999999998655, -0.6334796709119692 
1.3799999999998644, -0.6334107600441005 
1.3899999999998633, -0.633820433330457 
1.3999999999998622, -0.6350556996390835 
1.4099999999998611, -0.6376287137882299 
1.41999999999986, -0.6422462402341436 
1.429999999999859, -0.6497864310871948 
1.4399999999998578, -0.661143194228444 
1.4499999999998567, -0.6768315520279129 
1.4599999999998556, -0.6963548208114834 
1.4699999999998545, -0.7177319242465233 
1.4799999999998534, -0.7379526223262168 
1.4899999999998523, -0.7544529636178778 
1.4999999999998512, -0.7663017154762289 
1.5099999999998501, -0.774044582827867 
1.519999999999849, -0.7788043311885386 
1.529999999999848, -0.7816140785119097 
1.5399999999998468, -0.7832042937155258 
1.5499999999998457, -0.7840295283298511 
1.5599999999998446, -0.7843502807170661 
1.5699999999998435, -0.7842992946369863 
1.5799999999998424, -0.7839197197439401 
1.5899999999998413, -0.7831780375402569 
1.5999999999998402, -0.7819540678537542 
1.6099999999998391, -0.7800061367040365 
1.619999999999838, -0.7769078315366623 
1.629999999999837, -0.7719646776181371 
1.6399999999998358, -0.7641698020754494 
1.6499999999998347, -0.7523688491417115 
1.6599999999998336, -0.7358692927711301 
1.6699999999998325, -0.715373058151922 
1.6799999999998314, -0.6933087165085448 
1.6899999999998303, -0.6727735263876751 
1.6999999999998292, -0.6559609356323547 
1.709999999999828, -0.6435371984665832 
1.719999999999827, -0.6350574665026286 
1.729999999999826, -0.6296305239238278 
1.7399999999998248, -0.6263549418522196 
1.7499999999998237, -0.624497313875117 
1.7599999999998226, -0.6235232008888041 
1.7699999999998215, -0.6230688438582627 
1.7799999999998204, -0.6228981906187805 
1.7899999999998193, -0.6228630522490631 
1.7999999999998182, -0.6228718355097216 
1.809999999999817, -0.6228673806590617 
1.819999999999816, -0.6228128866212507 
1.8299999999998149, -0.6226847279026606 
1.8399999999998138, -0.6224709254668536 
1.8499999999998127, -0.6221731918597355 
1.8599999999998116, -0.6218087908178684 
1.8699999999998105, -0.6214077268715297 
1.8799999999998094, -0.6210034378807405 
1.8899999999998083, -0.6206204161376621 
1.8999999999998072, -0.6202653745044784 
1.909999999999806, -0.6199266936067194 
1.919999999999805, -0.6195818872701697 
1.9299999999998039, -0.6192085132304697 
1.9399999999998028, -0.6187929967702861 
1.9499999999998017, -0.61833462248592 
1.9599999999998006, -0.6178459540532514 
1.9699999999997995, -0.6173529932087646 
1.9799999999997984, -0.616897931326738 
1.9899999999997973, -0.6165459796986029 
1.9999999999997962, -0.6163967639727601 
2.0099999999998173, -0.6166002309449137 
2.0199999999998384, -0.6173764613109147 
2.0299999999998595, -0.6190375924258882 
2.0399999999998806, -0.6220071685997495 
2.0499999999999017, -0.6268253040382198 
2.059999999999923, -0.6341131284490161 
2.069999999999944, -0.6444459111165475 
2.079999999999965, -0.6580715926716498 
2.089999999999986, -0.6744868545354793 
2.100000000000007, -0.6921384795836943 
2.1100000000000283, -0.7087539179486757 
2.1200000000000494, -0.7223798132232131 
2.1300000000000705, -0.7322628639103669 
2.1400000000000916, -0.7387898205003312 
2.1500000000001127, -0.742834036071099 
2.160000000000134, -0.7452274582589281 
2.170000000000155, -0.7465712649381255 
2.180000000000176, -0.7472440170808464 
2.190000000000197, -0.7474623290662104 
2.2000000000002182, -0.74733257750117 
2.2100000000002393, -0.7468801136825889 
2.2200000000002604, -0.7460564972490713 
2.2300000000002815, -0.7447253173474983 
2.2400000000003026, -0.742624059670306 
2.2500000000003237, -0.7393003369102876 
2.260000000000345, -0.7340393178480282 
2.270000000000366, -0.7258615187731866 
2.280000000000387, -0.713776873399316 
2.290000000000408, -0.697460407843413 
2.3000000000004293, -0.6780221102588457 
2.3100000000004504, -0.6579298828016078 
2.3200000000004715, -0.6397949709206382 
2.3300000000004926, -0.6251726154550709 
2.3400000000005137, -0.6143530748299006 
2.3500000000005348, -0.6068444425093823 
2.360000000000556, -0.6018914597082964 
2.370000000000577, -0.5987704899190849 
2.380000000000598, -0.5968972315110885 
2.390000000000619, -0.5958391081593987 
2.4000000000006403, -0.5952923347931932 
2.4100000000006614, -0.5950512955047613 
2.4200000000006825, -0.5949805536110873 
2.4300000000007036, -0.5949925191185985 
2.4400000000007247, -0.5950311489060444 
2.450000000000746, -0.5950612491340718 
2.460000000000767, -0.59506271803251 
2.470000000000788, -0.5950286802373362 
2.480000000000809, -0.5949655056425284 
2.49000000000083, -0.5948915637828087 
2.5000000000008513, -0.594831728298385 
2.5100000000008724, -0.5948073225800974 
2.5200000000008935, -0.5948251125791393 
2.5300000000009146, -0.5948710110214122 
2.5400000000009357, -0.5949125953132774 
2.550000000000957, -0.5949099436084976 
2.560000000000978, -0.5948291582109928 
2.570000000000999, -0.5946514243865791 
2.58000000000102, -0.5943744983471597 
2.5900000000010412, -0.5940092590481166 
2.6000000000010624, -0.5935763474465654 
2.6100000000010835, -0.5931067606563227 
2.6200000000011046, -0.5926485803800123 
2.6300000000011257, -0.5922817045308125 
2.6400000000011468, -0.5921434559004364 
2.650000000001168, -0.5924693146144232 
2.660000000001189, -0.5936531249949877 
2.67000000000121, -0.5963260515065968 
2.680000000001231, -0.6014334608528237 
2.6900000000012523, -0.6102345500740872 
2.7000000000012734, -0.624048416223567 
2.7100000000012945, -0.6435129659047341 
2.7200000000013156, -0.6674670763559953 
2.7300000000013367, -0.6925341720844551 
2.740000000001358, -0.7146465693258108 
2.750000000001379, -0.7314124879578439 
2.7600000000014, -0.7427934944144803 
2.770000000001421, -0.7500193338759635 
2.780000000001442, -0.7544480570261923 
2.7900000000014633, -0.7571048357748993 
2.8000000000014844, -0.758654991980677 
2.8100000000015055, -0.7595007167605387 
2.8200000000015266, -0.7598727897800326 
2.8300000000015477, -0.7598908892369922 
2.840000000001569, -0.7595958897753892 
2.85000000000159, -0.7589606752748821 
2.860000000001611, -0.7578831770156848 
2.870000000001632, -0.7561636739498147 
2.8800000000016532, -0.7534730459661001 
2.8900000000016743, -0.7493379003332572 
2.9000000000016954, -0.7432059374805808 
2.9100000000017165, -0.7346724048839761 
2.9200000000017377, -0.7238376049433992 
2.9300000000017588, -0.7115172649426833 
2.94000000000178, -0.6990033137329199 
2.950000000001801, -0.6875159139508683 
2.960000000001822, -0.6778075496503126 
2.970000000001843, -0.6701204836381145 
2.9800000000018643, -0.6643489502607258 
2.9900000000018854, -0.66021709081645 
3.0000000000019065, -0.6573978869642889 
3.0100000000019276, -0.6555760716488046 
3.0200000000019487, -0.6544766282446649 
3.03000000000197, -0.6538749848650863 
3.040000000001991, -0.653597318978598 
3.050000000002012, -0.6535151986969094 
3.060000000002033, -0.6535373261219725 
3.070000000002054, -0.6536006986926124 
3.0800000000020753, -0.653663101332304 
3.0900000000020964, -0.6536981991268883 
3.1000000000021175, -0.6536934862992634 
3.1100000000021386, -0.6536498553488251 
3.1200000000021597, -0.6535800545470366 
3.130000000002181, -0.6535032759819248 
3.140000000002202, -0.6534357314054612 
3.150000000002223, -0.6533809416886134 
3.160000000002244, -0.6533252142580096 
3.1700000000022652, -0.653241511971838 
3.1800000000022863, -0.653099909385767 
3.1900000000023074, -0.6528787070198454 
3.2000000000023285, -0.6525706601835224 
3.2100000000023496, -0.6521833916276222 
3.2200000000023707, -0.6517373902621808 
3.230000000002392, -0.6512658441504641 
3.240000000002413, -0.6508189761800791 
3.250000000002434, -0.6504739064128389 
3.260000000002455, -0.6503501631409244 
3.2700000000024763, -0.650630258501146 
3.2800000000024974, -0.6515834566507224 
3.2900000000025185, -0.6535883392423397 
3.3000000000025396, -0.6571449638449433 
3.3100000000025607, -0.6628580165577278 
3.3200000000025818, -0.6713557574931656 
3.330000000002603, -0.6830917340320883 
3.340000000002624, -0.6979964766336008 
3.350000000002645, -0.7150907475449038 
3.360000000002666, -0.7324394016149534 
3.3700000000026873, -0.7478210267367016 
3.3800000000027084, -0.7597767681060653 
3.3900000000027295, -0.7680942725010222 
3.4000000000027506, -0.7734270368513105 
3.4100000000027717, -0.7766571226865525 
3.420000000002793, -0.7785200639402554 
3.430000000002814, -0.779515885654601 
3.440000000002835, -0.7799475428596935 
3.450000000002856, -0.7799797685105132 
3.460000000002877, -0.7796812151798002 
3.4700000000028983, -0.779044067375272 
3.4800000000029194, -0.7779820405642655 
3.4900000000029405, -0.7763054096226887 
3.5000000000029616, -0.7736678877779265 
3.5100000000029827, -0.7694816395909696 
3.520000000003004, -0.7628211153192913 
3.530000000003025, -0.7524214484658689 
3.540000000003046, -0.7370320419713597 
3.550000000003067, -0.7163691370031191 
3.5600000000030882, -0.6921800587447002 
3.5700000000031094, -0.6679962022410019 
3.5800000000031305, -0.6472341255386025 
3.5900000000031516, -0.6315514523032094 
3.6000000000031727, -0.6208219541714101 
3.6100000000031938, -0.6140189936968524 
3.620000000003215, -0.609971420276845 
3.630000000003236, -0.6077090372741877 
3.640000000003257, -0.606535402844058 
3.650000000003278, -0.6059892735796908 
3.6600000000032993, -0.6057805677135717 
3.6700000000033204, -0.6057330237891121 
3.6800000000033415, -0.6057413583612085 
3.6900000000033626, -0.6057421353535207 
3.7000000000033837, -0.605695538911274 
3.710000000003405, -0.6055755492630909 
3.720000000003426, -0.6053667338500576 
3.730000000003447, -0.6050658261339167 
3.740000000003468, -0.6046849417480522 
3.750000000003489, -0.604251739226218 
3.7600000000035103, -0.6038028288830231 
3.7700000000035314, -0.6033714935845002 
3.7800000000035525, -0.6029757628919966 
3.7900000000035736, -0.6026132857905483 
3.8000000000035947, -0.6022652499631962 
3.810000000003616, -0.6019065160554585 
3.820000000003637, -0.6015163752176372 
3.830000000003658, -0.6010853424690197 
3.840000000003679, -0.60061717257692 
3.8500000000037002, -0.6001286557552639 
3.8600000000037213, -0.5996505762495671 
3.8700000000037424, -0.5992322121996867 
3.8800000000037635, -0.5989506242946026 
3.8900000000037847, -0.5989254539445638 
3.9000000000038058, -0.5993397545876478 
3.910000000003827, -0.6004668474712862 
3.920000000003848, -0.6027012847600689 
3.930000000003869, -0.6065864882648841 
3.94000000000389, -0.6128178415771022 
3.9500000000039113, -0.6221717101594172 
3.9600000000039324, -0.6352733671096396 
3.9700000000039535, -0.6521305811556564 
3.9800000000039746, -0.6715765490339181 
3.9900000000039957, -0.6911993835252799 
4.000000000004016, -0.708303473995856 
4.010000000003993, -0.7212943539451018 
4.02000000000397, -0.7301376666546796 
4.030000000003946, -0.7357256929764567 
4.040000000003923, -0.7390950312321503 
4.0500000000039, -0.7410519773937395 
4.0600000000038765, -0.742123518745653 
4.070000000003853, -0.7426228736562746 
4.08000000000383, -0.7427201123485918 
4.090000000003807, -0.7424885265674227 
4.100000000003783, -0.7419259574626473 
4.11000000000376, -0.7409543989145265 
4.120000000003737, -0.7393985381567787 
4.130000000003713, -0.7369425312090585 
4.14000000000369, -0.7330729931679805 
4.150000000003667, -0.7270517004343285 
4.1600000000036434, -0.7180346297759705 
4.17000000000362, -0.7054885167042263 
4.180000000003597, -0.6898184487543431 
4.1900000000035735, -0.6726190914974877 
4.20000000000355, -0.6560411115124457 
4.210000000003527, -0.6417701506312106 
4.220000000003504, -0.6305298300665243 
4.23000000000348, -0.6222502888035186 
4.240000000003457, -0.6164616499364948 
4.250000000003434, -0.6125928536684762 
4.26000000000341, -0.6101208627313256 
4.270000000003387, -0.6086214288654269 
4.280000000003364, -0.607772931245926 
4.2900000000033405, -0.607342420128314 
4.300000000003317, -0.6071670109891523 
4.310000000003294, -0.6071359755754966 
4.320000000003271, -0.6071756529501738 
4.330000000003247, -0.6072380292549886 
4.340000000003224, -0.607293260799821 
4.350000000003201, -0.6073259255522413 
4.360000000003177, -0.6073339501281287 
4.370000000003154, -0.6073279178658664 
4.380000000003131, -0.6073276984432886 
4.390000000003107, -0.6073545514656791 
4.400000000003084, -0.6074202484389228 
4.410000000003061, -0.6075180689171003 
4.4200000000030375, -0.6076210151831715 
4.430000000003014, -0.6076893741182281 
4.440000000002991, -0.6076842049681993 
4.450000000002968, -0.607579340107472 
4.460000000002944, -0.6073661525216697 
4.470000000002921, -0.6070513705187734 
4.480000000002898, -0.6066526958107132 
4.490000000002874, -0.6061970630667226 
4.500000000002851, -0.6057244034738487 
4.510000000002828, -0.6052986520620612 
4.520000000002804, -0.6050281686790685 
4.530000000002781, -0.6050989559562431 
4.540000000002758, -0.6058247311735977 
4.5500000000027345, -0.6077155527692434 
4.560000000002711, -0.6115552988059163 
4.570000000002688, -0.6184446765570214 
4.580000000002665, -0.62969304395582 
4.590000000002641, -0.6463510896075573 
4.600000000002618, -0.6682640134234303 
4.610000000002595, -0.6931663100804911 
4.620000000002571, -0.7171390848062489 
4.630000000002548, -0.7367524434331515 
4.640000000002525, -0.7507910145539712 
4.6500000000025015, -0.7599612222013359 
4.660000000002478, -0.7656411950030451 
4.670000000002455, -0.7690564910044269 
4.6800000000024315, -0.7710589043416939 
4.690000000002408, -0.772178714729643 
4.700000000002385, -0.7727263525234191 
4.710000000002362, -0.7728708702173803 
4.720000000002338, -0.7726865601996274 
4.730000000002315, -0.7721736533763124 
4.740000000002292, -0.7712580826646416 
4.750000000002268, -0.7697719071472819 
4.760000000002245, -0.7674158275168048 
4.770000000002222, -0.7637160549090837 
4.7800000000021985, -0.7580223644295063 
4.790000000002175, -0.7496495473114835 
4.800000000002152, -0.7382553794565963 
4.810000000002129, -0.7243123957943338 
4.820000000002105, -0.7092011921204923 
4.830000000002082, -0.6946590440496243 
4.840000000002059, -0.682034200315242 
4.850000000002035, -0.6719459030806985 
4.860000000002012, -0.6643993647854282 
4.870000000001989, -0.659059283090058 
4.880000000001965, -0.655471714527113 
4.890000000001942, -0.6531897459118262 
4.900000000001919, -0.6518291970997069 
4.9100000000018955, -0.651085473805219 
4.920000000001872, -0.650731048812785 
