t, s[1].omega / s[0].omega 
0, -1.2399351515732864 
0.009999999999999995, -1.2326985555807748 
0.019999999999999934, -1.2243345692488292 
0.029999999999999874, -1.2158002167945938 
0.04000000000000012, -1.2084352425971736 
0.050000000000000405, -1.203369965506805 
0.06000000000000069, -1.200845566357511 
0.07000000000000098, -1.2001779478523813 
0.08000000000000126, -1.2003991328607053 
0.09000000000000155, -1.2008156049249439 
0.10000000000000184, -1.2011003957409676 
0.11000000000000212, -1.2011427104497625 
0.12000000000000241, -1.2009001410301985 
0.130000000000002, -1.2003102385902094 
0.1400000000000009, -1.1992325725932786 
0.1499999999999998, -1.1973877656067877 
0.1599999999999987, -1.1942802970325874 
0.1699999999999976, -1.1891427045140046 
0.1799999999999965, -1.1810671281716396 
0.1899999999999954, -1.169667978070615 
0.1999999999999943, -1.156386055502419 
0.2099999999999932, -1.145136123858077 
0.2199999999999921, -1.140061218810724 
0.229999999999991, -1.1418105923329418 
0.2399999999999899, -1.1473395430296247 
0.2499999999999888, -1.1531973767528862 
0.2599999999999877, -1.157679315206392 
0.2699999999999866, -1.1605726151667406 
0.2799999999999855, -1.1622380436284125 
0.2899999999999844, -1.1630751875430279 
0.2999999999999833, -1.1633639588122067 
0.3099999999999822, -1.1632604680453966 
0.3199999999999811, -1.1628258474760378 
0.32999999999998, -1.1620531982246338 
0.3399999999999789, -1.1609000962243214 
0.3499999999999778, -1.1593653593708826 
0.35999999999997667, -1.157681655509465 
0.36999999999997557, -1.1566653765010673 
0.37999999999997447, -1.1579888066870008 
0.38999999999997337, -1.1636723106496079 
0.39999999999997227, -1.1744823431696083 
0.40999999999997117, -1.1887217837574053 
0.41999999999997006, -1.2031741128382079 
0.42999999999996896, -1.2152131504064168 
0.43999999999996786, -1.2238607590589456 
0.44999999999996676, -1.2294255146552873 
0.45999999999996566, -1.2327123389095285 
0.46999999999996456, -1.2344967606460586 
0.47999999999996346, -1.2353420245678737 
0.48999999999996235, -1.2356031374174805 
0.49999999999996125, -1.2354883420910716 
0.5099999999999602, -1.2351239287615063 
0.519999999999959, -1.2346147630038313 
0.529999999999958, -1.2341052509143597 
0.5399999999999568, -1.2338255728054404 
0.5499999999999557, -1.2340685264636302 
0.5599999999999546, -1.2350572505579698 
0.5699999999999535, -1.2367939392742673 
0.5799999999999524, -1.239051432962953 
0.5899999999999513, -1.2415095375407597 
0.5999999999999502, -1.2438893216309705 
0.6099999999999491, -1.2460033394102283 
0.619999999999948, -1.2477465390042985 
0.6299999999999469, -1.2490723015248242 
0.6399999999999458, -1.2499741853054043 
0.6499999999999447, -1.2504749929680823 
0.6599999999999436, -1.250618477042536 
0.6699999999999425, -1.2504610026867076 
0.6799999999999414, -1.2500651497171993 
0.6899999999999403, -1.2494988120442077 
0.6999999999999392, -1.2488394913953846 
0.7099999999999381, -1.2481767258855214 
0.719999999999937, -1.2476031203153277 
0.7299999999999359, -1.247193633761671 
0.7399999999999348, -1.246985916722705 
0.7499999999999337, -1.2469722830231293 
0.7599999999999326, -1.2471024916325377 
0.7699999999999315, -1.247295963586507 
0.7799999999999304, -1.2474617135133435 
0.7899999999999293, -1.2475157693278338 
0.7999999999999282, -1.247387097314949 
0.8099999999999271, -1.2470149222637008 
0.819999999999926, -1.2463460297213451 
0.8299999999999249, -1.2453366890832966 
0.8399999999999238, -1.243958006565404 
0.8499999999999227, -1.242201704323744 
0.8599999999999216, -1.2400860938729943 
0.8699999999999205, -1.2376655723240266 
0.8799999999999194, -1.2350467101088103 
0.8899999999999183, -1.2324068904559418 
0.8999999999999172, -1.2299953392177156 
0.9099999999999161, -1.2280803190552585 
0.919999999999915, -1.226831797869524 
0.9299999999999139, -1.2262186682749392 
0.9399999999999128, -1.2260330696049235 
0.9499999999999117, -1.2260206205450368 
0.9599999999999106, -1.2259828940109394 
0.9699999999999095, -1.225789426520371 
0.9799999999999084, -1.225335246423451 
0.9899999999999073, -1.2244867239750377 
0.9999999999999062, -1.223028107594993 
1.0099999999999052, -1.2206093420815691 
1.019999999999904, -1.2167114590100256 
1.029999999999903, -1.2106844626659 
1.039999999999902, -1.2019521541472362 
1.0499999999999008, -1.1904483139585509 
1.0599999999998997, -1.1771467486209655 
1.0699999999998986, -1.1641950113550483 
1.0799999999998975, -1.1540896857680214 
1.0899999999998964, -1.148193031849012 
1.0999999999998953, -1.1460160789206466 
1.1099999999998942, -1.1460089533583078 
1.119999999999893, -1.1467696933653577 
1.129999999999892, -1.1475338235999264 
1.1399999999998909, -1.1480303309467943 
1.1499999999998898, -1.1482125906732106 
1.1599999999998887, -1.1480876893700604 
1.1699999999998876, -1.1476372015423637 
1.1799999999998865, -1.146775957046302 
1.1899999999998854, -1.1453125929461145 
1.1999999999998843, -1.1428979435170998 
1.2099999999998832, -1.1389801508118582 
1.219999999999882, -1.1328628988630611 
1.229999999999881, -1.1240931802588796 
1.2399999999998799, -1.1133715592897488 
1.2499999999998788, -1.1034109022427256 
1.2599999999998777, -1.098018124941324 
1.2699999999998766, -1.0990611187886978 
1.2799999999998755, -1.1047809546775258 
1.2899999999998744, -1.1117604554573015 
1.2999999999998733, -1.1176280247393202 
1.3099999999998722, -1.1216903584468507 
1.319999999999871, -1.1241871400035621 
1.32999999999987, -1.1255784833849711 
1.3399999999998689, -1.126242687525616 
1.3499999999998678, -1.126419965781586 
1.3599999999998666, -1.1262346876074107 
1.3699999999998655, -1.1257251170229352 
1.3799999999998644, -1.1248659540303578 
1.3899999999998633, -1.1235963420612989 
1.3999999999998622, -1.1218924654482967 
1.4099999999998611, -1.1199571666667016 
1.41999999999986, -1.1185799280037232 
1.429999999999859, -1.1194713697342382 
1.4399999999998578, -1.124880999901477 
1.4499999999998567, -1.1359834795194794 
1.4599999999998556, -1.1512900858705444 
1.4699999999998545, -1.167271453901391 
1.4799999999998534, -1.1807540440421438 
1.4899999999998523, -1.1904450319686537 
1.4999999999998512, -1.1966482194707553 
1.5099999999998501, -1.200295107567739 
1.519999999999849, -1.2022812291244491 
1.529999999999848, -1.203245529161158 
1.5399999999998468, -1.203582274662168 
1.5499999999998457, -1.2035157840165955 
1.5599999999998446, -1.2031720850953427 
1.5699999999998435, -1.202640846568102 
1.5799999999998424, -1.20204097718451 
1.5899999999998413, -1.2015936424045017 
1.5999999999998402, -1.2016597139405363 
1.6099999999998391, -1.20264895551877 
1.619999999999838, -1.2047869623700944 
1.629999999999837, -1.2079366517581294 
1.6399999999998358, -1.211670441431676 
1.6499999999998347, -1.2154985068825663 
1.6599999999998336, -1.2190364359469745 
1.6699999999998325, -1.222048243745348 
1.6799999999998314, -1.2244237283633521 
1.6899999999998303, -1.2261455480653582 
1.6999999999998292, -1.2272617083967519 
1.709999999999828, -1.2278600298588715 
1.719999999999827, -1.228043323768106 
1.729999999999826, -1.2279108898294766 
1.7399999999998248, -1.2275523151975798 
1.7499999999998237, -1.2270539363585828 
1.7599999999998226, -1.2265109869652744 
1.7699999999998215, -1.2260316177524615 
1.7799999999998204, -1.2257196955078453 
1.7899999999998193, -1.2256415643669505 
1.7999999999998182, -1.225803279126771 
1.809999999999817, -1.2261558401255923 
1.819999999999816, -1.2266177878308313 
1.8299999999998149, -1.2270980377575635 
1.8399999999998138, -1.2275125816379222 
1.8499999999998127, -1.2277936013633624 
1.8599999999998116, -1.2278911915961161 
1.8699999999998105, -1.2277710161966577 
1.8799999999998094, -1.2274116793506962 
1.8899999999998083, -1.2268032229643606 
1.8999999999998072, -1.2259466500934617 
1.909999999999806, -1.2248547470627629 
1.919999999999805, -1.2235550560138782 
1.9299999999998039, -1.2220953168238602 
1.9399999999998028, -1.220550041071943 
1.9499999999998017, -1.219024544584197 
1.9599999999998006, -1.2176495626216997 
1.9699999999997995, -1.2165561701434755 
1.9799999999997984, -1.21582732693826 
1.9899999999997973, -1.2154511871211129 
1.9999999999997962, -1.2153212850460648 
2.0099999999998173, -1.2152887925824396 
2.0199999999998384, -1.2152165511873 
2.0299999999998595, -1.2149946289186542 
2.0399999999998806, -1.2145225965400739 
2.0499999999999017, -1.2136814029582306 
2.059999999999923, -1.2123111483943547 
2.069999999999944, -1.2102057984631371 
2.079999999999965, -1.2071361673238095 
2.089999999999986, -1.2029084975696593 
2.100000000000007, -1.1974530275507558 
2.1100000000000283, -1.1909244141939541 
2.1200000000000494, -1.1837871581472652 
2.1300000000000705, -1.1768289310222086 
2.1400000000000916, -1.1709941974400917 
2.1500000000001127, -1.1669913034465567 
2.160000000000134, -1.164910596267673 
2.170000000000155, -1.1642454509559819 
2.180000000000176, -1.164299938536305 
2.190000000000197, -1.1645487035503757 
2.2000000000002182, -1.1647153365400547 
2.2100000000002393, -1.1646828652948389 
2.2200000000002604, -1.1643885532487197 
2.2300000000002815, -1.1637500494169137 
2.2400000000003026, -1.1626087375536307 
2.2500000000003237, -1.1606664454770388 
2.260000000000345, -1.1574043799697846 
2.270000000000366, -1.1520121046385674 
2.280000000000387, -1.1434490866848361 
2.290000000000408, -1.130892946216741 
2.3000000000004293, -1.114735421834984 
2.3100000000004504, -1.097501806453599 
2.3200000000004715, -1.083159265898193 
2.3300000000004926, -1.0745533494238055 
2.3400000000005137, -1.0715842768700763 
2.3500000000005348, -1.0720877717161243 
2.360000000000556, -1.0738426922686652 
2.370000000000577, -1.0755735233558739 
2.380000000000598, -1.0768352318937768 
2.390000000000619, -1.0775913302587656 
2.4000000000006403, -1.077924761520132 
2.4100000000006614, -1.077911749214716 
2.4200000000006825, -1.077579532848992 
2.4300000000007036, -1.0768895117454262 
2.4400000000007247, -1.075718017257683 
2.450000000000746, -1.0738252396616745 
2.460000000000767, -1.0708207238184535 
2.470000000000788, -1.0661732394684338 
2.480000000000809, -1.0593893939630041 
2.49000000000083, -1.0505307446384473 
2.5000000000008513, -1.04096909041753 
2.5100000000008724, -1.0335079348774372 
2.5200000000008935, -1.030845418877197 
2.5300000000009146, -1.0333858765803996 
2.5400000000009357, -1.0390299214946876 
2.550000000000957, -1.0451193973140092 
2.560000000000978, -1.0500695677916982 
2.570000000000999, -1.053498146157024 
2.58000000000102, -1.055635978001319 
2.5900000000010412, -1.0568477761616881 
2.6000000000010624, -1.0574310866481296 
2.6100000000010835, -1.057576174954549 
2.6200000000011046, -1.0573786787115687 
2.6300000000011257, -1.0568563865576541 
2.6400000000011468, -1.0559564037167952 
2.650000000001168, -1.0545550864544146 
2.660000000001189, -1.052468436808358 
2.67000000000121, -1.0495206104935506 
2.680000000001231, -1.0457617320497732 
2.6900000000012523, -1.0419070776101587 
2.7000000000012734, -1.0397791127724492 
2.7100000000012945, -1.0419575365976042 
2.7200000000013156, -1.050009228510113 
2.7300000000013367, -1.06265022373062 
2.740000000001358, -1.0763469483267813 
2.750000000001379, -1.0879280963136835 
2.7600000000014, -1.0961727958287768 
2.770000000001421, -1.1014042811029174 
2.780000000001442, -1.1044730533974465 
2.7900000000014633, -1.106150553931823 
2.8000000000014844, -1.1069655832539858 
2.8100000000015055, -1.1072330931454724 
2.8200000000015266, -1.1071198774893534 
2.8300000000015477, -1.1066970658673059 
2.840000000001569, -1.1059774694490545 
2.85000000000159, -1.1049555916326947 
2.860000000001611, -1.1036846206119413 
2.870000000001632, -1.1024376643347458 
2.8800000000016532, -1.1019586153577143 
2.8900000000016743, -1.103613121996791 
2.9000000000016954, -1.108992294571407 
2.9100000000017165, -1.1188022570797989 
2.9200000000017377, -1.1319301541173374 
2.9300000000017588, -1.1458642717495322 
2.94000000000178, -1.1581590860581277 
2.950000000001801, -1.1675266477161992 
2.960000000001822, -1.1738906844150931 
2.970000000001843, -1.1778408680953345 
2.9800000000018643, -1.1801038932933472 
2.9900000000018854, -1.1812746559112326 
3.0000000000019065, -1.18175689118949 
3.0100000000019276, -1.1817971972423993 
3.0200000000019487, -1.1815402900218201 
3.03000000000197, -1.18108279628717 
3.040000000001991, -1.1805284031861016 
3.050000000002012, -1.1800478919083073 
3.060000000002033, -1.1799199004436958 
3.070000000002054, -1.1804885161619763 
3.0800000000020753, -1.182003774735703 
3.0900000000020964, -1.184454034156376 
3.1000000000021175, -1.1875600155950055 
3.1100000000021386, -1.1909266324428847 
3.1200000000021597, -1.1941974298493392 
3.130000000002181, -1.197120648361363 
3.140000000002202, -1.1995482419457726 
3.150000000002223, -1.201415088630551 
3.160000000002244, -1.2027205633305083 
3.1700000000022652, -1.2035124032980549 
3.1800000000022863, -1.20386815702804 
3.1900000000023074, -1.203875891171863 
3.2000000000023285, -1.2036211083104953 
3.2100000000023496, -1.2031849545703122 
3.2200000000023707, -1.2026523128590227 
3.230000000002392, -1.2021209185816113 
3.240000000002413, -1.201697620595732 
3.250000000002434, -1.2014742199971615 
3.260000000002455, -1.2014961839199174 
3.2700000000024763, -1.2017494429148867 
3.2800000000024974, -1.2021726025289174 
3.2900000000025185, -1.2026801569423153 
3.3000000000025396, -1.2031833498574005 
3.3100000000025607, -1.2036043642350474 
3.3200000000025818, -1.2038828276533662 
3.330000000002603, -1.2039759655897035 
3.340000000002624, -1.2038559784457104 
3.350000000002645, -1.2035075016303471 
3.360000000002666, -1.2029259986475154 
3.3700000000026873, -1.2021172279302181 
3.3800000000027084, -1.2010982583438206 
3.3900000000027295, -1.1999004975639083 
3.4000000000027506, -1.19857433898425 
3.4100000000027717, -1.1971934948172984 
3.420000000002793, -1.195855406768447 
3.430000000002814, -1.1946727481153057 
3.440000000002835, -1.1937503263412752 
3.450000000002856, -1.1931474968912326 
3.460000000002877, -1.1928454358798612 
3.4700000000028983, -1.1927500907272226 
3.4800000000029194, -1.1927328286259162 
3.4900000000029405, -1.1926723715170302 
3.5000000000029616, -1.192468211985441 
3.5100000000029827, -1.192028627726369 
3.520000000003004, -1.191251502226963 
3.530000000003025, -1.1900125966858797 
3.540000000003046, -1.1881700931716717 
3.550000000003067, -1.185589158524802 
3.5600000000030882, -1.1821821957455172 
3.5700000000031094, -1.1779532185937525 
3.5800000000031305, -1.1730372072375135 
3.5900000000031516, -1.1677318760313204 
3.6000000000031727, -1.162507526853449 
3.6100000000031938, -1.1579455184165919 
3.620000000003215, -1.1545538776998705 
3.630000000003236, -1.1525244230556453 
3.640000000003257, -1.1516426217136666 
3.650000000003278, -1.151459920934239 
3.6600000000032993, -1.1515515902141202 
3.6700000000033204, -1.151643211085676 
3.6800000000033415, -1.151591342946257 
3.6900000000033626, -1.1513121263704886 
3.7000000000033837, -1.1507158460454368 
3.710000000003405, -1.149653209820864 
3.720000000003426, -1.147860935297548 
3.730000000003447, -1.1449018751012976 
3.740000000003468, -1.1401251954781284 
3.750000000003489, -1.1327307615717341 
3.7600000000035103, -1.1220768137912227 
3.7700000000035314, -1.1082861627850424 
3.7800000000035525, -1.092832657597712 
3.7900000000035736, -1.0783806662210242 
3.8000000000035947, -1.0675175988474854 
3.810000000003616, -1.0612844009743903 
3.820000000003637, -1.0589009631177733 
3.830000000003658, -1.0587548109665101 
3.840000000003679, -1.0594653136523664 
3.8500000000037002, -1.0602588296298494 
3.8600000000037213, -1.0608329481590304 
3.8700000000037424, -1.061117887726621 
3.8800000000037635, -1.061116153648515 
3.8900000000037847, -1.0608233173010015 
3.9000000000038058, -1.0601883856427472 
3.910000000003827, -1.059081012980387 
3.920000000003848, -1.0572463757881434 
3.930000000003869, -1.0542409990721784 
3.94000000000389, -1.0493694472301192 
3.9500000000039113, -1.041708603933205 
3.9600000000039324, -1.0304095004238962 
3.9700000000039535, -1.01544313422874 
3.9800000000039746, -0.9984576145724665 
3.9900000000039957, -0.9826527979058547 
4.000000000004016, -0.971080223911463 
4.010000000003993, -0.9648067461928808 
4.02000000000397, -0.9627878742030344 
4.030000000003946, -0.9631549184078295 
4.040000000003923, -0.964378724475815 
4.0500000000039, -0.9656199111503072 
4.0600000000038765, -0.9665604144832971 
4.070000000003853, -0.9671439283871456 
4.08000000000383, -0.9674024494299998 
4.090000000003807, -0.967372112422251 
4.100000000003783, -0.9670574052773764 
4.11000000000376, -0.9664112168774166 
4.120000000003737, -0.9653119105707088 
4.130000000003713, -0.9635272265501426 
4.14000000000369, -0.9606632685442801 
4.150000000003667, -0.9561176004010591 
4.1600000000036434, -0.9491038292238272 
4.17000000000362, -0.9388775255943141 
4.180000000003597, -0.92525415526606 
4.1900000000035735, -0.9091923603953095 
4.20000000000355, -0.8928202089240627 
4.210000000003527, -0.8785626986793149 
4.220000000003504, -0.8679943337228618 
4.23000000000348, -0.8613532271844863 
4.240000000003457, -0.8578841403914961 
4.250000000003434, -0.8564905841487889 
4.26000000000341, -0.8562131060824543 
4.270000000003387, -0.8564047742955166 
4.280000000003364, -0.8567039605573292 
4.2900000000033405, -0.8569375788610483 
4.300000000003317, -0.8570315570076421 
4.310000000003294, -0.8569503711010457 
4.320000000003271, -0.8566610775727332 
4.330000000003247, -0.8561116977346999 
4.340000000003224, -0.8552171790179692 
4.350000000003201, -0.8538527164228679 
4.360000000003177, -0.8518620955759465 
4.370000000003154, -0.8490935354871036 
4.380000000003131, -0.8454660592073704 
4.390000000003107, -0.8410393115651511 
4.400000000003084, -0.8360351525222797 
4.410000000003061, -0.8307849684658203 
4.4200000000030375, -0.8256376281338149 
4.430000000003014, -0.8208859419262428 
4.440000000002991, -0.8167359474693072 
4.450000000002968, -0.8133060900278606 
4.460000000002944, -0.8106360091581856 
4.470000000002921, -0.8086960719125287 
4.480000000002898, -0.8073994358753238 
4.490000000002874, -0.8066203443586335 
4.500000000002851, -0.8062175550228158 
4.510000000002828, -0.8060566733049092 
4.520000000002804, -0.8060248023985823 
4.530000000002781, -0.8060351352026005 
4.540000000002758, -0.8060238812405212 
4.5500000000027345, -0.8059441533501068 
4.560000000002711, -0.805761041822157 
4.570000000002688, -0.805450303553009 
4.580000000002665, -0.8050005615721162 
4.590000000002641, -0.8044161176173062 
4.600000000002618, -0.803716176712436 
4.610000000002595, -0.8029286200236664 
4.620000000002571, -0.8020812521905597 
4.630000000002548, -0.8011958840849674 
4.640000000002525, -0.8002881887754144 
4.6500000000025015, -0.7993719795205202 
4.660000000002478, -0.798464502286474 
4.670000000002455, -0.7975901902613225 
4.6800000000024315, -0.796782026641651 
4.690000000002408, -0.796080489049571 
4.700000000002385, -0.7955300916925447 
4.710000000002362, -0.7951737741353926 
4.720000000002338, -0.7950462270235887 
4.730000000002315, -0.7951681258035775 
4.740000000002292, -0.7955432740950371 
4.750000000002268, -0.7961595672157629 
4.760000000002245, -0.7969930722274229 
4.770000000002222, -0.7980132640923436 
4.7800000000021985, -0.7991870373241559 
4.790000000002175, -0.8004795051206857 
4.800000000002152, -0.801850718474548 
4.810000000002129, -0.8032495033116355 
4.820000000002105, -0.8046085980773727 
4.830000000002082, -0.8058473939823395 
4.840000000002059, -0.8068860259526021 
4.850000000002035, -0.8076659537329955 
4.860000000002012, -0.8081645572910358 
4.870000000001989, -0.8083946283575477 
4.880000000001965, -0.8083916433112925 
4.890000000001942, -0.8081992614053878 
4.900000000001919, -0.8078612986011231 
4.9100000000018955, -0.8074228147551276 
4.920000000001872, -0.806939935718167 
4.930000000001849, -0.8064976171563023 
4.940000000001826, -0.8062338183173635 
