t, s[1].omega / s[0].omega 
0, -0.44999777136952906 
0.009999999999999995, -0.4498125097206095 
0.019999999999999934, -0.4496909944510465 
0.029999999999999874, -0.4496049981836607 
0.04000000000000012, -0.4495182667708228 
0.050000000000000405, -0.4493973440315215 
0.06000000000000069, -0.4492188749706165 
0.07000000000000098, -0.44897112704990494 
0.08000000000000126, -0.4486511051840155 
0.09000000000000155, -0.4482602703840922 
0.10000000000000184, -0.447801116070377 
0.11000000000000212, -0.4472753455749445 
0.12000000000000241, -0.4466832899933847 
0.130000000000002, -0.44602333702643715 
0.1400000000000009, -0.4452883386979001 
0.1499999999999998, -0.44445110228455825 
0.1599999999999987, -0.4434204603071123 
0.1699999999999976, -0.4419364044877808 
0.1799999999999965, -0.4393944718580163 
0.1899999999999954, -0.4347516706373005 
0.1999999999999943, -0.42696011085775865 
0.2099999999999932, -0.4160899495836296 
0.2199999999999921, -0.4039119655021473 
0.229999999999991, -0.39274817840348064 
0.2399999999999899, -0.3839570682910255 
0.2499999999999888, -0.3776874141021672 
0.2599999999999877, -0.3734655994160951 
0.2699999999999866, -0.3707093492872386 
0.2799999999999855, -0.3689414535035505 
0.2899999999999844, -0.3678249453960704 
0.2999999999999833, -0.36713748870001545 
0.3099999999999822, -0.36673753136989773 
0.3199999999999811, -0.3665375275044282 
0.32999999999998, -0.366485896085685 
0.3399999999999789, -0.36655593405381415 
0.3499999999999778, -0.36673968244219385 
0.35999999999997667, -0.3670451685834045 
0.36999999999997557, -0.3674956842222649 
0.37999999999997447, -0.36812957010163816 
0.38999999999997337, -0.36899834442113366 
0.39999999999997227, -0.37016006691818104 
0.40999999999997117, -0.37166406336920704 
0.41999999999997006, -0.37352432471586244 
0.42999999999996896, -0.3756860203064644 
0.43999999999996786, -0.3780045877871411 
0.44999999999996676, -0.3802666094812087 
0.45999999999996566, -0.3822589228599139 
0.46999999999996456, -0.3838437946696994 
0.47999999999996346, -0.3849861645522739 
0.48999999999996235, -0.3857265500312047 
0.49999999999996125, -0.3861352351725141 
0.5099999999999602, -0.386278095852849 
0.519999999999959, -0.3862002423035352 
0.529999999999958, -0.385920740201888 
0.5399999999999568, -0.38543114569130615 
0.5499999999999557, -0.384694303425532 
0.5599999999999546, -0.38364405560255394 
0.5699999999999535, -0.3821913061351244 
0.5799999999999524, -0.3802466483494756 
0.5899999999999513, -0.3777677327579729 
0.5999999999999502, -0.37481857801730245 
0.6099999999999491, -0.3715945391885339 
0.619999999999948, -0.36837014093642856 
0.6299999999999469, -0.3653953906868743 
0.6399999999999458, -0.3628189756515606 
0.6499999999999447, -0.3606796539808719 
0.6599999999999436, -0.35894249641453496 
0.6699999999999425, -0.3575408856755195 
0.6799999999999414, -0.3564051942467899 
0.6899999999999403, -0.3554771386401275 
0.6999999999999392, -0.35471490650406645 
0.7099999999999381, -0.3540939296971209 
0.719999999999937, -0.3536066058362117 
0.7299999999999359, -0.3532630333514505 
0.7399999999999348, -0.3530941828093369 
0.7499999999999337, -0.35315883772212814 
0.7599999999999326, -0.35355597569938674 
0.7699999999999315, -0.35444469350515206 
0.7799999999999304, -0.35607324856999034 
0.7899999999999293, -0.3588140248962314 
0.7999999999999282, -0.3631837135348525 
0.8099999999999271, -0.3697827801758321 
0.819999999999926, -0.3790191131103394 
0.8299999999999249, -0.39051911839776743 
0.8399999999999238, -0.40260133262203074 
0.8499999999999227, -0.4128303973273029 
0.8599999999999216, -0.41970680855624626 
0.8699999999999205, -0.42349940664821145 
0.8799999999999194, -0.4253631602354466 
0.8899999999999183, -0.4262872188705874 
0.8999999999999172, -0.4268092921349876 
0.9099999999999161, -0.42715537659669234 
0.919999999999915, -0.42740567798958756 
0.9299999999999139, -0.42758553575993885 
0.9399999999999128, -0.42770247913204795 
0.9499999999999117, -0.42775859389437326 
0.9599999999999106, -0.4277539098312492 
0.9699999999999095, -0.42768739431291547 
0.9799999999999084, -0.4275581287022384 
0.9899999999999073, -0.4273676759676868 
0.9999999999999062, -0.42712367408602764 
1.0099999999999052, -0.42684344598387647 
1.019999999999904, -0.4265551475394932 
1.029999999999903, -0.42629401375826814 
1.039999999999902, -0.42609357537412507 
1.0499999999999008, -0.42597494959512716 
1.0599999999998997, -0.425938809955816 
1.0699999999998986, -0.4259636618961591 
1.0799999999998975, -0.4260116575497831 
1.0899999999998964, -0.4260399119331998 
1.0999999999998953, -0.4260121374143046 
1.1099999999998942, -0.42590518398144617 
1.119999999999893, -0.425708702721999 
1.129999999999892, -0.42542025148475354 
1.1399999999998909, -0.4250392945898921 
1.1499999999998898, -0.42456202804737775 
1.1599999999998887, -0.42397692525076336 
1.1699999999998876, -0.4232593342975132 
1.1799999999998865, -0.42236179387077877 
1.1899999999998854, -0.42119366150088877 
1.1999999999998843, -0.41957829487226156 
1.2099999999998832, -0.417172599678793 
1.219999999999882, -0.4133572688179923 
1.229999999999881, -0.40721858807195604 
1.2399999999998799, -0.39793185898954603 
1.2499999999998788, -0.38566403952263145 
1.2599999999998777, -0.37209595538145696 
1.2699999999998766, -0.3595020137596575 
1.2799999999998755, -0.3493297520010231 
1.2899999999998744, -0.341834317773818 
1.2999999999998733, -0.3365878654564528 
1.3099999999998722, -0.3330034322072154 
1.319999999999871, -0.3305780987466912 
1.32999999999987, -0.3289462148859898 
1.3399999999998689, -0.3278609624312398 
1.3499999999998678, -0.3271624025259463 
1.3599999999998666, -0.3267507320203318 
1.3699999999998655, -0.3265679090134762 
1.3799999999998644, -0.32658644205091913 
1.3899999999998633, -0.326803605990787 
1.3999999999998622, -0.3272397585507568 
1.4099999999998611, -0.32793980039648485 
1.41999999999986, -0.32897672629988894 
1.429999999999859, -0.33045520032460113 
1.4399999999998578, -0.33251037221356244 
1.4499999999998567, -0.33529187541969074 
1.4599999999998556, -0.33891665930352827 
1.4699999999998545, -0.3433781755638395 
1.4799999999998534, -0.34843821885649484 
1.4899999999998523, -0.3536014655666655 
1.4999999999998512, -0.3582752220554429 
1.5099999999998501, -0.36203703675170945 
1.519999999999849, -0.36477643768653567 
1.529999999999848, -0.36662266166203533 
1.5399999999998468, -0.3677911430412313 
1.5499999999998457, -0.3684790970642148 
1.5599999999998446, -0.3688298796338535 
1.5699999999998435, -0.3689342868628843 
1.5799999999998424, -0.36884218884931363 
1.5899999999998413, -0.3685734911483384 
1.5999999999998402, -0.36812664441256904 
1.6099999999998391, -0.36748675612694554 
1.619999999999838, -0.36663655333606326 
1.629999999999837, -0.36557217236553097 
1.6399999999998358, -0.3643206557644426 
1.6499999999998347, -0.3629488788582162 
1.6599999999998336, -0.3615531007832392 
1.6699999999998325, -0.3602310752673858 
1.6799999999998314, -0.35905357028305607 
1.6899999999998303, -0.3580512014415515 
1.6999999999998292, -0.3572184264502879 
1.709999999999828, -0.35652659791113367 
1.719999999999827, -0.3559379706992074 
1.729999999999826, -0.3554164072468373 
1.7399999999998248, -0.3549334929351156 
1.7499999999998237, -0.3544705616411753 
1.7599999999998226, -0.3540182091016148 
1.7699999999998215, -0.3535751435166618 
1.7799999999998204, -0.35314780955723735 
1.7899999999998193, -0.3527515972730594 
1.7999999999998182, -0.35241384975506146 
1.809999999999817, -0.3521778502645647 
1.819999999999816, -0.3521038462625639 
1.8299999999998149, -0.3522540636075046 
1.8399999999998138, -0.35262739224986506 
1.8499999999998127, -0.35298029509973844 
1.8599999999998116, -0.3525082024502385 
1.8699999999998105, -0.3496801749232223 
1.8799999999998094, -0.34301870574070886 
1.8899999999998083, -0.33280321576968974 
1.8999999999998072, -0.32141095561311783 
1.909999999999806, -0.3113543372483686 
1.919999999999805, -0.30373089897776745 
1.9299999999998039, -0.298429998987707 
1.9399999999998028, -0.2948964707868167 
1.9499999999998017, -0.2925821007185641 
1.9599999999998006, -0.29107804020920114 
1.9699999999997995, -0.29011110281694513 
1.9799999999997984, -0.28950815108773253 
1.9899999999997973, -0.28916369231936756 
1.9999999999997962, -0.2890174807177389 
2.0099999999998173, -0.289040937736858 
2.0199999999998384, -0.28923006226943454 
2.0299999999998595, -0.2896030153107518 
2.0399999999998806, -0.29020111237544477 
2.0499999999999017, -0.2910920242552611 
2.059999999999923, -0.29237318354552677 
2.069999999999944, -0.29417103835221475 
2.079999999999965, -0.2966270325615958 
2.089999999999986, -0.29985522473761544 
2.100000000000007, -0.3038593212507052 
2.1100000000000283, -0.3084317223608578 
2.1200000000000494, -0.3131256402141466 
2.1300000000000705, -0.31739702240695994 
2.1400000000000916, -0.32085014949429774 
2.1500000000001127, -0.32337292527838424 
2.160000000000134, -0.3250757719662241 
2.170000000000155, -0.3261522333284038 
2.180000000000176, -0.326781950128226 
2.190000000000197, -0.32709640119973493 
2.2000000000002182, -0.32717922576104896 
2.2100000000002393, -0.32707675041463596 
2.2200000000002604, -0.32680848466479956 
2.2300000000002815, -0.32637592309719216 
2.2400000000003026, -0.32577145099323723 
2.2500000000003237, -0.3249897214083248 
2.260000000000345, -0.3240417558453546 
2.270000000000366, -0.322967098743971 
2.280000000000387, -0.32183515436217236 
2.290000000000408, -0.3207304302270485 
2.3000000000004293, -0.31972822267825973 
2.3100000000004504, -0.31887499599067753 
2.3200000000004715, -0.3181823138952411 
2.3300000000004926, -0.317632646875338 
2.3400000000005137, -0.31719074569786937 
2.3500000000005348, -0.31681550084893095 
2.360000000000556, -0.3164692715965835 
2.370000000000577, -0.3161230258553661 
2.380000000000598, -0.31575713942573286 
2.390000000000619, -0.31535915515542196 
2.4000000000006403, -0.31492022136486 
2.4100000000006614, -0.31443118390275926 
2.4200000000006825, -0.3138779623682521 
2.4300000000007036, -0.31323406061214415 
2.4400000000007247, -0.31244507442615327 
2.450000000000746, -0.31139445479908984 
2.460000000000767, -0.309832124232076 
2.470000000000788, -0.3072524827083508 
2.480000000000809, -0.302783774249078 
2.49000000000083, -0.2953697828254364 
2.5000000000008513, -0.2846095860507785 
2.5100000000008724, -0.2717225010532579 
2.5200000000008935, -0.25908865223975075 
2.5300000000009146, -0.2485755173143281 
2.5400000000009357, -0.24072522033463187 
2.550000000000957, -0.23519173961582873 
2.560000000000978, -0.23137807252133116 
2.570000000000999, -0.2287568937066181 
2.58000000000102, -0.2269467573214393 
2.5900000000010412, -0.22569473597894896 
2.6000000000010624, -0.22484152801580218 
2.6100000000010835, -0.22429281913843885 
2.6200000000011046, -0.22400074769117867 
2.6300000000011257, -0.22395423146650484 
2.6400000000011468, -0.22417669940082546 
2.650000000001168, -0.2247308142003083 
2.660000000001189, -0.2257309865410641 
2.67000000000121, -0.22736525297975954 
2.680000000001231, -0.22992673599759197 
2.6900000000012523, -0.2338460631483647 
2.7000000000012734, -0.23968673210456393 
2.7100000000012945, -0.2480002095620894 
2.7200000000013156, -0.2588852049049583 
2.7300000000013367, -0.27132717929882705 
2.740000000001358, -0.28312364378682253 
2.750000000001379, -0.29218038909963256 
2.7600000000014, -0.297929510930439 
2.770000000001421, -0.3011312685089672 
2.780000000001442, -0.30281517815147097 
2.7900000000014633, -0.3037061229206052 
2.8000000000014844, -0.3041972426253464 
2.8100000000015055, -0.3044786352214223 
2.8200000000015266, -0.30463924554427846 
2.8300000000015477, -0.30472148917363956 
2.840000000001569, -0.30474683963 
2.85000000000159, -0.30472765700358806 
2.860000000001611, -0.3046734082648788 
2.870000000001632, -0.30459503309144276 
2.8800000000016532, -0.3045088210926926 
2.8900000000016743, -0.3044395861622394 
2.9000000000016954, -0.30442179062554225 
2.9100000000017165, -0.30449698517638246 
2.9200000000017377, -0.30470679882773044 
2.9300000000017588, -0.30508212159908366 
2.94000000000178, -0.3056303626675575 
2.950000000001801, -0.30632448899626374 
2.960000000001822, -0.30710043350800437 
2.970000000001843, -0.3078694176131874 
2.9800000000018643, -0.30854326346408634 
2.9900000000018854, -0.3090589333230544 
3.0000000000019065, -0.3093879285649755 
3.0100000000019276, -0.3095288451195746 
3.0200000000019487, -0.30949215633459526 
3.03000000000197, -0.3092859856230036 
3.040000000001991, -0.30890570445928534 
3.050000000002012, -0.3083259509753656 
3.060000000002033, -0.3074929042194619 
3.070000000002054, -0.3063167153798948 
3.0800000000020753, -0.30466932481015396 
3.0900000000020964, -0.302402137464565 
3.1000000000021175, -0.29940440616891545 
3.1100000000021386, -0.2957024902967752 
3.1200000000021597, -0.29153585225113965 
3.130000000002181, -0.28730889425367595 
3.140000000002202, -0.2834203869723476 
3.150000000002223, -0.2801124326351575 
3.160000000002244, -0.2774435713572097 
3.1700000000022652, -0.2753516239728526 
3.1800000000022863, -0.2737270878268775 
3.1900000000023074, -0.27245950713701317 
3.2000000000023285, -0.27145753719877785 
3.2100000000023496, -0.27065398719538714 
3.2200000000023707, -0.2700046216793369 
3.230000000002392, -0.26948554565467175 
3.240000000002413, -0.26909160991887177 
3.250000000002434, -0.26883722166558005 
3.260000000002455, -0.26876068637039274 
3.2700000000024763, -0.2689333711821759 
3.2800000000024974, -0.26947502009214586 
3.2900000000025185, -0.27057481512074283 
3.3000000000025396, -0.2725091680412349 
3.3100000000025607, -0.2756188695276144 
3.3200000000025818, -0.28014241634166587 
3.330000000002603, -0.285742672629243 
3.340000000002624, -0.29082881216152984 
3.350000000002645, -0.29275371119926347 
3.360000000002666, -0.28998431901267646 
3.3700000000026873, -0.28389221379698326 
3.3800000000027084, -0.2772058295133052 
3.3900000000027295, -0.2716722643892385 
3.4000000000027506, -0.267694590078977 
3.4100000000027717, -0.26502347315002706 
3.420000000002793, -0.26328388353046356 
3.430000000002814, -0.2621681754207793 
3.440000000002835, -0.26146489492912306 
3.450000000002856, -0.2610398194989007 
3.460000000002877, -0.2608125548214514 
3.4700000000028983, -0.26073934428964624 
3.4800000000029194, -0.26080268677658724 
3.4900000000029405, -0.26100631079866765 
3.5000000000029616, -0.261374121880808 
3.5100000000029827, -0.26195201762841264 
3.520000000003004, -0.26281132380544336 
3.530000000003025, -0.2640516002456389 
3.540000000003046, -0.2657979638926287 
3.550000000003067, -0.2681831620310005 
3.5600000000030882, -0.2712996856388148 
3.5700000000031094, -0.27511475668901814 
3.5800000000031305, -0.27938302902193246 
3.5900000000031516, -0.2836532132142645 
3.6000000000031727, -0.2874350560363263 
3.6100000000031938, -0.2904190514648841 
3.620000000003215, -0.292556922052187 
3.630000000003236, -0.29397634983604914 
3.640000000003257, -0.294856192192949 
3.650000000003278, -0.29535179051480287 
3.6600000000032993, -0.29557301329336017 
3.6700000000033204, -0.2955878727325626 
3.6800000000033415, -0.29543267165920467 
3.6900000000033626, -0.2951217097720477 
3.7000000000033837, -0.29465609480546007 
3.710000000003405, -0.2940334488699539 
3.720000000003426, -0.2932597596745112 
3.730000000003447, -0.29236146387071754 
3.740000000003468, -0.2913915332897349 
3.750000000003489, -0.2904228961126215 
3.7600000000035103, -0.2895299027058761 
3.7700000000035314, -0.28876789744215786 
3.7800000000035525, -0.28816153920456505 
3.7900000000035736, -0.28770458518956954 
3.8000000000035947, -0.28736739640259723 
3.810000000003616, -0.2871077121287987 
3.820000000003637, -0.2868815223948269 
3.830000000003658, -0.286651320327691 
3.840000000003679, -0.28638973302195025 
3.8500000000037002, -0.2860784259359507 
3.8600000000037213, -0.2857038727930175 
3.8700000000037424, -0.28525166085149956 
3.8800000000037635, -0.2846996747735826 
3.8900000000037847, -0.2840086049521211 
3.9000000000038058, -0.2831059733012384 
3.910000000003827, -0.2818571865666095 
3.920000000003848, -0.28001625860099644 
3.930000000003869, -0.2771615950530665 
3.94000000000389, -0.27267874020198957 
3.9500000000039113, -0.26596021168338535 
3.9600000000039324, -0.25695260660021285 
3.9700000000039535, -0.24663896126542725 
3.9800000000039746, -0.23664981903777943 
3.9900000000039957, -0.22824439935187404 
4.000000000004016, -0.22181735367488642 
4.010000000003993, -0.2171535988374896 
4.02000000000397, -0.21383766733776635 
4.030000000003946, -0.21148246935881784 
4.040000000003923, -0.20979650360101224 
4.0500000000039, -0.20858045004592837 
4.0600000000038765, -0.20770619103638777 
4.070000000003853, -0.20709761964759577 
4.08000000000383, -0.2067178928822228 
4.090000000003807, -0.20656339965192774 
4.100000000003783, -0.20666424809520115 
4.11000000000376, -0.20709192209126295 
4.120000000003737, -0.20797601752861036 
4.130000000003713, -0.20953285073808076 
4.14000000000369, -0.2121065148584337 
4.150000000003667, -0.21620833401734557 
4.1600000000036434, -0.22248962160505514 
4.17000000000362, -0.23146812131081704 
4.180000000003597, -0.24276975340997503 
4.1900000000035735, -0.2542357957152678 
4.20000000000355, -0.2625961035248214 
4.210000000003527, -0.2662129542091569 
4.220000000003504, -0.2662588482348673 
4.23000000000348, -0.2648269267602022 
4.240000000003457, -0.2632524977674752 
4.250000000003434, -0.2620099250572855 
4.26000000000341, -0.2611472743746111 
4.270000000003387, -0.2605848402788879 
4.280000000003364, -0.260233829058155 
4.2900000000033405, -0.2600276301646778 
4.300000000003317, -0.25992369623568534 
4.310000000003294, -0.2598989131201185 
4.320000000003271, -0.25994551049336206 
4.330000000003247, -0.2600690944063545 
4.340000000003224, -0.2602887462950958 
4.350000000003201, -0.26063856445748457 
4.360000000003177, -0.2611695453828557 
4.370000000003154, -0.26194997285106647 
4.380000000003131, -0.2630612329410965 
4.390000000003107, -0.2645840118163617 
4.400000000003084, -0.2665685811018205 
4.410000000003061, -0.2689884211021872 
4.4200000000030375, -0.2716971779065992 
4.430000000003014, -0.2744345958149159 
4.440000000002991, -0.27691066323842234 
4.450000000002968, -0.27892047975259554 
4.460000000002944, -0.2803996452456777 
4.470000000002921, -0.2813943503936426 
4.480000000002898, -0.28199718772667753 
4.490000000002874, -0.2822987513901848 
4.500000000002851, -0.2823664137898729 
4.510000000002828, -0.28224043063780396 
4.520000000002804, -0.281936970488121 
4.530000000002781, -0.2814532975211904 
4.540000000002758, -0.2807749330388747 
4.5500000000027345, -0.27988688443023524 
4.560000000002711, -0.27879014612804803 
4.570000000002688, -0.2775193501711942 
4.580000000002665, -0.27615020193682577 
4.590000000002641, -0.2747859794865641 
4.600000000002618, -0.27352702192825407 
4.610000000002595, -0.27244204788015547 
4.620000000002571, -0.2715567581947879 
4.630000000002548, -0.2708594691328177 
4.640000000002525, -0.2703145498549316 
4.6500000000025015, -0.2698761841218068 
4.660000000002478, -0.2694992343432819 
4.670000000002455, -0.26914602389919595 
4.6800000000024315, -0.2687887116134807 
4.690000000002408, -0.2684079688727552 
4.700000000002385, -0.2679893987713763 
4.710000000002362, -0.2675188348509733 
4.720000000002338, -0.2669764476259421 
4.730000000002315, -0.26632777996309254 
4.740000000002292, -0.2655071371924695 
4.750000000002268, -0.26438454572090586 
4.760000000002245, -0.2627035357304789 
4.770000000002222, -0.2599875941719255 
4.7800000000021985, -0.25548360190887964 
4.790000000002175, -0.24837576976509163 
4.800000000002152, -0.23850077637114367 
4.810000000002129, -0.22703457715899916 
4.820000000002105, -0.2159857109258473 
4.830000000002082, -0.20684350982883667 
4.840000000002059, -0.1999986568750866 
4.850000000002035, -0.19513312134111205 
4.860000000002012, -0.19173673614343062 
