t, s[1].omega / s[0].omega 
0, -0.7399976765275497 
0.009999999999999995, -0.7397483146747265 
0.019999999999999934, -0.7394607654553814 
0.029999999999999874, -0.7391245161551858 
0.04000000000000012, -0.7387298462652128 
0.050000000000000405, -0.7382743495519679 
0.06000000000000069, -0.7377664419748828 
0.07000000000000098, -0.7372262640947125 
0.08000000000000126, -0.7366861322499103 
0.09000000000000155, -0.7361921107349649 
0.10000000000000184, -0.7358065724128735 
0.11000000000000212, -0.7356101527618283 
0.12000000000000241, -0.7357009601206459 
0.130000000000002, -0.7361895365459784 
0.1400000000000009, -0.7371896835824198 
0.1499999999999998, -0.7388069088510386 
0.1599999999999987, -0.7411264532881894 
0.1699999999999976, -0.7442008634742185 
0.1799999999999965, -0.7480339337883766 
0.1899999999999954, -0.752556673711162 
0.1999999999999943, -0.757596432634364 
0.2099999999999932, -0.7628558149347644 
0.2199999999999921, -0.7679357033020452 
0.229999999999991, -0.7724276293235693 
0.2399999999999899, -0.7760432662057437 
0.2499999999999888, -0.7786940780272528 
0.2599999999999877, -0.7804678587860923 
0.2699999999999866, -0.7815398065683848 
0.2799999999999855, -0.7820896581983007 
0.2899999999999844, -0.7822585727839356 
0.2999999999999833, -0.782138888796525 
0.3099999999999822, -0.7817790424547824 
0.3199999999999811, -0.7811921215459432 
0.32999999999998, -0.7803646340527086 
0.3399999999999789, -0.7792680322838468 
0.3499999999999778, -0.7778806014209989 
0.35999999999997667, -0.7762321307696026 
0.36999999999997557, -0.7744835909177806 
0.37999999999997447, -0.7730331289573409 
0.38999999999997337, -0.7725756504972284 
0.39999999999997227, -0.7739577131119885 
0.40999999999997117, -0.777725373962397 
0.41999999999997006, -0.7836374316675006 
0.42999999999996896, -0.7907011877113395 
0.43999999999996786, -0.7977521236656979 
0.44999999999996676, -0.8039535365312489 
0.45999999999996566, -0.8089147164580002 
0.46999999999996456, -0.812597603366488 
0.47999999999996346, -0.8151699306688167 
0.48999999999996235, -0.8168717935582857 
0.49999999999996125, -0.8179296267979688 
0.5099999999999602, -0.8185189386705097 
0.519999999999959, -0.8187571675020673 
0.529999999999958, -0.8187078633688909 
0.5399999999999568, -0.8183845593291581 
0.5499999999999557, -0.8177484291013928 
0.5599999999999546, -0.8166968528820334 
0.5699999999999535, -0.8150427564464999 
0.5799999999999524, -0.8124917429135555 
0.5899999999999513, -0.8086416086786448 
0.5999999999999502, -0.8030545613152723 
0.6099999999999491, -0.7954502861209536 
0.619999999999948, -0.7859706505101067 
0.6299999999999469, -0.7753088434040307 
0.6399999999999458, -0.7645198754058239 
0.6499999999999447, -0.7546234089766726 
0.6599999999999436, -0.7462968493228717 
0.6699999999999425, -0.7398028870425932 
0.6799999999999414, -0.7350795597263887 
0.6899999999999403, -0.7318737106944294 
0.6999999999999392, -0.7298540421457658 
0.7099999999999381, -0.7286885893874543 
0.719999999999937, -0.7280895747972992 
0.7299999999999359, -0.7278321125661218 
0.7399999999999348, -0.7277541446373571 
0.7499999999999337, -0.7277454935774376 
0.7599999999999326, -0.72773307932507 
0.7699999999999315, -0.727667287892821 
0.7799999999999304, -0.7275123236114676 
0.7899999999999293, -0.7272418277439304 
0.7999999999999282, -0.7268397365649202 
0.8099999999999271, -0.7263043983787087 
0.819999999999926, -0.7256515929986879 
0.8299999999999249, -0.7249117583686031 
0.8399999999999238, -0.7241206607479664 
0.8499999999999227, -0.7233083914469912 
0.8599999999999216, -0.722493171554937 
0.8699999999999205, -0.7216825524840965 
0.8799999999999194, -0.7208796152005157 
0.8899999999999183, -0.7200899085228317 
0.8999999999999172, -0.719326332231893 
0.9099999999999161, -0.718611546676507 
0.919999999999915, -0.7179786836144142 
0.9299999999999139, -0.7174708939757637 
0.9399999999999128, -0.7171395973748999 
0.9499999999999117, -0.7170411243731892 
0.9599999999999106, -0.7172319764256605 
0.9699999999999095, -0.7177637304890939 
0.9799999999999084, -0.7186789779945985 
0.9899999999999073, -0.7200091295002102 
0.9999999999999062, -0.7217735096230496 
1.0099999999999052, -0.7239774686411569 
1.019999999999904, -0.7266060604001685 
1.029999999999903, -0.7296103777959407 
1.039999999999902, -0.7328878133793106 
1.0499999999999008, -0.736266719379158 
1.0599999999998997, -0.7395156924532642 
1.0699999999998986, -0.7423926788034756 
1.0799999999998975, -0.7447180156038294 
1.0899999999998964, -0.7464243027743528 
1.0999999999998953, -0.7475501245401273 
1.1099999999998942, -0.7481928625097376 
1.119999999999893, -0.7484592501142722 
1.129999999999892, -0.7484360841035979 
1.1399999999998909, -0.7481807545414438 
1.1499999999998898, -0.7477229314712338 
1.1599999999998887, -0.7470712141102908 
1.1699999999998876, -0.7462237853156766 
1.1799999999998865, -0.7451870821417155 
1.1899999999998854, -0.7440109594420756 
1.1999999999998843, -0.7428509620694452 
1.2099999999998832, -0.7420599256240543 
1.219999999999882, -0.7422743202158528 
1.229999999999881, -0.7443826277194445 
1.2399999999998799, -0.7492040717803522 
1.2499999999998788, -0.7568778900775863 
1.2599999999998777, -0.7664573102786005 
1.2699999999998766, -0.776319862714458 
1.2799999999998755, -0.7850808758029333 
1.2899999999998744, -0.7920827554130059 
1.2999999999998733, -0.7972751904617356 
1.3099999999998722, -0.8009170115167505 
1.319999999999871, -0.8033576557762545 
1.32999999999987, -0.8049216266456997 
1.3399999999998689, -0.8058632516843083 
1.3499999999998678, -0.8063603123055788 
1.3599999999998666, -0.8065232277484261 
1.3699999999998655, -0.8064057786700533 
1.3799999999998644, -0.80601048638148 
1.3899999999998633, -0.8052855113865975 
1.3999999999998622, -0.8041117176335735 
1.4099999999998611, -0.802281435784832 
1.41999999999986, -0.7994794124145468 
1.429999999999859, -0.7952964766049341 
1.4399999999998578, -0.7893291283897933 
1.4499999999998567, -0.781396411001664 
1.4599999999998556, -0.771782588168384 
1.4699999999998545, -0.761283023408575 
1.4799999999998534, -0.7509400389620249 
1.4899999999998523, -0.7416584276214594 
1.4999999999998512, -0.7339742963450071 
1.5099999999998501, -0.7280450958693085 
1.519999999999849, -0.7237583346083027 
1.529999999999848, -0.7208548867046932 
1.5399999999998468, -0.7190236925030746 
1.5499999999998457, -0.71796315605232 
1.5599999999998446, -0.7174152544504021 
1.5699999999998435, -0.7171788007648744 
1.5799999999998424, -0.7171080133387102 
1.5899999999998413, -0.7171026351341017 
1.5999999999998402, -0.7170951931397023 
1.6099999999998391, -0.7170394701538213 
1.619999999999838, -0.7169026116959282 
1.629999999999837, -0.7166619377749066 
1.6399999999998358, -0.7163061006678455 
1.6499999999998347, -0.7158382014036062 
1.6599999999998336, -0.715276636385884 
1.6699999999998325, -0.714650209895788 
1.6799999999998314, -0.7139884125542009 
1.6899999999998303, -0.7133122220292173 
1.6999999999998292, -0.7126307105716259 
1.709999999999828, -0.7119444274962343 
1.719999999999827, -0.7112523615583164 
1.729999999999826, -0.710558437687938 
1.7399999999998248, -0.7098755164877888 
1.7499999999998237, -0.7092272258217858 
1.7599999999998226, -0.708648791762134 
1.7699999999998215, -0.7081874133749664 
1.7799999999998204, -0.7079017778419959 
1.7899999999998193, -0.707859946863856 
1.7999999999998182, -0.7081352937146254 
1.809999999999817, -0.7088010854058432 
1.819999999999816, -0.709924971621429 
1.8299999999998149, -0.7115643575522209 
1.8399999999998138, -0.7137621777912257 
1.8499999999998127, -0.7165404411365068 
1.8599999999998116, -0.7198872935159737 
1.8699999999998105, -0.7237344438480104 
1.8799999999998094, -0.7279289409690304 
1.8899999999998083, -0.7322178544156304 
1.8999999999998072, -0.7362761006029198 
1.909999999999806, -0.7397906063617276 
1.919999999999805, -0.7425614844275102 
1.9299999999998039, -0.7445493458203948 
1.9399999999998028, -0.7458419759021903 
1.9499999999998017, -0.7465815666988296 
1.9599999999998006, -0.7469048812316067 
1.9699999999997995, -0.7469146826206132 
1.9799999999997984, -0.7466739344451294 
1.9899999999997973, -0.746209631118985 
1.9999999999997962, -0.7455186009987098 
2.0099999999998173, -0.7445735207119781 
2.0199999999998384, -0.7433317076210557 
2.0299999999998595, -0.7417528279218945 
2.0399999999998806, -0.7398337262615998 
2.0499999999999017, -0.7376630666403379 
2.059999999999923, -0.735472483099564 
2.069999999999944, -0.7336129958975449 
2.079999999999965, -0.7323858513996303 
2.089999999999986, -0.7318399920122682 
2.100000000000007, -0.7318436932011332 
2.1100000000000283, -0.7323735521328374 
2.1200000000000494, -0.7335051516682422 
2.1300000000000705, -0.7351429848877414 
2.1400000000000916, -0.7369850187768844 
2.1500000000001127, -0.7387169172486086 
2.160000000000134, -0.7401496222710743 
2.170000000000155, -0.7412245206752386 
2.180000000000176, -0.7419603646684616 
2.190000000000197, -0.7424031980264275 
2.2000000000002182, -0.7425960853965571 
2.2100000000002393, -0.7425641903518962 
2.2200000000002604, -0.7423072704469771 
2.2300000000002815, -0.7417941576604802 
2.2400000000003026, -0.7409573976208632 
2.2500000000003237, -0.7396906831776807 
2.260000000000345, -0.737857681064654 
2.270000000000366, -0.7353253368969183 
2.280000000000387, -0.732026913736008 
2.290000000000408, -0.7280302207033096 
2.3000000000004293, -0.7235570847736855 
2.3100000000004504, -0.7189230450030107 
2.3200000000004715, -0.7144359463768876 
2.3300000000004926, -0.7103225468745176 
2.3400000000005137, -0.7067116188963898 
2.3500000000005348, -0.7036542730379962 
2.360000000000556, -0.7011523740857352 
2.370000000000577, -0.6991795694379668 
2.380000000000598, -0.6976927360723018 
2.390000000000619, -0.6966373826593402 
2.4000000000006403, -0.6959510230537682 
2.4100000000006614, -0.6955669032829663 
2.4200000000006825, -0.6954185547333548 
2.4300000000007036, -0.6954443903374716 
2.4400000000007247, -0.6955912960983885 
2.450000000000746, -0.695816687233016 
2.460000000000767, -0.6960892102763181 
2.470000000000788, -0.6963885745984161 
2.480000000000809, -0.6967046030932205 
2.49000000000083, -0.6970347834998118 
2.5000000000008513, -0.6973792959357116 
2.5100000000008724, -0.697733680655567 
2.5200000000008935, -0.6980818069461444 
2.5300000000009146, -0.6983936098599264 
2.5400000000009357, -0.698630647837612 
2.550000000000957, -0.698757580086019 
2.560000000000978, -0.6987529739740914 
2.570000000000999, -0.6986135028734343 
2.58000000000102, -0.6983512712715869 
2.5900000000010412, -0.6979888184844121 
2.6000000000010624, -0.6975566908420763 
2.6100000000010835, -0.697096229191918 
2.6200000000011046, -0.696668371415507 
2.6300000000011257, -0.6963684955696231 
2.6400000000011468, -0.6963466375542978 
2.650000000001168, -0.6968306683711966 
2.660000000001189, -0.6981465805818199 
2.67000000000121, -0.7007247646666663 
2.680000000001231, -0.705074031619547 
2.6900000000012523, -0.7116968657010811 
2.7000000000012734, -0.7209169402795113 
2.7100000000012945, -0.7326192431830588 
2.7200000000013156, -0.7460059874310171 
2.7300000000013367, -0.7596169289575933 
2.740000000001358, -0.771812133741656 
2.750000000001379, -0.781476874963704 
2.7600000000014, -0.7883685828867774 
2.770000000001421, -0.7928984562424659 
2.780000000001442, -0.795700007143952 
2.7900000000014633, -0.7973388720668885 
2.8000000000014844, -0.7982196006492993 
2.8100000000015055, -0.798597306767644 
2.8200000000015266, -0.7986158310501231 
2.8300000000015477, -0.7983391223588879 
2.840000000001569, -0.7977677151157578 
2.85000000000159, -0.7968398738498375 
2.860000000001611, -0.7954171609844488 
2.870000000001632, -0.7932528160500948 
2.8800000000016532, -0.7899429838450899 
2.8900000000016743, -0.7848742086349809 
2.9000000000016954, -0.7772230805570692 
2.9100000000017165, -0.7661443805612349 
2.9200000000017377, -0.7513096334557723 
2.9300000000017588, -0.7336442265754703 
2.94000000000178, -0.7154772907339843 
2.950000000001801, -0.6994990527219455 
2.960000000001822, -0.6873674540291196 
2.970000000001843, -0.6792688720329195 
2.9800000000018643, -0.6744429130714694 
2.9900000000018854, -0.6718712555083396 
3.0000000000019065, -0.6706762183375011 
3.0100000000019276, -0.6702368854610622 
3.0200000000019487, -0.670163203922389 
3.03000000000197, -0.6702294034615275 
3.040000000001991, -0.6703118179189044 
3.050000000002012, -0.6703435510319343 
3.060000000002033, -0.6702852048495178 
3.070000000002054, -0.6701076126900514 
3.0800000000020753, -0.6697832733413028 
3.0900000000020964, -0.6692850178515007 
3.1000000000021175, -0.6685915384992376 
3.1100000000021386, -0.667698109848107 
3.1200000000021597, -0.6666268328248504 
3.130000000002181, -0.6654278431126287 
3.140000000002202, -0.6641672093927388 
3.150000000002223, -0.6629075693143545 
3.160000000002244, -0.6616932577251284 
3.1700000000022652, -0.6605468312627831 
3.1800000000022863, -0.6594751792758733 
3.1900000000023074, -0.6584791459143683 
3.2000000000023285, -0.6575617142889294 
3.2100000000023496, -0.6567329110098712 
3.2200000000023707, -0.6560118579980887 
3.230000000002392, -0.655427045973471 
3.240000000002413, -0.6550155552334365 
3.250000000002434, -0.6548215044181107 
3.260000000002455, -0.6548939190116605 
3.2700000000024763, -0.6552844133387288 
3.2800000000024974, -0.6560452412687218 
3.2900000000025185, -0.6572280501127155 
3.3000000000025396, -0.6588828738221426 
3.3100000000025607, -0.6610555246599257 
3.3200000000025818, -0.6637798453817747 
3.330000000002603, -0.6670601749065618 
3.340000000002624, -0.6708413262118704 
3.350000000002645, -0.6749726689631034 
3.360000000002666, -0.679190777263483 
3.3700000000026873, -0.6831563657586871 
3.3800000000027084, -0.686553788579354 
3.3900000000027295, -0.6891978545384794 
3.4000000000027506, -0.6910704245390722 
3.4100000000027717, -0.6922730934115507 
3.420000000002793, -0.6929500769574555 
3.430000000002814, -0.6932321524614581 
3.440000000002835, -0.6932127373989319 
3.450000000002856, -0.6929438825826473 
3.460000000002877, -0.6924385958559637 
3.4700000000028983, -0.6916715947085434 
3.4800000000029194, -0.6905747486880613 
3.4900000000029405, -0.6890248230663859 
3.5000000000029616, -0.6868205269311517 
3.5100000000029827, -0.683644592177987 
3.520000000003004, -0.6790097671291939 
3.530000000003025, -0.6722159065815959 
3.540000000003046, -0.6624410876520684 
3.550000000003067, -0.6492096406305511 
3.5600000000030882, -0.6332252509481058 
3.5700000000031094, -0.616680838046545 
3.5800000000031305, -0.6021742602232855 
3.5900000000031516, -0.5912185952143123 
3.6000000000031727, -0.5838829599039507 
3.6100000000031938, -0.5794144781266304 
3.620000000003215, -0.5769034336602326 
3.630000000003236, -0.5756050419544597 
3.640000000003257, -0.5750040398346437 
3.650000000003278, -0.5747751767720541 
3.6600000000032993, -0.5747241466989387 
3.6700000000033204, -0.5747384611807643 
3.6800000000033415, -0.5747533245783782 
3.6900000000033626, -0.5747300422536357 
3.7000000000033837, -0.5746435445335004 
3.710000000003405, -0.5744765618111367 
3.720000000003426, -0.5742189402821283 
3.730000000003447, -0.5738705848488321 
3.740000000003468, -0.5734452437855665 
3.750000000003489, -0.5729709452365667 
3.7600000000035103, -0.5724839071444588 
3.7700000000035314, -0.5720171429265436 
3.7800000000035525, -0.5715894262589053 
3.7900000000035736, -0.5712004700590804 
3.8000000000035947, -0.5708342645060865 
3.810000000003616, -0.5704680012578289 
3.820000000003637, -0.570081678882738 
3.830000000003658, -0.5696643545635387 
3.840000000003679, -0.5692161542598506 
3.8500000000037002, -0.5687480398069831 
3.8600000000037213, -0.5682821937590052 
3.8700000000037424, -0.56785520940114 
3.8800000000037635, -0.5675254630580444 
3.8900000000037847, -0.567385801203193 
3.9000000000038058, -0.5675828316577661 
3.910000000003827, -0.568344019455626 
3.920000000003848, -0.5700122078496618 
3.930000000003869, -0.5730813352736359 
3.94000000000389, -0.5782112666752488 
3.9500000000039113, -0.5861663441687025 
3.9600000000039324, -0.5975791040949788 
3.9700000000039535, -0.6124636998057157 
3.9800000000039746, -0.629665369303846 
3.9900000000039957, -0.6468823088905156 
4.000000000004016, -0.6617070976272659 
4.010000000003993, -0.6728765906196748 
4.02000000000397, -0.6805009535281578 
4.030000000003946, -0.6853966239430946 
4.040000000003923, -0.6884341651708735 
4.0500000000039, -0.6902722650037604 
4.0600000000038765, -0.6913420084182763 
4.070000000003853, -0.691905699095593 
4.08000000000383, -0.6921133230309624 
4.090000000003807, -0.6920396186401228 
4.100000000003783, -0.6917034524541179 
4.11000000000376, -0.6910737716628319 
4.120000000003737, -0.6900657027945818 
4.130000000003713, -0.6885315539852959 
4.14000000000369, -0.6862578237601665 
4.150000000003667, -0.6829916127152869 
4.1600000000036434, -0.6785263726360723 
4.17000000000362, -0.672844555006895 
4.180000000003597, -0.6662305989358469 
4.1900000000035735, -0.6592284439630289 
4.20000000000355, -0.6524407701187613 
4.210000000003527, -0.6463256638564356 
4.220000000003504, -0.6411196462873362 
4.23000000000348, -0.6368747856227296 
4.240000000003457, -0.6335330139675088 
4.250000000003434, -0.6309868190335082 
4.26000000000341, -0.6291147418061247 
4.270000000003387, -0.6277981981164132 
4.280000000003364, -0.6269283831366762 
4.2900000000033405, -0.6264090086567193 
4.300000000003317, -0.626157525796015 
4.310000000003294, -0.6261056366565282 
4.320000000003271, -0.6261991976651521 
4.330000000003247, -0.6263975967853873 
4.340000000003224, -0.6266728609651381 
4.350000000003201, -0.6270087338578897 
4.360000000003177, -0.627399539412236 
4.370000000003154, -0.6278479018114417 
4.380000000003131, -0.6283599027289508 
4.390000000003107, -0.6289369419637121 
4.400000000003084, -0.6295658894549818 
4.410000000003061, -0.6302121444089892 
4.4200000000030375, -0.6308214133054848 
4.430000000003014, -0.631332453283745 
4.440000000002991, -0.6316951972709945 
4.450000000002968, -0.6318835360012366 
4.460000000002944, -0.6318961958477981 
4.470000000002921, -0.6317484792795731 
4.480000000002898, -0.6314624038586503 
4.490000000002874, -0.6310608122226935 
4.500000000002851, -0.6305673649003022 
4.510000000002828, -0.6300128221358696 
4.520000000002804, -0.6294488397881827 
4.530000000002781, -0.6289723719519459 
4.540000000002758, -0.6287652247997582 
4.5500000000027345, -0.6291516821184192 
4.560000000002711, -0.6306659803033678 
4.570000000002688, -0.6340882143433795 
4.580000000002665, -0.6403421333130066 
4.590000000002641, -0.6500966617315133 
4.600000000002618, -0.6630728573336871 
4.610000000002595, -0.6776100609434074 
4.620000000002571, -0.6913165972643192 
4.630000000002548, -0.7024644860419991 
4.640000000002525, -0.7106422490663393 
4.6500000000025015, -0.7162988678312578 
4.660000000002478, -0.7200941088096144 
4.670000000002455, -0.7225898144100953 
4.6800000000024315, -0.7241934129962466 
4.690000000002408, -0.725182582664376 
4.700000000002385, -0.725738908595556 
4.710000000002362, -0.7259740221638908 
4.720000000002338, -0.7259467123694624 
4.730000000002315, -0.725671875642157 
4.740000000002292, -0.7251222793408968 
4.750000000002268, -0.7242245787781516 
4.760000000002245, -0.722853404455569 
4.770000000002222, -0.7208333741078478 
4.7800000000021985, -0.7179676317523891 
4.790000000002175, -0.7141115432801797 
4.800000000002152, -0.7092790475784531 
4.810000000002129, -0.7037114787090626 
4.820000000002105, -0.6978304270486223 
4.830000000002082, -0.6920915724032688 
4.840000000002059, -0.6868479137439907 
4.850000000002035, -0.6822988962276657 
4.860000000002012, -0.6785129121255344 
4.870000000001989, -0.6754742559934961 
4.880000000001965, -0.6731224588287664 
4.890000000001942, -0.6713762123765425 
4.900000000001919, -0.6701458532325854 
4.9100000000018955, -0.6693401482685679 
4.920000000001872, -0.668871071755566 
