t, s[1].omega / s[0].omega 
0, -0.6899976965091669 
0.009999999999999995, -0.6897648413543764 
0.019999999999999934, -0.6895195255309319 
0.029999999999999874, -0.6892433528931949 
0.04000000000000012, -0.6889164710650535 
0.050000000000000405, -0.6885268920782992 
0.06000000000000069, -0.6880756068751255 
0.07000000000000098, -0.6875775845412891 
0.08000000000000126, -0.6870616979181409 
0.09000000000000155, -0.6865725321543811 
0.10000000000000184, -0.6861752102845503 
0.11000000000000212, -0.6859625300383164 
0.12000000000000241, -0.686062439569892 
0.130000000000002, -0.686643203290337 
0.1400000000000009, -0.6879136175024396 
0.1499999999999998, -0.6901162289958036 
0.1599999999999987, -0.693511704196238 
0.1699999999999976, -0.6983504661090758 
0.1799999999999965, -0.70482254678301 
0.1899999999999954, -0.7129722926048637 
0.1999999999999943, -0.7225756657546352 
0.2099999999999932, -0.7330272189249373 
0.2199999999999921, -0.7433615174302898 
0.229999999999991, -0.7525244488768982 
0.2399999999999899, -0.7597889874452641 
0.2499999999999888, -0.7649891236940649 
0.2599999999999877, -0.7684070246903032 
0.2699999999999866, -0.7704948987453393 
0.2799999999999855, -0.771667286276619 
0.2899999999999844, -0.7722241017215398 
0.2999999999999833, -0.7723517412175035 
0.3099999999999822, -0.7721468212408985 
0.3199999999999811, -0.7716358460255439 
0.32999999999998, -0.7707827193518695 
0.3399999999999789, -0.7694823065504903 
0.3499999999999778, -0.7675386324353262 
0.35999999999997667, -0.7646252476511386 
0.36999999999997557, -0.7602262309670154 
0.37999999999997447, -0.7535671037065385 
0.38999999999997337, -0.7435915132357058 
0.39999999999997227, -0.7291711663043446 
0.40999999999997117, -0.7098748407998732 
0.41999999999997006, -0.6871704387108584 
0.42999999999996896, -0.6646112281555292 
0.43999999999996786, -0.6458880361313435 
0.44999999999996676, -0.6326823484055359 
0.45999999999996566, -0.6245434951548463 
0.46999999999996456, -0.6200716351973063 
0.47999999999996346, -0.6178848411348378 
0.48999999999996235, -0.6169756709772712 
0.49999999999996125, -0.6167121879419888 
0.5099999999999602, -0.6167322437058677 
0.519999999999959, -0.6168403822977516 
0.529999999999958, -0.6169345540411273 
0.5399999999999568, -0.6169603666233388 
0.5499999999999557, -0.6168846148182696 
0.5599999999999546, -0.6166813636383057 
0.5699999999999535, -0.6163268559783424 
0.5799999999999524, -0.6158017907668485 
0.5899999999999513, -0.6150996555035816 
0.5999999999999502, -0.6142369391883709 
0.6099999999999491, -0.6132573105930065 
0.619999999999948, -0.6122231441012047 
0.6299999999999469, -0.6111967420520734 
0.6399999999999458, -0.6102222535460903 
0.6499999999999447, -0.6093181163212588 
0.6599999999999436, -0.6084813776643918 
0.6699999999999425, -0.6076986065718248 
0.6799999999999414, -0.606957032193022 
0.6899999999999403, -0.606252167910858 
0.6999999999999392, -0.6055916043710448 
0.7099999999999381, -0.6049967749836258 
0.719999999999937, -0.604504701732177 
0.7299999999999359, -0.6041708149539813 
0.7399999999999348, -0.6040729729888867 
0.7499999999999337, -0.6043162829085429 
0.7599999999999326, -0.6050382138028343 
0.7699999999999315, -0.6064135069121251 
0.7799999999999304, -0.60865796947956 
0.7899999999999293, -0.6120283978428833 
0.7999999999999282, -0.6168111181000488 
0.8099999999999271, -0.6232827867957214 
0.819999999999926, -0.6316172479011817 
0.8299999999999249, -0.6417191297223493 
0.8399999999999238, -0.6530283388070752 
0.8499999999999227, -0.664470120160066 
0.8599999999999216, -0.6747598164640956 
0.8699999999999205, -0.6829627899431028 
0.8799999999999194, -0.6888379388661678 
0.8899999999999183, -0.6927047669392132 
0.8999999999999172, -0.6950881749112978 
0.9099999999999161, -0.696463495207484 
0.919999999999915, -0.6971701501447881 
0.9299999999999139, -0.6974182268335043 
0.9399999999999128, -0.697318509204828 
0.9499999999999117, -0.6969055410389994 
0.9599999999999106, -0.6961451364507377 
0.9699999999999095, -0.6949235918999761 
0.9799999999999084, -0.6930148565454339 
0.9899999999999073, -0.6900214684104167 
0.9999999999999062, -0.685297182514976 
1.0099999999999052, -0.6779101425447156 
1.019999999999904, -0.6668158875976886 
1.029999999999903, -0.6514595872440009 
1.039999999999902, -0.6326317647162069 
1.0499999999999008, -0.612638806864451 
1.0599999999998997, -0.5941896090553991 
1.0699999999998986, -0.5790368036855442 
1.0799999999998975, -0.567612441983966 
1.0899999999998964, -0.5594938832443519 
1.0999999999998953, -0.553960554671913 
1.1099999999998942, -0.5503129473400903 
1.119999999999893, -0.5479855581069529 
1.129999999999892, -0.5465579191173305 
1.1399999999998909, -0.5457308256678142 
1.1499999999998898, -0.5452969555987878 
1.1599999999998887, -0.5451154486870384 
1.1699999999998876, -0.5450923531767657 
1.1799999999998865, -0.5451665211320981 
1.1899999999998854, -0.5453001167338385 
1.1999999999998843, -0.5454729380653777 
1.2099999999998832, -0.5456796093495436 
1.219999999999882, -0.5459281119279743 
1.229999999999881, -0.5462373078729301 
1.2399999999998799, -0.5466309431852638 
1.2499999999998788, -0.547127061218481 
1.2599999999998777, -0.5477247743667487 
1.2699999999998766, -0.5483937467226101 
1.2799999999998755, -0.5490735962098046 
1.2899999999998744, -0.549687586447668 
1.2999999999998733, -0.5501658432513442 
1.3099999999998722, -0.5504646788599092 
1.319999999999871, -0.5505712218888046 
1.32999999999987, -0.550494517980064 
1.3399999999998689, -0.5502521944941366 
1.3499999999998678, -0.5498601591149006 
1.3599999999998666, -0.5493275802701791 
1.3699999999998655, -0.5486563482566844 
1.3799999999998644, -0.5478439157796848 
1.3899999999998633, -0.5468889788257207 
1.3999999999998622, -0.545798392404681 
1.4099999999998611, -0.5445862721456349 
1.41999999999986, -0.5432319374364183 
1.429999999999859, -0.5415117658460157 
1.4399999999998578, -0.5385954529266231 
1.4499999999998567, -0.532595152676926 
1.4599999999998556, -0.5211610312001729 
1.4699999999998545, -0.5040257712881474 
1.4799999999998534, -0.4846511972388331 
1.4899999999998523, -0.46758012434808655 
1.4999999999998512, -0.45505959515958166 
1.5099999999998501, -0.4468963274723639 
1.519999999999849, -0.44193509312742874 
1.529999999999848, -0.43904844183450287 
1.5399999999998468, -0.4374246243178532 
1.5499999999998457, -0.43654530503600597 
1.5599999999998446, -0.4360966163340832 
1.5699999999998435, -0.4358929629735641 
1.5799999999998424, -0.43582584932386004 
1.5899999999998413, -0.435832597052897 
1.5999999999998402, -0.4358783311325459 
1.6099999999998391, -0.4359464868460135 
1.619999999999838, -0.43603479343350077 
1.629999999999837, -0.43615443641815094 
1.6399999999998358, -0.4363299465038093 
1.6499999999998347, -0.43659696579221147 
1.6599999999998336, -0.43699543868043855 
1.6699999999998325, -0.4375574595731349 
1.6799999999998314, -0.4382915180802874 
1.6899999999998303, -0.43916802428004936 
1.6999999999998292, -0.4401146111860969 
1.709999999999828, -0.44102967340773364 
1.719999999999827, -0.44181244099785577 
1.729999999999826, -0.44239281257377944 
1.7399999999998248, -0.44274258767331726 
1.7499999999998237, -0.44286567639327756 
1.7599999999998226, -0.44277892529590035 
1.7699999999998215, -0.44249463398578587 
1.7799999999998204, -0.4420077042488824 
1.7899999999998193, -0.44128415898427037 
1.7999999999998182, -0.4402448749655428 
1.809999999999817, -0.4387360549123974 
1.819999999999816, -0.4364749104765151 
1.8299999999998149, -0.432961098484096 
1.8399999999998138, -0.4273788511755131 
1.8499999999998127, -0.41864038984403623 
1.8599999999998116, -0.40590527190759734 
1.8699999999998105, -0.3896417427042653 
1.8799999999998094, -0.3721208263581562 
1.8899999999998083, -0.3561576637273207 
1.8999999999998072, -0.34339579121864283 
1.909999999999806, -0.33399840710147144 
1.919999999999805, -0.3273576038487879 
1.9299999999998039, -0.32273145059295866 
1.9399999999998028, -0.319510116176101 
1.9499999999998017, -0.3172595512457753 
1.9599999999998006, -0.3156903948825112 
1.9699999999997995, -0.3146172384192185 
1.9799999999997984, -0.313926856651051 
1.9899999999997973, -0.31355749192516147 
1.9999999999997962, -0.3134873424804779 
2.0099999999998173, -0.3137304485559877 
2.0199999999998384, -0.31433918775470626 
2.0299999999998595, -0.31541373239209997 
2.0399999999998806, -0.3171197552289204 
2.0499999999999017, -0.3197156470330595 
2.059999999999923, -0.32358696336832465 
2.069999999999944, -0.3292715385793879 
2.079999999999965, -0.3374195075774724 
2.089999999999986, -0.34856427702452775 
2.100000000000007, -0.3625800109552433 
2.1100000000000283, -0.3780663328811866 
2.1200000000000494, -0.392565277476869 
2.1300000000000705, -0.40400088235851583 
2.1400000000000916, -0.4118384633544537 
2.1500000000001127, -0.41675319774907793 
2.160000000000134, -0.41970945466170695 
2.170000000000155, -0.4214607588472032 
2.180000000000176, -0.42248106579414324 
2.190000000000197, -0.42304229164237556 
2.2000000000002182, -0.42329328900878005 
2.2100000000002393, -0.4233105175352594 
2.2200000000002604, -0.42312642978691783 
2.2300000000002815, -0.42274567774290633 
2.2400000000003026, -0.42215714374224306 
2.2500000000003237, -0.42134762666891196 
2.260000000000345, -0.42031969328055874 
2.270000000000366, -0.4191095436523244 
2.280000000000387, -0.41779338059501236 
2.290000000000408, -0.41647258037421925 
2.3000000000004293, -0.4152431893755863 
2.3100000000004504, -0.41416861686390005 
2.3200000000004715, -0.41326960946727676 
2.3300000000004926, -0.41253081861615204 
2.3400000000005137, -0.4119154271951273 
2.3500000000005348, -0.4113803704936386 
2.360000000000556, -0.4108879084952485 
2.370000000000577, -0.41041184809640646 
2.380000000000598, -0.40993905511292417 
2.390000000000619, -0.4094686577863345 
2.4000000000006403, -0.4090117592341988 
2.4100000000006614, -0.408593979217483 
2.4200000000006825, -0.4082628208552606 
2.4300000000007036, -0.4081023132307474 
2.4400000000007247, -0.4082583552458055 
2.450000000000746, -0.4089778639234223 
2.460000000000767, -0.4106565845275084 
2.470000000000788, -0.41385409837059833 
2.480000000000809, -0.41912871480697156 
2.49000000000083, -0.4263775059785628 
2.5000000000008513, -0.43357585950228134 
2.5100000000008724, -0.4364357551494874 
2.5200000000008935, -0.4316951712362328 
2.5300000000009146, -0.42116645349261617 
2.5400000000009357, -0.4097409448100991 
2.550000000000957, -0.40067913747083655 
2.560000000000978, -0.39459898682518646 
2.570000000000999, -0.3908699656971576 
2.58000000000102, -0.3886958137946661 
2.5900000000010412, -0.3874725254057891 
2.6000000000010624, -0.38681020971512087 
2.6100000000010835, -0.38647332695211456 
2.6200000000011046, -0.38632375158067905 
2.6300000000011257, -0.38628201272752294 
2.6400000000011468, -0.3863039162542492 
2.650000000001168, -0.3863676023767709 
2.660000000001189, -0.38646734784470055 
2.67000000000121, -0.38661159390828304 
2.680000000001231, -0.3868230412136526 
2.6900000000012523, -0.3871383729144401 
2.7000000000012734, -0.3876049170133977 
2.7100000000012945, -0.3882719917737868 
2.7200000000013156, -0.38917584941999694 
2.7300000000013367, -0.3903192936788834 
2.740000000001358, -0.39165197139826075 
2.750000000001379, -0.3930648764916377 
2.7600000000014, -0.3944130859542403 
2.770000000001421, -0.3955621468718226 
2.780000000001442, -0.3964290886729736 
2.7900000000014633, -0.3969917745702294 
2.8000000000014844, -0.3972690579580017 
2.8100000000015055, -0.39729240238261904 
2.8200000000015266, -0.3970836746972133 
2.8300000000015477, -0.3966407664519121 
2.840000000001569, -0.3959257485750614 
2.85000000000159, -0.39484915996631426 
2.860000000001611, -0.3932456897362345 
2.870000000001632, -0.390842805917113 
2.8800000000016532, -0.387244437522941 
2.8900000000016743, -0.38199629264840573 
2.9000000000016954, -0.3748278593862553 
2.9100000000017165, -0.3660258123313235 
2.9200000000017377, -0.3565613730851584 
2.9300000000017588, -0.3476487306377652 
2.94000000000178, -0.34011799685245536 
2.950000000001801, -0.3342044890481877 
2.960000000001822, -0.32974467033155647 
2.970000000001843, -0.3264351480489066 
2.9800000000018643, -0.3239829289537536 
2.9900000000018854, -0.3221574109804463 
3.0000000000019065, -0.3207947007708481 
3.0100000000019276, -0.3197868964217242 
3.0200000000019487, -0.31907028781991115 
3.03000000000197, -0.3186171210765583 
3.040000000001991, -0.31843223645367125 
3.050000000002012, -0.3185552469651525 
3.060000000002033, -0.31906948873427116 
3.070000000002054, -0.32012026039877334 
3.0800000000020753, -0.32194667450582976 
3.0900000000020964, -0.324932963358133 
3.1000000000021175, -0.3296825482909314 
3.1100000000021386, -0.3370982712770122 
3.1200000000021597, -0.34838004931888467 
3.130000000002181, -0.364684471663723 
3.140000000002202, -0.3860767970506517 
3.150000000002223, -0.4101120523496694 
3.160000000002244, -0.43215958573532937 
3.1700000000022652, -0.44858067266638024 
3.1800000000022863, -0.4589940188113105 
3.1900000000023074, -0.465067820554349 
3.2000000000023285, -0.4685610315662334 
3.2100000000023496, -0.4706183327841192 
3.2200000000023707, -0.47186356421894204 
3.230000000002392, -0.4726203206019094 
3.240000000002413, -0.4730576298252601 
3.250000000002434, -0.4732645402585107 
3.260000000002455, -0.47328554124509353 
3.2700000000024763, -0.4731376156861226 
3.2800000000024974, -0.4728198395509941 
3.2900000000025185, -0.472321692797784 
3.3000000000025396, -0.4716339290984838 
3.3100000000025607, -0.4707628520730417 
3.3200000000025818, -0.4697434360520739 
3.330000000002603, -0.4686418956115781 
3.340000000002624, -0.46754150671607225 
3.350000000002645, -0.466517724742713 
3.360000000002666, -0.4656173504725145 
3.3700000000026873, -0.46485175072556795 
3.3800000000027084, -0.464203344666121 
3.3900000000027295, -0.4636388307083889 
3.4000000000027506, -0.4631227665276644 
3.4100000000027717, -0.46262733060673583 
3.420000000002793, -0.4621368989803562 
3.430000000002814, -0.4616488281944286 
3.440000000002835, -0.46117333239471997 
3.450000000002856, -0.46073530106490496 
3.460000000002877, -0.46038037837220747 
3.4700000000028983, -0.4601877259769266 
3.4800000000029194, -0.4602930344040207 
3.4900000000029405, -0.46092730110675656 
3.5000000000029616, -0.46247826123071417 
3.5100000000029827, -0.46557667662818164 
3.520000000003004, -0.4711814784277508 
3.530000000003025, -0.480545965906949 
3.540000000003046, -0.49476545469543 
3.550000000003067, -0.5135806207846023 
3.5600000000030882, -0.5340916083580991 
3.5700000000031094, -0.5517174567935307 
3.5800000000031305, -0.5636968787330919 
3.5900000000031516, -0.5706398921263529 
3.6000000000031727, -0.574564838398371 
3.6100000000031938, -0.5769945090240172 
3.620000000003215, -0.5786649095418335 
3.630000000003236, -0.5798713408307103 
3.640000000003257, -0.5807390805163564 
3.650000000003278, -0.5813368632730314 
3.6600000000032993, -0.5817108560845963 
3.6700000000033204, -0.5818917454499424 
3.6800000000033415, -0.5818950719694279 
3.6900000000033626, -0.5817206473487361 
3.7000000000033837, -0.5813529297178226 
3.710000000003405, -0.5807642774364796 
3.720000000003426, -0.5799239307770259 
3.730000000003447, -0.578814648930855 
3.740000000003468, -0.5774533114626792 
3.750000000003489, -0.5759031244866653 
3.7600000000035103, -0.5742639974721748 
3.7700000000035314, -0.572642491691177 
3.7800000000035525, -0.5711203055474432 
3.7900000000035736, -0.5697395231958737 
3.8000000000035947, -0.5685070882472758 
3.810000000003616, -0.5674094026540261 
3.820000000003637, -0.5664274380631978 
3.830000000003658, -0.565547434790117 
3.840000000003679, -0.5647666197218493 
3.8500000000037002, -0.564095671993062 
3.8600000000037213, -0.5635600541487569 
3.8700000000037424, -0.5632016600856825 
3.8800000000037635, -0.5630814233877198 
3.8900000000037847, -0.5632830637152323 
3.9000000000038058, -0.5639180399730281 
3.910000000003827, -0.565131769261744 
3.920000000003848, -0.5671107944743162 
3.930000000003869, -0.5700890200120252 
3.94000000000389, -0.5743469608705364 
3.9500000000039113, -0.5801892914953645 
3.9600000000039324, -0.5878730770387837 
3.9700000000039535, -0.597454034140646 
3.9800000000039746, -0.6085611809588234 
3.9900000000039957, -0.6202455367862351 
4.000000000004016, -0.6311690116714542 
4.010000000003993, -0.6401773409457039 
4.02000000000397, -0.646801485697763 
4.030000000003946, -0.6512486118475294 
4.040000000003923, -0.6540400147606134 
4.0500000000039, -0.6556935607460582 
4.0600000000038765, -0.6565946376196508 
4.070000000003853, -0.6569891680198982 
4.08000000000383, -0.6570143548812996 
4.090000000003807, -0.6567265218229511 
4.100000000003783, -0.6561143537961973 
4.11000000000376, -0.6550954293060367 
4.120000000003737, -0.6534951476387308 
4.130000000003713, -0.6510090519090042 
4.14000000000369, -0.6471627642942986 
4.150000000003667, -0.6413232974386875 
4.1600000000036434, -0.6328743709343694 
4.17000000000362, -0.6216357033221243 
4.180000000003597, -0.6083043291805741 
4.1900000000035735, -0.5943818206838237 
4.20000000000355, -0.5814668451547855 
4.210000000003527, -0.5705705707178566 
4.220000000003504, -0.5619806733325164 
4.23000000000348, -0.5555129546021131 
4.240000000003457, -0.5507966695173689 
4.250000000003434, -0.5474453587346298 
4.26000000000341, -0.5451259074596 
4.270000000003387, -0.5435735134482356 
4.280000000003364, -0.5425856134889069 
4.2900000000033405, -0.5420105054361885 
4.300000000003317, -0.5417364972836258 
4.310000000003294, -0.5416831244166063 
4.320000000003271, -0.5417945239599068 
4.330000000003247, -0.5420347448216748 
4.340000000003224, -0.5423847452794679 
4.350000000003201, -0.542840645177445 
4.360000000003177, -0.5434122458628861 
4.370000000003154, -0.5441200042064991 
4.380000000003131, -0.5449881077390528 
4.390000000003107, -0.5460319485260902 
4.400000000003084, -0.5472409758063731 
4.410000000003061, -0.5485629333606099 
4.4200000000030375, -0.5499008637458572 
4.430000000003014, -0.5511328384787282 
4.440000000002991, -0.5521494508661521 
4.450000000002968, -0.5528862685331813 
4.460000000002944, -0.5533308667629575 
4.470000000002921, -0.5535061205583022 
4.480000000002898, -0.5534463608283934 
4.490000000002874, -0.5531791348508702 
4.500000000002851, -0.5527148812855411 
4.510000000002828, -0.5520408938775403 
4.520000000002804, -0.5511146917911438 
4.530000000002781, -0.5498514267432522 
4.540000000002758, -0.5480968794556204 
4.5500000000027345, -0.5455689866980018 
4.560000000002711, -0.5417363285263653 
4.570000000002688, -0.5356048027398514 
4.580000000002665, -0.5255155506003587 
4.590000000002641, -0.5095006571910424 
4.600000000002618, -0.48699285721009283 
4.610000000002595, -0.46081364207795267 
4.620000000002571, -0.43603910431911796 
4.630000000002548, -0.4163174859856783 
4.640000000002525, -0.4023490431479161 
4.6500000000025015, -0.39308455144068716 
4.660000000002478, -0.3871298345088085 
4.670000000002455, -0.3833530332192889 
4.6800000000024315, -0.38097532092067715 
4.690000000002408, -0.37949564613620745 
4.700000000002385, -0.37860032308004704 
4.710000000002362, -0.3780954481107075 
4.720000000002338, -0.37786301006341716 
4.730000000002315, -0.37783413487003814 
4.740000000002292, -0.3779736059172688 
4.750000000002268, -0.37827172432516687 
4.760000000002245, -0.3787410039675998 
4.770000000002222, -0.379415839755355 
4.7800000000021985, -0.38035313799175297 
4.790000000002175, -0.3816309628182589 
4.800000000002152, -0.38334048003175486 
4.810000000002129, -0.3855641663871416 
4.820000000002105, -0.3883332727333237 
4.830000000002082, -0.39156866727689355 
4.840000000002059, -0.395039294620716 
4.850000000002035, -0.39839723124342963 
4.860000000002012, -0.40130447463671215 
4.870000000001989, -0.4035646850194829 
4.880000000001965, -0.4051563821966845 
4.890000000001942, -0.40617062967363154 
4.900000000001919, -0.4067297963026326 
