t, s[1].omega / s[0].omega 
0, -1.4899959968149545 
0.009999999999999995, -1.4893446476703849 
0.019999999999999934, -1.4881950686170793 
0.029999999999999874, -1.486543841484371 
0.04000000000000012, -1.4843859630576033 
0.050000000000000405, -1.48171614820148 
0.06000000000000069, -1.4785307130845098 
0.07000000000000098, -1.4748304612483165 
0.08000000000000126, -1.470626170690073 
0.09000000000000155, -1.4659503834184255 
0.10000000000000184, -1.4608804894271972 
0.11000000000000212, -1.4555740203614078 
0.12000000000000241, -1.45030282663114 
0.130000000000002, -1.4454518586613039 
0.1400000000000009, -1.44144288517892 
0.1499999999999998, -1.4385859138085875 
0.1599999999999987, -1.436940261703538 
0.1699999999999976, -1.4362924558960117 
0.1799999999999965, -1.4362672194280135 
0.1899999999999954, -1.4364768016150322 
0.1999999999999943, -1.4366106001834869 
0.2099999999999932, -1.4364433550903668 
0.2199999999999921, -1.43579318453323 
0.229999999999991, -1.434460789110419 
0.2399999999999899, -1.432159075814842 
0.2499999999999888, -1.4284229208518828 
0.2599999999999877, -1.4224750879350445 
0.2699999999999866, -1.4130122838614085 
0.2799999999999855, -1.3978659954451889 
0.2899999999999844, -1.3735053449355117 
0.2999999999999833, -1.3344472498624569 
0.3099999999999822, -1.2729619198102577 
0.3199999999999811, -1.180133866855851 
0.32999999999998, -1.0498728016494143 
0.3399999999999789, -0.8857978748349883 
0.3499999999999778, -0.7055641175432538 
0.35999999999997667, -0.5348589393980264 
0.36999999999997557, -0.39366116238457716 
0.37999999999997447, -0.28823988524779154 
0.38999999999997337, -0.2142838506350616 
0.39999999999997227, -0.16382422883116757 
0.40999999999997117, -0.12954125369027347 
0.41999999999997006, -0.10603093501951194 
0.42999999999996896, -0.08965163430719307 
0.43999999999996786, -0.07803513529967741 
0.44999999999996676, -0.06965429618723908 
0.45999999999996566, -0.06351992034791246 
0.46999999999996456, -0.05898528963857342 
0.47999999999996346, -0.055624033582663886 
0.48999999999996235, -0.0531545766757436 
0.49999999999996125, -0.05139357966110339 
0.5099999999999602, -0.05022757589960697 
0.519999999999959, -0.04959642468159006 
0.529999999999958, -0.0494850078782813 
0.5399999999999568, -0.049921454013284405 
0.5499999999999557, -0.05098157748267562 
0.5599999999999546, -0.05280055506103815 
0.5699999999999535, -0.05559450215225717 
0.5799999999999524, -0.059697033443185825 
0.5899999999999513, -0.06561980303133431 
0.5999999999999502, -0.07415247796614581 
0.6099999999999491, -0.08652794170471025 
0.619999999999948, -0.1046932435017059 
0.6299999999999469, -0.13174050926619593 
0.6399999999999458, -0.1725362350948606 
0.6499999999999447, -0.23444617590650704 
0.6599999999999436, -0.3275655980686831 
0.6699999999999425, -0.4628525217235712 
0.6799999999999414, -0.6459528920964648 
0.6899999999999403, -0.8675400186303391 
0.6999999999999392, -1.0986756084000395 
0.7099999999999381, -1.3020050409682646 
0.719999999999937, -1.4537853294707241 
0.7299999999999359, -1.5535105158022144 
0.7399999999999348, -1.614088408723766 
0.7499999999999337, -1.6495258923750995 
0.7599999999999326, -1.6699848651200349 
0.7699999999999315, -1.681750873826512 
0.7799999999999304, -1.6884631909299948 
0.7899999999999293, -1.6921810818246845 
0.7999999999999282, -1.6940676564205175 
0.8099999999999271, -1.6947889682294717 
0.819999999999926, -1.6947443344184798 
0.8299999999999249, -1.6942057830238353 
0.8399999999999238, -1.6934070881564702 
0.8499999999999227, -1.6925906601142051 
0.8599999999999216, -1.6919992224647862 
0.8699999999999205, -1.6918115542745105 
0.8799999999999194, -1.6920723861322877 
0.8899999999999183, -1.6926902778825264 
0.8999999999999172, -1.6935131741082872 
0.9099999999999161, -1.694411588841283 
0.919999999999915, -1.69530628781929 
0.9299999999999139, -1.6961428978076578 
0.9399999999999128, -1.6968560837600688 
0.9499999999999117, -1.6973550040218086 
0.9599999999999106, -1.6975287304232785 
0.9699999999999095, -1.6972525957953906 
0.9799999999999084, -1.696382682996038 
0.9899999999999073, -1.6947382540434057 
0.9999999999999062, -1.6920770048350062 
1.0099999999999052, -1.6880664304742161 
1.019999999999904, -1.6822515499787467 
1.029999999999903, -1.6740174312778366 
1.039999999999902, -1.6625456889383738 
1.0499999999999008, -1.6467709941819466 
1.0599999999998997, -1.6253657852367696 
1.0699999999998986, -1.596834233988737 
1.0799999999998975, -1.5598869021966415 
1.0899999999998964, -1.5143244471298232 
1.0999999999998953, -1.4624025265183997 
1.1099999999998942, -1.4097453130017625 
1.119999999999893, -1.364063975164824 
1.129999999999892, -1.3314560701172353 
1.1399999999998909, -1.3133035326562281 
1.1499999999998898, -1.306603977898867 
1.1599999999998887, -1.3067178298586832 
1.1699999999998876, -1.3097488513607458 
1.1799999999998865, -1.3133497691393976 
1.1899999999998854, -1.3164507517615822 
1.1999999999998843, -1.3187161960661815 
1.2099999999998832, -1.3201296750222111 
1.219999999999882, -1.3207640122052196 
1.229999999999881, -1.3206743746957674 
1.2399999999998799, -1.3198500784388338 
1.2499999999998788, -1.3181847488040548 
1.2599999999998777, -1.315443099927342 
1.2699999999998766, -1.3112137898100344 
1.2799999999998755, -1.3048492795911877 
1.2899999999998744, -1.2954202715545564 
1.2999999999998733, -1.2817815712734972 
1.3099999999998722, -1.2629949952531014 
1.319999999999871, -1.2395718633523234 
1.32999999999987, -1.216055639043763 
1.3399999999998689, -1.2048238272718788 
1.3499999999998678, -1.2292598972860374 
1.3599999999998666, -1.3212984922470796 
1.3699999999998655, -1.5017120194909188 
1.3799999999998644, -1.7377503220185808 
1.3899999999998633, -1.9452877325337983 
1.3999999999998622, -2.0779452409825727 
1.4099999999998611, -2.149751134461613 
1.41999999999986, -2.186857849091387 
1.429999999999859, -2.206148263096049 
1.4399999999998578, -2.2163080642908635 
1.4499999999998567, -2.2216107647097236 
1.4599999999998556, -2.2241858181210556 
1.4699999999998545, -2.2251240459436805 
1.4799999999998534, -2.2250039414482328 
1.4899999999998523, -2.2241510927181425 
1.4999999999998512, -2.222765151451532 
1.5099999999998501, -2.2209639795985643 
1.519999999999849, -2.2187872419602908 
1.529999999999848, -2.2162453138011853 
1.5399999999998468, -2.2134806154093947 
1.5499999999998457, -2.210933914941546 
1.5599999999998446, -2.2092111341313116 
1.5699999999998435, -2.2085778761926584 
1.5799999999998424, -2.2086802976915183 
1.5899999999998413, -2.2088816611070503 
1.5999999999998402, -2.2086589856404175 
1.6099999999998391, -2.2076247514377636 
1.619999999999838, -2.205311290390472 
1.629999999999837, -2.2008791730940827 
1.6399999999998358, -2.192807552207007 
1.6499999999998347, -2.179063476312666 
1.6599999999998336, -2.16027251474873 
1.6699999999998325, -2.1499318460840158 
1.6799999999998314, -2.176016111211675 
1.6899999999998303, -2.24013289411901 
1.6999999999998292, -2.3056442424286527 
1.709999999999828, -2.3507289363026564 
1.719999999999827, -2.3773869584419134 
1.729999999999826, -2.3926216856831424 
1.7399999999998248, -2.401330046682984 
1.7499999999998237, -2.406233565236108 
1.7599999999998226, -2.4087749270916916 
1.7699999999998215, -2.4097123081242624 
1.7799999999998204, -2.4094249739210754 
1.7899999999998193, -2.4080570703265876 
1.7999999999998182, -2.4055726782412874 
1.809999999999817, -2.401751032788489 
1.819999999999816, -2.3961470974103265 
1.8299999999998149, -2.3881337604510384 
1.8399999999998138, -2.377392117974608 
1.8499999999998127, -2.365307647291228 
1.8599999999998116, -2.355982688457514 
1.8699999999998105, -2.3529158337755836 
1.8799999999998094, -2.3546086833593143 
1.8899999999998083, -2.357381272889321 
1.8999999999998072, -2.359300313463803 
1.909999999999806, -2.3600174216130685 
1.919999999999805, -2.3596359229511727 
1.9299999999998039, -2.3582478626646113 
1.9399999999998028, -2.355997900502386 
1.9499999999998017, -2.353559180297116 
1.9599999999998006, -2.352693996435742 
1.9699999999997995, -2.3553903215728225 
1.9799999999997984, -2.3613759694163616 
1.9899999999997973, -2.368192951187194 
1.9999999999997962, -2.373904212197826 
2.0099999999998173, -2.3780160050016526 
2.0199999999998384, -2.3807383575068313 
2.0299999999998595, -2.3823513027363563 
2.0399999999998806, -2.3830041573385263 
2.0499999999999017, -2.382699832836572 
2.059999999999923, -2.381287668915183 
2.069999999999944, -2.378404214225505 
2.079999999999965, -2.3733294416123463 
2.089999999999986, -2.364685267219661 
2.100000000000007, -2.349811904337242 
2.1100000000000283, -2.3235544247438704 
2.1200000000000494, -2.276556767484106 
2.1300000000000705, -2.196611926417095 
2.1400000000000916, -2.0864264171359483 
2.1500000000001127, -1.9926322200820241 
2.160000000000134, -1.9640925898656396 
2.170000000000155, -1.9832425392824196 
2.180000000000176, -2.0101495101375 
2.190000000000197, -2.0289377822442547 
2.2000000000002182, -2.0396380663655096 
2.2100000000002393, -2.0452398216641523 
2.2200000000002604, -2.047926918882965 
2.2300000000002815, -2.0489168877299737 
2.2400000000003026, -2.0488497886508314 
2.2500000000003237, -2.0481049594083345 
2.260000000000345, -2.0470332127205384 
2.270000000000366, -2.0461126969348484 
2.280000000000387, -2.045912426540054 
2.290000000000408, -2.046776623693875 
2.3000000000004293, -2.04853471288119 
2.3100000000004504, -2.050660030312842 
2.3200000000004715, -2.052681380092164 
2.3300000000004926, -2.054375600919609 
2.3400000000005137, -2.0556889250113235 
2.3500000000005348, -2.05659841986806 
2.360000000000556, -2.057041642755873 
2.370000000000577, -2.056905484514856 
2.380000000000598, -2.056018332301519 
2.390000000000619, -2.054112913658285 
2.4000000000006403, -2.0507506952093433 
2.4100000000006614, -2.0451940114305227 
2.4200000000006825, -2.036188291199337 
2.4300000000007036, -2.0215829461485617 
2.4400000000007247, -1.9976940565712162 
2.450000000000746, -1.9584152450961343 
2.460000000000767, -1.8948134822203382 
2.470000000000788, -1.7983293126669821 
2.480000000000809, -1.672602380698535 
2.49000000000083, -1.5458709230650955 
2.5000000000008513, -1.4552348262998525 
2.5100000000008724, -1.4138875059051415 
2.5200000000008935, -1.4086178653099426 
2.5300000000009146, -1.4197842840607784 
2.5400000000009357, -1.4341897896979192 
2.550000000000957, -1.446278447574534 
2.560000000000978, -1.4549005447403456 
2.570000000000999, -1.4605441848631224 
2.58000000000102, -1.46399602543011 
2.5900000000010412, -1.4659010351135067 
2.6000000000010624, -1.466688950471532 
2.6100000000010835, -1.4666065371939963 
2.6200000000011046, -1.4657651285007824 
2.6300000000011257, -1.4641866157956571 
2.6400000000011468, -1.4618635503581512 
2.650000000001168, -1.4588724678723335 
2.660000000001189, -1.4555964924303535 
2.67000000000121, -1.4530784211156862 
2.680000000001231, -1.4533362035649222 
2.6900000000012523, -1.4591301747410965 
2.7000000000012734, -1.4726849341842376 
2.7100000000012945, -1.493950940343507 
2.7200000000013156, -1.5201607181187653 
2.7300000000013367, -1.547371478086495 
2.740000000001358, -1.5724300059119842 
2.750000000001379, -1.5937658463458033 
2.7600000000014, -1.6110777760665913 
2.770000000001421, -1.6247205265907505 
2.780000000001442, -1.6352604818027119 
2.7900000000014633, -1.6432585052541662 
2.8000000000014844, -1.64919559481913 
2.8100000000015055, -1.653463099064779 
2.8200000000015266, -1.6563742466755895 
2.8300000000015477, -1.6581787862995394 
2.840000000001569, -1.6590752986472468 
2.85000000000159, -1.6592211096855556 
2.860000000001611, -1.658741323635114 
2.870000000001632, -1.657738044977008 
2.8800000000016532, -1.6562991660186013 
2.8900000000016743, -1.6545042142167157 
2.9000000000016954, -1.6524251353196906 
2.9100000000017165, -1.6501252672150406 
2.9200000000017377, -1.6476675556649072 
2.9300000000017588, -1.645141785600335 
2.94000000000178, -1.6427005363118898 
2.950000000001801, -1.6405655448122063 
2.960000000001822, -1.6389649715051728 
2.970000000001843, -1.6380173332071652 
2.9800000000018643, -1.6376507988239657 
2.9900000000018854, -1.6376320078572295 
3.0000000000019065, -1.6376694792622295 
3.0100000000019276, -1.6374952834516385 
3.0200000000019487, -1.6368756054658296 
3.03000000000197, -1.6355625850935696 
3.040000000001991, -1.633209241109579 
3.050000000002012, -1.6292441230116337 
3.060000000002033, -1.6226703645759084 
3.070000000002054, -1.6117188903233302 
3.0800000000020753, -1.5932460780246869 
3.0900000000020964, -1.5617571531028398 
3.1000000000021175, -1.5081289630434842 
3.1100000000021386, -1.4189718242498124 
3.1200000000021597, -1.2795247458878884 
3.130000000002181, -1.083573168520086 
3.140000000002202, -0.8460231869171921 
3.150000000002223, -0.602700676809545 
3.160000000002244, -0.3917591019328051 
3.1700000000022652, -0.23319177437492963 
3.1800000000022863, -0.12518804722287447 
3.1900000000023074, -0.05520276233338905 
3.2000000000023285, -0.010393547269057272 
3.2100000000023496, 0.018103235146714285 
3.2200000000023707, 0.03654891037548157 
3.230000000002392, 0.04881895104402475 
3.240000000002413, 0.0571180187595644 
3.250000000002434, 0.06279131545394227 
3.260000000002455, 0.06667311066116946 
3.2700000000024763, 0.06928890832327471 
3.2800000000024974, 0.07097243662224911 
3.2900000000025185, 0.07193364473901974 
3.3000000000025396, 0.0722980692835712 
3.3100000000025607, 0.0721287503146638 
3.3200000000025818, 0.07143658837628113 
3.330000000002603, 0.07018180978709863 
3.340000000002624, 0.06826691632554344 
3.350000000002645, 0.0655193684796786 
3.360000000002666, 0.061659617790910864 
3.3700000000026873, 0.056246198241491595 
3.3800000000027084, 0.04858347932740295 
3.3900000000027295, 0.03756869694533049 
3.4000000000027506, 0.021444914560335596 
3.4100000000027717, -0.002506972744911289 
3.420000000002793, -0.037962219498201354 
3.430000000002814, -0.09160437942110329 
3.440000000002835, -0.17029774227851632 
3.450000000002856, -0.27809040004209 
3.460000000002877, -0.4100629028295925 
3.4700000000028983, -0.5502238984949017 
3.4800000000029194, -0.6809484203678541 
3.4900000000029405, -0.7971366982799992 
3.5000000000029616, -0.9096670164995349 
3.5100000000029827, -1.0343468488776073 
3.520000000003004, -1.1752336041727036 
3.530000000003025, -1.3167448131525041 
3.540000000003046, -1.4353415005286656 
3.550000000003067, -1.5190106782334303 
3.5600000000030882, -1.5712601184584754 
3.5700000000031094, -1.6017926776659985 
3.5800000000031305, -1.6191537585266866 
3.5900000000031516, -1.6289302956965515 
3.6000000000031727, -1.6343641337646666 
3.6100000000031938, -1.6372525455626212 
3.620000000003215, -1.6385791464977997 
3.630000000003236, -1.6388853078608168 
3.640000000003257, -1.6384846177617627 
3.650000000003278, -1.637601595371769 
3.6600000000032993, -1.6364822493762101 
3.6700000000033204, -1.6354836297875393 
3.6800000000033415, -1.63509416878604 
3.6900000000033626, -1.635808080690806 
3.7000000000033837, -1.6378740152724236 
3.710000000003405, -1.641122801957702 
3.720000000003426, -1.6450625337780034 
3.730000000003447, -1.64914825963285 
3.740000000003468, -1.6529849295956403 
3.750000000003489, -1.6563660629989936 
3.7600000000035103, -1.6592140907982598 
3.7700000000035314, -1.6615102683887422 
3.7800000000035525, -1.66325204986127 
3.7900000000035736, -1.6644359601186869 
3.8000000000035947, -1.665052579145083 
3.810000000003616, -1.6650845005849708 
3.820000000003637, -1.6645042435596122 
3.830000000003658, -1.6632718799789075 
3.840000000003679, -1.6613324197629522 
3.8500000000037002, -1.6586126741983787 
3.8600000000037213, -1.655017298991077 
3.8700000000037424, -1.6504242108441938 
3.8800000000037635, -1.6446809594308955 
3.8900000000037847, -1.6376072030188507 
3.9000000000038058, -1.6290163527632096 
3.910000000003827, -1.618782260947518 
3.920000000003848, -1.606985230515168 
3.930000000003869, -1.5941423031982795 
3.94000000000389, -1.5814067406534777 
3.9500000000039113, -1.5704426882225746 
3.9600000000039324, -1.5627476762174026 
3.9700000000039535, -1.558796451032159 
3.9800000000039746, -1.5578429877185098 
3.9900000000039957, -1.558562290206245 
4.000000000004016, -1.5598009650834461 
4.010000000003993, -1.5608679883947598 
4.02000000000397, -1.5614446577017755 
4.030000000003946, -1.5613936057619402 
4.040000000003923, -1.5606068879430506 
4.0500000000039, -1.5589026368872405 
4.0600000000038765, -1.5559372852861657 
4.070000000003853, -1.5511023408361766 
4.08000000000383, -1.5433993290894932 
4.090000000003807, -1.5313677797012852 
4.100000000003783, -1.513390220259919 
4.11000000000376, -1.4892584150243156 
4.120000000003737, -1.4643987889919305 
4.130000000003713, -1.4564101603487831 
4.14000000000369, -1.496459908471025 
4.150000000003667, -1.6103197334413315 
4.1600000000036434, -1.7793550201422168 
4.17000000000362, -1.9404441565838393 
4.180000000003597, -2.0520270652837675 
4.1900000000035735, -2.1173129105857 
4.20000000000355, -2.1534273844542526 
4.210000000003527, -2.1733298259442453 
4.220000000003504, -2.1843758241658886 
4.23000000000348, -2.1904583298140956 
4.240000000003457, -2.1936349943837157 
4.250000000003434, -2.1950126070559266 
4.26000000000341, -2.1951979211668307 
4.270000000003387, -2.194531250080003 
4.280000000003364, -2.1932100780199915 
4.2900000000033405, -2.1913458938888173 
4.300000000003317, -2.188977914941645 
4.310000000003294, -2.186097008920319 
4.320000000003271, -2.1827643141733843 
4.330000000003247, -2.179327470593849 
4.340000000003224, -2.176496783851504 
4.350000000003201, -2.174937581174151 
4.360000000003177, -2.174650309426884 
4.370000000003154, -2.1749906514142174 
4.380000000003131, -2.1752452623843737 
4.390000000003107, -2.1749403632201885 
4.400000000003084, -2.1737316077490836 
4.410000000003061, -2.171157421425805 
4.4200000000030375, -2.166391367768394 
4.430000000003014, -2.1581175467566314 
4.440000000002991, -2.145329734099809 
4.450000000002968, -2.1315628723015085 
4.460000000002944, -2.132286836044531 
4.470000000002921, -2.1653271081587806 
4.480000000002898, -2.220071900013993 
4.490000000002874, -2.26948040267025 
4.500000000002851, -2.3029761071075714 
4.510000000002828, -2.3233898823609547 
4.520000000002804, -2.3355309007421816 
4.530000000002781, -2.34271333291602 
4.540000000002758, -2.3468447247742 
4.5500000000027345, -2.3489768138972527 
4.560000000002711, -2.349678335967265 
4.570000000002688, -2.3492336848531603 
4.580000000002665, -2.3477377152562546 
4.590000000002641, -2.3451287792538547 
4.600000000002618, -2.341176285148986 
4.610000000002595, -2.335441637025101 
4.620000000002571, -2.327310792891011 
4.630000000002548, -2.3164121919623786 
4.640000000002525, -2.30385633203644 
4.6500000000025015, -2.2934006747684412 
4.660000000002478, -2.288956546535628 
4.670000000002455, -2.289922808012746 
4.6800000000024315, -2.2926972480457084 
4.690000000002408, -2.2949178202657143 
4.700000000002385, -2.295978749123346 
4.710000000002362, -2.295928644387268 
4.720000000002338, -2.294862012179512 
4.730000000002315, -2.292844442931511 
4.740000000002292, -2.2902189299129994 
4.750000000002268, -2.2882411678701406 
4.760000000002245, -2.289157059291344 
4.770000000002222, -2.29419052595359 
4.7800000000021985, -2.3016758844380836 
4.790000000002175, -2.3089371389604088 
4.800000000002152, -2.3146144425807784 
4.810000000002129, -2.3186044425394754 
4.820000000002105, -2.321217227764507 
4.830000000002082, -2.32272663712648 
4.840000000002059, -2.323267702513496 
4.850000000002035, -2.322840725846523 
4.860000000002012, -2.32130533566401 
4.870000000001989, -2.3183317793179596 
4.880000000001965, -2.313288159401932 
4.890000000001942, -2.3050131988849656 
4.900000000001919, -2.291373777076211 
4.9100000000018955, -2.268487173924382 
4.920000000001872, -2.229865947688335 
4.930000000001849, -2.168022254857361 
4.940000000001826, -2.0861258221832584 
