t, s[1].omega / s[0].omega 
0, -0.6799977006592338 
0.009999999999999995, -0.6797711921172894 
0.019999999999999934, -0.6795423407974952 
0.029999999999999874, -0.6792885426922983 
0.04000000000000012, -0.6789847673608552 
0.050000000000000405, -0.6786146200699072 
0.06000000000000069, -0.6781764973693765 
0.07000000000000098, -0.6776847363990506 
0.08000000000000126, -0.6771693166815653 
0.09000000000000155, -0.6766777713063189 
0.10000000000000184, -0.6762809238276731 
0.11000000000000212, -0.6760819687335622 
0.12000000000000241, -0.6762269380797266 
0.130000000000002, -0.6769136630886674 
0.1400000000000009, -0.6783960100832319 
0.1499999999999998, -0.6809804286444991 
0.1599999999999987, -0.6850116675133513 
0.1699999999999976, -0.6908415103977477 
0.1799999999999965, -0.698766607387943 
0.1899999999999954, -0.7089129498675831 
0.1999999999999943, -0.7210556052723965 
0.2099999999999932, -0.7344326320145169 
0.2199999999999921, -0.7477417864703 
0.229999999999991, -0.7595202090225682 
0.2399999999999899, -0.7687649549539533 
0.2499999999999888, -0.7752791496313836 
0.2599999999999877, -0.7794876506343205 
0.2699999999999866, -0.7820232374849977 
0.2799999999999855, -0.7834410539287296 
0.2899999999999844, -0.7841287588065567 
0.2999999999999833, -0.7843208710441922 
0.3099999999999822, -0.7841371006339676 
0.3199999999999811, -0.7836109421723997 
0.32999999999998, -0.7827003220360198 
0.3399999999999789, -0.7812790909590398 
0.3499999999999778, -0.7791072613654907 
0.35999999999997667, -0.7757749860764241 
0.36999999999997557, -0.7706141163979521 
0.37999999999997447, -0.7625812397105409 
0.38999999999997337, -0.750174797147838 
0.39999999999997227, -0.7316502398823422 
0.40999999999997117, -0.7060951689732012 
0.41999999999997006, -0.6753625905496845 
0.42999999999996896, -0.6445753653558083 
0.43999999999996786, -0.619117034491603 
0.44999999999996676, -0.6012906543795552 
0.45999999999996566, -0.5903084834424801 
0.46999999999996456, -0.5841737385597103 
0.47999999999996346, -0.5810307901282937 
0.48999999999996235, -0.5795758379898802 
0.49999999999996125, -0.5790060646220316 
0.5099999999999602, -0.5788620850258794 
0.519999999999959, -0.5788925295540338 
0.529999999999958, -0.5789630571863189 
0.5399999999999568, -0.5790011817875705 
0.5499999999999557, -0.5789648011658752 
0.5599999999999546, -0.5788256954905335 
0.5699999999999535, -0.5785630909476736 
0.5799999999999524, -0.5781648057249369 
0.5899999999999513, -0.5776335493460779 
0.5999999999999502, -0.5769935376870119 
0.6099999999999491, -0.576290398583987 
0.619999999999948, -0.5755801955535339 
0.6299999999999469, -0.5749115670912329 
0.6399999999999458, -0.5743108190935233 
0.6499999999999447, -0.5737774156288669 
0.6599999999999436, -0.5732903655218456 
0.6699999999999425, -0.572820741195118 
0.6799999999999414, -0.5723440155365493 
0.6899999999999403, -0.5718477869403242 
0.6999999999999392, -0.5713344387908339 
0.7099999999999381, -0.5708215571391276 
0.719999999999937, -0.5703436860473283 
0.7299999999999359, -0.5699580394020111 
0.7399999999999348, -0.5697558106302715 
0.7499999999999337, -0.5698804770918776 
0.7599999999999326, -0.5705547582981113 
0.7699999999999315, -0.5721179698914817 
0.7799999999999304, -0.5750740177261227 
0.7899999999999293, -0.5801435563410513 
0.7999999999999282, -0.5882931094643584 
0.8099999999999271, -0.6006642470733659 
0.819999999999926, -0.6182461448786113 
0.8299999999999249, -0.641127527729548 
0.8399999999999238, -0.6675465261637724 
0.8499999999999227, -0.6938040270385193 
0.8599999999999216, -0.7159867194574187 
0.8699999999999205, -0.7321585388863374 
0.8799999999999194, -0.7427158271988876 
0.8899999999999183, -0.7491487409393407 
0.8999999999999172, -0.7529183204835395 
0.9099999999999161, -0.7550609681268605 
0.919999999999915, -0.7562135069441344 
0.9299999999999139, -0.7567377889354775 
0.9399999999999128, -0.7568223273839958 
0.9499999999999117, -0.7565417321343084 
0.9599999999999106, -0.7558810247732123 
0.9699999999999095, -0.7547310788811662 
0.9799999999999084, -0.7528552338826415 
0.9899999999999073, -0.7498241526992695 
0.9999999999999062, -0.744928749116273 
1.0099999999999052, -0.737137758387574 
1.019999999999904, -0.7252869743055266 
1.029999999999903, -0.7087345502289162 
1.039999999999902, -0.6882833586953632 
1.0499999999999008, -0.6663741159758658 
1.0599999999998997, -0.645930197247309 
1.0699999999998986, -0.6289233095380803 
1.0799999999998975, -0.6159414161185396 
1.0899999999998964, -0.6066277680338226 
1.0999999999998953, -0.6002520787842548 
1.1099999999998942, -0.5960605209738616 
1.119999999999893, -0.5934163751937399 
1.129999999999892, -0.5918291256729127 
1.1399999999998909, -0.5909399997773918 
1.1499999999998898, -0.590495739341789 
1.1599999999998887, -0.5903225438270551 
1.1699999999998876, -0.5903039333065998 
1.1799999999998865, -0.5903634547613145 
1.1899999999998854, -0.5904523068426082 
1.1999999999998843, -0.5905416615118442 
1.2099999999998832, -0.5906190490091089 
1.219999999999882, -0.5906872397932604 
1.229999999999881, -0.5907627600003525 
1.2399999999998799, -0.5908707284720628 
1.2499999999998788, -0.5910345951012523 
1.2599999999998777, -0.5912632291644226 
1.2699999999998766, -0.591541084876105 
1.2799999999998755, -0.5918275010855779 
1.2899999999998744, -0.5920675423948915 
1.2999999999998733, -0.592209818796238 
1.3099999999998722, -0.5922213602605859 
1.319999999999871, -0.592092149363555 
1.32999999999987, -0.5918303917127046 
1.3399999999998689, -0.591455288879452 
1.3499999999998678, -0.590993479923443 
1.3599999999998666, -0.5904824068283575 
1.3699999999998655, -0.5899827256899834 
1.3799999999998644, -0.5896033405270901 
1.3899999999998633, -0.5895458356325843 
1.3999999999998622, -0.5901786953775148 
1.4099999999998611, -0.5921522152520932 
1.41999999999986, -0.5965507970100633 
1.429999999999859, -0.6050187616578893 
1.4399999999998578, -0.6196348547177872 
1.4499999999998567, -0.6420810648943733 
1.4599999999998556, -0.6718633333006016 
1.4699999999998545, -0.7049078552641208 
1.4799999999998534, -0.7351770627145958 
1.4899999999998523, -0.7585695198337274 
1.4999999999998512, -0.7745671396541285 
1.5099999999998501, -0.7847457987469211 
1.519999999999849, -0.7909866677206446 
1.529999999999848, -0.79473666177896 
1.5399999999998468, -0.7969447873325948 
1.5499999999998457, -0.7981905579342461 
1.5599999999998446, -0.7988118613678178 
1.5699999999998435, -0.7989921399028305 
1.5799999999998424, -0.798809993713291 
1.5899999999998413, -0.7982597579210212 
1.5999999999998402, -0.7972478389828661 
1.6099999999998391, -0.7955652885403975 
1.619999999999838, -0.7928374633744182 
1.629999999999837, -0.7884674327016726 
1.6399999999998358, -0.7816391545385675 
1.6499999999998347, -0.7715210190939412 
1.6599999999998336, -0.7577771298735769 
1.6699999999998325, -0.7411397442697528 
1.6799999999998314, -0.7234055255947854 
1.6899999999998303, -0.7066456981113818 
1.6999999999998292, -0.692332259961175 
1.709999999999828, -0.681048529606678 
1.719999999999827, -0.6727026117697308 
1.729999999999826, -0.6668587732476474 
1.7399999999998248, -0.6629776247698923 
1.7499999999998237, -0.6605438442514645 
1.7599999999998226, -0.6591204887311869 
1.7699999999998215, -0.6583642386629242 
1.7799999999998204, -0.6580209421644725 
1.7899999999998193, -0.6579116169749379 
1.7999999999998182, -0.6579150072232289 
1.809999999999817, -0.6579508119419708 
1.819999999999816, -0.657966263600961 
1.8299999999998149, -0.6579275253035947 
1.8399999999998138, -0.65781620307408 
1.8499999999998127, -0.6576296438350818 
1.8599999999998116, -0.657381567254029 
1.8699999999998105, -0.6570985574209249 
1.8799999999998094, -0.6568103683779005 
1.8899999999998083, -0.6565372508584741 
1.8999999999998072, -0.6562810130481812 
1.909999999999806, -0.6560249345454011 
1.919999999999805, -0.6557424100728604 
1.9299999999998039, -0.6554091966980975 
1.9399999999998028, -0.6550128937792423 
1.9499999999998017, -0.6545567106091768 
1.9599999999998006, -0.6540594238364523 
1.9699999999997995, -0.6535556103807529 
1.9799999999997984, -0.6530992660983859 
1.9899999999997973, -0.6527719159001553 
1.9999999999997962, -0.6526947614004638 
2.0099999999998173, -0.6530433487092677 
2.0199999999998384, -0.6540623226362275 
2.0299999999998595, -0.6560768861921535 
2.0399999999998806, -0.6594961226453877 
2.0499999999999017, -0.664799604875548 
2.059999999999923, -0.6724895910342754 
2.069999999999944, -0.682975847713315 
2.079999999999965, -0.6963534648039672 
2.089999999999986, -0.7120875594672504 
2.100000000000007, -0.7287960293462333 
2.1100000000000283, -0.744501295708362 
2.1200000000000494, -0.7574549542368743 
2.1300000000000705, -0.7669146202839482 
2.1400000000000916, -0.773176248545983 
2.1500000000001127, -0.7770328198652046 
2.160000000000134, -0.7792746818918046 
2.170000000000155, -0.7804845642392892 
2.180000000000176, -0.7810300358882362 
2.190000000000197, -0.7811167695745367 
2.2000000000002182, -0.780836898375972 
2.2100000000002393, -0.7801951637810736 
2.2200000000002604, -0.7791111816241366 
2.2300000000002815, -0.777396100084481 
2.2400000000003026, -0.7746964883201083 
2.2500000000003237, -0.7703927909843148 
2.260000000000345, -0.763445865713761 
2.270000000000366, -0.7522445765790202 
2.280000000000387, -0.7347129926117908 
2.290000000000408, -0.7092642282118514 
2.3000000000004293, -0.6768344745781698 
2.3100000000004504, -0.6420979630244406 
2.3200000000004715, -0.6111572917532895 
2.3300000000004926, -0.5876868583080725 
2.3400000000005137, -0.5719006235562466 
2.3500000000005348, -0.5621333134369626 
2.360000000000556, -0.5564419640269291 
2.370000000000577, -0.5532905078570935 
2.380000000000598, -0.5516404096493173 
2.390000000000619, -0.5508416129911665 
2.4000000000006403, -0.5505040151323449 
2.4100000000006614, -0.550399131428147 
2.4200000000006825, -0.5503946366055779 
2.4300000000007036, -0.5504135731204651 
2.4400000000007247, -0.550410248909123 
2.450000000000746, -0.5503573448143655 
2.460000000000767, -0.550240859754348 
2.470000000000788, -0.5500603326419771 
2.480000000000809, -0.5498310435921437 
2.49000000000083, -0.5495836349859715 
2.5000000000008513, -0.5493573213690861 
2.5100000000008724, -0.5491869998969545 
2.5200000000008935, -0.5490894593902975 
2.5300000000009146, -0.5490553741233435 
2.5400000000009357, -0.5490512752319776 
2.550000000000957, -0.5490310923739232 
2.560000000000978, -0.5489517840800968 
2.570000000000999, -0.5487851716802887 
2.58000000000102, -0.548521409152197 
2.5900000000010412, -0.5481658952235017 
2.6000000000010624, -0.5477349953881457 
2.6100000000010835, -0.5472552640827947 
2.6200000000011046, -0.5467690334687202 
2.6300000000011257, -0.5463489457045555 
2.6400000000011468, -0.5461257808128348 
2.650000000001168, -0.5463372526352022 
2.660000000001189, -0.5474089838635273 
2.67000000000121, -0.5500776559916332 
2.680000000001231, -0.5555429920646477 
2.6900000000012523, -0.5655442087909484 
2.7000000000012734, -0.5820381212687432 
2.7100000000012945, -0.6059613046388568 
2.7200000000013156, -0.635273201195676 
2.7300000000013367, -0.664653166254663 
2.740000000001358, -0.6888451050442745 
2.750000000001379, -0.7060333603923513 
2.7600000000014, -0.7173167178174162 
2.770000000001421, -0.7245182048586547 
2.780000000001442, -0.7290808490521198 
2.7900000000014633, -0.7319523013038061 
2.8000000000014844, -0.7337284281806364 
2.8100000000015055, -0.7347798747575467 
2.8200000000015266, -0.735331773532276 
2.8300000000015477, -0.7355110564750826 
2.840000000001569, -0.7353725050346611 
2.85000000000159, -0.7349092472618407 
2.860000000001611, -0.7340507588038314 
2.870000000001632, -0.7326518604861926 
2.8800000000016532, -0.7304822312201293 
2.8900000000016743, -0.7272406607125276 
2.9000000000016954, -0.7226340827973922 
2.9100000000017165, -0.716540896607768 
2.9200000000017377, -0.7091811129119919 
2.9300000000017588, -0.7011263141450883 
2.94000000000178, -0.6930894367765292 
2.950000000001801, -0.6856613840921377 
2.960000000001822, -0.6791844019023815 
2.970000000001843, -0.6737767754883864 
2.9800000000018643, -0.6694164099628767 
2.9900000000018854, -0.6660130225815857 
3.0000000000019065, -0.6634501846087775 
3.0100000000019276, -0.661604476397659 
3.0200000000019487, -0.6603532418433715 
3.03000000000197, -0.659578721899108 
3.040000000001991, -0.659171882694573 
3.050000000002012, -0.6590362561975283 
3.060000000002033, -0.6590909127878178 
3.070000000002054, -0.6592718771047303 
3.0800000000020753, -0.6595321018336313 
3.0900000000020964, -0.659840714880198 
3.1000000000021175, -0.6601820985894633 
3.1100000000021386, -0.6605543550396696 
3.1200000000021597, -0.6609654913150187 
3.130000000002181, -0.6614255847800128 
3.140000000002202, -0.6619353439819039 
3.150000000002223, -0.6624751605562623 
3.160000000002244, -0.6630013275951145 
3.1700000000022652, -0.6634543860665085 
3.1800000000022863, -0.6637772970453137 
3.1900000000023074, -0.6639330984746179 
3.2000000000023285, -0.6639118473940095 
3.2100000000023496, -0.6637259266552549 
3.2200000000023707, -0.6634010967438988 
3.230000000002392, -0.6629712030542927 
3.240000000002413, -0.6624807466153066 
3.250000000002434, -0.6619971546672714 
3.260000000002455, -0.6616348832232026 
3.2700000000024763, -0.6615948952531119 
3.2800000000024974, -0.6622234098758494 
3.2900000000025185, -0.6640903260316566 
3.3000000000025396, -0.6680753775459074 
3.3100000000025607, -0.6754190147589292 
3.3200000000025818, -0.6876310378274046 
3.330000000002603, -0.706061774237254 
3.340000000002624, -0.7309637874013961 
3.350000000002645, -0.7603605109218061 
3.360000000002666, -0.7899777714825196 
3.3700000000026873, -0.8152391945481863 
3.3800000000027084, -0.8337741302799861 
3.3900000000027295, -0.8458928758076543 
3.4000000000027506, -0.8532397149344175 
3.4100000000027717, -0.8574938717771481 
3.420000000002793, -0.8598697525092419 
3.430000000002814, -0.8611191878604227 
3.440000000002835, -0.8616693903328134 
3.450000000002856, -0.8617429825116301 
3.460000000002877, -0.8614308434914009 
3.4700000000028983, -0.8607244288233048 
3.4800000000029194, -0.8595156343117228 
3.4900000000029405, -0.8575653901293542 
3.5000000000029616, -0.8544354906522003 
3.5100000000029827, -0.8493780111123623 
3.520000000003004, -0.841200350715844 
3.530000000003025, -0.8282140942852093 
3.540000000003046, -0.8085794544655979 
3.550000000003067, -0.781505747908139 
3.5600000000030882, -0.7490656457206883 
3.5700000000031094, -0.7165259710669326 
3.5800000000031305, -0.6894851765064911 
3.5900000000031516, -0.6705514849816943 
3.6000000000031727, -0.6590622696860079 
3.6100000000031938, -0.65289715259504 
3.620000000003215, -0.6499832226174456 
3.630000000003236, -0.6488375004472882 
3.640000000003257, -0.6485534259008671 
3.650000000003278, -0.6486284537346034 
3.6600000000032993, -0.648802729922106 
3.6700000000033204, -0.6489479072842188 
3.6800000000033415, -0.6489998649062861 
3.6900000000033626, -0.6489208457608042 
3.7000000000033837, -0.6486796425755376 
3.710000000003405, -0.6482435983500121 
3.720000000003426, -0.6475804123438598 
3.730000000003447, -0.6466692524486862 
3.740000000003468, -0.6455174543366776 
3.750000000003489, -0.6441722661973155 
3.7600000000035103, -0.6427152349227205 
3.7700000000035314, -0.6412381527476674 
3.7800000000035525, -0.6398152512420381 
3.7900000000035736, -0.6384882811592235 
3.8000000000035947, -0.637268780327672 
3.810000000003616, -0.6361506610546612 
3.820000000003637, -0.6351242086626757 
3.830000000003658, -0.6341862351677119 
3.840000000003679, -0.6333454009132508 
3.8500000000037002, -0.6326241401241482 
3.8600000000037213, -0.6320589356111834 
3.8700000000037424, -0.6316998849066454 
3.8800000000037635, -0.6316097435374586 
3.8900000000037847, -0.6318624583538133 
3.9000000000038058, -0.6325415039345993 
3.910000000003827, -0.6337386591340191 
3.920000000003848, -0.6355536866706999 
3.930000000003869, -0.638094257705147 
3.94000000000389, -0.6414730583456125 
3.9500000000039113, -0.6457952093588741 
3.9600000000039324, -0.6511249197778645 
3.9700000000039535, -0.6574206864240135 
3.9800000000039746, -0.6644461727898118 
3.9900000000039957, -0.6717112269147824 
4.000000000004016, -0.6785414757768713 
4.010000000003993, -0.6843114758615536 
4.02000000000397, -0.688693220761196 
4.030000000003946, -0.6917150302759595 
4.040000000003923, -0.6936245966070593 
4.0500000000039, -0.694716042177303 
4.0600000000038765, -0.6952298429997306 
4.070000000003853, -0.6953250573581854 
4.08000000000383, -0.6950846223969211 
4.090000000003807, -0.6945249754466822 
4.100000000003783, -0.6935966473140809 
4.11000000000376, -0.6921688838189963 
4.120000000003737, -0.6899899800477618 
4.130000000003713, -0.6866085836753854 
4.14000000000369, -0.6812349373115798 
4.150000000003667, -0.6725413669607321 
4.1600000000036434, -0.6585425248312655 
4.17000000000362, -0.6370872025969643 
4.180000000003597, -0.6076830585043232 
4.1900000000035735, -0.5736568632707291 
4.20000000000355, -0.541166592986902 
4.210000000003527, -0.5150307408350644 
4.220000000003504, -0.4964752707788581 
4.23000000000348, -0.48429156065422535 
4.240000000003457, -0.47664355318019747 
4.250000000003434, -0.47197078515829255 
4.26000000000341, -0.4691754848066535 
4.270000000003387, -0.4675444989570515 
4.280000000003364, -0.46663019584178655 
4.2900000000033405, -0.46615565274984155 
4.300000000003317, -0.46595077506857063 
4.310000000003294, -0.4659119832122938 
4.320000000003271, -0.4659776982514379 
4.330000000003247, -0.4661141381256645 
4.340000000003224, -0.46630791191194704 
4.350000000003201, -0.46656292474386013 
4.360000000003177, -0.4668991661533717 
4.370000000003154, -0.46735047419847964 
4.380000000003131, -0.4679582412818328 
4.390000000003107, -0.4687590579897676 
4.400000000003084, -0.4697666313885156 
4.410000000003061, -0.47095226380305943 
4.4200000000030375, -0.4722340466782236 
4.430000000003014, -0.4734880309300503 
4.440000000002991, -0.4745843075509907 
4.450000000002968, -0.4754287550316607 
4.460000000002944, -0.4759828585012896 
4.470000000002921, -0.4762536235334972 
4.480000000002898, -0.4762684173966466 
4.490000000002874, -0.47605163635244674 
4.500000000002851, -0.47560880526508675 
4.510000000002828, -0.4749145173645114 
4.520000000002804, -0.4738968456542184 
4.530000000002781, -0.472408285872187 
4.540000000002758, -0.4701680478921985 
4.5500000000027345, -0.46665371294733615 
4.560000000002711, -0.460932460165372 
4.570000000002688, -0.45153266192146235 
4.580000000002665, -0.436781694288024 
4.590000000002641, -0.41620831805933456 
4.600000000002618, -0.39219984177695466 
4.610000000002595, -0.36916230700521735 
4.620000000002571, -0.35040604511744033 
4.630000000002548, -0.3367008720508531 
4.640000000002525, -0.32722922742471205 
4.6500000000025015, -0.32081349022673566 
4.660000000002478, -0.316472044038563 
4.670000000002455, -0.31351728840093784 
4.6800000000024315, -0.31150033136100314 
4.690000000002408, -0.31013752582069387 
4.700000000002385, -0.3092545168303383 
4.710000000002362, -0.3087500937452202 
4.720000000002338, -0.3085751435029925 
4.730000000002315, -0.3087224457713317 
4.740000000002292, -0.30922488386958497 
4.750000000002268, -0.31016142131328023 
4.760000000002245, -0.3116716891384498 
4.770000000002222, -0.31398096884891463 
4.7800000000021985, -0.31743630429197833 
4.790000000002175, -0.3225464363210392 
4.800000000002152, -0.32999031003843576 
4.810000000002129, -0.3404923034198264 
4.820000000002105, -0.35438713944260297 
4.830000000002082, -0.37085878011124496 
4.840000000002059, -0.3875695016310626 
4.850000000002035, -0.40174950446051766 
4.860000000002012, -0.4119791044833926 
4.870000000001989, -0.4185587197121855 
4.880000000001965, -0.4225382034575015 
4.890000000001942, -0.424885744137632 
4.900000000001919, -0.4262491201150146 
4.9100000000018955, -0.4270080366924332 
