t, s[1].omega / s[0].omega 
0, -0.8800047075825793 
0.009999999999999995, -0.8804154695124531 
0.019999999999999934, -0.8806879602904365 
0.029999999999999874, -0.8808001103575049 
0.04000000000000012, -0.880744439108404 
0.050000000000000405, -0.8805304517389223 
0.06000000000000069, -0.880182395425648 
0.07000000000000098, -0.8797360734226831 
0.08000000000000126, -0.8792384017658028 
0.09000000000000155, -0.8787504383539924 
0.10000000000000184, -0.8783511998033511 
0.11000000000000212, -0.8781373196497343 
0.12000000000000241, -0.8782139656762025 
0.130000000000002, -0.8786767168587584 
0.1400000000000009, -0.8795906417513049 
0.1499999999999998, -0.8809761039206695 
0.1599999999999987, -0.8828068772019751 
0.1699999999999976, -0.885018139962791 
0.1799999999999965, -0.8875168201821696 
0.1899999999999954, -0.8901879345877053 
0.1999999999999943, -0.8928963285824917 
0.2099999999999932, -0.8954900140154844 
0.2199999999999921, -0.8978144088725193 
0.229999999999991, -0.8997405814626065 
0.2399999999999899, -0.9011958533478979 
0.2499999999999888, -0.9021765062817794 
0.2599999999999877, -0.9027337777828462 
0.2699999999999866, -0.9029448360134286 
0.2799999999999855, -0.9028873920819619 
0.2899999999999844, -0.9026279798359653 
0.2999999999999833, -0.9022241274255277 
0.3099999999999822, -0.9017375611540297 
0.3199999999999811, -0.9012564233497923 
0.32999999999998, -0.900923533992936 
0.3399999999999789, -0.9009612806410221 
0.3499999999999778, -0.9016736408754109 
0.35999999999997667, -0.9034033168153819 
0.36999999999997557, -0.9064408572440493 
0.37999999999997447, -0.9109169985604654 
0.38999999999997337, -0.9167270039535371 
0.39999999999997227, -0.9235172465570821 
0.40999999999997117, -0.9307347991695311 
0.41999999999997006, -0.9377315381863417 
0.42999999999996896, -0.9439116032623567 
0.43999999999996786, -0.9488815072357006 
0.44999999999996676, -0.9525276797044503 
0.45999999999996566, -0.9549761015691379 
0.46999999999996456, -0.956474727430391 
0.47999999999996346, -0.9572813704031778 
0.48999999999996235, -0.9576031541949573 
0.49999999999996125, -0.957582946320216 
0.5099999999999602, -0.9573104468462053 
0.519999999999959, -0.956842861397676 
0.529999999999958, -0.956232358144226 
0.5399999999999568, -0.9555660421554064 
0.5499999999999557, -0.9550254476083199 
0.5599999999999546, -0.9549592203505934 
0.5699999999999535, -0.9559273009507046 
0.5799999999999524, -0.9586356294494806 
0.5899999999999513, -0.9637016361761571 
0.5999999999999502, -0.9713178216675029 
0.6099999999999491, -0.9810182536491624 
0.619999999999948, -0.9917326851477609 
0.6299999999999469, -1.002132368105423 
0.6399999999999458, -1.0110894643876418 
0.6499999999999447, -1.0180053616740155 
0.6599999999999436, -1.0228520158286876 
0.6699999999999425, -1.0259719951172541 
0.6799999999999414, -1.0278223840636898 
0.6899999999999403, -1.028806587043656 
0.6999999999999392, -1.0292159773036134 
0.7099999999999381, -1.0292366220827642 
0.719999999999937, -1.0289783461486706 
0.7299999999999359, -1.0285074828401823 
0.7399999999999348, -1.0278835626969474 
0.7499999999999337, -1.0272096300776146 
0.7599999999999326, -1.02670327140526 
0.7699999999999315, -1.0267695422993757 
0.7799999999999304, -1.028005032775499 
0.7899999999999293, -1.0310390105177167 
0.7999999999999282, -1.0362223203708758 
0.8099999999999271, -1.0433630780092933 
0.819999999999926, -1.0517271648815865 
0.8299999999999249, -1.0603007557225657 
0.8399999999999238, -1.068129864398582 
0.8499999999999227, -1.074571218835095 
0.8599999999999216, -1.0793851354248807 
0.8699999999999205, -1.0826740144819398 
0.8799999999999194, -1.0847299428968338 
0.8899999999999183, -1.085883518912763 
0.8999999999999172, -1.086413330730411 
0.9099999999999161, -1.0865189079013273 
0.919999999999915, -1.0863315331843808 
0.9299999999999139, -1.0859411063536886 
0.9399999999999128, -1.08543104883488 
0.9499999999999117, -1.0849207089700805 
0.9599999999999106, -1.0846075032901512 
0.9699999999999095, -1.0847780843111112 
0.9799999999999084, -1.0857444925159687 
0.9899999999999073, -1.0877078148647386 
0.9999999999999062, -1.0906420302740538 
1.0099999999999052, -1.0942967928361946 
1.019999999999904, -1.098304217189717 
1.029999999999903, -1.1022950105564178 
1.039999999999902, -1.105965305799311 
1.0499999999999008, -1.1091002605215536 
1.0599999999998997, -1.1115799811762312 
1.0699999999998986, -1.1133777571275791 
1.0799999999998975, -1.114545404840483 
1.0899999999998964, -1.1151836018256867 
1.0999999999998953, -1.1154077712516988 
1.1099999999998942, -1.115324123269683 
1.119999999999893, -1.1150228942045086 
1.129999999999892, -1.1145870172171266 
1.1399999999998909, -1.1141095903568554 
1.1499999999998898, -1.1137088749268762 
1.1599999999998887, -1.1135242149437572 
1.1699999999998876, -1.113681716879538 
1.1799999999998865, -1.1142447293233242 
1.1899999999998854, -1.11518717270406 
1.1999999999998843, -1.1164103592981705 
1.2099999999998832, -1.1177845394753392 
1.219999999999882, -1.119184900600532 
1.229999999999881, -1.1205093300532023 
1.2399999999998799, -1.121681501344746 
1.2499999999998788, -1.1226471399340636 
1.2599999999998777, -1.1233697422165374 
1.2699999999998766, -1.1238289912176922 
1.2799999999998755, -1.1240216127560634 
1.2899999999998744, -1.1239619292759337 
1.2999999999998733, -1.123680014539751 
1.3099999999998722, -1.1232185671686943 
1.319999999999871, -1.122631552680026 
1.32999999999987, -1.1219855049491538 
1.3399999999998689, -1.1213595545943473 
1.3499999999998678, -1.1208376722474787 
1.3599999999998666, -1.1204912867985624 
1.3699999999998655, -1.1203600848144417 
1.3799999999998644, -1.1204420860586892 
1.3899999999998633, -1.1206967258467144 
1.3999999999998622, -1.121057172750641 
1.4099999999998611, -1.121446485535151 
1.41999999999986, -1.1217921513962663 
1.429999999999859, -1.122034697834779 
1.4399999999998578, -1.1221300672624241 
1.4499999999998567, -1.1220486735120363 
1.4599999999998556, -1.1217736983473263 
1.4699999999998545, -1.1212993741884585 
1.4799999999998534, -1.1206294810402526 
1.4899999999998523, -1.1197768365085372 
1.4999999999998512, -1.118764535157824 
1.5099999999998501, -1.1176287714579403 
1.519999999999849, -1.1164219564286277 
1.529999999999848, -1.1152137903903794 
1.5399999999998468, -1.1140873635486879 
1.5499999999998457, -1.1131280452863754 
1.5599999999998446, -1.1124049899706931 
1.5699999999998435, -1.1119490857113152 
1.5799999999998424, -1.1117378391084325 
1.5899999999998413, -1.1116997340884363 
1.5999999999998402, -1.1117379086787358 
1.6099999999998391, -1.11175638545912 
1.619999999999838, -1.1116729874862858 
1.629999999999837, -1.1114181502311253 
1.6399999999998358, -1.1109291031878064 
1.6499999999998347, -1.1101483971436004 
1.6599999999998336, -1.1090299160943382 
1.6699999999998325, -1.1075491534866662 
1.6799999999998314, -1.1057112171358976 
1.6899999999998303, -1.1035526701217064 
1.6999999999998292, -1.1011395915491475 
1.709999999999828, -1.0985672023393331 
1.719999999999827, -1.0959627460488688 
1.729999999999826, -1.0934860147859375 
1.7399999999998248, -1.0913156323784685 
1.7499999999998237, -1.0896103157730415 
1.7599999999998226, -1.0884519583372998 
1.7699999999998215, -1.0878059686023038 
1.7799999999998204, -1.0875363563561522 
1.7899999999998193, -1.0874673333446188 
1.7999999999998182, -1.087442021515956 
1.809999999999817, -1.087343649654061 
1.819999999999816, -1.0870838198951118 
1.8299999999998149, -1.0865786095743313 
1.8399999999998138, -1.0857277296874484 
1.8499999999998127, -1.0844051218854234 
1.8599999999998116, -1.0824678786351072 
1.8699999999998105, -1.0797877894747616 
1.8799999999998094, -1.0762989910385978 
1.8899999999998083, -1.0720414793863688 
1.8999999999998072, -1.067180688629621 
1.909999999999806, -1.062000631913714 
1.919999999999805, -1.0568787083933286 
1.9299999999998039, -1.0522386347823693 
1.9399999999998028, -1.0484651924494768 
1.9499999999998017, -1.0457873597272642 
1.9599999999998006, -1.0441923721459694 
1.9699999999997995, -1.043447605677005 
1.9799999999997984, -1.0432243750449264 
1.9899999999997973, -1.0432277765866267 
1.9999999999997962, -1.0432549115726577 
2.0099999999998173, -1.0431838404645724 
2.0199999999998384, -1.0429340947751855 
2.0299999999998595, -1.0424274265995903 
2.0399999999998806, -1.0415570135710497 
2.0499999999999017, -1.040166069548338 
2.059999999999923, -1.0380417497282104 
2.069999999999944, -1.0349393343162672 
2.079999999999965, -1.0306512801247218 
2.089999999999986, -1.025111244767436 
2.100000000000007, -1.0184849260804056 
2.1100000000000283, -1.0111916207133116 
2.1200000000000494, -1.0038404235715572 
2.1300000000000705, -0.9971046464511767 
2.1400000000000916, -0.9915634448231252 
2.1500000000001127, -0.9875465556144738 
2.160000000000134, -0.9850486611073116 
2.170000000000155, -0.9837760360992673 
2.180000000000176, -0.9833040872136121 
2.190000000000197, -0.983240539996545 
2.2000000000002182, -0.9833077869136382 
2.2100000000002393, -0.9833412327723371 
2.2200000000002604, -0.9832480641618112 
2.2300000000002815, -0.9829630725365973 
2.2400000000003026, -0.9824145538050495 
2.2500000000003237, -0.9815003872114019 
2.260000000000345, -0.9800742985028805 
2.270000000000366, -0.9779493360375268 
2.280000000000387, -0.9749317410974229 
2.290000000000408, -0.9708908865523176 
2.3000000000004293, -0.9658423189747554 
2.3100000000004504, -0.9599940650732556 
2.3200000000004715, -0.953722273597762 
2.3300000000004926, -0.9474926532197794 
2.3400000000005137, -0.9417693087148719 
2.3500000000005348, -0.9369341098468527 
2.360000000000556, -0.9332201273739728 
2.370000000000577, -0.9306700362316802 
2.380000000000598, -0.9291432443035722 
2.390000000000619, -0.9283800457832193 
2.4000000000006403, -0.9280931219326813 
2.4100000000006614, -0.9280392987865091 
2.4200000000006825, -0.928046708773022 
2.4300000000007036, -0.9280053371396919 
2.4400000000007247, -0.9278421362381823 
2.450000000000746, -0.9274964727997961 
2.460000000000767, -0.9269028327539791 
2.470000000000788, -0.9259837767665339 
2.480000000000809, -0.9246562184177355 
2.49000000000083, -0.922852713678542 
2.5000000000008513, -0.9205516289158542 
2.5100000000008724, -0.9177993374672134 
2.5200000000008935, -0.9147080829017143 
2.5300000000009146, -0.9114307405147374 
2.5400000000009357, -0.9081305139065403 
2.550000000000957, -0.9049612774372321 
2.560000000000978, -0.9020597249617932 
2.570000000000999, -0.8995408606054083 
2.58000000000102, -0.8974892602879615 
2.5900000000010412, -0.8959456522393239 
2.6000000000010624, -0.8948958960978819 
2.6100000000010835, -0.8942719161563412 
2.6200000000011046, -0.8939682588663672 
2.6300000000011257, -0.8938675057684625 
2.6400000000011468, -0.8938623347483604 
2.650000000001168, -0.893866202358659 
2.660000000001189, -0.893813058082656 
2.67000000000121, -0.8936518169201577 
2.680000000001231, -0.8933416936116705 
2.6900000000012523, -0.8928520261333514 
2.7000000000012734, -0.8921665645161878 
2.7100000000012945, -0.8912884164258076 
2.7200000000013156, -0.8902403879415287 
2.7300000000013367, -0.8890587472633333 
2.740000000001358, -0.8877841249324426 
2.750000000001379, -0.8864553875808647 
2.7600000000014, -0.8851090830975401 
2.770000000001421, -0.8837826369219043 
2.780000000001442, -0.8825177178191815 
2.7900000000014633, -0.8813609669538705 
2.8000000000014844, -0.8803608391054869 
2.8100000000015055, -0.879560832899464 
2.8200000000015266, -0.8789908889007352 
2.8300000000015477, -0.8786599168201592 
2.840000000001569, -0.8785525543071258 
2.85000000000159, -0.8786318581325482 
2.860000000001611, -0.8788470635531507 
2.870000000001632, -0.8791432973352344 
2.8800000000016532, -0.8794698045248264 
2.8900000000016743, -0.879784893522281 
2.9000000000016954, -0.8800577322467881 
2.9100000000017165, -0.8802678037373266 
2.9200000000017377, -0.8804024520061366 
2.9300000000017588, -0.8804529756981075 
2.94000000000178, -0.8804108578067812 
2.950000000001801, -0.8802665923592878 
2.960000000001822, -0.8800123141501921 
2.970000000001843, -0.8796466254285533 
2.9800000000018643, -0.8791785884128499 
2.9900000000018854, -0.8786293657682611 
3.0000000000019065, -0.8780324272032549 
3.0100000000019276, -0.8774337702620014 
3.0200000000019487, -0.8768919244200399 
3.03000000000197, -0.8764755355908083 
3.040000000001991, -0.876256167240505 
3.050000000002012, -0.8762964467197669 
3.060000000002033, -0.876637390012497 
3.070000000002054, -0.8772904205943777 
3.0800000000020753, -0.8782373422404485 
3.0900000000020964, -0.8794371137429717 
3.1000000000021175, -0.8808351554141544 
3.1100000000021386, -0.8823706620964163 
3.1200000000021597, -0.8839792823421362 
3.130000000002181, -0.8855914211512056 
3.140000000002202, -0.8871296479189787 
3.150000000002223, -0.8885109277287615 
3.160000000002244, -0.8896578008956544 
3.1700000000022652, -0.8905156167884274 
3.1800000000022863, -0.8910655223693489 
3.1900000000023074, -0.891324268405223 
3.2000000000023285, -0.8913322361636331 
3.2100000000023496, -0.8911392399744082 
3.2200000000023707, -0.8907967271171209 
3.230000000002392, -0.8903594677374362 
3.240000000002413, -0.8898957031892472 
3.250000000002434, -0.8895023813704486 
3.260000000002455, -0.8893190316188584 
3.2700000000024763, -0.8895298033763318 
3.2800000000024974, -0.8903429335103115 
3.2900000000025185, -0.8919464702979079 
3.3000000000025396, -0.894455515206069 
3.3100000000025607, -0.8978743300366261 
3.3200000000025818, -0.9020860553907888 
3.330000000002603, -0.9068646604296081 
3.340000000002624, -0.9118980983346228 
3.350000000002645, -0.9168225179711404 
3.360000000002666, -0.9212779092503277 
3.3700000000026873, -0.9249842489706126 
3.3800000000027084, -0.9278064778482047 
3.3900000000027295, -0.9297658485285188 
3.4000000000027506, -0.9309913103414257 
3.4100000000027717, -0.931648801675267 
3.420000000002793, -0.9318888603960831 
3.430000000002814, -0.93182512335516 
3.440000000002835, -0.9315357491617299 
3.450000000002856, -0.9310776604601172 
3.460000000002877, -0.930510078042271 
3.4700000000028983, -0.9299296864400463 
3.4800000000029194, -0.9295193359290101 
3.4900000000029405, -0.9295999542431888 
3.5000000000029616, -0.9306502033447119 
3.5100000000029827, -0.9332393611678024 
3.520000000003004, -0.9378464432226151 
3.530000000003025, -0.944623397201973 
3.540000000003046, -0.9532318031986369 
3.550000000003067, -0.962860400282351 
3.5600000000030882, -0.9724367468709569 
3.5700000000031094, -0.9809536666359995 
3.5800000000031305, -0.987765950778044 
3.5900000000031516, -0.9927080123255487 
3.6000000000031727, -0.9959928344269342 
3.6100000000031938, -0.9980026972160312 
3.620000000003215, -0.9991150976565694 
3.630000000003236, -0.9996214287061905 
3.640000000003257, -0.9997162274356064 
3.650000000003278, -0.999517315203222 
3.6600000000032993, -0.9990936933444237 
3.6700000000033204, -0.9984967549052151 
3.6800000000033415, -0.9978019979704327 
3.6900000000033626, -0.9971717109411904 
3.7000000000033837, -0.9969363671052811 
3.710000000003405, -0.9976516038540304 
3.720000000003426, -1.0000355370686722 
3.730000000003447, -1.0047120463695156 
3.740000000003468, -1.011847652502398 
3.750000000003489, -1.02093492966382 
3.7600000000035103, -1.030906893378956 
3.7700000000035314, -1.0405162603449445 
3.7800000000035525, -1.0487543551901397 
3.7900000000035736, -1.055106620701801 
3.8000000000035947, -1.0595604506291916 
3.810000000003616, -1.062425550682458 
3.820000000003637, -1.064113839352904 
3.830000000003658, -1.0649923082643504 
3.840000000003679, -1.0653292468799587 
3.8500000000037002, -1.0652988977537792 
3.8600000000037213, -1.0650087331314226 
3.8700000000037424, -1.0645332996256074 
3.8800000000037635, -1.0639546961261162 
3.8900000000037847, -1.0634145054999 
3.9000000000038058, -1.063169183875965 
3.910000000003827, -1.063607360095295 
3.920000000003848, -1.0651644496104253 
3.930000000003869, -1.0681288193665237 
3.94000000000389, -1.0724633179166563 
3.9500000000039113, -1.0777910958187655 
3.9600000000039324, -1.08354321623489 
3.9700000000039535, -1.0891406690770604 
3.9800000000039746, -1.094118687502421 
3.9900000000039957, -1.0981861162633366 
4.000000000004016, -1.1012386601087687 
4.010000000003993, -1.1033319212943895 
4.02000000000397, -1.1046213424948126 
4.030000000003946, -1.1052936476530089 
4.040000000003923, -1.1055174985987306 
4.0500000000039, -1.1054240836753888 
4.0600000000038765, -1.1051121503947434 
4.070000000003853, -1.1046681796361573 
4.08000000000383, -1.104194281904547 
4.090000000003807, -1.1038331141097824 
4.100000000003783, -1.1037688220223467 
4.11000000000376, -1.1041830598270717 
4.120000000003737, -1.1051789184415288 
4.130000000003713, -1.1067292274804665 
4.14000000000369, -1.1086923696718363 
4.150000000003667, -1.1108747196667297 
4.1600000000036434, -1.1130886817041756 
4.17000000000362, -1.1151809062373745 
4.180000000003597, -1.117036700015955 
4.1900000000035735, -1.1185759594763893 
4.20000000000355, -1.1197507388278016 
4.210000000003527, -1.120545921233875 
4.220000000003504, -1.1209783605834955 
4.23000000000348, -1.1210902506509508 
4.240000000003457, -1.1209383746900183 
4.250000000003434, -1.1205855583776227 
4.26000000000341, -1.1200993457398083 
4.270000000003387, -1.119557194313955 
4.280000000003364, -1.119050960897098 
4.2900000000033405, -1.1186801363887757 
4.300000000003317, -1.1185293779526386 
4.310000000003294, -1.1186413610797898 
4.320000000003271, -1.1190042183814246 
4.330000000003247, -1.1195606985427538 
4.340000000003224, -1.1202292360709074 
4.350000000003201, -1.1209244603812905 
4.360000000003177, -1.121571167096444 
4.370000000003154, -1.122110756278691 
4.380000000003131, -1.1225017068908145 
4.390000000003107, -1.122716921882165 
4.400000000003084, -1.1227405684210516 
4.410000000003061, -1.1225660664911128 
4.4200000000030375, -1.1221958543309216 
4.430000000003014, -1.121642564728574 
4.440000000002991, -1.1209307786037321 
4.450000000002968, -1.1200988811970694 
4.460000000002944, -1.1192005524120177 
4.470000000002921, -1.1183040106208506 
4.480000000002898, -1.117485943239611 
4.490000000002874, -1.1168189460405493 
4.500000000002851, -1.1163553826626726 
4.510000000002828, -1.1161128623812049 
4.520000000002804, -1.1160669076167893 
4.530000000002781, -1.11615596807599 
4.540000000002758, -1.1162983960337938 
4.5500000000027345, -1.11641193222833 
4.560000000002711, -1.116425314417337 
4.570000000002688, -1.116280442635143 
4.580000000002665, -1.1159308802507772 
4.590000000002641, -1.1153421375047572 
4.600000000002618, -1.1144944955559717 
4.610000000002595, -1.1133855689835257 
4.620000000002571, -1.1120303319055669 
4.630000000002548, -1.1104596237935016 
4.640000000002525, -1.10872009941418 
4.6500000000025015, -1.1068771086141678 
4.660000000002478, -1.1050186837674567 
4.670000000002455, -1.1032558175644256 
4.6800000000024315, -1.101712347727514 
4.690000000002408, -1.1004989238389924 
4.700000000002385, -1.099674938806645 
4.710000000002362, -1.0992194939368871 
4.720000000002338, -1.0990368870027454 
4.730000000002315, -1.0989957516686397 
4.740000000002292, -1.0989709378526225 
4.750000000002268, -1.0988616309749886 
4.760000000002245, -1.0985854668869113 
4.770000000002222, -1.0980632402711834 
4.7800000000021985, -1.0972075523888276 
4.790000000002175, -1.0959233514030313 
4.800000000002152, -1.0941232760203108 
4.810000000002129, -1.0917534863170313 
4.820000000002105, -1.0888180757753287 
4.830000000002082, -1.0853908370268872 
4.840000000002059, -1.0816141162406208 
4.850000000002035, -1.0776929423549868 
4.860000000002012, -1.0738867514886432 
4.870000000001989, -1.0704859484560543 
4.880000000001965, -1.0677547929131967 
4.890000000001942, -1.0658453847941622 
4.900000000001919, -1.0647330059108469 
4.9100000000018955, -1.0642329314460688 
4.920000000001872, -1.0640930386751513 
4.930000000001849, -1.0640885211268567 
