t, s[1].omega / s[0].omega 
0, -1.0299709037803872 
0.009999999999999995, -1.0269712835970448 
0.019999999999999934, -1.023794838595616 
0.029999999999999874, -1.0204437021098036 
0.04000000000000012, -1.0169200835389038 
0.050000000000000405, -1.0132262646990877 
0.06000000000000069, -1.0093645962535467 
0.07000000000000098, -1.005337494226971 
0.08000000000000126, -1.0011474366088673 
0.09000000000000155, -0.9967969600492919 
0.10000000000000184, -0.9922886566496469 
0.11000000000000212, -0.9876251708502709 
0.12000000000000241, -0.9828091964156634 
0.130000000000002, -0.977843473517348 
0.1400000000000009, -0.9727307859135258 
0.1499999999999998, -0.9674739582239589 
0.1599999999999987, -0.9620758532977517 
0.1699999999999976, -0.9565393696710852 
0.1799999999999965, -0.9508674391113447 
0.1899999999999954, -0.9450630242435669 
0.1999999999999943, -0.9391291162546661 
0.2099999999999932, -0.9330687326705299 
0.2199999999999921, -0.9268849152007652 
0.229999999999991, -0.9205807276456347 
0.2399999999999899, -0.9141592538595811 
0.2499999999999888, -0.9076235957656479 
0.2599999999999877, -0.9009768714150975 
0.2699999999999866, -0.8942222130865961 
0.2799999999999855, -0.8873627654194524 
0.2899999999999844, -0.8804016835756138 
0.2999999999999833, -0.8733421314253561 
0.3099999999999822, -0.8661872797519217 
0.3199999999999811, -0.8589403044707371 
0.32999999999998, -0.8516043848592011 
0.3399999999999789, -0.8441827017935375 
0.3499999999999778, -0.8366784359896253 
0.35999999999997667, -0.829094766245261 
0.36999999999997557, -0.8214348676817919 
0.37999999999997447, -0.8137019099836302 
0.38999999999997337, -0.8058990556346658 
0.39999999999997227, -0.7980294581511487 
0.40999999999997117, -0.790096260311146 
0.41999999999997006, -0.7821025923812043 
0.42999999999996896, -0.7740515703413405 
0.43999999999996786, -0.7659462941099892 
0.44999999999996676, -0.7577898457709616 
0.45999999999996566, -0.749585287804936 
0.46999999999996456, -0.7413356613283552 
0.47999999999996346, -0.7330439843429771 
0.48999999999996235, -0.7247132499996377 
0.49999999999996125, -0.7163464248800469 
0.5099999999999602, -0.7079464473006719 
0.519999999999959, -0.6995162256429329 
0.529999999999958, -0.6910586367140716 
0.5399999999999568, -0.6825765241431445 
0.5499999999999557, -0.6740726968166201 
0.5599999999999546, -0.6655499273580653 
0.5699999999999535, -0.6570109506563493 
0.5799999999999524, -0.6484584624466988 
0.5899999999999513, -0.6398951179488087 
0.5999999999999502, -0.6313235305660387 
0.6099999999999491, -0.6227462706495156 
0.619999999999948, -0.6141658643307185 
0.6299999999999469, -0.6055847924258586 
0.6399999999999458, -0.5970054894150548 
0.6499999999999447, -0.5884303424989933 
0.6599999999999436, -0.5798616907354047 
0.6699999999999425, -0.5713018242573421 
0.6799999999999414, -0.5627529835748492 
0.6899999999999403, -0.5542173589612371 
0.6999999999999392, -0.5456970899247792 
0.7099999999999381, -0.5371942647662368 
0.719999999999937, -0.528710920222215 
0.7299999999999359, -0.520249041193957 
0.7399999999999348, -0.5118105605607678 
0.7499999999999337, -0.5033973590768589 
0.7599999999999326, -0.4950112653500241 
0.7699999999999315, -0.48665405590015604 
0.7799999999999304, -0.4783274552952421 
0.7899999999999293, -0.47003313636211014 
0.7999999999999282, -0.46177272046883594 
0.8099999999999271, -0.45354777787537914 
0.819999999999926, -0.4453598281486771 
0.8299999999999249, -0.4372103406381038 
0.8399999999999238, -0.42910073500688645 
0.8499999999999227, -0.42103238181476876 
0.8599999999999216, -0.4130066031469148 
0.8699999999999205, -0.4050246732837623 
0.8799999999999194, -0.39708781940624616 
0.8899999999999183, -0.3891972223305486 
0.8999999999999172, -0.38135401726624374 
0.9099999999999161, -0.3735592945914403 
0.919999999999915, -0.3658141006382419 
0.9299999999999139, -0.3581194384815691 
0.9399999999999128, -0.3504762687240848 
0.9499999999999117, -0.3428855102696722 
0.9599999999999106, -0.3353480410775868 
0.9699999999999095, -0.3278646988890693 
0.9799999999999084, -0.32043628191783863 
0.9899999999999073, -0.31306354949549614 
0.9999999999999062, -0.30574722266244436 
1.0099999999999052, -0.29848798469445736 
1.019999999999904, -0.2912864815545322 
1.029999999999903, -0.28414332225908834 
1.039999999999902, -0.2770590791469677 
1.0499999999999008, -0.27003428803899665 
1.0599999999998997, -0.26306944827512296 
1.0699999999998986, -0.2561650226153002 
1.0799999999998975, -0.24932143698936374 
1.0899999999998964, -0.24253908008011396 
1.0999999999998953, -0.23581830272268614 
1.1099999999998942, -0.2291594171020159 
1.119999999999893, -0.22256269572881612 
1.129999999999892, -0.21602837017292298 
1.1399999999998909, -0.2095566295311578 
1.1499999999998898, -0.20314761860493669 
1.1599999999998887, -0.19680143576076395 
1.1699999999998876, -0.19051813044440133 
1.1799999999998865, -0.18429770031692905 
1.1899999999998854, -0.17814008797804914 
1.1999999999998843, -0.1720451772388212 
1.2099999999998832, -0.1660127889025161 
1.219999999999882, -0.16004267600839306 
1.229999999999881, -0.15413451848891868 
1.2399999999998799, -0.14828791718618892 
1.2499999999998788, -0.14250238716805327 
1.2599999999998777, -0.13677735027861085 
1.2699999999998766, -0.1311121268512846 
1.2799999999998755, -0.12550592650552136 
1.2899999999998744, -0.11995783794021686 
1.2999999999998733, -0.11446681762815808 
1.3099999999998722, -0.10903167730598995 
1.319999999999871, -0.10365107014335057 
1.32999999999987, -0.09832347546274695 
1.3399999999998689, -0.09304718186832554 
1.3499999999998678, -0.08782026862675746 
1.3599999999998666, -0.08264058512684525 
1.3699999999998655, -0.07750572822594771 
1.3799999999998644, -0.07241301727069373 
1.3899999999998633, -0.0673594665564602 
1.3999999999998622, -0.06234175496442785 
1.4099999999998611, -0.05735619248638479 
1.41999999999986, -0.05239868331545256 
1.429999999999859, -0.04746468514515553 
1.4399999999998578, -0.042549164279277664 
1.4499999999998567, -0.0376465461102396 
1.4599999999998556, -0.03275066047369766 
1.4699999999998545, -0.0278546813310741 
1.4799999999998534, -0.02295106016904823 
1.4899999999998523, -0.018031452434869023 
1.4999999999998512, -0.013086636247804484 
1.5099999999998501, -0.008106422539138769 
1.519999999999849, -0.0030795556747960063 
1.529999999999848, 7.634329023719701e-7 
1.5399999999998468, 0.000022905103251964255 
1.5499999999998457, 0.00000195355986227677 
1.5599999999998446, 0.000008428415807107571 
1.5699999999998435, 0.00002671868635744546 
1.5799999999998424, 0.000003627596883214903 
1.5899999999998413, 0.0000034981304252953 
1.5999999999998402, 0.000053309262214244134 
1.6099999999998391, 0.00027850634031643555 
1.619999999999838, 0.0006997838511587744 
1.629999999999837, 0.0013398754048123184 
1.6399999999998358, 0.0022237818484485907 
1.6499999999998347, 0.0033790263650819684 
1.6599999999998336, 0.00483593998256076 
1.6699999999998325, 0.0066279813592095066 
1.6799999999998314, 0.008792095205296923 
1.6899999999998303, 0.011369114246422425 
1.6999999999998292, 0.014404210237389371 
1.709999999999828, 0.017947400192261747 
1.719999999999827, 0.022054114703576575 
1.729999999999826, 0.02678583597115176 
1.7399999999998248, 0.03221081393058579 
1.7499999999998237, 0.038404869633710655 
1.7599999999998226, 0.04545229574150585 
1.7699999999998215, 0.0534468645741572 
1.7799999999998204, 0.0624929545195726 
1.7899999999998193, 0.07270680558086429 
1.7999999999998182, 0.08421791423112245 
1.809999999999817, 0.09717057623854519 
1.819999999999816, 0.1117255833059812 
1.8299999999998149, 0.12806207465588512 
1.8399999999998138, 0.1463795372929466 
1.8499999999998127, 0.16689993752558252 
1.8599999999998116, 0.1898699500073386 
1.8699999999998105, 0.21556322722151344 
1.8799999999998094, 0.24428261961976772 
1.8899999999998083, 0.2763622116248253 
1.8999999999998072, 0.31216897797720294 
1.909999999999806, 0.3521037846611148 
1.919999999999805, 0.3966013552297853 
1.9299999999998039, 0.4461286942072363 
1.9399999999998028, 0.5011813046660647 
1.9499999999998017, 0.5622763631300098 
1.9599999999998006, 0.6299418379151914 
1.9699999999997995, 0.7047003896258488 
1.9799999999997984, 0.7870468314417572 
1.9899999999997973, 0.8774180397721524 
1.9999999999997962, 0.9761546137968997 
2.0099999999998173, 1.083454429272259 
2.0199999999998384, 1.1993196500335277 
2.0299999999998595, 1.3235008002237543 
2.0399999999998806, 1.4554440215903413 
2.0499999999999017, 1.5942501917613512 
2.059999999999923, 1.7386563326655537 
2.069999999999944, 1.887049589114346 
2.079999999999965, 2.0375209942781054 
2.089999999999986, 2.1879599489932446 
2.100000000000007, 2.3361817958036086 
2.1100000000000283, 2.4800724222950397 
2.1200000000000494, 2.617728496147271 
2.1300000000000705, 2.747571998261145 
2.1400000000000916, 2.868423452429216 
2.1500000000001127, 2.9795276444831718 
2.160000000000134, 3.080535392275628 
2.170000000000155, 3.1714521049068094 
2.180000000000176, 3.2525670065628773 
2.190000000000197, 3.324376263228851 
2.2000000000002182, 3.3875101922895143 
2.2100000000002393, 3.442670830206581 
2.2200000000002604, 3.4905825689791885 
2.2300000000002815, 3.5319559466210735 
2.2400000000003026, 3.567463097315511 
2.2500000000003237, 3.597722656059892 
2.260000000000345, 3.6232917958430826 
2.270000000000366, 3.6446632956776726 
2.280000000000387, 3.6622659036152263 
2.290000000000408, 3.6764666493984035 
2.3000000000004293, 3.687574112398352 
2.3100000000004504, 3.6958419356813015 
2.3200000000004715, 3.7014720922254383 
2.3300000000004926, 3.704617561042697 
2.3400000000005137, 3.7053841696732754 
2.3500000000005348, 3.7038314157047174 
2.360000000000556, 3.699972102425743 
2.370000000000577, 3.6937706189816146 
2.380000000000598, 3.685139667704597 
2.390000000000619, 3.673935192935346 
2.4000000000006403, 3.6599491974081517 
2.4100000000006614, 3.642900044050799 
2.4200000000006825, 3.6224197328047243 
2.4300000000007036, 3.5980375153056525 
2.4400000000007247, 3.5691590705611045 
2.450000000000746, 3.5350403261279904 
2.460000000000767, 3.4947549015176214 
2.470000000000788, 3.447154131285959 
2.480000000000809, 3.3908187990661607 
2.49000000000083, 3.3240022603263597 
2.5000000000008513, 3.2445658431906743 
2.5100000000008724, 3.1499097385726778 
2.5200000000008935, 3.0369066410908854 
2.5300000000009146, 2.9018519110575927 
2.5400000000009357, 2.740453578747838 
2.550000000000957, 2.5478978952124804 
2.560000000000978, 2.319039122430292 
2.570000000000999, 2.0487698912024386 
2.58000000000102, 1.7326197863873585 
2.5900000000010412, 1.3675905252114644 
2.6000000000010624, 0.953156317080338 
2.6100000000010835, 0.4922467991449458 
2.6200000000011046, -0.008004376073081096 
2.6300000000011257, -0.5306813838592076 
2.6400000000011468, -1.0669691090624414 
2.650000000001168, -1.6004575725967616 
2.660000000001189, -2.1149085916308374 
2.67000000000121, -2.596311033662867 
2.680000000001231, -3.034413157144345 
2.6900000000012523, -3.4233883818651045 
2.7000000000012734, -3.7616108865385756 
2.7100000000012945, -4.050799097725807 
2.7200000000013156, -4.294899980886377 
2.7300000000013367, -4.499030905038564 
2.740000000001358, -4.668655950889492 
2.750000000001379, -4.809041157666393 
2.7600000000014, -4.924952155899848 
2.770000000001421, -5.020527515607223 
2.780000000001442, -5.099262815141281 
2.7900000000014633, -5.164055267594469 
2.8000000000014844, -5.217275327527607 
2.8100000000015055, -5.260845185413443 
2.8200000000015266, -5.296313420952037 
2.8300000000015477, -5.324920936576656 
2.840000000001569, -5.347656636440437 
2.85000000000159, -5.365303051075351 
2.860000000001611, -5.378472885984356 
2.870000000001632, -5.387637718930864 
2.8800000000016532, -5.393150043272123 
2.8900000000016743, -5.395259700342714 
2.9000000000016954, -5.394125541537563 
2.9100000000017165, -5.389822949523082 
2.9200000000017377, -5.382347644999023 
2.9300000000017588, -5.37161601628756 
2.94000000000178, -5.357462034338283 
2.950000000001801, -5.3396306551303425 
2.960000000001822, -5.317767466689948 
2.970000000001843, -5.291404216121064 
2.9800000000018643, -5.259939769809871 
2.9900000000018854, -5.222616049692124 
3.0000000000019065, -5.178488607525002 
3.0100000000019276, -5.126391842873375 
3.0200000000019487, -5.06489958889954 
3.03000000000197, -4.992283103382563 
3.040000000001991, -4.906470704834085 
3.050000000002012, -4.805016715795071 
3.060000000002033, -4.6850922532559744 
3.070000000002054, -4.543516574115142 
3.0800000000020753, -4.37685401543316 
3.0900000000020964, -4.181605208401737 
3.1000000000021175, -3.9545170369334284 
3.1100000000021386, -3.6930170155816167 
3.1200000000021597, -3.3957396312402786 
3.130000000002181, -3.063058987272552 
3.140000000002202, -2.6974938599923104 
3.150000000002223, -2.3038411210914678 
3.160000000002244, -1.8889474174501428 
3.1700000000022652, -1.4611376886364145 
3.1800000000022863, -1.0294306564248628 
3.1900000000023074, -0.6027246474590439 
3.2000000000023285, -0.18911000782383838 
3.2100000000023496, 0.2015812734486896 
3.2200000000023707, 0.56440106489322 
3.230000000002392, 0.8985967280757493 
3.240000000002413, 1.2021933219405387 
3.250000000002434, 1.4746087402051378 
3.260000000002455, 1.7164197517812447 
3.2700000000024763, 1.9290908596417904 
3.2800000000024974, 2.114698537721829 
3.2900000000025185, 2.275678557462672 
3.3000000000025396, 2.4146151181318127 
3.3100000000025607, 2.5340800874301137 
3.3200000000025818, 2.6365217336307434 
3.330000000002603, 2.724196466162669 
3.340000000002624, 2.7991344182812394 
3.350000000002645, 2.863129443175323 
3.360000000002666, 2.917745255830324 
3.3700000000026873, 2.9643311974320565 
3.3800000000027084, 3.004042879068464 
3.3900000000027295, 3.0378644963135852 
3.4000000000027506, 3.066630800646814 
3.4100000000027717, 3.0910475765533665 
3.420000000002793, 3.1117100593997242 
3.430000000002814, 3.129119104848009 
3.440000000002835, 3.143695146020819 
3.450000000002856, 3.1557900983137466 
3.460000000002877, 3.1656974296627074 
3.4700000000028983, 3.17366063150547 
3.4800000000029194, 3.179880319675983 
3.4900000000029405, 3.1845201761069597 
3.5000000000029616, 3.1877119184325013 
3.5100000000029827, 3.1895594595680223 
3.520000000003004, 3.1901423955088313 
3.530000000003025, 3.1895189382206612 
3.540000000003046, 3.1877283922001545 
3.550000000003067, 3.184793258257756 
3.5600000000030882, 3.180721036281714 
3.5700000000031094, 3.175505790011341 
3.5800000000031305, 3.169129530936759 
3.5900000000031516, 3.1615634750625676 
3.6000000000031727, 3.1527692250946298 
3.6100000000031938, 3.1426999312527015 
3.620000000003215, 3.1313014859224304 
3.630000000003236, 3.1185138101724443 
3.640000000003257, 3.104272293054444 
3.650000000003278, 3.088509446649791 
3.6600000000032993, 3.0711568398505538 
3.6700000000033204, 3.052147370421158 
3.6800000000033415, 3.0314179262831087 
3.6900000000033626, 3.008912471343573 
3.7000000000033837, 2.98458556672713 
3.710000000003405, 2.9584063035036947 
3.720000000003426, 2.9303625772937933 
3.730000000003447, 2.9004655792429723 
3.740000000003468, 2.868754314592947 
3.750000000003489, 2.8352998947922488 
3.7600000000035103, 2.800209289878912 
3.7700000000035314, 2.763628185178503 
3.7800000000035525, 2.725742571809923 
3.7900000000035736, 2.6867787248368695 
3.8000000000035947, 2.647001293378405 
3.810000000003616, 2.6067093445471117 
3.820000000003637, 2.5662303603483463 
3.830000000003658, 2.525912367519345 
3.840000000003679, 2.4861145615718714 
3.8500000000037002, 2.447196941788142 
3.8600000000037213, 2.409509579563695 
3.8700000000037424, 2.373382181717544 
3.8800000000037635, 2.339114577796758 
3.8900000000037847, 2.306968662774276 
3.9000000000038058, 2.2771621809203357 
3.910000000003827, 2.2498645661461203 
3.920000000003848, 2.2251948828860195 
3.930000000003869, 2.203221760130126 
3.94000000000389, 2.1839650934916173 
3.9500000000039113, 2.167399212554195 
3.9600000000039324, 2.1534571726970833 
3.9700000000039535, 2.1420358266456785 
3.9800000000039746, 2.1330013529052736 
3.9900000000039957, 2.1261949570703322 
4.000000000004016, 2.1214385096386734 
4.010000000003993, 2.1185399339380635 
4.02000000000397, 2.1172982055716445 
4.030000000003946, 2.117507867698615 
4.040000000003923, 2.118963003230386 
4.0500000000039, 2.1214606354041616 
4.0600000000038765, 2.1248035525773346 
4.070000000003853, 2.1288025721476846 
4.08000000000383, 2.133278273006224 
4.090000000003807, 2.1380622365855255 
4.100000000003783, 2.142997843989802 
4.11000000000376, 2.147940681391241 
4.120000000003737, 2.1527586082702705 
4.130000000003713, 2.157331543527816 
4.14000000000369, 2.161551023334512 
4.150000000003667, 2.165319582119524 
4.1600000000036434, 2.168550004646982 
4.17000000000362, 2.171164492979285 
4.180000000003597, 2.173093787567131 
4.1900000000035735, 2.1742762769949056 
4.20000000000355, 2.174657126272218 
4.210000000003527, 2.174187449181498 
4.220000000003504, 2.1728235462056724 
4.23000000000348, 2.1705262260589078 
4.240000000003457, 2.16726022587132 
4.250000000003434, 2.1629937426359995 
4.26000000000341, 2.1576980865761164 
4.270000000003387, 2.1513474655606633 
4.280000000003364, 2.1439189084912833 
4.2900000000033405, 2.135392334579922 
4.300000000003317, 2.1257507745011615 
4.310000000003294, 2.1149807483877874 
4.320000000003271, 2.103072804392891 
4.330000000003247, 2.090022219920612 
4.340000000003224, 2.0758298654980147 
4.350000000003201, 2.0605032285150053 
4.360000000003177, 2.0440575906284564 
4.370000000003154, 2.026517348493639 
4.380000000003131, 2.0079174626997447 
4.390000000003107, 1.9883050144735128 
4.400000000003084, 1.9677408440862498 
4.410000000003061, 1.9463012392474928 
4.4200000000030375, 1.9240796364534638 
4.430000000003014, 1.9011882936810505 
4.440000000002991, 1.8777598893743273 
4.450000000002968, 1.85394900069532 
4.460000000002944, 1.82993341370676 
4.470000000002921, 1.8059152195218215 
4.480000000002898, 1.782121653224576 
4.490000000002874, 1.7588056359476187 
4.500000000002851, 1.7362459839661033 
4.510000000002828, 1.7147472507906347 
4.520000000002804, 1.6946391675261252 
4.530000000002781, 1.6762756415883178 
4.540000000002758, 1.660033262647791 
4.5500000000027345, 1.6463092460718858 
4.560000000002711, 1.635518717363647 
4.570000000002688, 1.6280912062504183 
4.580000000002665, 1.624466177591753 
4.590000000002641, 1.6250873815092464 
4.600000000002618, 1.6303957630574022 
4.610000000002595, 1.6408206417312687 
4.620000000002571, 1.6567688666813254 
4.630000000002548, 1.678611692784573 
4.640000000002525, 1.706669227894169 
4.6500000000025015, 1.7411924967421994 
4.660000000002478, 1.7823434731521897 
4.670000000002455, 1.830173858884736 
4.6800000000024315, 1.8846039201502 
4.690000000002408, 1.9454032789788336 
4.700000000002385, 2.012176094084437 
4.710000000002362, 2.0843534025924764 
4.720000000002338, 2.1611953489621003 
4.730000000002315, 2.2418054388588096 
4.740000000002292, 2.325157752424898 
4.750000000002268, 2.4101363243281226 
4.760000000002245, 2.495583934388175 
4.770000000002222, 2.5803557955670517 
4.7800000000021985, 2.6633725503747656 
4.790000000002175, 2.7436669284235022 
4.800000000002152, 2.820419434561389 
4.810000000002129, 2.892980272222875 
4.820000000002105, 2.960876882465332 
4.830000000002082, 3.0238084725344017 
4.840000000002059, 3.0816303239927083 
4.850000000002035, 3.1343313399261263 
4.860000000002012, 3.1820082655745026 
4.870000000001989, 3.224839494282777 
4.880000000001965, 3.2630605953516625 
4.890000000001942, 3.296942885751395 
4.900000000001919, 3.3267756570794393 
4.9100000000018955, 3.3528521312953035 
4.920000000001872, 3.3754588642213066 
4.930000000001849, 3.394868120070063 
4.940000000001826, 3.4113326641346533 
4.950000000001802, 3.4250824241206126 
4.960000000001779, 3.436322519620623 
4.970000000001756, 3.44523222894265 
4.980000000001732, 3.4519645363207374 
