t, s[1].omega / s[0].omega 
0, -0.739997677082886 
0.009999999999999995, -0.73975374406981 
0.019999999999999934, -0.7394796739567411 
0.029999999999999874, -0.7391585106912576 
0.04000000000000012, -0.7387732823862949 
0.050000000000000405, -0.7383165646157546 
0.06000000000000069, -0.7377956738959276 
0.07000000000000098, -0.7372339180111415 
0.08000000000000126, -0.7366710268037576 
0.09000000000000155, -0.7361651068574513 
0.10000000000000184, -0.735795930341564 
0.11000000000000212, -0.7356672031724621 
0.12000000000000241, -0.735904760728571 
0.130000000000002, -0.7366488434535567 
0.1400000000000009, -0.7380413426493593 
0.1499999999999998, -0.7402114534699038 
0.1599999999999987, -0.7432631376908712 
0.1699999999999976, -0.7472641729240896 
0.1799999999999965, -0.7522310382275189 
0.1899999999999954, -0.758100548763015 
0.1999999999999943, -0.7646843581472442 
0.2099999999999932, -0.7716237555200905 
0.2199999999999921, -0.7783958219137272 
0.229999999999991, -0.7844266853696159 
0.2399999999999899, -0.789286852213936 
0.2499999999999888, -0.7928328195908392 
0.2599999999999877, -0.7951868081110782 
0.2699999999999866, -0.7966024925901884 
0.2799999999999855, -0.7973370576048489 
0.2899999999999844, -0.797587695395001 
0.2999999999999833, -0.7974798501277087 
0.3099999999999822, -0.7970775384978237 
0.3199999999999811, -0.7963982106110498 
0.32999999999998, -0.7954288164536879 
0.3399999999999789, -0.7941505866538947 
0.3499999999999778, -0.792591393694724 
0.35999999999997667, -0.7909385269664762 
0.36999999999997557, -0.7897505806176859 
0.37999999999997447, -0.7902618154832671 
0.38999999999997337, -0.7945921118115385 
0.39999999999997227, -0.805350332102422 
0.40999999999997117, -0.8240936742012377 
0.41999999999997006, -0.8493142481829601 
0.42999999999996896, -0.8763404985896835 
0.43999999999996786, -0.9001102472579909 
0.44999999999996676, -0.9179615863863964 
0.45999999999996566, -0.9299158315318025 
0.46999999999996456, -0.9373338216364615 
0.47999999999996346, -0.9417157456513714 
0.48999999999996235, -0.9442034485990604 
0.49999999999996125, -0.9455336630524489 
0.5099999999999602, -0.94613794561117 
0.519999999999959, -0.9462451051465439 
0.529999999999958, -0.9459475259380004 
0.5399999999999568, -0.9452299999416768 
0.5499999999999557, -0.9439647229840051 
0.5599999999999546, -0.9418713962145603 
0.5699999999999535, -0.9384377607641877 
0.5799999999999524, -0.9328061444771473 
0.5899999999999513, -0.9236834468377845 
0.5999999999999502, -0.909462537598934 
0.6099999999999491, -0.888901381388456 
0.619999999999948, -0.8625171915721639 
0.6299999999999469, -0.8337764267189997 
0.6399999999999458, -0.8081235842162167 
0.6499999999999447, -0.7897425154316999 
0.6599999999999436, -0.7793277522928436 
0.6699999999999425, -0.7749124461407036 
0.6799999999999414, -0.773934484022377 
0.6899999999999403, -0.7744708882865371 
0.6999999999999392, -0.7754369068103596 
0.7099999999999381, -0.7763419068829018 
0.719999999999937, -0.7770140996227103 
0.7299999999999359, -0.7774187088521425 
0.7399999999999348, -0.7775617774743881 
0.7499999999999337, -0.7774443975718222 
0.7599999999999326, -0.7770400499271934 
0.7699999999999315, -0.7762801806860005 
0.7799999999999304, -0.7750436782967416 
0.7899999999999293, -0.7731565357465069 
0.7999999999999282, -0.7704192195039234 
0.8099999999999271, -0.766680146285882 
0.819999999999926, -0.761941584691116 
0.8299999999999249, -0.7564264447982236 
0.8399999999999238, -0.7505306558360372 
0.8499999999999227, -0.744683889379942 
0.8599999999999216, -0.7392249947874218 
0.8699999999999205, -0.7343593679354742 
0.8799999999999194, -0.7301810290804236 
0.8899999999999183, -0.7267130151845775 
0.8999999999999172, -0.7239380087821322 
0.9099999999999161, -0.721813767356531 
0.919999999999915, -0.7202786711851463 
0.9299999999999139, -0.7192543954208342 
0.9399999999999128, -0.718650347112374 
0.9499999999999117, -0.7183710161817942 
0.9599999999999106, -0.7183245811786507 
0.9699999999999095, -0.71843015610124 
0.9799999999999084, -0.7186220191344037 
0.9899999999999073, -0.718850935683659 
0.9999999999999062, -0.7190838856258561 
1.0099999999999052, -0.7193033182272944 
1.019999999999904, -0.7195056298800362 
1.029999999999903, -0.7196971125333066 
1.039999999999902, -0.719886019560372 
1.0499999999999008, -0.7200723417877419 
1.0599999999998997, -0.7202402827969961 
1.0699999999998986, -0.7203587730393101 
1.0799999999998975, -0.7203911080096427 
1.0899999999998964, -0.7203084727035068 
1.0999999999998953, -0.7200994776004135 
1.1099999999998942, -0.7197720124660172 
1.119999999999893, -0.7193503824959855 
1.129999999999892, -0.7188734680468303 
1.1399999999998909, -0.7183978641586045 
1.1499999999998898, -0.7180068905336514 
1.1599999999998887, -0.7178239445905209 
1.1699999999998876, -0.7180266911471638 
1.1799999999998865, -0.7188567928233632 
1.1899999999998854, -0.7206191164903482 
1.1999999999998843, -0.7236655302706508 
1.2099999999998832, -0.7283604343864888 
1.219999999999882, -0.7350244355637268 
1.229999999999881, -0.7438470192272115 
1.2399999999998799, -0.754756727646768 
1.2499999999998788, -0.7672636172992823 
1.2599999999998777, -0.7803698910720713 
1.2699999999998766, -0.7927269068701961 
1.2799999999998755, -0.8031048240606877 
1.2899999999998744, -0.8108866063207444 
1.2999999999998733, -0.8161726482629804 
1.3099999999998722, -0.819485700590201 
1.319999999999871, -0.8214162854410182 
1.32999999999987, -0.8224332533012305 
1.3399999999998689, -0.8228464813421505 
1.3499999999998678, -0.822834018944684 
1.3599999999998666, -0.8224771070160912 
1.3699999999998655, -0.821783602527318 
1.3799999999998644, -0.8206981573602208 
1.3899999999998633, -0.8191043141458556 
1.3999999999998622, -0.8168296674382075 
1.4099999999998611, -0.8136763214899896 
1.41999999999986, -0.8095125134363068 
1.429999999999859, -0.8044501707314637 
1.4399999999998578, -0.7990344586053943 
1.4499999999998567, -0.7941945503942065 
1.4599999999998556, -0.7908028978049104 
1.4699999999998545, -0.7893231737479667 
1.4799999999998534, -0.7899567491991885 
1.4899999999998523, -0.7925897953778747 
1.4999999999998512, -0.7964919444861085 
1.5099999999998501, -0.8006171127633571 
1.519999999999849, -0.8041928698675489 
1.529999999999848, -0.8069182741340774 
1.5399999999998468, -0.8088167079350596 
1.5499999999998457, -0.8100389925080977 
1.5599999999998446, -0.8107438472679149 
1.5699999999998435, -0.8110493944679646 
1.5799999999998424, -0.8110198876700785 
1.5899999999998413, -0.810661881039581 
1.5999999999998402, -0.8099163778899733 
1.6099999999998391, -0.8086409349356763 
1.619999999999838, -0.806582456612847 
1.629999999999837, -0.8033558564773708 
1.6399999999998358, -0.7984727000505526 
1.6499999999998347, -0.7914890343843057 
1.6599999999998336, -0.7822876487502746 
1.6699999999998325, -0.7713272199939147 
1.6799999999998314, -0.7595853226507095 
1.6899999999998303, -0.7481772017328808 
1.6999999999998292, -0.7379664743538262 
1.709999999999828, -0.7294166873127825 
1.719999999999827, -0.7226494289268556 
1.729999999999826, -0.7175660605397998 
1.7399999999998248, -0.7139491523491189 
1.7499999999998237, -0.7115290761710807 
1.7599999999998226, -0.7100269296754513 
1.7699999999998215, -0.7091837531824245 
1.7799999999998204, -0.7087791941857433 
1.7899999999998193, -0.7086396528992851 
1.7999999999998182, -0.7086369483231654 
1.809999999999817, -0.7086807205365999 
1.819999999999816, -0.7087088025569022 
1.8299999999998149, -0.7086792714599164 
1.8399999999998138, -0.7085663923192512 
1.8499999999998127, -0.7083604694733272 
1.8599999999998116, -0.7080688839424581 
1.8699999999998105, -0.7077137946248808 
1.8799999999998094, -0.7073237048649407 
1.8899999999998083, -0.7069213536409028 
1.8999999999998072, -0.7065145371256906 
1.909999999999806, -0.7060952214395222 
1.919999999999805, -0.7056469145189918 
1.9299999999998039, -0.705155405465649 
1.9399999999998028, -0.7046172427830398 
1.9499999999998017, -0.7040436775319443 
1.9599999999998006, -0.7034617444058742 
1.9699999999997995, -0.7029154127458155 
1.9799999999997984, -0.7024683071086341 
1.9899999999997973, -0.702207322627919 
1.9999999999997962, -0.7022450084959533 
2.0099999999998173, -0.7027184119404971 
2.0199999999998384, -0.703783226657124 
2.0299999999998595, -0.7056039910050081 
2.0399999999998806, -0.7083422452758291 
2.0499999999999017, -0.7121432382542476 
2.059999999999923, -0.7171173623067348 
2.069999999999944, -0.7233068015281197 
2.079999999999965, -0.7306266650495188 
2.089999999999986, -0.738784935546525 
2.100000000000007, -0.7472282791609217 
2.1100000000000283, -0.7552066090556597 
2.1200000000000494, -0.7620050636096539 
2.1300000000000705, -0.7672178322821148 
2.1400000000000916, -0.7708432934048743 
2.1500000000001127, -0.7731532329303219 
2.160000000000134, -0.7744942212841072 
2.170000000000155, -0.7751603786869999 
2.180000000000176, -0.7753536703989041 
2.190000000000197, -0.7751898169567443 
2.2000000000002182, -0.7747148137698037 
2.2100000000002393, -0.7739169953067458 
2.2200000000002604, -0.7727318674584878 
2.2300000000002815, -0.7710430686134089 
2.2400000000003026, -0.7686880832953037 
2.2500000000003237, -0.7654836989591349 
2.260000000000345, -0.7612860098768397 
2.270000000000366, -0.756066389376818 
2.280000000000387, -0.7498985690667171 
2.290000000000408, -0.7427577254214057 
2.3000000000004293, -0.7344786640596364 
2.3100000000004504, -0.7255076411237444 
2.3200000000004715, -0.7175220404715088 
2.3300000000004926, -0.7122607364016876 
2.3400000000005137, -0.7100432995103989 
2.3500000000005348, -0.7099705044742196 
2.360000000000556, -0.7109285157597753 
2.370000000000577, -0.7121471713692709 
2.380000000000598, -0.713242222614064 
2.390000000000619, -0.714076212820151 
2.4000000000006403, -0.7146287662986925 
2.4100000000006614, -0.7149181019000783 
2.4200000000006825, -0.714961536098388 
2.4300000000007036, -0.7147566318570203 
2.4400000000007247, -0.7142710676703132 
2.450000000000746, -0.7134366273198616 
2.460000000000767, -0.7121498012464426 
2.470000000000788, -0.7102884686941137 
2.480000000000809, -0.707755664209553 
2.49000000000083, -0.7045451483718265 
2.5000000000008513, -0.7007894435111632 
2.5100000000008724, -0.6967402072151627 
2.5200000000008935, -0.6926825898563093 
2.5300000000009146, -0.688846863482926 
2.5400000000009357, -0.6853711563468238 
2.550000000000957, -0.6823138824261341 
2.560000000000978, -0.6796852554440391 
2.570000000000999, -0.6774744624059534 
2.58000000000102, -0.6756650028789117 
2.5900000000010412, -0.6742399098275839 
2.6000000000010624, -0.6731811222452626 
2.6100000000010835, -0.6724668463400212 
2.6200000000011046, -0.6720695285976661 
2.6300000000011257, -0.6719557996947098 
2.6400000000011468, -0.6720886084570247 
2.650000000001168, -0.6724309071971017 
2.660000000001189, -0.672949844838002 
2.67000000000121, -0.6736204448037549 
2.680000000001231, -0.6744278639517232 
2.6900000000012523, -0.6753671540626922 
2.7000000000012734, -0.6764390193308356 
2.7100000000012945, -0.6776402157810432 
2.7200000000013156, -0.6789492683286069 
2.7300000000013367, -0.6803126477534563 
2.740000000001358, -0.6816413771549624 
2.750000000001379, -0.682827054485092 
2.7600000000014, -0.6837739135439772 
2.770000000001421, -0.6844277685301617 
2.780000000001442, -0.6847831628865513 
2.7900000000014633, -0.6848688965686072 
2.8000000000014844, -0.6847269855316163 
2.8100000000015055, -0.6843982609081833 
2.8200000000015266, -0.6839189849927358 
2.8300000000015477, -0.6833283455344 
2.840000000001569, -0.6826880556968249 
2.85000000000159, -0.6821197325881171 
2.860000000001611, -0.6818708307804906 
2.870000000001632, -0.682422624868724 
2.8800000000016532, -0.684645921377635 
2.8900000000016743, -0.6899714194832838 
2.9000000000016954, -0.700434368231262 
2.9100000000017165, -0.7182597422466536 
2.9200000000017377, -0.7445724742848449 
2.9300000000017588, -0.7775286347230487 
2.94000000000178, -0.8118513543548262 
2.950000000001801, -0.8415422016342416 
2.960000000001822, -0.8634200153915594 
2.970000000001843, -0.8777479578873584 
2.9800000000018643, -0.8864561019608269 
2.9900000000018854, -0.89152389084597 
3.0000000000019065, -0.8943844326369884 
3.0100000000019276, -0.8959291113567375 
3.0200000000019487, -0.8966694399111637 
3.03000000000197, -0.8968785425821906 
3.040000000001991, -0.8966788840229233 
3.050000000002012, -0.8960840353234036 
3.060000000002033, -0.895004325967621 
3.070000000002054, -0.8932186271725685 
3.0800000000020753, -0.8903066458905474 
3.0900000000020964, -0.8855346202474813 
3.1000000000021175, -0.8777104276246984 
3.1100000000021386, -0.8651161738135824 
3.1200000000021597, -0.845832813773472 
3.130000000002181, -0.8189224348027245 
3.140000000002202, -0.7862716925332421 
3.150000000002223, -0.753097558589917 
3.160000000002244, -0.7252547612291578 
3.1700000000022652, -0.7057254527593868 
3.1800000000022863, -0.6940151722996647 
3.1900000000023074, -0.6879310205053829 
3.2000000000023285, -0.6852441511931407 
3.2100000000023496, -0.6843481486451396 
3.2200000000023707, -0.6842730142897817 
3.230000000002392, -0.6844970609423322 
3.240000000002413, -0.6847635824185365 
3.250000000002434, -0.6849544157041302 
3.260000000002455, -0.6850146948583017 
3.2700000000024763, -0.6849114290280519 
3.2800000000024974, -0.6846119534301331 
3.2900000000025185, -0.684074701472183 
3.3000000000025396, -0.6832505186268044 
3.3100000000025607, -0.6820959528430552 
3.3200000000025818, -0.6805973180509055 
3.330000000002603, -0.6787942739786634 
3.340000000002624, -0.6767833413086821 
3.350000000002645, -0.674691812534571 
3.360000000002666, -0.6726375376507268 
3.3700000000026873, -0.6707009916714903 
3.3800000000027084, -0.6689213036446164 
3.3900000000027295, -0.6673090225476843 
3.4000000000027506, -0.6658629273668575 
3.4100000000027717, -0.6645828449668514 
3.420000000002793, -0.663476326474377 
3.430000000002814, -0.6625602696183861 
3.440000000002835, -0.661859335787386 
3.450000000002856, -0.6614026754107829 
3.460000000002877, -0.6612201058793781 
3.4700000000028983, -0.6613387721629179 
3.4800000000029194, -0.6617812308260804 
3.4900000000029405, -0.6625655504348396 
3.5000000000029616, -0.6637073437178309 
3.5100000000029827, -0.6652227354888882 
3.520000000003004, -0.6671302075101448 
3.530000000003025, -0.6694480830006979 
3.540000000003046, -0.6721834747221483 
3.550000000003067, -0.6753093184644452 
3.5600000000030882, -0.6787319737589843 
3.5700000000031094, -0.6822657053968828 
3.5800000000031305, -0.685644796100875 
3.5900000000031516, -0.6885930193372582 
3.6000000000031727, -0.6909195635959176 
3.6100000000031938, -0.6925719671867736 
3.620000000003215, -0.6936132354750975 
3.630000000003236, -0.6941580524318806 
3.640000000003257, -0.6943178835015827 
3.650000000003278, -0.6941736359119479 
3.6600000000032993, -0.6937688790431341 
3.6700000000033204, -0.6931119580776416 
3.6800000000033415, -0.6921804841005353 
3.6900000000033626, -0.6909275824254972 
3.7000000000033837, -0.689293990164866 
3.710000000003405, -0.6872331693074214 
3.720000000003426, -0.6847522087106271 
3.730000000003447, -0.6819398876649445 
3.740000000003468, -0.678869624418343 
3.750000000003489, -0.6752092169536251 
3.7600000000035103, -0.6697596204157843 
3.7700000000035314, -0.6611088066748112 
3.7800000000035525, -0.6497610059099663 
3.7900000000035736, -0.6386239891711175 
3.8000000000035947, -0.6303874534080576 
3.810000000003616, -0.6256538208643384 
3.820000000003637, -0.6235695179560902 
3.830000000003658, -0.6230212093496967 
3.840000000003679, -0.6231897719693592 
3.8500000000037002, -0.6236015959650236 
3.8600000000037213, -0.6240212613934474 
3.8700000000037424, -0.6243453436670482 
3.8800000000037635, -0.6245325467347209 
3.8900000000037847, -0.6245642561104273 
3.9000000000038058, -0.6244239161863399 
3.910000000003827, -0.6240873780339093 
3.920000000003848, -0.6235211655315485 
3.930000000003869, -0.6226892444829405 
3.94000000000389, -0.6215693918982138 
3.9500000000039113, -0.6201749887014278 
3.9600000000039324, -0.6185687737610459 
3.9700000000039535, -0.6168535492402583 
3.9800000000039746, -0.6151407230829475 
3.9900000000039957, -0.6135168861316775 
4.000000000004016, -0.6120281085545416 
4.010000000003993, -0.6106846711154674 
4.02000000000397, -0.6094764776043106 
4.030000000003946, -0.6083888610764655 
4.040000000003923, -0.6074135738984194 
4.0500000000039, -0.6065544149721385 
4.0600000000038765, -0.6058292625913679 
4.070000000003853, -0.6052704880426723 
4.08000000000383, -0.6049249074208439 
4.090000000003807, -0.6048536438236537 
4.100000000003783, -0.6051319918595253 
4.11000000000376, -0.6058495148723113 
4.120000000003737, -0.6071107917613666 
4.130000000003713, -0.6090369946022196 
4.14000000000369, -0.6117672950531813 
4.150000000003667, -0.615456352429049 
4.1600000000036434, -0.6202592695811455 
4.17000000000362, -0.6262891751971298 
4.180000000003597, -0.6335314289385321 
4.1900000000035735, -0.6417210744483398 
4.20000000000355, -0.6502569242674805 
4.210000000003527, -0.6582913941435004 
4.220000000003504, -0.6650445293966645 
4.23000000000348, -0.670128681605667 
4.240000000003457, -0.6736067099060252 
4.250000000003434, -0.6757996571858722 
4.26000000000341, -0.677068254031868 
4.270000000003387, -0.6776983549046596 
4.280000000003364, -0.6778760670990718 
4.2900000000033405, -0.6776993476629121 
4.300000000003317, -0.6771919486115151 
4.310000000003294, -0.676305377413132 
4.320000000003271, -0.6749016653039273 
4.330000000003247, -0.6727080130016668 
4.340000000003224, -0.6692293972326736 
4.350000000003201, -0.6636093137538042 
4.360000000003177, -0.654483784823562 
4.370000000003154, -0.6400666258049407 
4.380000000003131, -0.6189849501683187 
4.390000000003107, -0.5919854378929641 
4.400000000003084, -0.5628055047113509 
4.410000000003061, -0.5362199305580105 
4.4200000000030375, -0.515145140621805 
4.430000000003014, -0.49995749987296456 
4.440000000002991, -0.48962474462816213 
4.450000000002968, -0.4828233437988822 
4.460000000002944, -0.47843862162002687 
4.470000000002921, -0.47566260073811356 
4.480000000002898, -0.4739460396211911 
4.490000000002874, -0.47292585961868516 
4.500000000002851, -0.4723650649696328 
4.510000000002828, -0.47211033424148596 
4.520000000002804, -0.4720639554005329 
4.530000000002781, -0.4721659733807321 
4.540000000002758, -0.47238342492199736 
4.5500000000027345, -0.47270451051831514 
4.560000000002711, -0.4731359675723151 
4.570000000002688, -0.47370165783297313 
4.580000000002665, -0.47443971025898407 
4.590000000002641, -0.4753950868381759 
4.600000000002618, -0.4766048836982374 
4.610000000002595, -0.47807587667362184 
4.620000000002571, -0.47975946722304014 
4.630000000002548, -0.4815387673988899 
4.640000000002525, -0.4832471603623635 
4.6500000000025015, -0.4847203712051596 
4.660000000002478, -0.48585116919685367 
4.670000000002455, -0.4866088856256977 
4.6800000000024315, -0.48701900587400787 
4.690000000002408, -0.4871277004694939 
4.700000000002385, -0.486973243487116 
4.710000000002362, -0.4865688716818485 
4.720000000002338, -0.48589084802721577 
4.730000000002315, -0.4848626681087314 
4.740000000002292, -0.48332511548486046 
4.750000000002268, -0.48097874668873936 
4.760000000002245, -0.47728453969929346 
4.770000000002222, -0.4713352698838058 
4.7800000000021985, -0.46183414607550255 
4.790000000002175, -0.447567221988837 
4.800000000002152, -0.42865460089654717 
4.810000000002129, -0.4075259688373653 
4.820000000002105, -0.3877555476378698 
4.830000000002082, -0.3717307830447815 
4.840000000002059, -0.35989434784994523 
4.850000000002035, -0.351559791406325 
4.860000000002012, -0.34579396503580323 
4.870000000001989, -0.34181228190893637 
4.880000000001965, -0.3390535864604967 
4.890000000001942, -0.33714322703796207 
4.900000000001919, -0.33583967982221197 
4.9100000000018955, -0.33499219468896496 
4.920000000001872, -0.33451262555717215 
