t, s[1].omega / s[0].omega 
0, -1.1999401350419503 
0.009999999999999995, -1.193314610699915 
0.019999999999999934, -1.1857290399763722 
0.029999999999999874, -1.1779411788046734 
0.04000000000000012, -1.1709989869309811 
0.050000000000000405, -1.1658629051077394 
0.06000000000000069, -1.1629067635117007 
0.07000000000000098, -1.161754941012934 
0.08000000000000126, -1.1616462655684374 
0.09000000000000155, -1.1619126427555677 
0.10000000000000184, -1.1621689351086903 
0.11000000000000212, -1.1622497199233004 
0.12000000000000241, -1.1620870304393751 
0.130000000000002, -1.1616200415055578 
0.1400000000000009, -1.1607347285352918 
0.1499999999999998, -1.1592070596223742 
0.1599999999999987, -1.156629803235663 
0.1699999999999976, -1.152327791099 
0.1799999999999965, -1.1453337479195733 
0.1899999999999954, -1.134630336295829 
0.1999999999999943, -1.1199373410515956 
0.2099999999999932, -1.1028644574308335 
0.2199999999999921, -1.0871022935712962 
0.229999999999991, -1.0763786004036537 
0.2399999999999899, -1.0718078668584474 
0.2499999999999888, -1.0716942130454317 
0.2599999999999877, -1.0735353614646228 
0.2699999999999866, -1.0756192501095196 
0.2799999999999855, -1.0772414267599453 
0.2899999999999844, -1.078281872196714 
0.2999999999999833, -1.0788257612836538 
0.3099999999999822, -1.0789782602826539 
0.3199999999999811, -1.0788008290360669 
0.32999999999998, -1.0782926869324174 
0.3399999999999789, -1.0773781979563253 
0.3499999999999778, -1.0758852767403169 
0.35999999999997667, -1.0735163081171097 
0.36999999999997557, -1.069840780266978 
0.37999999999997447, -1.0643985389743407 
0.38999999999997337, -1.057072019469198 
0.39999999999997227, -1.048773983885813 
0.40999999999997117, -1.0418911396008232 
0.41999999999997006, -1.0393273428210836 
0.42999999999996896, -1.0422362500191398 
0.43999999999996786, -1.0489410887104689 
0.44999999999996676, -1.056500740173963 
0.45999999999996566, -1.062833587775837 
0.46999999999996456, -1.0672984080863448 
0.47999999999996346, -1.0701185590962405 
0.48999999999996235, -1.0717529113829065 
0.49999999999996125, -1.0725970570368677 
0.5099999999999602, -1.0729142971102863 
0.519999999999959, -1.0728508627350946 
0.529999999999958, -1.072463202451441 
0.5399999999999568, -1.0717359843503964 
0.5499999999999557, -1.0705921835732841 
0.5599999999999546, -1.068912381998088 
0.5699999999999535, -1.066606617182772 
0.5799999999999524, -1.0638195303277562 
0.5899999999999513, -1.0613325483114642 
0.5999999999999502, -1.0609670762466525 
0.6099999999999491, -1.0652505934760321 
0.619999999999948, -1.075695625083414 
0.6299999999999469, -1.0909017866337327 
0.6399999999999458, -1.1070497738076732 
0.6499999999999447, -1.1206298813850162 
0.6599999999999436, -1.1302657596123251 
0.6699999999999425, -1.1363484641812707 
0.6799999999999414, -1.1398924279226632 
0.6899999999999403, -1.1418198728439966 
0.6999999999999392, -1.1427625570257913 
0.7099999999999381, -1.143097524729308 
0.719999999999937, -1.1430295604032317 
0.7299999999999359, -1.1426591130612236 
0.7399999999999348, -1.1420340204641308 
0.7499999999999337, -1.1412056608984047 
0.7599999999999326, -1.1403195252956593 
0.7699999999999315, -1.1397550863753967 
0.7799999999999304, -1.1402421289783926 
0.7899999999999293, -1.1427341721509592 
0.7999999999999282, -1.147885393451347 
0.8099999999999271, -1.1554755232441267 
0.819999999999926, -1.164402730627482 
0.8299999999999249, -1.1732664422176386 
0.8399999999999238, -1.1809698209593393 
0.8499999999999227, -1.1869697633996679 
0.8599999999999216, -1.191218463069217 
0.8699999999999205, -1.1939708967946367 
0.8799999999999194, -1.1955891891336476 
0.8899999999999183, -1.1964111546780345 
0.8999999999999172, -1.1966949666591271 
0.9099999999999161, -1.1966176394116965 
0.919999999999915, -1.196300250520619 
0.9299999999999139, -1.1958441423026906 
0.9399999999999128, -1.1953701020981098 
0.9499999999999117, -1.1950451925862489 
0.9599999999999106, -1.195066707286594 
0.9699999999999095, -1.1955874936401347 
0.9799999999999084, -1.1966318127010593 
0.9899999999999073, -1.1980829823972508 
0.9999999999999062, -1.1997500587040941 
1.0099999999999052, -1.201445252931222 
1.019999999999904, -1.2030236171296327 
1.029999999999903, -1.204387972070936 
1.039999999999902, -1.2054793880814678 
1.0499999999999008, -1.2062668553591815 
1.0599999999998997, -1.2067409819532149 
1.0699999999998986, -1.2069110798222964 
1.0799999999998975, -1.206802834700141 
1.0899999999998964, -1.2064550998430907 
1.0999999999998953, -1.2059173656706783 
1.1099999999998942, -1.2052502124191469 
1.119999999999893, -1.2045275482628515 
1.129999999999892, -1.2038345252901084 
1.1399999999998909, -1.2032554319037703 
1.1499999999998898, -1.2028545163130195 
1.1599999999998887, -1.2026597866312205 
1.1699999999998876, -1.2026559503119223 
1.1799999999998865, -1.202787494117589 
1.1899999999998854, -1.202972729791607 
1.1999999999998843, -1.2031240496883062 
1.2099999999998832, -1.2031629911574075 
1.219999999999882, -1.203024283464584 
1.229999999999881, -1.2026536047003518 
1.2399999999998799, -1.2020063947415136 
1.2499999999998788, -1.2010504212918467 
1.2599999999998777, -1.1997700072775923 
1.2699999999998766, -1.1981692590023931 
1.2799999999998755, -1.1962746821382604 
1.2899999999998744, -1.1941401657442121 
1.2999999999998733, -1.191856259495831 
1.3099999999998722, -1.189560685115679 
1.319999999999871, -1.1874384870701258 
1.32999999999987, -1.1856916842557481 
1.3399999999998689, -1.184467772537226 
1.3499999999998678, -1.1837823291329972 
1.3599999999998666, -1.183507708202041 
1.3699999999998655, -1.183445997705681 
1.3799999999998644, -1.1834151475220867 
1.3899999999998633, -1.1832822169159933 
1.3999999999998622, -1.1829456298331689 
1.4099999999998611, -1.1822980207916363 
1.41999999999986, -1.1811896233583055 
1.429999999999859, -1.1794004632748998 
1.4399999999998578, -1.1766329916776936 
1.4499999999998567, -1.1725474483868867 
1.4599999999998556, -1.1668623903850237 
1.4699999999998545, -1.1595168299940788 
1.4799999999998534, -1.150845214873649 
1.4899999999998523, -1.1416732247296326 
1.4999999999998512, -1.1332084365944863 
1.5099999999998501, -1.1266326145037144 
1.519999999999849, -1.1225409431617046 
1.529999999999848, -1.1206800713986609 
1.5399999999998468, -1.120254461476961 
1.5499999999998457, -1.1204626930826627 
1.5599999999998446, -1.120789583877779 
1.5699999999998435, -1.120993797231909 
1.5799999999998424, -1.1209835754920068 
1.5899999999998413, -1.1207111769824984 
1.5999999999998402, -1.1201065785784103 
1.6099999999998391, -1.119028498019739 
1.619999999999838, -1.1172095690100536 
1.629999999999837, -1.114185076728345 
1.6399999999998358, -1.109225832577308 
1.6499999999998347, -1.1013697169283374 
1.6599999999998336, -1.0897533812404416 
1.6699999999998325, -1.0744045590246185 
1.6799999999998314, -1.0571153331296481 
1.6899999999998303, -1.0412483260997225 
1.6999999999998292, -1.0299067028086162 
1.709999999999828, -1.0240306543280568 
1.719999999999827, -1.0223666971083458 
1.729999999999826, -1.0229169312674147 
1.7399999999998248, -1.0241534458617163 
1.7499999999998237, -1.0253039297754447 
1.7599999999998226, -1.0261132676358828 
1.7699999999998215, -1.026558899511467 
1.7799999999998204, -1.0266808381731742 
1.7899999999998193, -1.0265060708919136 
1.7999999999998182, -1.0260164812854737 
1.809999999999817, -1.0251258975078767 
1.819999999999816, -1.0236475143775725 
1.8299999999998149, -1.0212426149823877 
1.8399999999998138, -1.0173563420731777 
1.8499999999998127, -1.0111871626865478 
1.8599999999998116, -1.001820888335137 
1.8699999999998105, -0.9887251524426333 
1.8799999999998094, -0.9725855727831274 
1.8899999999998083, -0.9557865875016486 
1.8999999999998072, -0.9415447434643941 
1.909999999999806, -0.9320406914558103 
1.919999999999805, -0.9273635327368943 
1.9299999999998039, -0.9261063291426392 
1.9399999999998028, -0.9265988930873006 
1.9499999999998017, -0.9276535754563197 
1.9599999999998006, -0.9286632507002368 
1.9699999999997995, -0.9294071269000688 
1.9799999999997984, -0.92984781492159 
1.9899999999997973, -0.9300061935074856 
1.9999999999997962, -0.9299005688845542 
2.0099999999998173, -0.9295182677206167 
2.0199999999998384, -0.9287964898878822 
2.0299999999998595, -0.9275992316359597 
2.0399999999998806, -0.9256847588907521 
2.0499999999999017, -0.922669421254993 
2.059999999999923, -0.918018242260459 
2.069999999999944, -0.9111311977622775 
2.079999999999965, -0.9016022726109909 
2.089999999999986, -0.8896080424313506 
2.100000000000007, -0.8761451872435639 
2.1100000000000283, -0.8628012273814359 
2.1200000000000494, -0.8511339858781783 
2.1300000000000705, -0.8421091028093238 
2.1400000000000916, -0.835924941033116 
2.1500000000001127, -0.8321916407253271 
2.160000000000134, -0.8302473218878467 
2.170000000000155, -0.8294275494890574 
2.180000000000176, -0.8292110233209735 
2.190000000000197, -0.8292519546877639 
2.2000000000002182, -0.829348092975341 
2.2100000000002393, -0.8293899881473058 
2.2200000000002604, -0.8293163553038608 
2.2300000000002815, -0.8290825767272025 
2.2400000000003026, -0.8286410348464257 
2.2500000000003237, -0.8279311107721513 
2.260000000000345, -0.82687945955053 
2.270000000000366, -0.8254136519054043 
2.280000000000387, -0.8234895270693059 
2.290000000000408, -0.8211218611945625 
2.3000000000004293, -0.8183976101042102 
2.3100000000004504, -0.8154581541598057 
2.3200000000004715, -0.8124610970116981 
2.3300000000004926, -0.8095465595083404 
2.3400000000005137, -0.8068227986208566 
2.3500000000005348, -0.8043679561452557 
2.360000000000556, -0.8022370954999423 
2.370000000000577, -0.8004666028775835 
2.380000000000598, -0.7990738549355156 
2.390000000000619, -0.7980542579953733 
2.4000000000006403, -0.7973794171227038 
2.4100000000006614, -0.7969994763867364 
2.4200000000006825, -0.7968502010420695 
2.4300000000007036, -0.7968626207747009 
2.4400000000007247, -0.7969718450937178 
2.450000000000746, -0.7971226775296258 
2.460000000000767, -0.7972718172576498 
2.470000000000788, -0.7973880222447371 
2.480000000000809, -0.7974516567262115 
2.49000000000083, -0.7974538108471334 
2.5000000000008513, -0.7973939223984927 
2.5100000000008724, -0.7972751188506936 
2.5200000000008935, -0.7970986152843527 
2.5300000000009146, -0.796860398952709 
2.5400000000009357, -0.7965526139293279 
2.550000000000957, -0.7961688065639347 
2.560000000000978, -0.7957096441725677 
2.570000000000999, -0.795186331092016 
2.58000000000102, -0.7946216480280491 
2.5900000000010412, -0.7940503151276156 
2.6000000000010624, -0.7935198617555623 
2.6100000000010835, -0.7930914114470047 
2.6200000000011046, -0.7928384042083662 
2.6300000000011257, -0.7928413428684398 
2.6400000000011468, -0.7931783986655121 
2.650000000001168, -0.7939142379100549 
2.660000000001189, -0.795090845621208 
2.67000000000121, -0.7967229948311699 
2.680000000001231, -0.7987978879129476 
2.6900000000012523, -0.8012755396752403 
2.7000000000012734, -0.8040857821664202 
2.7100000000012945, -0.8071205467851886 
2.7200000000013156, -0.81022652208609 
2.7300000000013367, -0.8132107261738616 
2.740000000001358, -0.8158713247947522 
2.750000000001379, -0.8180489865655142 
2.7600000000014, -0.8196700048986261 
2.770000000001421, -0.8207518051703973 
2.780000000001442, -0.8213716571563415 
2.7900000000014633, -0.8216251219431344 
2.8000000000014844, -0.821597129553964 
2.8100000000015055, -0.8213511027641855 
2.8200000000015266, -0.8209314555306506 
2.8300000000015477, -0.8203750652890711 
2.840000000001569, -0.8197319149178878 
2.85000000000159, -0.819099445186042 
2.860000000001611, -0.8186762405017436 
2.870000000001632, -0.8188337477549327 
2.8800000000016532, -0.8201830832230541 
2.8900000000016743, -0.8235764249392201 
2.9000000000016954, -0.8299492961272558 
2.9100000000017165, -0.8399353710783568 
2.9200000000017377, -0.853337816268124 
2.9300000000017588, -0.8688042597599539 
2.94000000000178, -0.8841522046278593 
2.950000000001801, -0.8973318552358561 
2.960000000001822, -0.9072938317860972 
2.970000000001843, -0.9140925048991397 
2.9800000000018643, -0.918392861696143 
2.9900000000018854, -0.9209575932288567 
3.0000000000019065, -0.922394335266379 
3.0100000000019276, -0.9231105938516743 
3.0200000000019487, -0.9233518479495473 
3.03000000000197, -0.9232500826055443 
3.040000000001991, -0.9228589186322154 
3.050000000002012, -0.9221735315902843 
3.060000000002033, -0.9211408669439693 
3.070000000002054, -0.9196702439356184 
3.0800000000020753, -0.9176632703195938 
3.0900000000020964, -0.915096456660169 
3.1000000000021175, -0.9121951888655033 
3.1100000000021386, -0.9096822405238134 
3.1200000000021597, -0.9089033636935742 
3.130000000002181, -0.9114377681930218 
3.140000000002202, -0.9180680364877715 
3.150000000002223, -0.927895703231215 
3.160000000002244, -0.9387052646296613 
3.1700000000022652, -0.948344078172016 
3.1800000000022863, -0.9557230250495788 
3.1900000000023074, -0.9607949379435844 
3.2000000000023285, -0.9640266653504916 
3.2100000000023496, -0.965963206009025 
3.2200000000023707, -0.9670381617495654 
3.230000000002392, -0.9675412890132234 
3.240000000002413, -0.9676425491526712 
3.250000000002434, -0.9674215270142245 
3.260000000002455, -0.9668851074308977 
3.2700000000024763, -0.9659699956787154 
3.2800000000024974, -0.9645308473538641 
3.2900000000025185, -0.9623187186521751 
3.3000000000025396, -0.9589668283941087 
3.3100000000025607, -0.9540298491346693 
3.3200000000025818, -0.9471624341023983 
3.330000000002603, -0.9385042267161421 
3.340000000002624, -0.9291206283620255 
3.350000000002645, -0.9209747402278172 
3.360000000002666, -0.9159997906449794 
3.3700000000026873, -0.914857091248132 
3.3800000000027084, -0.9166387469232566 
3.3900000000027295, -0.9197426370211096 
3.4000000000027506, -0.922874508607323 
3.4100000000027717, -0.9254008819185184 
3.420000000002793, -0.9271865140553542 
3.430000000002814, -0.928325170896138 
3.440000000002835, -0.9289623953589402 
3.450000000002856, -0.9292181492876846 
3.460000000002877, -0.9291635529136549 
3.4700000000028983, -0.9288156570126708 
3.4800000000029194, -0.9281311292443112 
3.4900000000029405, -0.9269891682897884 
3.5000000000029616, -0.9251579241021008 
3.5100000000029827, -0.9222439756258817 
3.520000000003004, -0.9176425972967355 
3.530000000003025, -0.9105535094912343 
3.540000000003046, -0.9001947438821649 
3.550000000003067, -0.886324806787101 
3.5600000000030882, -0.8698668970621212 
3.5700000000031094, -0.8529776644831291 
3.5800000000031305, -0.8381532191736835 
3.5900000000031516, -0.8270262555888724 
3.6000000000031727, -0.8198694694420396 
3.6100000000031938, -0.8159582222742598 
3.620000000003215, -0.8142229443879465 
3.630000000003236, -0.8137133616985371 
3.640000000003257, -0.8137705943442292 
3.650000000003278, -0.8140096709807054 
3.6600000000032993, -0.8142343683942412 
3.6700000000033204, -0.8143543329231806 
3.6800000000033415, -0.8143266373157478 
3.6900000000033626, -0.8141200441813072 
3.7000000000033837, -0.8136940634896618 
3.710000000003405, -0.8129869132513786 
3.720000000003426, -0.8119114448155106 
3.730000000003447, -0.8103635541378493 
3.740000000003468, -0.8082497328059711 
3.750000000003489, -0.8055321674666617 
3.7600000000035103, -0.8022700457831746 
3.7700000000035314, -0.7986244396379428 
3.7800000000035525, -0.79481629570287 
3.7900000000035736, -0.7910656852938214 
3.8000000000035947, -0.7875495758220795 
3.810000000003616, -0.7843902823139992 
3.820000000003637, -0.781662914998464 
3.830000000003658, -0.7794062936569193 
3.840000000003679, -0.7776295557147891 
3.8500000000037002, -0.7763144683299054 
3.8600000000037213, -0.7754171179438057 
3.8700000000037424, -0.7748724688329581 
3.8800000000037635, -0.7746027442522735 
3.8900000000037847, -0.7745277014342983 
3.9000000000038058, -0.7745735847725145 
3.910000000003827, -0.77467848929334 
3.920000000003848, -0.7747939960910778 
3.930000000003869, -0.7748846177965885 
3.94000000000389, -0.7749268681237111 
3.9500000000039113, -0.7749086784363652 
3.9600000000039324, -0.7748282496188662 
3.9700000000039535, -0.7746907156520834 
3.9800000000039746, -0.7745023986561325 
3.9900000000039957, -0.7742651125744608 
4.000000000004016, -0.7739741065950448 
4.010000000003993, -0.7736211380935314 
4.02000000000397, -0.773200586404458 
4.030000000003946, -0.7727149035349917 
4.040000000003923, -0.7721773440235179 
4.0500000000039, -0.7716126854988612 
4.0600000000038765, -0.7710577813410384 
4.070000000003853, -0.7705628034035817 
4.08000000000383, -0.7701923016146812 
4.090000000003807, -0.7700241076974058 
4.100000000003783, -0.7701443651150488 
4.11000000000376, -0.7706386237168987 
4.120000000003737, -0.771581116899207 
4.130000000003713, -0.7730254070295964 
4.14000000000369, -0.7749983769088696 
4.150000000003667, -0.7774965950751839 
4.1600000000036434, -0.7804814200551434 
4.17000000000362, -0.783869208559756 
4.180000000003597, -0.7875176269160757 
4.1900000000035735, -0.7912185567099717 
4.20000000000355, -0.7947164283525522 
4.210000000003527, -0.7977630965026055 
4.220000000003504, -0.8001892504745246 
4.23000000000348, -0.8019462584626211 
4.240000000003457, -0.8030913941159266 
4.250000000003434, -0.8037362459841596 
4.26000000000341, -0.8039969581527734 
4.270000000003387, -0.8039666477090035 
4.280000000003364, -0.8037082968242218 
4.2900000000033405, -0.8032594069198083 
4.300000000003317, -0.8026431810553485 
4.310000000003294, -0.8018870584259952 
4.320000000003271, -0.8010549750856442 
4.330000000003247, -0.800303481343241 
4.340000000003224, -0.7999693493353185 
4.350000000003201, -0.8006763502134812 
4.360000000003177, -0.803396828936733 
4.370000000003154, -0.8093256970256378 
4.380000000003131, -0.8194024427107252 
4.390000000003107, -0.8335339781603391 
4.400000000003084, -0.8500801362438762 
4.410000000003061, -0.866364442402312 
4.4200000000030375, -0.88005636696659 
4.430000000003014, -0.8901722283285547 
4.440000000002991, -0.8969637259533778 
4.450000000002968, -0.9012310767338901 
4.460000000002944, -0.9037839612457761 
4.470000000002921, -0.9052322467182388 
4.480000000002898, -0.9059741194426618 
4.490000000002874, -0.9062462608817438 
4.500000000002851, -0.9061734916867243 
4.510000000002828, -0.9058008154408739 
4.520000000002804, -0.9051071378477096 
4.530000000002781, -0.9040030776014027 
4.540000000002758, -0.9023153473910526 
4.5500000000027345, -0.8997629894902863 
4.560000000002711, -0.8959420793993861 
4.570000000002688, -0.8903609459606834 
4.580000000002665, -0.8825998790724473 
4.590000000002641, -0.8726543936943075 
4.600000000002618, -0.8613539686913342 
4.610000000002595, -0.8504413755694118 
4.620000000002571, -0.8418917345875631 
4.630000000002548, -0.8368105776875433 
4.640000000002525, -0.8349449786357589 
4.6500000000025015, -0.835187602155656 
4.660000000002478, -0.8363796717084424 
4.670000000002455, -0.8377437021313222 
4.6800000000024315, -0.8389050261631279 
4.690000000002408, -0.839746861425254 
4.700000000002385, -0.8402715260383461 
4.710000000002362, -0.8405157405907824 
4.720000000002338, -0.8405092074420363 
4.730000000002315, -0.8402555733936131 
4.740000000002292, -0.839720671044921 
4.750000000002268, -0.8388198323887925 
4.760000000002245, -0.8374019956920163 
4.770000000002222, -0.835236411018999 
4.7800000000021985, -0.8320215069764064 
4.790000000002175, -0.8274497689024202 
4.800000000002152, -0.8213498771633999 
4.810000000002129, -0.8138555119600488 
4.820000000002105, -0.8054672544357062 
4.830000000002082, -0.7969192854425577 
4.840000000002059, -0.7889350683024295 
4.850000000002035, -0.7820378876271629 
4.860000000002012, -0.776490016859342 
4.870000000001989, -0.7723248913784069 
4.880000000001965, -0.7694138053797176 
4.890000000001942, -0.7675345883931766 
4.900000000001919, -0.7664311746278819 
4.9100000000018955, -0.765859229669988 
4.920000000001872, -0.7656141824949142 
4.930000000001849, -0.7655412651961135 
