t, s[1].omega / s[0].omega 
0, -0.6299977172188062 
0.009999999999999995, -0.6297691232717837 
0.019999999999999934, -0.6295346021422901 
0.029999999999999874, -0.6292809452293522 
0.04000000000000012, -0.6289932706355251 
0.050000000000000405, -0.6286612358082395 
0.06000000000000069, -0.6282824850609365 
0.07000000000000098, -0.627863182581039 
0.08000000000000126, -0.6274174614095085 
0.09000000000000155, -0.6269678696339647 
0.10000000000000184, -0.6265481077568517 
0.11000000000000212, -0.6262085532929074 
0.12000000000000241, -0.6260245856518192 
0.130000000000002, -0.6261072996051052 
0.1400000000000009, -0.6266153872923909 
0.1499999999999998, -0.6277652439991774 
0.1599999999999987, -0.6298329486184914 
0.1699999999999976, -0.6331358307087196 
0.1799999999999965, -0.6379736831681374 
0.1899999999999954, -0.6445085120782288 
0.1999999999999943, -0.6525902757236782 
0.2099999999999932, -0.6616181710325221 
0.2199999999999921, -0.6706097221339277 
0.229999999999991, -0.6785558301147426 
0.2399999999999899, -0.6848376831188983 
0.2499999999999888, -0.6893675592199185 
0.2599999999999877, -0.6924165881630888 
0.2699999999999866, -0.6943650476570433 
0.2799999999999855, -0.6955489581631672 
0.2899999999999844, -0.6962127922491186 
0.2999999999999833, -0.6965155820046565 
0.3099999999999822, -0.6965505975325424 
0.3199999999999811, -0.6963618406603784 
0.32999999999998, -0.6959530026556349 
0.3399999999999789, -0.6952887031382969 
0.3499999999999778, -0.6942889050324041 
0.35999999999997667, -0.6928189437709584 
0.36999999999997557, -0.6906826148241991 
0.37999999999997447, -0.6876362634217281 
0.38999999999997337, -0.6834521509141014 
0.39999999999997227, -0.6780447695890656 
0.40999999999997117, -0.6716069380636895 
0.41999999999997006, -0.6646323312270025 
0.42999999999996896, -0.6577588661259467 
0.43999999999996786, -0.6515380548121026 
0.44999999999996676, -0.6462943655027213 
0.45999999999996566, -0.6421224323585666 
0.46999999999996456, -0.6389595566820601 
0.47999999999996346, -0.6366639701198845 
0.48999999999996235, -0.6350694697992473 
0.49999999999996125, -0.6340157718594173 
0.5099999999999602, -0.6333625900272523 
0.519999999999959, -0.6329944914955601 
0.529999999999958, -0.6328208265332697 
0.5399999999999568, -0.6327731103179988 
0.5499999999999557, -0.6328012989334175 
0.5599999999999546, -0.6328699870022653 
0.5699999999999535, -0.6329552827442846 
0.5799999999999524, -0.6330427626705412 
0.5899999999999513, -0.6331263389530147 
0.5999999999999502, -0.6332071267050281 
0.6099999999999491, -0.6332909128214287 
0.619999999999948, -0.6333833558260225 
0.6299999999999469, -0.6334838445920173 
0.6399999999999458, -0.6335809363450714 
0.6499999999999447, -0.6336525819711326 
0.6599999999999436, -0.6336719493452646 
0.6699999999999425, -0.6336159332023618 
0.6799999999999414, -0.6334716042702395 
0.6899999999999403, -0.6332378100297004 
0.6999999999999392, -0.6329229179184768 
0.7099999999999381, -0.6325418193889952 
0.719999999999937, -0.632114912134749 
0.7299999999999359, -0.6316704683047517 
0.7399999999999348, -0.6312510219645245 
0.7499999999999337, -0.6309243208283877 
0.7599999999999326, -0.6307993731051467 
0.7699999999999315, -0.6310473017138074 
0.7799999999999304, -0.6319238665594944 
0.7899999999999293, -0.6337837603656374 
0.7999999999999282, -0.6370641721193713 
0.8099999999999271, -0.6421990335651604 
0.819999999999926, -0.6494256298995754 
0.8299999999999249, -0.6585115086571482 
0.8399999999999238, -0.6685883967961022 
0.8499999999999227, -0.6783653976807447 
0.8599999999999216, -0.686702519073672 
0.8699999999999205, -0.6930744999267084 
0.8799999999999194, -0.6975645159280723 
0.8899999999999183, -0.7005598071443377 
0.8999999999999172, -0.7024823874567863 
0.9099999999999161, -0.7036698482303209 
0.919999999999915, -0.7043571361354818 
0.9299999999999139, -0.704694945073461 
0.9399999999999128, -0.7047721026084736 
0.9499999999999117, -0.7046317227191169 
0.9599999999999106, -0.7042797008287555 
0.9699999999999095, -0.7036864393315007 
0.9799999999999084, -0.7027833690788723 
0.9899999999999073, -0.7014575408081909 
0.9999999999999062, -0.6995521624123031 
1.0099999999999052, -0.6968882247272219 
1.019999999999904, -0.6933243809425735 
1.029999999999903, -0.6888507907820997 
1.039999999999902, -0.6836638535743815 
1.0499999999999008, -0.6781462196455376 
1.0599999999998997, -0.6727431767430453 
1.0699999999998986, -0.6678216494373899 
1.0799999999998975, -0.663598621182482 
1.0899999999998964, -0.6601481750321768 
1.0999999999998953, -0.6574456945267428 
1.1099999999998942, -0.6554125056677079 
1.119999999999893, -0.6539471194664837 
1.129999999999892, -0.6529436604292117 
1.1399999999998909, -0.6523019866877663 
1.1499999999998898, -0.6519331058252771 
1.1599999999998887, -0.6517617912525326 
1.1699999999998876, -0.651727257145575 
1.1799999999998865, -0.651782434793265 
1.1899999999998854, -0.6518924442909121 
1.1999999999998843, -0.6520329074366817 
1.2099999999998832, -0.6521885673630372 
1.219999999999882, -0.6523521769018683 
1.229999999999881, -0.6525229246680373 
1.2399999999998799, -0.6527032952486514 
1.2499999999998788, -0.6528939184553091 
1.2599999999998777, -0.6530877627901676 
1.2699999999998766, -0.653266776222919 
1.2799999999998755, -0.6534038706345436 
1.2899999999998744, -0.6534702050444904 
1.2999999999998733, -0.653443940025108 
1.3099999999998722, -0.6533155847667993 
1.319999999999871, -0.653087999621897 
1.32999999999987, -0.652773053627101 
1.3399999999998689, -0.6523884424016975 
1.3499999999998678, -0.6519572062384829 
1.3599999999998666, -0.6515110714180193 
1.3699999999998655, -0.6510980930317115 
1.3799999999998644, -0.6507950406868852 
1.3899999999998633, -0.6507247603629346 
1.3999999999998622, -0.6510774213712892 
1.4099999999998611, -0.6521309108836231 
1.41999999999986, -0.6542581001041932 
1.429999999999859, -0.6578963912616113 
1.4399999999998578, -0.6634427763581653 
1.4499999999998567, -0.6710484351352484 
1.4599999999998556, -0.6803654673186521 
1.4699999999998545, -0.6904447765399252 
1.4799999999998534, -0.7000121068593149 
1.4899999999998523, -0.708027710412799 
1.4999999999998512, -0.7140710279042565 
1.5099999999998501, -0.7182810579045168 
1.519999999999849, -0.7210564860630553 
1.529999999999848, -0.7228107341983684 
1.5399999999998468, -0.7238684012986762 
1.5499999999998457, -0.7244524398577865 
1.5599999999998446, -0.724703290792761 
1.5699999999998435, -0.7247005612790536 
1.5799999999998424, -0.7244779652549276 
1.5899999999998413, -0.7240301486802411 
1.5999999999998402, -0.7233120360199761 
1.6099999999998391, -0.7222319687568722 
1.619999999999838, -0.7206420335315087 
1.629999999999837, -0.7183352082522119 
1.6399999999998358, -0.7150698706396181 
1.6499999999998347, -0.7106479848105001 
1.6599999999998336, -0.7050465273826411 
1.6699999999998325, -0.6985297289166166 
1.6799999999998314, -0.6916271511859449 
1.6899999999998303, -0.6849556259544655 
1.6999999999998292, -0.6790115764694157 
1.709999999999828, -0.674067176748981 
1.719999999999827, -0.6701851237138293 
1.729999999999826, -0.6672884824455936 
1.7399999999998248, -0.665230067614994 
1.7499999999998237, -0.6638408694704351 
1.7599999999998226, -0.6629582558973742 
1.7699999999998215, -0.6624402016805355 
1.7799999999998204, -0.6621707670181387 
1.7899999999998193, -0.6620601840178645 
1.7999999999998182, -0.6620418055729919 
1.809999999999817, -0.6620676598374969 
1.819999999999816, -0.6621040180746333 
1.8299999999998149, -0.6621280013931421 
1.8399999999998138, -0.6621257157881792 
1.8499999999998127, -0.6620916224849549 
1.8599999999998116, -0.6620279232558952 
1.8699999999998105, -0.6619422829825907 
1.8799999999998094, -0.6618430940335133 
1.8899999999998083, -0.6617336504887146 
1.8999999999998072, -0.6616083662956311 
1.909999999999806, -0.6614536334266887 
1.919999999999805, -0.6612530857922067 
1.9299999999998039, -0.6609941673621983 
1.9399999999998028, -0.6606725209241324 
1.9499999999998017, -0.6602930107175506 
1.9599999999998006, -0.6598688311320811 
1.9699999999997995, -0.6594210710749955 
1.9799999999997984, -0.658980427551543 
1.9899999999997973, -0.6585917151131879 
1.9999999999997962, -0.6583210733130134 
2.0099999999998173, -0.6582652159806408 
2.0199999999998384, -0.658561315356753 
2.0299999999998595, -0.6593948578585999 
2.0399999999998806, -0.6610007579700209 
2.0499999999999017, -0.6636498010025463 
2.059999999999923, -0.6676082200327842 
2.069999999999944, -0.6730561374830442 
2.079999999999965, -0.6799621109746641 
2.089999999999986, -0.6879544324653191 
2.100000000000007, -0.6962976387349611 
2.1100000000000283, -0.7040843330398062 
2.1200000000000494, -0.7105836826851281 
2.1300000000000705, -0.7154914025965778 
2.1400000000000916, -0.7189072499099607 
2.1500000000001127, -0.7211374054605943 
2.160000000000134, -0.7225118071944786 
2.170000000000155, -0.7232955084963979 
2.180000000000176, -0.7236713479791357 
2.190000000000197, -0.7237518701245546 
2.2000000000002182, -0.7235953618635963 
2.2100000000002393, -0.7232165117764516 
2.2200000000002604, -0.7225893076643468 
2.2300000000002815, -0.7216417828615086 
2.2400000000003026, -0.7202428830958089 
2.2500000000003237, -0.7181843519892743 
2.260000000000345, -0.7151694099710073 
2.270000000000366, -0.7108386721902821 
2.280000000000387, -0.704881402924124 
2.290000000000408, -0.6972490628489117 
2.3000000000004293, -0.6883607262035847 
2.3100000000004504, -0.6790791489417467 
2.3200000000004715, -0.6703879175627849 
2.3300000000004926, -0.6630117434887274 
2.3400000000005137, -0.6572526501034962 
2.3500000000005348, -0.6530597654079432 
2.360000000000556, -0.6501877384199134 
2.370000000000577, -0.6483308407903731 
2.380000000000598, -0.6472011766951884 
2.390000000000619, -0.6465618543526049 
2.4000000000006403, -0.6462335533924636 
2.4100000000006614, -0.6460882299369549 
2.4200000000006825, -0.6460381266035939 
2.4300000000007036, -0.6460244495608969 
2.4400000000007247, -0.6460078404925034 
2.450000000000746, -0.6459615619491053 
2.460000000000767, -0.6458676837482465 
2.470000000000788, -0.6457160622202873 
2.480000000000809, -0.6455051362397264 
2.49000000000083, -0.6452425532061706 
2.5000000000008513, -0.6449432768900432 
2.5100000000008724, -0.6446242628998659 
2.5200000000008935, -0.6442976216870274 
2.5300000000009146, -0.6439660219475147 
2.5400000000009357, -0.6436230053809584 
2.550000000000957, -0.6432577335785139 
2.560000000000978, -0.6428611302745889 
2.570000000000999, -0.6424303417215629 
2.58000000000102, -0.6419705195567275 
2.5900000000010412, -0.6414950698770849 
2.6000000000010624, -0.6410262104963037 
2.6100000000010835, -0.6405971269758629 
2.6200000000011046, -0.6402561495895523 
2.6300000000011257, -0.6400727070006516 
2.6400000000011468, -0.640144314757921 
2.650000000001168, -0.6406032986741109 
2.660000000001189, -0.6416210848172736 
2.67000000000121, -0.6434063449489777 
2.680000000001231, -0.6461905472092614 
2.6900000000012523, -0.6501905549284732 
2.7000000000012734, -0.6555360068023212 
2.7100000000012945, -0.6621600006591961 
2.7200000000013156, -0.6696912346893067 
2.7300000000013367, -0.6774449647979585 
2.740000000001358, -0.6846053117002994 
2.750000000001379, -0.6905360900856061 
2.7600000000014, -0.6949910029357433 
2.770000000001421, -0.6980802066189993 
2.780000000001442, -0.700089502873608 
2.7900000000014633, -0.7013193447104371 
2.8000000000014844, -0.7020086601268216 
2.8100000000015055, -0.7023210001042056 
2.8200000000015266, -0.7023556124430033 
2.8300000000015477, -0.7021615009165665 
2.840000000001569, -0.7017462122167324 
2.85000000000159, -0.701077220271557 
2.860000000001611, -0.7000755532489401 
2.870000000001632, -0.6986022955008802 
2.8800000000016532, -0.6964422132939763 
2.8900000000016743, -0.693299274494364 
2.9000000000016954, -0.6888376863726788 
2.9100000000017165, -0.6828114491929618 
2.9200000000017377, -0.6752736745257532 
2.9300000000017588, -0.6667261029416848 
2.94000000000178, -0.6580180588358593 
2.950000000001801, -0.650012933026811 
2.960000000001822, -0.6432836846957792 
2.970000000001843, -0.6380289883485284 
2.9800000000018643, -0.6341668930453068 
2.9900000000018854, -0.6314730516137795 
3.0000000000019065, -0.6296849812052658 
3.0100000000019276, -0.6285590951895365 
3.0200000000019487, -0.6278938063371435 
3.03000000000197, -0.6275337179611629 
3.040000000001991, -0.627364900020702 
3.050000000002012, -0.6273068465976379 
3.060000000002033, -0.6273040709236486 
3.070000000002054, -0.6273188740037894 
3.0800000000020753, -0.6273260568554366 
3.0900000000020964, -0.6273098547818136 
3.1000000000021175, -0.6272628432772389 
3.1100000000021386, -0.6271858032511763 
3.1200000000021597, -0.6270867794482962 
3.130000000002181, -0.626977662611027 
3.140000000002202, -0.6268682609125487 
3.150000000002223, -0.6267602372023494 
3.160000000002244, -0.6266444050018749 
3.1700000000022652, -0.6265033477913577 
3.1800000000022863, -0.6263180426439471 
3.1900000000023074, -0.6260747125676333 
3.2000000000023285, -0.625768600391305 
3.2100000000023496, -0.6254041606130847 
3.2200000000023707, -0.6249936401069095 
3.230000000002392, -0.624556522641279 
3.240000000002413, -0.6241214757311753 
3.250000000002434, -0.6237315583054995 
3.260000000002455, -0.6234530266518574 
3.2700000000024763, -0.6233878300550948 
3.2800000000024974, -0.6236892254404801 
3.2900000000025185, -0.6245781041593859 
3.3000000000025396, -0.6263535134929163 
3.3100000000025607, -0.6293830788426769 
3.3200000000025818, -0.6340477644958903 
3.330000000002603, -0.6406094070301872 
3.340000000002624, -0.6489978968170654 
3.350000000002645, -0.6586154454731672 
3.360000000002666, -0.6683758527799623 
3.3700000000026873, -0.677106252676351 
3.3800000000027084, -0.6840574506165084 
3.3900000000027295, -0.6890944824651445 
3.4000000000027506, -0.6925040413974057 
3.4100000000027717, -0.6947037478626659 
3.420000000002793, -0.6960646554838212 
3.430000000002814, -0.6968575249198276 
3.440000000002835, -0.6972600288200207 
3.450000000002856, -0.6973790974206968 
3.460000000002877, -0.6972698897356249 
3.4700000000028983, -0.6969469524272945 
3.4800000000029194, -0.6963877145513232 
3.4900000000029405, -0.6955295443240408 
3.5000000000029616, -0.6942627958013221 
3.5100000000029827, -0.6924261391163389 
3.520000000003004, -0.6898184378680001 
3.530000000003025, -0.6862489957195946 
3.540000000003046, -0.6816367662925322 
3.550000000003067, -0.6761193141678277 
3.5600000000030882, -0.6700786948517006 
3.5700000000031094, -0.6640294219576501 
3.5800000000031305, -0.6584396444663808 
3.5900000000031516, -0.6536105383253575 
3.6000000000031727, -0.6496604242239895 
3.6100000000031938, -0.6465732146751949 
3.620000000003215, -0.6442576764594886 
3.630000000003236, -0.6425916102372218 
3.640000000003257, -0.6414480964093661 
3.650000000003278, -0.6407091552878569 
3.6600000000032993, -0.6402721205735628 
3.6700000000033204, -0.6400519505416333 
3.6800000000033415, -0.6399811285962487 
3.6900000000033626, -0.6400080987857045 
3.7000000000033837, -0.6400949945911815 
3.710000000003405, -0.6402153593799011 
3.720000000003426, -0.6403523675594672 
3.730000000003447, -0.6404976028788381 
3.740000000003468, -0.6406497669693619 
3.750000000003489, -0.6408121494846102 
3.7600000000035103, -0.6409879948958298 
3.7700000000035314, -0.6411744507783568 
3.7800000000035525, -0.641357799761604 
3.7900000000035736, -0.6415133296195471 
3.8000000000035947, -0.6416111111536023 
3.810000000003616, -0.6416250301976435 
3.820000000003637, -0.6415399912729376 
3.830000000003658, -0.641353878473369 
3.840000000003679, -0.6410749842160186 
3.8500000000037002, -0.6407182465011824 
3.8600000000037213, -0.6403033709232562 
3.8700000000037424, -0.6398564326597791 
3.8800000000037635, -0.6394156102035903 
3.8900000000037847, -0.6390415992223761 
3.9000000000038058, -0.6388333669656254 
3.910000000003827, -0.6389493171568785 
3.920000000003848, -0.6396314072827594 
3.930000000003869, -0.6412234262613942 
3.94000000000389, -0.6441623701564159 
3.9500000000039113, -0.6489050148316651 
3.9600000000039324, -0.6557473235579402 
3.9700000000039535, -0.664549538457677 
3.9800000000039746, -0.6745327790951079 
3.9900000000039957, -0.6844294731696023 
4.000000000004016, -0.6930325288580041 
4.010000000003993, -0.6997108013418332 
4.02000000000397, -0.7044706649981621 
4.030000000003946, -0.7076715789410409 
4.040000000003923, -0.7097392068702495 
4.0500000000039, -0.7110256066351573 
4.0600000000038765, -0.7117803050251525 
4.070000000003853, -0.7121654996617973 
4.08000000000383, -0.7122784797410556 
4.090000000003807, -0.7121687198216369 
4.100000000003783, -0.7118473693269602 
4.11000000000376, -0.7112897508908873 
4.120000000003737, -0.7104321972612151 
4.130000000003713, -0.70916595511553 
4.14000000000369, -0.7073350201132625 
4.150000000003667, -0.7047522388862271 
4.1600000000036434, -0.7012528216981426 
4.17000000000362, -0.6967886721542568 
4.180000000003597, -0.6915188699706831 
4.1900000000035735, -0.6858141885160127 
4.20000000000355, -0.6801440701904666 
4.210000000003527, -0.6749215882825769 
4.220000000003504, -0.670408550509208 
4.23000000000348, -0.6667084070856938 
4.240000000003457, -0.663808765609091 
4.250000000003434, -0.6616306681420819 
4.26000000000341, -0.660065304842848 
4.270000000003387, -0.6589965873663788 
4.280000000003364, -0.6583138897021292 
4.2900000000033405, -0.6579189181025832 
4.300000000003317, -0.6577289611201163 
4.310000000003294, -0.6576776321237088 
4.320000000003271, -0.6577138543624875 
4.330000000003247, -0.6577998696226709 
4.340000000003224, -0.6579090863462936 
4.350000000003201, -0.6580243897396709 
4.360000000003177, -0.6581370181312103 
4.370000000003154, -0.6582453521939977 
4.380000000003131, -0.6583524177768424 
4.390000000003107, -0.6584613212381059 
4.400000000003084, -0.6585695110152816 
4.410000000003061, -0.6586646628309467 
4.4200000000030375, -0.6587252116972767 
4.430000000003014, -0.6587261314508837 
4.440000000002991, -0.658646973134425 
4.450000000002968, -0.6584776415889858 
4.460000000002944, -0.6582195366361878 
4.470000000002921, -0.6578833148735344 
4.480000000002898, -0.6574863637524639 
4.490000000002874, -0.6570525303603033 
4.500000000002851, -0.6566153400865777 
4.510000000002828, -0.656225139509829 
4.520000000002804, -0.6559603138513062 
4.530000000002781, -0.6559423222125709 
4.540000000002758, -0.6563530129302468 
4.5500000000027345, -0.6574497255557998 
4.560000000002711, -0.6595681317366296 
4.570000000002688, -0.663094137740835 
4.580000000002665, -0.6683775754550123 
4.590000000002641, -0.6755666649579312 
4.600000000002618, -0.6843952821215693 
4.610000000002595, -0.6940664986319783 
4.620000000002571, -0.7034311709950224 
4.630000000002548, -0.7114542545961273 
4.640000000002525, -0.7176210858206026 
4.6500000000025015, -0.7219719005076976 
4.660000000002478, -0.7248552375555793 
4.670000000002455, -0.7266759569136532 
4.6800000000024315, -0.7277676383645504 
4.690000000002408, -0.7283645951652861 
4.700000000002385, -0.7286158337705666 
4.710000000002362, -0.7286062757575562 
4.720000000002338, -0.7283724936153462 
4.730000000002315, -0.7279102010390234 
4.740000000002292, -0.7271736175623082 
4.750000000002268, -0.726067465329575 
4.760000000002245, -0.7244340165491874 
4.770000000002222, -0.722043525585477 
4.7800000000021985, -0.7186091470256268 
4.790000000002175, -0.7138607983750405 
4.800000000002152, -0.7076964470566789 
4.810000000002129, -0.7003484548171905 
4.820000000002105, -0.6924135303112307 
4.830000000002082, -0.6846617737124936 
4.840000000002059, -0.6777519898149067 
4.850000000002035, -0.6720575906727004 
4.860000000002012, -0.6676645471146941 
4.870000000001989, -0.6644642883451427 
4.880000000001965, -0.6622545148270688 
4.890000000001942, -0.6608103276945558 
4.900000000001919, -0.6599238239535148 
4.9100000000018955, -0.6594215026481651 
4.920000000001872, -0.6591683511170442 
