t, s[1].omega / s[0].omega 
0, -1.1499970618966378 
0.009999999999999995, -1.1495710592656287 
0.019999999999999934, -1.1488839152318455 
0.029999999999999874, -1.1479391483918227 
0.04000000000000012, -1.1467477509175494 
0.050000000000000405, -1.1453335800793445 
0.06000000000000069, -1.1437375491701631 
0.07000000000000098, -1.142019144127843 
0.08000000000000126, -1.1402542278876113 
0.09000000000000155, -1.1385295040816399 
0.10000000000000184, -1.1369361816994044 
0.11000000000000212, -1.1355645887139305 
0.12000000000000241, -1.1344958314501212 
0.130000000000002, -1.1337837319313637 
0.1400000000000009, -1.1334299500093352 
0.1499999999999998, -1.1333699117658036 
0.1599999999999987, -1.1334848601692311 
0.1699999999999976, -1.1336331760696756 
0.1799999999999965, -1.1336787740883627 
0.1899999999999954, -1.1335025724587313 
0.1999999999999943, -1.1330002986636085 
0.2099999999999932, -1.132078102171159 
0.2199999999999921, -1.1306547715320467 
0.229999999999991, -1.1286717553077514 
0.2399999999999899, -1.1261046937129322 
0.2499999999999888, -1.1229674657588213 
0.2599999999999877, -1.1193047810409678 
0.2699999999999866, -1.1151782480109749 
0.2799999999999855, -1.1106553853988772 
0.2899999999999844, -1.105808163887419 
0.2999999999999833, -1.1007219053771478 
0.3099999999999822, -1.095511603934134 
0.3199999999999811, -1.0903407126363438 
0.32999999999998, -1.0854332706938192 
0.3399999999999789, -1.081062777152286 
0.3499999999999778, -1.077499864309051 
0.35999999999997667, -1.07492283174216 
0.36999999999997557, -1.0733374562294686 
0.37999999999997447, -1.0725680581299581 
0.38999999999997337, -1.072331342232376 
0.39999999999997227, -1.072336057079461 
0.40999999999997117, -1.072344514455933 
0.41999999999997006, -1.072179362686989 
0.42999999999996896, -1.0716968651082035 
0.43999999999996786, -1.0707523238721286 
0.44999999999996676, -1.0691734010233218 
0.45999999999996566, -1.0667510920983576 
0.46999999999996456, -1.0632572025201878 
0.47999999999996346, -1.0584920785222975 
0.48999999999996235, -1.0523492411780666 
0.49999999999996125, -1.0448633804470302 
0.5099999999999602, -1.036210592005812 
0.519999999999959, -1.0266631839538027 
0.529999999999958, -1.0165339579874744 
0.5399999999999568, -1.006144085590721 
0.5499999999999557, -0.9958228550165739 
0.5599999999999546, -0.9859237967268831 
0.5699999999999535, -0.976831345214466 
0.5799999999999524, -0.9689336066659251 
0.5899999999999513, -0.9625516562528506 
0.5999999999999502, -0.957846593391607 
0.6099999999999491, -0.9547565020884146 
0.619999999999948, -0.9530115029259076 
0.6299999999999469, -0.9522247052044073 
0.6399999999999458, -0.9520043467947321 
0.6499999999999447, -0.9520293022617028 
0.6599999999999436, -0.9520691220082296 
0.6699999999999425, -0.951965059609725 
0.6799999999999414, -0.951597106188899 
0.6899999999999403, -0.950853990018649 
0.6999999999999392, -0.9496144805031381 
0.7099999999999381, -0.9477450656869424 
0.719999999999937, -0.9451179881255383 
0.7299999999999359, -0.9416479912500197 
0.7399999999999348, -0.9373330605824829 
0.7499999999999337, -0.9322735747527223 
0.7599999999999326, -0.9266527514772644 
0.7699999999999315, -0.9206883747300812 
0.7799999999999304, -0.9145850405220347 
0.7899999999999293, -0.9085093097141465 
0.7999999999999282, -0.9025898720700275 
0.8099999999999271, -0.8969316852085437 
0.819999999999926, -0.8916319025901376 
0.8299999999999249, -0.8867897891738816 
0.8399999999999238, -0.8825070397349212 
0.8499999999999227, -0.8788777405780526 
0.8599999999999216, -0.8759700178168648 
0.8699999999999205, -0.8738052515505481 
0.8799999999999194, -0.8723440772503444 
0.8899999999999183, -0.8714874904323998 
0.8999999999999172, -0.8710944395669399 
0.9099999999999161, -0.8710083880966886 
0.919999999999915, -0.871081448370548 
0.9299999999999139, -0.8711883789648938 
0.9399999999999128, -0.8712298985576058 
0.9499999999999117, -0.871129927053509 
0.9599999999999106, -0.8708324474227112 
0.9699999999999095, -0.87030161373119 
0.9799999999999084, -0.8695250458030536 
0.9899999999999073, -0.8685165885001742 
0.9999999999999062, -0.8673135823526595 
1.0099999999999052, -0.8659667045422111 
1.019999999999904, -0.8645258838877202 
1.029999999999903, -0.8630288750557908 
1.039999999999902, -0.8614972727887698 
1.0499999999999008, -0.859940296397161 
1.0599999999998997, -0.8583632025431599 
1.0699999999998986, -0.8567762595555253 
1.0799999999998975, -0.8552012981694368 
1.0899999999998964, -0.8536745672552775 
1.0999999999998953, -0.8522458223411691 
1.1099999999998942, -0.850974040917923 
1.119999999999893, -0.849920459737186 
1.129999999999892, -0.8491402056292775 
1.1399999999998909, -0.8486743491437649 
1.1499999999998898, -0.8485441453153544 
1.1599999999998887, -0.8487484745994425 
1.1699999999998876, -0.8492646450358843 
1.1799999999998865, -0.8500522278279133 
1.1899999999998854, -0.8510593113681392 
1.1999999999998843, -0.8522301413160083 
1.2099999999998832, -0.8535126697763434 
1.219999999999882, -0.8548644253709244 
1.229999999999881, -0.8562553944680481 
1.2399999999998799, -0.8576670315523015 
1.2499999999998788, -0.8590870798395414 
1.2599999999998777, -0.8605009381821973 
1.2699999999998766, -0.8618820226663393 
1.2799999999998755, -0.863185316798446 
1.2899999999998744, -0.8643486405909275 
1.2999999999998733, -0.865303542110908 
1.3099999999998722, -0.8659922869575436 
1.319999999999871, -0.8663828596889823 
1.32999999999987, -0.8664749991801559 
1.3399999999998689, -0.8662968726391203 
1.3499999999998678, -0.8658980722514537 
1.3599999999998666, -0.8653455222467092 
1.3699999999998655, -0.8647255539943646 
1.3799999999998644, -0.8641510543136227 
1.3899999999998633, -0.8637688887764359 
1.3999999999998622, -0.8637603503613082 
1.4099999999998611, -0.8643277646052645 
1.41999999999986, -0.8656657326486068 
1.429999999999859, -0.8679248877795064 
1.4399999999998578, -0.8711831340319935 
1.4499999999998567, -0.8754370328555522 
1.4599999999998556, -0.8806148577861829 
1.4699999999998545, -0.8866015581540758 
1.4799999999998534, -0.8932620741381777 
1.4899999999998523, -0.9004530021288653 
1.4999999999998512, -0.9080188559292695 
1.5099999999998501, -0.9157752688130055 
1.519999999999849, -0.9234881073873413 
1.529999999999848, -0.9308650858428069 
1.5399999999998468, -0.9375796382424509 
1.5499999999998457, -0.9433339807243832 
1.5599999999998446, -0.9479373340805194 
1.5699999999998435, -0.9513523521752237 
1.5799999999998424, -0.9536805145898821 
1.5899999999998413, -0.9551025768529608 
1.5999999999998402, -0.9558148875904204 
1.6099999999998391, -0.955990045477499 
1.619999999999838, -0.9557668477122804 
1.629999999999837, -0.9552627502505573 
1.6399999999998358, -0.9546025349292101 
1.6499999999998347, -0.953959985982477 
1.6599999999998336, -0.9536066916390993 
1.6699999999998325, -0.9539494516016112 
1.6799999999998314, -0.9555207885473543 
1.6899999999998303, -0.9588880582431749 
1.6999999999998292, -0.9644902198147385 
1.709999999999828, -0.9724789162633861 
1.719999999999827, -0.9826599702363905 
1.729999999999826, -0.9945637682442289 
1.7399999999998248, -1.0075828826256976 
1.7499999999998237, -1.0210904532267044 
1.7599999999998226, -1.0344967159444332 
1.7699999999998215, -1.0472567273879623 
1.7799999999998204, -1.058870810308599 
1.7899999999998193, -1.0689149719126325 
1.7999999999998182, -1.0771065405672555 
1.809999999999817, -1.083367179255435 
1.819999999999816, -1.0878302616056421 
1.8299999999998149, -1.0907771890408908 
1.8399999999998138, -1.0925408635288523 
1.8499999999998127, -1.093427806420547 
1.8599999999998116, -1.0936828172508903 
1.8699999999998105, -1.0934913347889121 
1.8799999999998094, -1.0930057846751335 
1.8899999999998083, -1.0923854066813654 
1.8999999999998072, -1.0918394430814464 
1.909999999999806, -1.0916532864625894 
1.919999999999805, -1.0921645662973598 
1.9299999999998039, -1.093670416590817 
1.9399999999998028, -1.0963056449691648 
1.9499999999998017, -1.0999809165437742 
1.9599999999998006, -1.1044306967913573 
1.9699999999997995, -1.1093258389055485 
1.9799999999997984, -1.1143694591430198 
1.9899999999997973, -1.1193376766637204 
1.9999999999997962, -1.1240765088651805 
2.0099999999998173, -1.1284804401704014 
2.0199999999998384, -1.1324699901468838 
2.0299999999998595, -1.1359763765120112 
2.0399999999998806, -1.1389370342234861 
2.0499999999999017, -1.1413025047149805 
2.059999999999923, -1.1430499375813257 
2.069999999999944, -1.1441937725180136 
2.079999999999965, -1.1447857554836773 
2.089999999999986, -1.1449047409810502 
2.100000000000007, -1.1446443917988438 
2.1100000000000283, -1.1441072313671043 
2.1200000000000494, -1.1434072365420251 
2.1300000000000705, -1.1426748989197724 
2.1400000000000916, -1.1420530829815108 
2.1500000000001127, -1.1416751256404398 
2.160000000000134, -1.1416318003073687 
2.170000000000155, -1.1419490028107062 
2.180000000000176, -1.1425921800457486 
2.190000000000197, -1.1434896637322434 
2.2000000000002182, -1.1445546771504205 
2.2100000000002393, -1.145696579107065 
2.2200000000002604, -1.1468263100516092 
2.2300000000002815, -1.1478624048965076 
2.2400000000003026, -1.1487375479416004 
2.2500000000003237, -1.149402597582232 
2.260000000000345, -1.1498267273752085 
2.270000000000366, -1.1499943580436816 
2.280000000000387, -1.1499001597953253 
2.290000000000408, -1.1495437557099608 
2.3000000000004293, -1.1489262179057924 
2.3100000000004504, -1.1480500168812466 
2.3200000000004715, -1.1469224528959612 
2.3300000000004926, -1.145560950062122 
2.3400000000005137, -1.143998088642235 
2.3500000000005348, -1.1422846246324847 
2.360000000000556, -1.1404891968157098 
2.370000000000577, -1.138694360917603 
2.380000000000598, -1.1369906464468622 
2.390000000000619, -1.1354711474181818 
2.4000000000006403, -1.1342251177771767 
2.4100000000006614, -1.1333236944860101 
2.4200000000006825, -1.132795288811619 
2.4300000000007036, -1.1326035904126759 
2.4400000000007247, -1.1326481205850445 
2.450000000000746, -1.1327906486920234 
2.460000000000767, -1.132888302519544 
2.470000000000788, -1.132812950386502 
2.480000000000809, -1.1324532627722685 
2.49000000000083, -1.131709340271952 
2.5000000000008513, -1.1304911285978136 
2.5100000000008724, -1.128725585497882 
2.5200000000008935, -1.1263693472783738 
2.5300000000009146, -1.1234179474266885 
2.5400000000009357, -1.1199039807194069 
2.550000000000957, -1.1158849002265527 
2.560000000000978, -1.1114289916526143 
2.570000000000999, -1.1066086065803298 
2.58000000000102, -1.101504391876761 
2.5900000000010412, -1.0962189883511977 
2.6000000000010624, -1.0908959659692485 
2.6100000000010835, -1.0857368250634412 
2.6200000000011046, -1.081002373897203 
2.6300000000011257, -1.076978911386894 
2.6400000000011468, -1.0739002511180251 
2.650000000001168, -1.0718540972036108 
2.660000000001189, -1.0707362291503784 
2.67000000000121, -1.0702933438581745 
2.680000000001231, -1.0702225079996852 
2.6900000000012523, -1.0702557009796625 
2.7000000000012734, -1.0701895178259653 
2.7100000000012945, -1.069869287957724 
2.7200000000013156, -1.0691549672173923 
2.7300000000013367, -1.0678891693683406 
2.740000000001358, -1.0658787262892724 
2.750000000001379, -1.0628988397837191 
2.7600000000014, -1.0587273203395384 
2.770000000001421, -1.0532051530562696 
2.780000000001442, -1.046297990408558 
2.7900000000014633, -1.0381214685451643 
2.8000000000014844, -1.0289139688622029 
2.8100000000015055, -1.0189795642671777 
2.8200000000015266, -1.008640837878605 
2.8300000000015477, -0.9982236436606453 
2.840000000001569, -0.9880679942787481 
2.85000000000159, -0.9785424118442981 
2.860000000001611, -0.9700354428550504 
2.870000000001632, -0.9629060996306099 
2.8800000000016532, -0.9573982826772163 
2.8900000000016743, -0.9535579070512407 
2.9000000000016954, -0.951207765057971 
2.9100000000017165, -0.9500055079477058 
2.9200000000017377, -0.949552177226347 
2.9300000000017588, -0.9494891049433009 
2.94000000000178, -0.94954386484089 
2.950000000001801, -0.9495273199006001 
2.960000000001822, -0.9493052567573366 
2.970000000001843, -0.9487660338057132 
2.9800000000018643, -0.947796121954705 
2.9900000000018854, -0.9462695746609397 
3.0000000000019065, -0.9440559545010859 
3.0100000000019276, -0.9410484757140999 
3.0200000000019487, -0.937204447480166 
3.03000000000197, -0.9325765739656409 
3.040000000001991, -0.9273116853208867 
3.050000000002012, -0.9216135314660322 
3.060000000002033, -0.915692204374974 
3.070000000002054, -0.9097280473923574 
3.0800000000020753, -0.9038613962291294 
3.0900000000020964, -0.8982017656198907 
3.1000000000021175, -0.8928439778996832 
3.1100000000021386, -0.887881444178835 
3.1200000000021597, -0.8834114372219871 
3.130000000002181, -0.8795304914926656 
3.140000000002202, -0.8763204557696259 
3.150000000002223, -0.8738287496351896 
3.160000000002244, -0.8720501212291286 
3.1700000000022652, -0.8709189989198266 
3.1800000000022863, -0.8703180122562774 
3.1900000000023074, -0.870100031358863 
3.2000000000023285, -0.8701139970094162 
3.2100000000023496, -0.8702244340114497 
3.2200000000023707, -0.8703202362009488 
3.230000000002392, -0.8703148242540956 
3.240000000002413, -0.8701430197542311 
3.250000000002434, -0.8697594547911229 
3.260000000002455, -0.8691403888008988 
3.2700000000024763, -0.8682869800277367 
3.2800000000024974, -0.8672254027598068 
3.2900000000025185, -0.8660001020965475 
3.3000000000025396, -0.8646610939906696 
3.3100000000025607, -0.8632508278637625 
3.3200000000025818, -0.8617966159627277 
3.330000000002603, -0.860311083795545 
3.340000000002624, -0.8587989108746376 
3.350000000002645, -0.8572659821993853 
3.360000000002666, -0.8557273238140279 
3.3700000000026873, -0.8542117773279303 
3.3800000000027084, -0.8527629014346781 
3.3900000000027295, -0.8514363312900322 
3.4000000000027506, -0.8502940619222074 
3.4100000000027717, -0.8493965303044886 
3.420000000002793, -0.8487940680917289 
3.430000000002814, -0.8485196877372689 
3.440000000002835, -0.8485847464493306 
3.450000000002856, -0.848978082665372 
3.460000000002877, -0.8496684369169742 
3.4700000000028983, -0.8506096037502047 
3.4800000000029194, -0.8517474879363457 
3.4900000000029405, -0.8530278303889341 
3.5000000000029616, -0.8544030586886515 
3.5100000000029827, -0.8558367739503776 
3.520000000003004, -0.8573047302960339 
3.530000000003025, -0.8587916423770565 
3.540000000003046, -0.8602839595162639 
3.550000000003067, -0.8617601964221293 
3.5600000000030882, -0.8631823137616669 
3.5700000000031094, -0.8644929105900121 
3.5800000000031305, -0.8656219163793869 
3.5900000000031516, -0.8665020182402294 
3.6000000000031727, -0.867086213484458 
3.6100000000031938, -0.8673588002073537 
3.620000000003215, -0.8673357956840261 
3.630000000003236, -0.86705824232819 
3.640000000003257, -0.8665855614308817 
3.650000000003278, -0.86599433414621 
3.6600000000032993, -0.8653835841183614 
3.6700000000033204, -0.8648834851768553 
3.6800000000033415, -0.864661159563985 
3.6900000000033626, -0.8649156892104558 
3.7000000000033837, -0.8658568945514812 
3.710000000003405, -0.8676703246003764 
3.720000000003426, -0.8704807835991738 
3.730000000003447, -0.8743304706163167 
3.740000000003468, -0.879180577997735 
3.750000000003489, -0.8849320662981687 
3.7600000000035103, -0.891452409206713 
3.7700000000035314, -0.898595057971431 
3.7800000000035525, -0.9062040906884189 
3.7900000000035736, -0.914103286574471 
3.8000000000035947, -0.9220755039461254 
3.810000000003616, -0.929845893324762 
3.820000000003637, -0.937089061084976 
3.830000000003658, -0.9434761167496792 
3.840000000003679, -0.9487529061608068 
3.8500000000037002, -0.9528083338607519 
3.8600000000037213, -0.9556885688138048 
3.8700000000037424, -0.9575520113872149 
3.8800000000037635, -0.9586005288794361 
3.8900000000037847, -0.9590255833892251 
3.9000000000038058, -0.9589846368220116 
3.910000000003827, -0.9586042127593823 
3.920000000003848, -0.9580018002578674 
3.930000000003869, -0.9573221307897275 
3.94000000000389, -0.9567843869911407 
3.9500000000039113, -0.9567290124363615 
3.9600000000039324, -0.9576358494649069 
3.9700000000039535, -0.9600737785106369 
3.9800000000039746, -0.9645643642056804 
3.9900000000039957, -0.9714062763252996 
4.000000000004016, -0.9805600763395719 
4.010000000003993, -0.9916633141257428 
4.02000000000397, -1.0041510882772486 
4.030000000003946, -1.0173944553964376 
4.040000000003923, -1.0307876117110042 
4.0500000000039, -1.043773419896984 
4.0600000000038765, -1.0558402814057422 
4.070000000003853, -1.0665334341156074 
4.08000000000383, -1.0755037901820828 
4.090000000003807, -1.08257673214069 
4.100000000003783, -1.0877901286688083 
4.11000000000376, -1.0913633385540444 
4.120000000003737, -1.0936115309952632 
4.130000000003713, -1.0948558162064517 
4.14000000000369, -1.0953680857327008 
4.150000000003667, -1.0953574333582268 
4.1600000000036434, -1.094986673925046 
4.17000000000362, -1.094406653881288 
4.180000000003597, -1.0937989607860128 
4.1900000000035735, -1.0934122695230264 
4.20000000000355, -1.093563887437351 
4.210000000003527, -1.0945768750244036 
4.220000000003504, -1.0966636805282641 
4.23000000000348, -1.0998304127558887 
4.240000000003457, -1.1038787315977898 
4.250000000003434, -1.108499318192729 
4.26000000000341, -1.1133806170019473 
4.270000000003387, -1.1182722024215206 
4.280000000003364, -1.1229968776129404 
4.2900000000033405, -1.1274347491774128 
4.300000000003317, -1.1315005017653839 
4.310000000003294, -1.135124781971421 
4.320000000003271, -1.1382446083478197 
4.330000000003247, -1.140804950720463 
4.340000000003224, -1.1427696327472467 
4.350000000003201, -1.144134270010397 
4.360000000003177, -1.1449319806122795 
4.370000000003154, -1.145227942555703 
4.380000000003131, -1.1451076315484094 
4.390000000003107, -1.144667689720353 
4.400000000003084, -1.1440148793280749 
4.410000000003061, -1.1432708073616558 
4.4200000000030375, -1.1425728060587692 
4.430000000003014, -1.1420599520971884 
4.440000000002991, -1.1418433901672076 
4.450000000002968, -1.1419774583833788 
4.460000000002944, -1.1424526063592246 
4.470000000002921, -1.1432124548254121 
4.480000000002898, -1.144177398226323 
4.490000000002874, -1.1452595097814868 
4.500000000002851, -1.146369132937789 
4.510000000002828, -1.1474204970041417 
4.520000000002804, -1.1483388040584548 
4.530000000002781, -1.1490660045297647 
4.540000000002758, -1.149562838532684 
4.5500000000027345, -1.1498071954691913 
4.560000000002711, -1.149789931016448 
4.570000000002688, -1.1495094957249494 
4.580000000002665, -1.148967239456598 
4.590000000002641, -1.1481654538492723 
4.600000000002618, -1.1471091322919 
4.610000000002595, -1.1458105828999972 
4.620000000002571, -1.144294861867536 
4.630000000002548, -1.1426040037674727 
4.640000000002525, -1.1407984910359186 
4.6500000000025015, -1.1389550768340746 
4.660000000002478, -1.1371617222487684 
4.670000000002455, -1.1355121392539103 
4.6800000000024315, -1.1341004813607842 
4.690000000002408, -1.1330108234992842 
4.700000000002385, -1.132295403695556 
4.710000000002362, -1.131948055483012 
4.720000000002338, -1.13189302329428 
4.730000000002315, -1.1320022233829345 
4.740000000002292, -1.1321293976747444 
4.750000000002268, -1.132137415500543 
4.760000000002245, -1.1319069732550096 
4.770000000002222, -1.1313324496237787 
4.7800000000021985, -1.1303171906523128 
4.790000000002175, -1.128776672772835 
4.800000000002152, -1.126650023609758 
4.810000000002129, -1.1239127784399896 
4.820000000002105, -1.1205812316254393 
4.830000000002082, -1.1167043977829656 
4.840000000002059, -1.112349150709168 
4.850000000002035, -1.1075887322895654 
4.860000000002012, -1.1025015459324499 
4.870000000001989, -1.0971809839427957 
4.880000000001965, -1.091752984552813 
4.890000000001942, -1.0863955028252383 
4.900000000001919, -1.081349141214935 
4.9100000000018955, -1.0769007057269901 
4.920000000001872, -1.073322739152601 
4.930000000001849, -1.0707789269958934 
