t, s[1].omega / s[0].omega 
0, -1.0400823997651087 
0.009999999999999995, -1.0502626368645946 
0.019999999999999934, -1.061923780913132 
0.029999999999999874, -1.072076056858701 
0.04000000000000012, -1.0794484028094051 
0.050000000000000405, -1.0841997876443075 
0.06000000000000069, -1.0870222603087716 
0.07000000000000098, -1.088579108331254 
0.08000000000000126, -1.0893366050035282 
0.09000000000000155, -1.0895758519097174 
0.10000000000000184, -1.0894443123617992 
0.11000000000000212, -1.0889983486283508 
0.12000000000000241, -1.0882317895959315 
0.130000000000002, -1.0871042461421407 
0.1400000000000009, -1.0856006500873625 
0.1499999999999998, -1.0838775109488197 
0.1599999999999987, -1.0825456682125054 
0.1699999999999976, -1.0829846232861617 
0.1799999999999965, -1.0872122850048866 
0.1899999999999954, -1.0967518152129658 
0.1999999999999943, -1.1110411945609848 
0.2099999999999932, -1.1272212549028207 
0.2199999999999921, -1.1419217871035996 
0.229999999999991, -1.1531652306031055 
0.2399999999999899, -1.160724526398217 
0.2499999999999888, -1.1653511754544277 
0.2599999999999877, -1.1679792276214689 
0.2699999999999866, -1.1693496273989703 
0.2799999999999855, -1.169947409412775 
0.2899999999999844, -1.1700579887035478 
0.2999999999999833, -1.1698392420834112 
0.3099999999999822, -1.1693824517350553 
0.3199999999999811, -1.1687698833744284 
0.32999999999998, -1.1681450702616116 
0.3399999999999789, -1.1677925213682085 
0.3499999999999778, -1.168164198426812 
0.35999999999997667, -1.169743776787552 
0.36999999999997557, -1.1727588235977535 
0.37999999999997447, -1.1769892300288238 
0.38999999999997337, -1.1818759057418562 
0.39999999999997227, -1.186796701459578 
0.40999999999997117, -1.191265881403628 
0.41999999999997006, -1.1949917140118123 
0.42999999999996896, -1.197856581012693 
0.43999999999996786, -1.199876185882688 
0.44999999999996676, -1.2011539525251436 
0.45999999999996566, -1.2018339244267042 
0.46999999999996456, -1.202061214457382 
0.47999999999996346, -1.201960086697082 
0.48999999999996235, -1.2016322442304752 
0.49999999999996125, -1.2011705112759254 
0.5099999999999602, -1.200678254314941 
0.519999999999959, -1.2002788640567348 
0.529999999999958, -1.200097773363027 
0.5399999999999568, -1.2002185980069775 
0.5499999999999557, -1.2006472561699317 
0.5599999999999546, -1.2013161840689466 
0.5699999999999535, -1.2021193794875327 
0.5799999999999524, -1.2029474844903905 
0.5899999999999513, -1.2037078465835003 
0.5999999999999502, -1.2043313147290682 
0.6099999999999491, -1.2047711629480453 
0.619999999999948, -1.2049986945724787 
0.6299999999999469, -1.2049988384968642 
0.6399999999999458, -1.2047674016024643 
0.6499999999999447, -1.2043102593073416 
0.6599999999999436, -1.2036440959861925 
0.6699999999999425, -1.2027983250729537 
0.6799999999999414, -1.2018179472145973 
0.6899999999999403, -1.2007661480285636 
0.6999999999999392, -1.1997235529125994 
0.7099999999999381, -1.198780780127453 
0.719999999999937, -1.1980230561034293 
0.7299999999999359, -1.1975077284931037 
0.7399999999999348, -1.1972404896415698 
0.7499999999999337, -1.197166225507712 
0.7599999999999326, -1.197187135288334 
0.7699999999999315, -1.19719556608569 
0.7799999999999304, -1.1970955212898922 
0.7899999999999293, -1.1968032993073783 
0.7999999999999282, -1.1962373476740742 
0.8099999999999271, -1.1953110748462652 
0.819999999999926, -1.1939364885280361 
0.8299999999999249, -1.192039065550699 
0.8399999999999238, -1.1895779039813537 
0.8499999999999227, -1.1865639138583723 
0.8599999999999216, -1.1830747570179991 
0.8699999999999205, -1.1792713156712336 
0.8799999999999194, -1.1754146122181277 
0.8899999999999183, -1.1718600099924807 
0.8999999999999172, -1.1689850672808502 
0.9099999999999161, -1.1670396073987037 
0.919999999999915, -1.1660120618140983 
0.9299999999999139, -1.1656497220712667 
0.9399999999999128, -1.1656208649721786 
0.9499999999999117, -1.1656599361959696 
0.9599999999999106, -1.1656032059127477 
0.9699999999999095, -1.1653494110228162 
0.9799999999999084, -1.1648034282629456 
0.9899999999999073, -1.163824942035672 
0.9999999999999062, -1.1621799995549833 
1.0099999999999052, -1.1594952005952563 
1.019999999999904, -1.1552375770008514 
1.029999999999903, -1.1487820686294854 
1.039999999999902, -1.139650582825138 
1.0499999999999008, -1.1279348263268927 
1.0599999999998997, -1.1146992078727067 
1.0699999999998986, -1.1019383261552915 
1.0799999999998975, -1.0917973950726254 
1.0899999999998964, -1.0854468035115068 
1.0999999999998953, -1.0825808875376297 
1.1099999999998942, -1.0819670731245163 
1.119999999999893, -1.0823571709942998 
1.129999999999892, -1.0829624875180435 
1.1399999999998909, -1.0834311576992954 
1.1499999999998898, -1.0836541989688218 
1.1599999999998887, -1.0836093591558325 
1.1699999999998876, -1.0832754618905622 
1.1799999999998865, -1.0825859978652188 
1.1899999999998854, -1.0813901050966925 
1.1999999999998843, -1.0794008436970077 
1.2099999999998832, -1.0761252182710992 
1.219999999999882, -1.0708040440838027 
1.229999999999881, -1.0624695105937954 
1.2399999999998799, -1.050333741045328 
1.2499999999998788, -1.0346357596277858 
1.2599999999998777, -1.0174441364374949 
1.2699999999998766, -1.0022075876669325 
1.2799999999998755, -0.991767262699432 
1.2899999999998744, -0.9866813188048281 
1.2999999999998733, -0.9855151624613823 
1.3099999999998722, -0.986317161563931 
1.319999999999871, -0.9876730900149466 
1.32999999999987, -0.9888894540030311 
1.3399999999998689, -0.9897462993861323 
1.3499999999998678, -0.9902336065112886 
1.3599999999998666, -0.990396903429329 
1.3699999999998655, -0.990268685669149 
1.3799999999998644, -0.9898396189666159 
1.3899999999998633, -0.9890386813373686 
1.3999999999998622, -0.9877052227271266 
1.4099999999998611, -0.9855440057056561 
1.41999999999986, -0.9820652688034196 
1.429999999999859, -0.9765423634190125 
1.4399999999998578, -0.9680862516122304 
1.4499999999998567, -0.9560035434491825 
1.4599999999998556, -0.9404883118785075 
1.4699999999998545, -0.9232054904069085 
1.4799999999998534, -0.9069349264774257 
1.4899999999998523, -0.8941854402978644 
1.4999999999998512, -0.885966394164085 
1.5099999999998501, -0.8817309775158131 
1.519999999999849, -0.8801793327803246 
1.529999999999848, -0.8800510771596256 
1.5399999999998468, -0.8804814184490921 
1.5499999999998457, -0.8810021012623803 
1.5599999999998446, -0.881407951068695 
1.5699999999998435, -0.8816280445195639 
1.5799999999998424, -0.8816417505494478 
1.5899999999998413, -0.8814323103177422 
1.5999999999998402, -0.8809608075013188 
1.6099999999998391, -0.8801476558218677 
1.619999999999838, -0.8788560179999262 
1.629999999999837, -0.8768807666787859 
1.6399999999998358, -0.8739592033528544 
1.6499999999998347, -0.8698299712547813 
1.6599999999998336, -0.8643521722435409 
1.6699999999998325, -0.8576386931347196 
1.6799999999998314, -0.8501020930287153 
1.6899999999998303, -0.842354265111451 
1.6999999999998292, -0.8350232238187998 
1.709999999999828, -0.8286015202722435 
1.719999999999827, -0.8233788537825311 
1.729999999999826, -0.8194417282541597 
1.7399999999998248, -0.8167085170842803 
1.7499999999998237, -0.8149823137159563 
1.7599999999998226, -0.8140115322869284 
1.7699999999998215, -0.8135456748066993 
1.7799999999998204, -0.8133732635447908 
1.7899999999998193, -0.81333648432349 
1.7999999999998182, -0.813326954570401 
1.809999999999817, -0.8132719523407561 
1.819999999999816, -0.8131194840680906 
1.8299999999998149, -0.8128273280620268 
1.8399999999998138, -0.8123586219411243 
1.8499999999998127, -0.8116847858448853 
1.8599999999998116, -0.8107939535736982 
1.8699999999998105, -0.8096992095575262 
1.8799999999998094, -0.8084392154328309 
1.8899999999998083, -0.8070684937444541 
1.8999999999998072, -0.8056429845655304 
1.909999999999806, -0.8042097685520788 
1.919999999999805, -0.8028051750416317 
1.9299999999998039, -0.8014590345500292 
1.9399999999998028, -0.8002003125529524 
1.9499999999998017, -0.7990606013447824 
1.9599999999998006, -0.7980741389932866 
1.9699999999997995, -0.797274572915531 
1.9799999999997984, -0.796689619347591 
1.9899999999997973, -0.796335424498852 
1.9999999999997962, -0.7962126731789242 
2.0099999999998173, -0.796305980511958 
2.0199999999998384, -0.7965868740201991 
2.0299999999998595, -0.7970192849061368 
2.0399999999998806, -0.7975656432137017 
2.0499999999999017, -0.7981917363039752 
2.059999999999923, -0.7988691155376461 
2.069999999999944, -0.7995744637773595 
2.079999999999965, -0.8002859255194125 
2.089999999999986, -0.8009775427103172 
2.100000000000007, -0.8016148009356886 
2.1100000000000283, -0.802155374378078 
2.1200000000000494, -0.8025570167966254 
2.1300000000000705, -0.8027892150765863 
2.1400000000000916, -0.802841462901589 
2.1500000000001127, -0.8027236063990658 
2.160000000000134, -0.8024602982236649 
2.170000000000155, -0.8020853920636977 
2.180000000000176, -0.8016408830727679 
2.190000000000197, -0.8011818157526578 
2.2000000000002182, -0.8007860277986794 
2.2100000000002393, -0.8005655749882244 
2.2200000000002604, -0.8006744869199576 
2.2300000000002815, -0.8013060082699288 
2.2400000000003026, -0.8026740406333681 
2.2500000000003237, -0.8049791485700715 
2.260000000000345, -0.8083659500346311 
2.270000000000366, -0.8128803983411214 
2.280000000000387, -0.8184317718267877 
2.290000000000408, -0.8247632540881031 
2.3000000000004293, -0.8314461940844726 
2.3100000000004504, -0.8379301088673105 
2.3200000000004715, -0.8436701688882196 
2.3300000000004926, -0.8482903956024336 
2.3400000000005137, -0.851679534250685 
2.3500000000005348, -0.8539567524162777 
2.360000000000556, -0.8553547284552314 
2.370000000000577, -0.8561113850756554 
2.380000000000598, -0.8564143609408589 
2.390000000000619, -0.8563893611366293 
2.4000000000006403, -0.8561089543783845 
2.4100000000006614, -0.8556068096261548 
2.4200000000006825, -0.8548935926675899 
2.4300000000007036, -0.8539791140405185 
2.4400000000007247, -0.8529122354903297 
2.450000000000746, -0.8518553635416568 
2.460000000000767, -0.8512057109204282 
2.470000000000788, -0.8517391752954968 
2.480000000000809, -0.8546615279590981 
2.49000000000083, -0.8613423646003175 
2.5000000000008513, -0.8725694512743486 
2.5100000000008724, -0.8876384067397135 
2.5200000000008935, -0.9041966679947346 
2.5300000000009146, -0.9193838483150646 
2.5400000000009357, -0.9313370508518343 
2.550000000000957, -0.9396966434877772 
2.560000000000978, -0.9450721975347933 
2.570000000000999, -0.9483301407712741 
2.58000000000102, -0.9502042762359432 
2.5900000000010412, -0.9512008579486952 
2.6000000000010624, -0.9516314847831273 
2.6100000000010835, -0.9516696273710978 
2.6200000000011046, -0.9513939061155735 
2.6300000000011257, -0.950812277237975 
2.6400000000011468, -0.9498706576809015 
2.650000000001168, -0.9484526199699965 
2.660000000001189, -0.9463828301024856 
2.67000000000121, -0.9434620219339536 
2.680000000001231, -0.9395840538321844 
2.6900000000012523, -0.9349835074850471 
2.7000000000012734, -0.9305469558255215 
2.7100000000012945, -0.9278498027204684 
2.7200000000013156, -0.9284840998567729 
2.7300000000013367, -0.9329045850886273 
2.740000000001358, -0.9399287205592035 
2.750000000001379, -0.9475433078624464 
2.7600000000014, -0.9541456237954697 
2.770000000001421, -0.959081314142891 
2.780000000001442, -0.9624159250757502 
2.7900000000014633, -0.9645056040215989 
2.8000000000014844, -0.9657190393430636 
2.8100000000015055, -0.9663345893118004 
2.8200000000015266, -0.9665289547950386 
2.8300000000015477, -0.9663931148867588 
2.840000000001569, -0.9659462910898885 
2.85000000000159, -0.9651379024547377 
2.860000000001611, -0.9638343145282672 
2.870000000001632, -0.9617901922100172 
2.8800000000016532, -0.9586120266954374 
2.8900000000016743, -0.9537452238950832 
2.9000000000016954, -0.94656502092517 
2.9100000000017165, -0.9366948269523828 
2.9200000000017377, -0.9245736416309717 
2.9300000000017588, -0.9118881975367081 
2.94000000000178, -0.9011335742482649 
2.950000000001801, -0.8942261584587664 
2.960000000001822, -0.8914087120465674 
2.970000000001843, -0.8915084528256504 
2.9800000000018643, -0.8930022883184721 
2.9900000000018854, -0.8947835872234894 
3.0000000000019065, -0.8963067411188067 
3.0100000000019276, -0.8974079056184436 
3.0200000000019487, -0.8981003490553446 
3.03000000000197, -0.8984472202492656 
3.040000000001991, -0.8985024174679566 
3.050000000002012, -0.8982869046992104 
3.060000000002033, -0.897776350760863 
3.070000000002054, -0.8968865206806369 
3.0800000000020753, -0.8954494525813044 
3.0900000000020964, -0.8931797420335663 
3.1000000000021175, -0.8896442211175598 
3.1100000000021386, -0.8842784312253474 
3.1200000000021597, -0.8765285921131797 
3.130000000002181, -0.8661693932073788 
3.140000000002202, -0.85366751233738 
3.150000000002223, -0.8402542417983021 
3.160000000002244, -0.8275137769975819 
3.1700000000022652, -0.8167586177569502 
3.1800000000022863, -0.8086386526952737 
3.1900000000023074, -0.8031368457808084 
3.2000000000023285, -0.7998029369834737 
3.2100000000023496, -0.7980259795623311 
3.2200000000023707, -0.7972318212853933 
3.230000000002392, -0.7969780166277685 
3.240000000002413, -0.7969681720289723 
3.250000000002434, -0.7970233533739561 
3.260000000002455, -0.7970416680447877 
3.2700000000024763, -0.7969628023657369 
3.2800000000024974, -0.7967426936777033 
3.2900000000025185, -0.7963380852924202 
3.3000000000025396, -0.7957001622264223 
3.3100000000025607, -0.7947779324072982 
3.3200000000025818, -0.7935320312812928 
3.330000000002603, -0.7919550164128588 
3.340000000002624, -0.790086481033829 
3.350000000002645, -0.7880099757760596 
3.360000000002666, -0.7858309262044345 
3.3700000000026873, -0.7836498779704468 
3.3800000000027084, -0.7815464700978454 
3.3900000000027295, -0.779577843759243 
3.4000000000027506, -0.7777852701781621 
3.4100000000027717, -0.7762013456090504 
3.420000000002793, -0.7748535398286754 
3.430000000002814, -0.7737634797726043 
3.440000000002835, -0.7729434671025934 
3.450000000002856, -0.7723925727216657 
3.460000000002877, -0.7720945693073181 
3.4700000000028983, -0.7720190666709946 
3.4800000000029194, -0.772125772825648 
3.4900000000029405, -0.7723704821355668 
3.5000000000029616, -0.7727109064511305 
3.5100000000029827, -0.7731109562387779 
3.520000000003004, -0.7735429422548783 
3.530000000003025, -0.7739876253500845 
3.540000000003046, -0.7744319438470346 
3.550000000003067, -0.7748643495574975 
3.5600000000030882, -0.7752688879028543 
3.5700000000031094, -0.7756210873440026 
3.5800000000031305, -0.7758892563059221 
3.5900000000031516, -0.7760419987620304 
3.6000000000031727, -0.7760580242872167 
3.6100000000031938, -0.7759323163095392 
3.620000000003215, -0.775676047250976 
3.630000000003236, -0.7753128319753062 
3.640000000003257, -0.7748759929441044 
3.650000000003278, -0.7744099420163953 
3.6600000000032993, -0.7739761560202949 
3.6700000000033204, -0.7736620870610953 
3.6800000000033415, -0.7735895784062103 
3.6900000000033626, -0.7739179170629106 
3.7000000000033837, -0.7748366049868524 
3.710000000003405, -0.7765454538868969 
3.720000000003426, -0.7792238675062386 
3.730000000003447, -0.7829938434230954 
3.740000000003468, -0.7878799008027519 
3.750000000003489, -0.7937670445747868 
3.7600000000035103, -0.8003638828476959 
3.7700000000035314, -0.8071974754010869 
3.7800000000035525, -0.8136828615162998 
3.7900000000035736, -0.8192802431947304 
3.8000000000035947, -0.823666597762384 
3.810000000003616, -0.8268027851708413 
3.820000000003637, -0.8288610478617209 
3.830000000003658, -0.8300938421955288 
3.840000000003679, -0.8307348150553311 
3.8500000000037002, -0.8309575102906613 
3.8600000000037213, -0.8308722475797132 
3.8700000000037424, -0.8305372783054066 
3.8800000000037635, -0.8299717164897512 
3.8900000000037847, -0.8291679787609626 
3.9000000000038058, -0.8281083854352393 
3.910000000003827, -0.8267967856713456 
3.920000000003848, -0.8253221625024552 
3.930000000003869, -0.823969979431115 
3.94000000000389, -0.82336670381105 
3.9500000000039113, -0.8245541627486881 
3.9600000000039324, -0.8287714819777963 
3.9700000000039535, -0.8367788745276199 
3.9800000000039746, -0.8480515992253052 
3.9900000000039957, -0.8607096269756145 
4.000000000004016, -0.8725186374493461 
4.010000000003993, -0.8820317457180149 
4.02000000000397, -0.8889029907960154 
4.030000000003946, -0.8934967416793889 
4.040000000003923, -0.8964006216517 
4.0500000000039, -0.8981464254528063 
4.0600000000038765, -0.8991230222224168 
4.070000000003853, -0.8995822152290822 
4.08000000000383, -0.8996694736370138 
4.090000000003807, -0.8994503132362013 
4.100000000003783, -0.8989235036107368 
4.11000000000376, -0.8980189254739311 
4.120000000003737, -0.8965784622954324 
4.130000000003713, -0.8943183009544917 
4.14000000000369, -0.8907768636816517 
4.150000000003667, -0.8852762806801809 
4.1600000000036434, -0.8769815321493899 
4.17000000000362, -0.8652076014183112 
4.180000000003597, -0.8500475483469812 
4.1900000000035735, -0.8329602653387207 
4.20000000000355, -0.8165241091560332 
4.210000000003527, -0.8031753275778903 
4.220000000003504, -0.7940235752305531 
4.23000000000348, -0.7887416806558775 
4.240000000003457, -0.7862526143790494 
4.250000000003434, -0.7854257578845676 
4.26000000000341, -0.785416455217772 
4.270000000003387, -0.7857097815002181 
4.280000000003364, -0.7860368253731729 
4.2900000000033405, -0.7862749258837588 
4.300000000003317, -0.7863731913982562 
4.310000000003294, -0.7863065325701649 
4.320000000003271, -0.7860494436912803 
4.330000000003247, -0.7855609959193701 
4.340000000003224, -0.7847767332946649 
4.350000000003201, -0.7836084675252206 
4.360000000003177, -0.7819577318777247 
4.370000000003154, -0.7797484367982376 
4.380000000003131, -0.7769723884963495 
4.390000000003107, -0.7737214021575023 
4.400000000003084, -0.7701765907776419 
4.410000000003061, -0.766556248406585 
4.4200000000030375, -0.7630578693044873 
4.430000000003014, -0.7598266281492383 
4.440000000002991, -0.7569536373953116 
4.450000000002968, -0.7544886602091527 
4.460000000002944, -0.7524529613244194 
4.470000000002921, -0.7508465514021775 
4.480000000002898, -0.7496506160595454 
4.490000000002874, -0.748828463876876 
4.500000000002851, -0.7483280047214252 
4.510000000002828, -0.748086940686587 
4.520000000002804, -0.748039785621814 
4.530000000002781, -0.7481246797444432 
4.540000000002758, -0.748288246968331 
4.5500000000027345, -0.7484879806768415 
4.560000000002711, -0.7486928045471015 
4.570000000002688, -0.7488827268202003 
4.580000000002665, -0.7490477823598858 
4.590000000002641, -0.7491854609368261 
4.600000000002618, -0.7492958296528073 
4.610000000002595, -0.7493752765629094 
4.620000000002571, -0.749412029639856 
4.630000000002548, -0.7493868029630905 
4.640000000002525, -0.7492789483324913 
4.6500000000025015, -0.7490745364413935 
4.660000000002478, -0.7487717196576889 
4.670000000002455, -0.7483816748148359 
4.6800000000024315, -0.747927212108733 
4.690000000002408, -0.7474423579609708 
4.700000000002385, -0.7469748415269248 
4.710000000002362, -0.7465912925834736 
4.720000000002338, -0.7463832159309811 
4.730000000002315, -0.7464706630054365 
4.740000000002292, -0.7470002827961241 
4.750000000002268, -0.7481356098877221 
4.760000000002245, -0.7500397781395123 
4.770000000002222, -0.752852636076044 
4.7800000000021985, -0.7566635124723498 
4.790000000002175, -0.7614780788555399 
4.800000000002152, -0.7671776632612757 
4.810000000002129, -0.7734797492451146 
4.820000000002105, -0.7799314032028318 
4.830000000002082, -0.7859816045191728 
4.840000000002059, -0.7911390684165428 
4.850000000002035, -0.7951319365006332 
4.860000000002012, -0.7979549299330645 
4.870000000001989, -0.7997870748201881 
4.880000000001965, -0.8008673650416409 
4.890000000001942, -0.8014085915039793 
4.900000000001919, -0.8015647060441822 
4.9100000000018955, -0.8014303962711631 
4.920000000001872, -0.8010513064560689 
