t, s[1].omega / s[0].omega 
0, -1.3399957609179334 
0.009999999999999995, -1.3393733549950093 
0.019999999999999934, -1.3383585809900833 
0.029999999999999874, -1.3369534761473978 
0.04000000000000012, -1.3351620762292074 
0.050000000000000405, -1.3329915712912535 
0.06000000000000069, -1.3304537193157369 
0.07000000000000098, -1.3275663549952434 
0.08000000000000126, -1.3243548508272998 
0.09000000000000155, -1.3208535462206048 
0.10000000000000184, -1.3171075435960282 
0.11000000000000212, -1.3131757411853664 
0.12000000000000241, -1.3091359632357285 
0.130000000000002, -1.3050917397188277 
0.1400000000000009, -1.3011774023354754 
0.1499999999999998, -1.2975550013083887 
0.1599999999999987, -1.2943962232523232 
0.1699999999999976, -1.2918481714078018 
0.1799999999999965, -1.289992840463211 
0.1899999999999954, -1.2888189557490013 
0.1999999999999943, -1.2882218850995881 
0.2099999999999932, -1.2880318026143267 
0.2199999999999921, -1.2880542704556392 
0.229999999999991, -1.288103697199051 
0.2399999999999899, -1.2880187980843147 
0.2499999999999888, -1.2876603246423906 
0.2599999999999877, -1.2868971525645294 
0.2699999999999866, -1.2855868206649579 
0.2799999999999855, -1.2835541526968295 
0.2899999999999844, -1.2805695605684542 
0.2999999999999833, -1.276328211568307 
0.3099999999999822, -1.2704325405768502 
0.3199999999999811, -1.2623832086616844 
0.32999999999998, -1.2515866593375689 
0.3399999999999789, -1.2373891937443395 
0.3499999999999778, -1.2191455442719692 
0.35999999999997667, -1.1963223061776558 
0.36999999999997557, -1.1686238573442937 
0.37999999999997447, -1.1361148640949492 
0.38999999999997337, -1.0993055431748098 
0.39999999999997227, -1.0591682875096284 
0.40999999999997117, -1.0170678157660253 
0.41999999999997006, -0.9746089550847306 
0.42999999999996896, -0.9334310140653954 
0.43999999999996786, -0.894996594124083 
0.44999999999996676, -0.8604256740020513 
0.45999999999996566, -0.8304091854545986 
0.46999999999996456, -0.8052079458499045 
0.47999999999996346, -0.7847174242376781 
0.48999999999996235, -0.7685669816984386 
0.49999999999996125, -0.756224487907764 
0.5099999999999602, -0.7470871488989306 
0.519999999999959, -0.7405500483873514 
0.529999999999958, -0.7360515625659144 
0.5399999999999568, -0.73309887349095 
0.5499999999999557, -0.7312782438335949 
0.5599999999999546, -0.7302546966675735 
0.5699999999999535, -0.729765086978405 
0.5799999999999524, -0.7296076943400898 
0.5899999999999513, -0.7296306113140212 
0.5999999999999502, -0.7297204445864608 
0.6099999999999491, -0.7297922352732944 
0.619999999999948, -0.7297810630922094 
0.6299999999999469, -0.7296355225727738 
0.6399999999999458, -0.7293131202742628 
0.6499999999999447, -0.7287775909841734 
0.6599999999999436, -0.7279981014095526 
0.6699999999999425, -0.7269502256496885 
0.6799999999999414, -0.7256183730832392 
0.6899999999999403, -0.7239990148440388 
0.6999999999999392, -0.7221036812130055 
0.7099999999999381, -0.7199604942532782 
0.719999999999937, -0.7176131914338507 
0.7299999999999359, -0.715117271175665 
0.7399999999999348, -0.7125338427989276 
0.7499999999999337, -0.7099225553827861 
0.7599999999999326, -0.7073352276640837 
0.7699999999999315, -0.7048114382421358 
0.7799999999999304, -0.7023766274734821 
0.7899999999999293, -0.7000425766995965 
0.7999999999999282, -0.6978096969321379 
0.8099999999999271, -0.6956704045460433 
0.819999999999926, -0.6936128959338673 
0.8299999999999249, -0.6916247609862989 
0.8399999999999238, -0.6896960437130413 
0.8499999999999227, -0.6878215429561626 
0.8599999999999216, -0.6860023226091461 
0.8699999999999205, -0.6842465368944156 
0.8799999999999194, -0.6825697461615583 
0.8899999999999183, -0.680994898302418 
0.8999999999999172, -0.6795520997181949 
0.9099999999999161, -0.6782782293278049 
0.919999999999915, -0.6772163886817212 
0.9299999999999139, -0.6764151492294188 
0.9399999999999128, -0.6759275598574622 
0.9499999999999117, -0.6758099092511638 
0.9599999999999106, -0.6761202868584424 
0.9699999999999095, -0.6769170383255823 
0.9799999999999084, -0.6782572513300342 
0.9899999999999073, -0.680195424005594 
0.9999999999999062, -0.6827824543413304 
1.0099999999999052, -0.6860650448857392 
1.019999999999904, -0.6900855475483217 
1.029999999999903, -0.6948821851957423 
1.039999999999902, -0.7004894862301038 
1.0499999999999008, -0.7069386589528937 
1.0599999999998997, -0.7142575157910038 
1.0699999999998986, -0.7224694368231414 
1.0799999999998975, -0.7315907509259152 
1.0899999999998964, -0.741625847973129 
1.0999999999998953, -0.7525593953651613 
1.1099999999998942, -0.7643453551318107 
1.119999999999893, -0.7768932786501023 
1.129999999999892, -0.7900537718702193 
1.1399999999998909, -0.8036070251521579 
1.1499999999998898, -0.8172602655944657 
1.1599999999998887, -0.830660475819635 
1.1699999999998876, -0.8434259065603819 
1.1799999999998865, -0.8551931508813747 
1.1899999999998854, -0.8656682839451388 
1.1999999999998843, -0.8746660719794904 
1.2099999999998832, -0.8821247277086806 
1.219999999999882, -0.8880938304376017 
1.229999999999881, -0.8927034211739993 
1.2399999999998799, -0.896126958499072 
1.2499999999998788, -0.8985488363541692 
1.2599999999998777, -0.9001418407993383 
1.2699999999998766, -0.9010550465842407 
1.2799999999998755, -0.9014100124781794 
1.2899999999998744, -0.9013025859661453 
1.2999999999998733, -0.9008082718245706 
1.3099999999998722, -0.8999901622808277 
1.319999999999871, -0.8989094386495876 
1.32999999999987, -0.8976392684693807 
1.3399999999998689, -0.8962834505468549 
1.3499999999998678, -0.8950012448669629 
1.3599999999998666, -0.8940391528098968 
1.3699999999998655, -0.8937685299928823 
1.3799999999998644, -0.8947243791383365 
1.3899999999998633, -0.8976354043045788 
1.3999999999998622, -0.9034291726238263 
1.4099999999998611, -0.9131910887887503 
1.41999999999986, -0.9280555140289916 
1.429999999999859, -0.9490170657201985 
1.4399999999998578, -0.9766756416032095 
1.4499999999998567, -1.0109708494636018 
1.4599999999998556, -1.0510052615061896 
1.4699999999998545, -1.0950641879570489 
1.4799999999998534, -1.1408762306571245 
1.4899999999998523, -1.1860401613434446 
1.4999999999998512, -1.2284539462415742 
1.5099999999998501, -1.2665962738164362 
1.519999999999849, -1.299609716664343 
1.529999999999848, -1.327230066871352 
1.5399999999998468, -1.3496411631364058 
1.5499999999998457, -1.3673181384750182 
1.5599999999998446, -1.3808912192684935 
1.5699999999998435, -1.3910403113239744 
1.5799999999998424, -1.3984207842567868 
1.5899999999998413, -1.403617541380968 
1.5999999999998402, -1.4071229272555903 
1.6099999999998391, -1.4093329019416645 
1.619999999999838, -1.4105555793884208 
1.629999999999837, -1.4110269732968275 
1.6399999999998358, -1.4109302072474053 
1.6499999999998347, -1.410415706601892 
1.6599999999998336, -1.4096202127999033 
1.6699999999998325, -1.4086815159230643 
1.6799999999998314, -1.407744310971007 
1.6899999999998303, -1.4069528114443324 
1.6999999999998292, -1.4064304073533405 
1.709999999999828, -1.4062551389381248 
1.719999999999827, -1.4064454180441166 
1.729999999999826, -1.406965697385804 
1.7399999999998248, -1.4077484798384179 
1.7499999999998237, -1.4087187622896347 
1.7599999999998226, -1.4098082311420912 
1.7699999999998215, -1.4109561605700054 
1.7799999999998204, -1.4121028569482286 
1.7899999999998193, -1.41318376640578 
1.7999999999998182, -1.4141285984602792 
1.809999999999817, -1.4148645920667187 
1.819999999999816, -1.4153204892781102 
1.8299999999998149, -1.4154286129537421 
1.8399999999998138, -1.4151246563982474 
1.8499999999998127, -1.4143463115457602 
1.8599999999998116, -1.4130320747876526 
1.8699999999998105, -1.41112095185403 
1.8799999999998094, -1.4085530075295127 
1.8899999999998083, -1.4052702028497572 
1.8999999999998072, -1.4012168928783164 
1.909999999999806, -1.3963396850115073 
1.919999999999805, -1.3905869154969945 
1.9299999999998039, -1.3839086023830007 
1.9399999999998028, -1.3762582917336492 
1.9499999999998017, -1.3675987942227172 
1.9599999999998006, -1.3579144826485996 
1.9699999999997995, -1.3472333054964336 
1.9799999999997984, -1.3356608463219335 
1.9899999999997973, -1.3234244534309998 
1.9999999999997962, -1.3109154722087846 
2.0099999999998173, -1.2987031814114187 
2.0199999999998384, -1.2874851977271773 
2.0299999999998595, -1.2779546333623804 
2.0399999999998806, -1.2706139874572866 
2.0499999999999017, -1.265621732808432 
2.059999999999923, -1.2627607138283858 
2.069999999999944, -1.2615451817810546 
2.079999999999965, -1.2613958235576004 
2.089999999999986, -1.261788285282069 
2.100000000000007, -1.2623254293746116 
2.1100000000000283, -1.2627398635351241 
2.1200000000000494, -1.2628586481146657 
2.1300000000000705, -1.2625577249689068 
2.1400000000000916, -1.2617190885489427 
2.1500000000001127, -1.2601920183877124 
2.160000000000134, -1.2577534246197617 
2.170000000000155, -1.2540595162791524 
2.180000000000176, -1.248579467014506 
2.190000000000197, -1.2405010033095076 
2.2000000000002182, -1.2285998034689027 
2.2100000000002393, -1.2110752676659415 
2.2200000000002604, -1.185387256104433 
2.2300000000002815, -1.1482010732772538 
2.2400000000003026, -1.0956703269365646 
2.2500000000003237, -1.0243949648232142 
2.260000000000345, -0.9332406565683105 
2.270000000000366, -0.8254428874351891 
2.280000000000387, -0.7092970674929636 
2.290000000000408, -0.5958858530719738 
2.3000000000004293, -0.4948322760706629 
2.3100000000004504, -0.41125586744038 
2.3200000000004715, -0.3456944142838152 
2.3300000000004926, -0.295896103404195 
2.3400000000005137, -0.25866345244261174 
2.3500000000005348, -0.23094450443522369 
2.360000000000556, -0.21024675377195284 
2.370000000000577, -0.19468256602030765 
2.380000000000598, -0.18287471212697273 
2.390000000000619, -0.17383523749294194 
2.4000000000006403, -0.16685962998068166 
2.4100000000006614, -0.16144578176598795 
2.4200000000006825, -0.15723553164539472 
2.4300000000007036, -0.15397372800266598 
2.4400000000007247, -0.151480035511292 
2.450000000000746, -0.1496297927563971 
2.460000000000767, -0.1483413080031314 
2.470000000000788, -0.14756784940092002 
2.480000000000809, -0.14729324405502553 
2.49000000000083, -0.14753050592881506 
2.5000000000008513, -0.1483233330009975 
2.5100000000008724, -0.14975071550894584 
2.5200000000008935, -0.15193534718439697 
2.5300000000009146, -0.15505710755838906 
2.5400000000009357, -0.15937368085821577 
2.550000000000957, -0.16525150921854653 
2.560000000000978, -0.17321184825769953 
2.570000000000999, -0.1839986767528232 
2.58000000000102, -0.19867708904130882 
2.5900000000010412, -0.21877055697941386 
2.6000000000010624, -0.24643720045617962 
2.6100000000010835, -0.28465452383121287 
2.6200000000011046, -0.33730080599863266 
2.6300000000011257, -0.408857867699694 
2.6400000000011468, -0.5032585186839266 
2.650000000001168, -0.6214892895897672 
2.660000000001189, -0.758600245076384 
2.67000000000121, -0.9026612324156876 
2.680000000001231, -1.03824723776603 
2.6900000000012523, -1.1529047301209738 
2.7000000000012734, -1.2413926625323595 
2.7100000000012945, -1.3050994353004732 
2.7200000000013156, -1.3488277451099195 
2.7300000000013367, -1.3779521095532397 
2.740000000001358, -1.3970006543437108 
2.750000000001379, -1.4093099348021492 
2.7600000000014, -1.4171681316652294 
2.770000000001421, -1.422083789634586 
2.780000000001442, -1.4250307153513868 
2.7900000000014633, -1.4266315629127906 
2.8000000000014844, -1.4272852711631687 
2.8100000000015055, -1.4272543944347122 
2.8200000000015266, -1.4267278503108853 
2.8300000000015477, -1.425870565452799 
2.840000000001569, -1.4248654091478974 
2.85000000000159, -1.4239439145851576 
2.860000000001611, -1.4233920190616998 
2.870000000001632, -1.4235137464193093 
2.8800000000016532, -1.4245522162684727 
2.8900000000016743, -1.42660226485981 
2.9000000000016954, -1.4295704322759162 
2.9100000000017165, -1.4332122494742574 
2.9200000000017377, -1.4372212285460273 
2.9300000000017588, -1.4413145576545177 
2.94000000000178, -1.4452787677118066 
2.950000000001801, -1.4489742546965472 
2.960000000001822, -1.4523176326119653 
2.970000000001843, -1.4552605235329472 
2.9800000000018643, -1.4577740540406483 
2.9900000000018854, -1.4598401859305696 
3.0000000000019065, -1.4614474735553065 
3.0100000000019276, -1.4625887836950278 
3.0200000000019487, -1.4632596630462358 
3.03000000000197, -1.463456960222242 
3.040000000001991, -1.4631776893958721 
3.050000000002012, -1.462418185585055 
3.060000000002033, -1.4611735868362823 
3.070000000002054, -1.4594376780463705 
3.0800000000020753, -1.4572031405407344 
3.0900000000020964, -1.454462250339591 
3.1000000000021175, -1.451208064481027 
3.1100000000021386, -1.4474361985105377 
3.1200000000021597, -1.4431475916923826 
3.130000000002181, -1.4383533763174854 
3.140000000002202, -1.433084036044535 
3.150000000002223, -1.4274055565267643 
3.160000000002244, -1.421443247733312 
3.1700000000022652, -1.4154072243958777 
3.1800000000022863, -1.4096028099029445 
3.1900000000023074, -1.4044018124223394 
3.2000000000023285, -1.4001609226613307 
3.2100000000023496, -1.3971088320968674 
3.2200000000023707, -1.3952618422141787 
3.230000000002392, -1.3944235950939425 
3.240000000002413, -1.3942674876517336 
3.250000000002434, -1.3944444141144372 
3.260000000002455, -1.3946568210342247 
3.2700000000024763, -1.3946793665352433 
3.2800000000024974, -1.3943399813626915 
3.2900000000025185, -1.3934824122952578 
3.3000000000025396, -1.3919223217275716 
3.3100000000025607, -1.38939781729506 
3.3200000000025818, -1.3855074099054117 
3.330000000002603, -1.379623380284379 
3.340000000002624, -1.3707652395222354 
3.350000000002645, -1.3574181606960265 
3.360000000002666, -1.3372932224167229 
3.3700000000026873, -1.3070705312555644 
3.3800000000027084, -1.2622789770508194 
3.3900000000027295, -1.19767460569267 
3.4000000000027506, -1.1086816818277199 
3.4100000000027717, -0.9941991004862387 
3.420000000002793, -0.8596871376496401 
3.430000000002814, -0.7175945814714032 
3.440000000002835, -0.5830687680565567 
3.450000000002856, -0.4675996746866412 
3.460000000002877, -0.3757238207621412 
3.4700000000028983, -0.3062029420231323 
3.4800000000029194, -0.25502946823570616 
3.4900000000029405, -0.21776270561882713 
3.5000000000029616, -0.1906138355904724 
3.5100000000029827, -0.17070063545089154 
3.520000000003004, -0.15594756715463212 
3.530000000003025, -0.1448964282150347 
3.540000000003046, -0.13653146514081593 
3.550000000003067, -0.13014529191053484 
3.5600000000030882, -0.12524371203659068 
3.5700000000031094, -0.12148049795599461 
3.5800000000031305, -0.11861343678789503 
3.5900000000031516, -0.11647499860429425 
3.6000000000031727, -0.11495300748401051 
3.6100000000031938, -0.11397826562867451 
3.620000000003215, -0.11351720955049159 
3.630000000003236, -0.11356848495749458 
3.640000000003257, -0.11416293781244978 
3.650000000003278, -0.11536704107033792 
3.6600000000032993, -0.11729030751740357 
3.6700000000033204, -0.1200978806416313 
3.6800000000033415, -0.12403036940611015 
3.6900000000033626, -0.1294342540062832 
3.7000000000033837, -0.1368080194423481 
3.710000000003405, -0.14687170190567708 
3.720000000003426, -0.1606705378122831 
3.730000000003447, -0.17972539148391162 
3.740000000003468, -0.20623836976950427 
3.750000000003489, -0.24333694019969165 
3.7600000000035103, -0.2952610598307718 
3.7700000000035314, -0.36721454889640337 
3.7800000000035525, -0.46431581143878414 
3.7900000000035736, -0.5890025399675656 
3.8000000000035947, -0.7372422247298762 
3.810000000003616, -0.8963624480235134 
3.820000000003637, -1.0483112619868349 
3.830000000003658, -1.1775456393462655 
3.840000000003679, -1.2770210037180452 
3.8500000000037002, -1.348011905144589 
3.8600000000037213, -1.3961506888287578 
3.8700000000037424, -1.4277891930871747 
3.8800000000037635, -1.4482150324920575 
3.8900000000037847, -1.4612573774711264 
3.9000000000038058, -1.469495202761265 
3.910000000003827, -1.474600188250072 
3.920000000003848, -1.4776352640710655 
3.930000000003869, -1.47927135020156 
3.94000000000389, -1.479934017122158 
3.9500000000039113, -1.4799018738917462 
3.9600000000039324, -1.4793758515490312 
3.9700000000039535, -1.478532457667145 
3.9800000000039746, -1.4775659854406435 
3.9900000000039957, -1.4767141619751334 
4.000000000004016, -1.4762522513553598 
4.010000000003993, -1.4764433084123658 
4.02000000000397, -1.4774573339491652 
4.030000000003946, -1.4793055665385515 
4.040000000003923, -1.48183813533689 
4.0500000000039, -1.484808378961187 
4.0600000000038765, -1.4879589453918152 
4.070000000003853, -1.4910811942621043 
4.08000000000383, -1.4940319294436775 
4.090000000003807, -1.4967209263917005 
4.100000000003783, -1.499090138276489 
4.11000000000376, -1.501097697998228 
4.120000000003737, -1.5027096801038622 
4.130000000003713, -1.5038969963008113 
4.14000000000369, -1.5046341404341836 
4.150000000003667, -1.5048980666058802 
4.1600000000036434, -1.5046668980469073 
4.17000000000362, -1.503918671433266 
4.180000000003597, -1.5026302487442442 
4.1900000000035735, -1.5007763655996944 
4.20000000000355, -1.4983287597676307 
4.210000000003527, -1.4952554273011978 
4.220000000003504, -1.4915202033712953 
4.23000000000348, -1.487083037277666 
4.240000000003457, -1.4819016365774296 
4.250000000003434, -1.475935840917046 
4.26000000000341, -1.4691573857396607 
4.270000000003387, -1.4615693752514327 
4.280000000003364, -1.4532402265877804 
4.2900000000033405, -1.44435254127514 
4.300000000003317, -1.4352540194616377 
4.310000000003294, -1.4264758215188562 
4.320000000003271, -1.418669702876309 
4.330000000003247, -1.4124414539843413 
4.340000000003224, -1.408138023110543 
4.350000000003201, -1.4057175061337321 
4.360000000003177, -1.4047949952685015 
4.370000000003154, -1.4048237496994067 
4.380000000003131, -1.4052824504449068 
4.390000000003107, -1.405775293242164 
4.400000000003084, -1.4060393788775325 
4.410000000003061, -1.4059010487475414 
4.4200000000030375, -1.4052186006645473 
4.430000000003014, -1.4038266076733588 
4.440000000002991, -1.4014795198390653 
4.450000000002968, -1.3977824452412548 
4.460000000002944, -1.3920903732200798 
4.470000000002921, -1.3833495262567388 
4.480000000002898, -1.3698454899006178 
4.490000000002874, -1.34881938451948 
4.500000000002851, -1.315941491425046 
4.510000000002828, -1.2647563400296566 
4.520000000002804, -1.1865421994779473 
4.530000000002781, -1.0715910842842316 
4.540000000002758, -0.9132760771904693 
4.5500000000027345, -0.7151590578705836 
4.560000000002711, -0.4972467533309633 
4.570000000002688, -0.2919862484084153 
4.580000000002665, -0.12648735535131606 
4.590000000002641, -0.008396901957517468 
4.600000000002618, 0.06933096418829794 
4.610000000002595, 0.11929930682818042 
4.620000000002571, 0.151443004518965 
4.630000000002548, 0.17240589367544415 
4.640000000002525, 0.18633169625348128 
4.6500000000025015, 0.19575008049598663 
4.660000000002478, 0.20221236093390063 
4.670000000002455, 0.20668551418596212 
4.6800000000024315, 0.2097849893926149 
4.690000000002408, 0.21191099325514767 
4.700000000002385, 0.213328903393828 
4.710000000002362, 0.21421748685729752 
4.720000000002338, 0.21469842994749203 
4.730000000002315, 0.21485493035495928 
4.740000000002292, 0.21474393429778305 
4.750000000002268, 0.21440493713003522 
4.760000000002245, 0.21386754961860197 
4.770000000002222, 0.21316006015034486 
4.7800000000021985, 0.21232207017243612 
4.790000000002175, 0.2114262998644655 
4.800000000002152, 0.21061847800495812 
4.810000000002129, 0.2101904233580396 
4.820000000002105, 0.21070890949722063 
4.830000000002082, 0.21322334280338492 
4.840000000002059, 0.21953905188120384 
4.850000000002035, 0.23240122828993093 
4.860000000002012, 0.255123796273427 
4.870000000001989, 0.28996782191152976 
4.880000000001965, 0.33545235438706167 
4.890000000001942, 0.38521004434950884 
4.900000000001919, 0.4310826284835636 
4.9100000000018955, 0.4678250592648265 
4.920000000001872, 0.4945228060245403 
