t, s[1].omega / s[0].omega 
0, -0.9599968412460033 
0.009999999999999995, -0.9596177151525133 
0.019999999999999934, -0.9591166223783361 
0.029999999999999874, -0.9585016786304402 
0.04000000000000012, -0.95778779342455 
0.050000000000000405, -0.956999714644575 
0.06000000000000069, -0.9561739938209538 
0.07000000000000098, -0.955359217133914 
0.08000000000000126, -0.9546134278211456 
0.09000000000000155, -0.9539974056038473 
0.10000000000000184, -0.9535640021389197 
0.11000000000000212, -0.9533465577415671 
0.12000000000000241, -0.9533509693380052 
0.130000000000002, -0.9535546648324058 
0.1400000000000009, -0.9539126793915239 
0.1499999999999998, -0.9543681816299957 
0.1599999999999987, -0.9548634037947629 
0.1699999999999976, -0.9553475894552881 
0.1799999999999965, -0.9557806868155081 
0.1899999999999954, -0.9561333719574326 
0.1999999999999943, -0.9563846726087298 
0.2099999999999932, -0.9565187058230811 
0.2199999999999921, -0.9565224813055858 
0.229999999999991, -0.9563864721256058 
0.2399999999999899, -0.956107821074931 
0.2499999999999888, -0.9556940030412344 
0.2599999999999877, -0.9551648735459155 
0.2699999999999866, -0.9545531085128921 
0.2799999999999855, -0.9539042856161712 
0.2899999999999844, -0.953276625147967 
0.2999999999999833, -0.9527381130895021 
0.3099999999999822, -0.9523582623947009 
0.3199999999999811, -0.9521947769139629 
0.32999999999998, -0.9522799800311568 
0.3399999999999789, -0.9526135047241777 
0.3499999999999778, -0.9531643805043677 
0.35999999999997667, -0.953880527710178 
0.36999999999997557, -0.9547008892318016 
0.37999999999997447, -0.9555657229808917 
0.38999999999997337, -0.9564224977999224 
0.39999999999997227, -0.9572270399170044 
0.40999999999997117, -0.9579413783882659 
0.41999999999997006, -0.9585309825753396 
0.42999999999996896, -0.9589644434138542 
0.43999999999996786, -0.9592171511022796 
0.44999999999996676, -0.9592771923845114 
0.45999999999996566, -0.9591493521417658 
0.46999999999996456, -0.9588547522948009 
0.47999999999996346, -0.9584278174959853 
0.48999999999996235, -0.9579143530926253 
0.49999999999996125, -0.9573726418268859 
0.5099999999999602, -0.9568755164178959 
0.519999999999959, -0.9565082632149486 
0.529999999999958, -0.9563577119886497 
0.5399999999999568, -0.9564934554545996 
0.5499999999999557, -0.9569495378176768 
0.5599999999999546, -0.9577166501105794 
0.5699999999999535, -0.958748119442129 
0.5799999999999524, -0.9599744830049183 
0.5899999999999513, -0.9613185168817827 
0.5999999999999502, -0.9627051854883323 
0.6099999999999491, -0.9640651329515071 
0.619999999999948, -0.9653337338638778 
0.6299999999999469, -0.9664498620576627 
0.6399999999999458, -0.9673586530491294 
0.6499999999999447, -0.9680193959209005 
0.6599999999999436, -0.9684143929094727 
0.6699999999999425, -0.9685522228612593 
0.6799999999999414, -0.9684629978579764 
0.6899999999999403, -0.968189912356228 
0.6999999999999392, -0.9677837310093638 
0.7099999999999381, -0.9673037774192792 
0.719999999999937, -0.9668240423346731 
0.7299999999999359, -0.9664386280342555 
0.7399999999999348, -0.9662582300824958 
0.7499999999999337, -0.9663919984720286 
0.7599999999999326, -0.9669191013115388 
0.7699999999999315, -0.9678649527144249 
0.7799999999999304, -0.9691960567221367 
0.7899999999999293, -0.9708339773657201 
0.7999999999999282, -0.9726770637952301 
0.8099999999999271, -0.9746180608579118 
0.819999999999926, -0.9765527819185635 
0.8299999999999249, -0.9783821238988454 
0.8399999999999238, -0.9800135704331214 
0.8499999999999227, -0.9813678969564119 
0.8599999999999216, -0.9823913856493635 
0.8699999999999205, -0.983066500357437 
0.8799999999999194, -0.9834123768075074 
0.8899999999999183, -0.9834740176406637 
0.8999999999999172, -0.9833079266511333 
0.9099999999999161, -0.9829732421785113 
0.919999999999915, -0.9825324230414374 
0.9299999999999139, -0.9820599964708208 
0.9399999999999128, -0.9816535511989954 
0.9499999999999117, -0.9814372468962173 
0.9599999999999106, -0.981547488346672 
0.9699999999999095, -0.9820994094483382 
0.9799999999999084, -0.983149587759945 
0.9899999999999073, -0.984677994737762 
0.9999999999999062, -0.9865985027294553 
1.0099999999999052, -0.9887863642666422 
1.019999999999904, -0.9911043533848115 
1.029999999999903, -0.9934178468628436 
1.039999999999902, -0.9956005370053601 
1.0499999999999008, -0.9975385664921534 
1.0599999999998997, -0.9991398720249522 
1.0699999999998986, -1.000348175707758 
1.0799999999998975, -1.0011527213091378 
1.0899999999998964, -1.0015847983651804 
1.0999999999998953, -1.0017020815133972 
1.1099999999998942, -1.0015710075642812 
1.119999999999893, -1.0012570171161328 
1.129999999999892, -1.0008260688941903 
1.1399999999998909, -1.0003551535516109 
1.1499999999998898, -0.9999454226036434 
1.1599999999998887, -0.999727223454002 
1.1699999999998876, -0.9998450265626696 
1.1799999999998865, -1.0004201176619518 
1.1899999999998854, -1.001508791281172 
1.1999999999998843, -1.0030830848748402 
1.2099999999998832, -1.0050445200600764 
1.219999999999882, -1.00725640402834 
1.229999999999881, -1.0095732824806687 
1.2399999999998799, -1.011857180031543 
1.2499999999998788, -1.013983271628465 
1.2599999999998777, -1.0158435219754791 
1.2699999999998766, -1.0173549338701593 
1.2799999999998755, -1.0184714072411067 
1.2899999999998744, -1.019190717817269 
1.2999999999998733, -1.0195491100464977 
1.3099999999998722, -1.019605670346714 
1.319999999999871, -1.0194264194526474 
1.32999999999987, -1.019076808671452 
1.3399999999998689, -1.0186250070756373 
1.3499999999998678, -1.018152746348536 
1.3599999999998666, -1.0177659258448855 
1.3699999999998655, -1.017593297001644 
1.3799999999998644, -1.017763732784407 
1.3899999999998633, -1.0183671753994683 
1.3999999999998622, -1.019422290671454 
1.4099999999998611, -1.0208726469832057 
1.41999999999986, -1.0226104186865208 
1.429999999999859, -1.024508279963039 
1.4399999999998578, -1.026442485501421 
1.4499999999998567, -1.0283027580966633 
1.4599999999998556, -1.0299938190301372 
1.4699999999998545, -1.0314360591674208 
1.4799999999998534, -1.0325703836974638 
1.4899999999998523, -1.0333662289937715 
1.4999999999998512, -1.0338262822729565 
1.5099999999998501, -1.033982418566635 
1.519999999999849, -1.0338846453156543 
1.529999999999848, -1.033590582370587 
1.5399999999998468, -1.0331619273465795 
1.5499999999998457, -1.0326689747321747 
1.5599999999998446, -1.0321985315052946 
1.5699999999998435, -1.031856036313655 
1.5799999999998424, -1.031752404209628 
1.5899999999998413, -1.0319753187636427 
1.5999999999998402, -1.032560018682417 
1.6099999999998391, -1.033479182385531 
1.619999999999838, -1.0346568536800835 
1.629999999999837, -1.0359940560742626 
1.6399999999998358, -1.037391125086383 
1.6499999999998347, -1.0387599792353441 
1.6599999999998336, -1.040027232223443 
1.6699999999998325, -1.0411325369243536 
1.6799999999998314, -1.0420271021066556 
1.6899999999998303, -1.0426756017190004 
1.6999999999998292, -1.0430609074828145 
1.709999999999828, -1.0431875441166842 
1.719999999999827, -1.0430802473400342 
1.729999999999826, -1.0427785796461226 
1.7399999999998248, -1.0423322804607644 
1.7499999999998237, -1.04180103033616 
1.7599999999998226, -1.041257649630989 
1.7699999999998215, -1.0407887923919974 
1.7799999999998204, -1.0404858004695126 
1.7899999999998193, -1.0404242755441218 
1.7999999999998182, -1.0406418195505076 
1.809999999999817, -1.041127849800797 
1.819999999999816, -1.0418306942594742 
1.8299999999998149, -1.042675259586558 
1.8399999999998138, -1.0435812755037357 
1.8499999999998127, -1.0444760531421233 
1.8599999999998116, -1.04530027258086 
1.8699999999998105, -1.0460081713478744 
1.8799999999998094, -1.0465649153693721 
1.8899999999998083, -1.046944203427304 
1.8999999999998072, -1.0471282639798403 
1.909999999999806, -1.0471102865043187 
1.919999999999805, -1.0468971261953433 
1.9299999999998039, -1.046510075939221 
1.9399999999998028, -1.0459838959357775 
1.9499999999998017, -1.0453661635844336 
1.9599999999998006, -1.0447177127261327 
1.9699999999997995, -1.0441114250426304 
1.9799999999997984, -1.0436247491196426 
1.9899999999997973, -1.0433245965858782 
1.9999999999997962, -1.0432502753859603 
2.0099999999998173, -1.0434035033029567 
2.0199999999998384, -1.0437500459871705 
2.0299999999998595, -1.0442305895800519 
2.0399999999998806, -1.044775331465671 
2.0499999999999017, -1.0453170916136652 
2.059999999999923, -1.0457996142574773 
2.069999999999944, -1.0461804850166758 
2.079999999999965, -1.0464302420259153 
2.089999999999986, -1.046529750931038 
2.100000000000007, -1.0464675849650795 
2.1100000000000283, -1.0462388271175989 
2.1200000000000494, -1.0458459158839373 
2.1300000000000705, -1.045300807965202 
2.1400000000000916, -1.04462713198463 
2.1500000000001127, -1.0438617146851437 
2.160000000000134, -1.0430553110433458 
2.170000000000155, -1.0422712426493974 
2.180000000000176, -1.0415793991460462 
2.190000000000197, -1.0410445002333335 
2.2000000000002182, -1.0407116317092835 
2.2100000000002393, -1.0405948746617946 
2.2200000000002604, -1.040673654173602 
2.2300000000002815, -1.040898158356985 
2.2400000000003026, -1.041201774630093 
2.2500000000003237, -1.0415154244596798 
2.260000000000345, -1.0417782575360763 
2.270000000000366, -1.0419425631798371 
2.280000000000387, -1.0419745417437896 
2.290000000000408, -1.041853338218473 
2.3000000000004293, -1.0415693101837982 
2.3100000000004504, -1.0411217077143171 
2.3200000000004715, -1.0405166169922586 
2.3300000000004926, -1.0397665019021 
2.3400000000005137, -1.0388917733340448 
2.3500000000005348, -1.0379234996839757 
2.360000000000556, -1.0369057864491935 
2.370000000000577, -1.0358961116786252 
2.380000000000598, -1.0349616254852954 
2.390000000000619, -1.0341701230588742 
2.4000000000006403, -1.0335767618472302 
2.4100000000006614, -1.0332102630961257 
2.4200000000006825, -1.0330637537886551 
2.4300000000007036, -1.0330950016955929 
2.4400000000007247, -1.033237238115071 
2.450000000000746, -1.0334155372299878 
2.460000000000767, -1.0335605619748307 
2.470000000000788, -1.0336152140284658 
2.480000000000809, -1.0335358444791694 
2.49000000000083, -1.0332920285842122 
2.5000000000008513, -1.0328668736536766 
2.5100000000008724, -1.0322569454334374 
2.5200000000008935, -1.0314704327210988 
2.5300000000009146, -1.0305241915302594 
2.5400000000009357, -1.0294419359670481 
2.550000000000957, -1.028255018763152 
2.560000000000978, -1.027005090814404 
2.570000000000999, -1.0257464243671115 
2.58000000000102, -1.0245452786818743 
2.5900000000010412, -1.0234741530666585 
2.6000000000010624, -1.0226002747441907 
2.6100000000010835, -1.021970185521453 
2.6200000000011046, -1.0215953620866383 
2.6300000000011257, -1.021446051999503 
2.6400000000011468, -1.0214583928391419 
2.650000000001168, -1.021551905294932 
2.660000000001189, -1.0216473968374988 
2.67000000000121, -1.0216770760099514 
2.680000000001231, -1.0215865369517898 
2.6900000000012523, -1.0213336360583738 
2.7000000000012734, -1.0208887554114328 
2.7100000000012945, -1.020237041325626 
2.7200000000013156, -1.0193799280720388 
2.7300000000013367, -1.018333487915377 
2.740000000001358, -1.0171244122306125 
2.750000000001379, -1.0157868718368437 
2.7600000000014, -1.0143624821882398 
2.770000000001421, -1.0129026576443736 
2.780000000001442, -1.011470553769955 
2.7900000000014633, -1.010139408834591 
2.8000000000014844, -1.0089849931496286 
2.8100000000015055, -1.0080718753762574 
2.8200000000015266, -1.0074364593347316 
2.8300000000015477, -1.0070736905531148 
2.840000000001569, -1.0069357179173333 
2.85000000000159, -1.0069451833471577 
2.860000000001611, -1.0070157775363942 
2.870000000001632, -1.007068540101613 
2.8800000000016532, -1.0070382618868157 
2.8900000000016743, -1.0068727783714704 
2.9000000000016954, -1.0065312593546796 
2.9100000000017165, -1.005985363571742 
2.9200000000017377, -1.0052226742353445 
2.9300000000017588, -1.004248754693386 
2.94000000000178, -1.0030850711671755 
2.950000000001801, -1.0017640382479556 
2.960000000001822, -1.0003250912388704 
2.970000000001843, -0.9988142730792049 
2.9800000000018643, -0.9972864257160878 
2.9900000000018854, -0.9958068657285265 
3.0000000000019065, -0.9944492166110152 
3.0100000000019276, -0.9932872555658496 
3.0200000000019487, -0.992380905565534 
3.03000000000197, -0.9917599189557025 
3.040000000001991, -0.9914124387830345 
3.050000000002012, -0.9912859513290592 
3.060000000002033, -0.9913017446066673 
3.070000000002054, -0.9913748180500088 
3.0800000000020753, -0.991428666614708 
3.0900000000020964, -0.9914006320604107 
3.1000000000021175, -0.9912410467106294 
3.1100000000021386, -0.9909118527713796 
3.1200000000021597, -0.990387911387298 
3.130000000002181, -0.9896600024088997 
3.140000000002202, -0.9887359611911404 
3.150000000002223, -0.9876377768231281 
3.160000000002244, -0.9863964185844806 
3.1700000000022652, -0.985048246378655 
3.1800000000022863, -0.9836350448785802 
3.1900000000023074, -0.9822064584945993 
3.2000000000023285, -0.9808217949124389 
3.2100000000023496, -0.9795482302998039 
3.2200000000023707, -0.978453661441228 
3.230000000002392, -0.9775944892111698 
3.240000000002413, -0.9770013579047404 
3.250000000002434, -0.9766685742334605 
3.260000000002455, -0.9765533623359695 
3.2700000000024763, -0.9765867437911527 
3.2800000000024974, -0.9766905789529222 
3.2900000000025185, -0.9767920071715667 
3.3000000000025396, -0.9768304182394608 
3.3100000000025607, -0.9767584309748379 
3.3200000000025818, -0.9765412601724789 
3.330000000002603, -0.9761572965199423 
3.340000000002624, -0.9755993261312111 
3.350000000002645, -0.9748739182262055 
3.360000000002666, -0.9739979319729007 
3.3700000000026873, -0.972994161470931 
3.3800000000027084, -0.9718891861559313 
3.3900000000027295, -0.9707145006007337 
3.4000000000027506, -0.9695094242844376 
3.4100000000027717, -0.9683232312141861 
3.420000000002793, -0.9672141924180927 
3.430000000002814, -0.9662440867521092 
3.440000000002835, -0.9654682696607221 
3.450000000002856, -0.9649235268173519 
3.460000000002877, -0.9646178329405133 
3.4700000000028983, -0.9645266344062311 
3.4800000000029194, -0.9645982182797679 
3.4900000000029405, -0.9647661736787464 
3.5000000000029616, -0.9649630449659641 
3.5100000000029827, -0.9651297707305225 
3.520000000003004, -0.9652196569507581 
3.530000000003025, -0.9651990811836277 
3.540000000003046, -0.9650472634142859 
3.550000000003067, -0.9647554647578639 
3.5600000000030882, -0.9643247609435148 
3.5700000000031094, -0.963762569772937 
3.5800000000031305, -0.9630798791303515 
3.5900000000031516, -0.9622910616806923 
3.6000000000031727, -0.9614162028974702 
3.6100000000031938, -0.9604842651066692 
3.620000000003215, -0.9595353141996679 
3.630000000003236, -0.9586204402375161 
3.640000000003257, -0.9577980920867993 
3.650000000003278, -0.957126124388782 
3.6600000000032993, -0.9566507557823728 
3.6700000000033204, -0.956395875115071 
3.6800000000033415, -0.9563568204869222 
3.6900000000033626, -0.9565012871767294 
3.7000000000033837, -0.9567771573681909 
3.710000000003405, -0.957124048432546 
3.720000000003426, -0.9574840549017527 
3.730000000003447, -0.9578086058656108 
3.740000000003468, -0.9580611266990807 
3.750000000003489, -0.9582167717775321 
3.7600000000035103, -0.9582603369691881 
3.7700000000035314, -0.958183125075809 
3.7800000000035525, -0.9579801065440776 
3.7900000000035736, -0.9576491539942695 
3.8000000000035947, -0.9571929723376325 
3.810000000003616, -0.9566223805191063 
3.820000000003637, -0.9559590494910919 
3.830000000003658, -0.9552369836308496 
3.840000000003679, -0.9545028851243924 
3.8500000000037002, -0.9538147218681019 
3.8600000000037213, -0.9532366179944864 
3.8700000000037424, -0.9528289561543491 
3.8800000000037635, -0.9526357691522607 
3.8900000000037847, -0.9526744203351999 
3.9000000000038058, -0.9529321319567821 
3.910000000003827, -0.9533704418341902 
3.920000000003848, -0.953935125562681 
3.930000000003869, -0.9545674862397016 
3.94000000000389, -0.9552133218642099 
3.9500000000039113, -0.9558276503268057 
3.9600000000039324, -0.9563752381982906 
3.9700000000039535, -0.9568282580620302 
3.9800000000039746, -0.9571631341892803 
3.9900000000039957, -0.9573590295248511 
4.000000000004016, -0.9573996450858656 
4.010000000003993, -0.9572775607370305 
4.02000000000397, -0.9569981496527932 
4.030000000003946, -0.9565807768801579 
4.040000000003923, -0.9560579310435179 
4.0500000000039, -0.9554746284910323 
4.0600000000038765, -0.9548889573556062 
4.070000000003853, -0.9543714867515641 
4.08000000000383, -0.9539994946592592 
4.090000000003807, -0.9538440626770198 
4.100000000003783, -0.9539536543478881 
4.11000000000376, -0.9543420973192955 
4.120000000003737, -0.9549870456811261 
4.130000000003713, -0.9558385303177355 
4.14000000000369, -0.9568322211763013 
4.150000000003667, -0.9579015355841971 
4.1600000000036434, -0.9589850657964568 
4.17000000000362, -0.9600286164664794 
4.180000000003597, -0.960983476037713 
4.1900000000035735, -0.9618041771758662 
4.20000000000355, -0.9624493257300694 
4.210000000003527, -0.9628869672805805 
4.220000000003504, -0.96310182019126 
4.23000000000348, -0.9630992129448825 
4.240000000003457, -0.9629031089516438 
4.250000000003434, -0.9625508661797874 
4.26000000000341, -0.9620897805042536 
4.270000000003387, -0.9615782075661453 
4.280000000003364, -0.9610896101388852 
4.2900000000033405, -0.9607139517299974 
4.300000000003317, -0.9605498260841587 
4.310000000003294, -0.9606852558777627 
4.320000000003271, -0.9611742869292108 
4.330000000003247, -0.9620222707984976 
4.340000000003224, -0.9631876807874692 
4.350000000003201, -0.9645969981036142 
4.360000000003177, -0.9661627205470674 
4.370000000003154, -0.9677963997587241 
4.380000000003131, -0.9694141270319838 
4.390000000003107, -0.9709366786168309 
4.400000000003084, -0.9722892984712235 
4.410000000003061, -0.9734060352673467 
4.4200000000030375, -0.9742395362653292 
4.430000000003014, -0.9747709708472054 
4.440000000002991, -0.9750124792140905 
4.450000000002968, -0.975000018261807 
4.460000000002944, -0.9747822684836649 
4.470000000002921, -0.9744134280116006 
4.480000000002898, -0.9739538972417747 
4.490000000002874, -0.9734775972704529 
4.500000000002851, -0.9730801724785911 
4.510000000002828, -0.9728789899499416 
4.520000000002804, -0.9729968450801529 
4.530000000002781, -0.9735309308504142 
4.540000000002758, -0.9745224333506985 
4.5500000000027345, -0.9759451681954907 
4.560000000002711, -0.9777178738529024 
4.570000000002688, -0.979728579023897 
4.580000000002665, -0.9818561555595146 
4.590000000002641, -0.9839819711474125 
4.600000000002618, -0.9859936185429081 
4.610000000002595, -0.9877876136587954 
4.620000000002571, -0.9892773551859536 
4.630000000002548, -0.9904063830206313 
4.640000000002525, -0.9911590167548706 
4.6500000000025015, -0.991559341512043 
4.660000000002478, -0.9916581726261864 
4.670000000002455, -0.9915168981118077 
4.6800000000024315, -0.9911978223798176 
4.690000000002408, -0.9907649518165316 
4.700000000002385, -0.9902934833749402 
4.710000000002362, -0.9898820386573336 
4.720000000002338, -0.989657549363187 
4.730000000002315, -0.9897614492482614 
4.740000000002292, -0.9903147510655497 
4.750000000002268, -0.9913778621269482 
4.760000000002245, -0.9929303727982528 
4.770000000002222, -0.9948818532171295 
4.7800000000021985, -0.9971014566439406 
4.790000000002175, -0.999446259392141 
4.800000000002152, -1.0017776361161101 
4.810000000002129, -1.003967440968585 
4.820000000002105, -1.0059021525593133 
4.830000000002082, -1.00749188331307 
4.840000000002059, -1.0086836104526626 
4.850000000002035, -1.009469847138849 
4.860000000002012, -1.0098842801011352 
4.870000000001989, -1.0099858523285619 
4.880000000001965, -1.0098415141129138 
4.890000000001942, -1.0095171338393005 
4.900000000001919, -1.0090796303351142 
4.9100000000018955, -1.0086077162128382 
4.920000000001872, -1.0082043530766298 
4.930000000001849, -1.0079997265419631 
