t, s[1].omega / s[0].omega 
0, -1.2299781449565284 
0.009999999999999995, -1.227632729827551 
0.019999999999999934, -1.2249717969660991 
0.029999999999999874, -1.2219972271701867 
0.04000000000000012, -1.2187111439472813 
0.050000000000000405, -1.215115912588432 
0.06000000000000069, -1.2112141395498988 
0.07000000000000098, -1.2070086721121458 
0.08000000000000126, -1.202502598280949 
0.09000000000000155, -1.1976992468906456 
0.10000000000000184, -1.1926021878650184 
0.11000000000000212, -1.1872152325871992 
0.12000000000000241, -1.1815424343263012 
0.130000000000002, -1.1755880886652144 
0.1400000000000009, -1.1693567338713509 
0.1499999999999998, -1.16285315114994 
0.1599999999999987, -1.1560823647180305 
0.1699999999999976, -1.1490496416364728 
0.1799999999999965, -1.1417604913370296 
0.1899999999999954, -1.1342206647823498 
0.1999999999999943, -1.1264361531978966 
0.2099999999999932, -1.1184131863170117 
0.2199999999999921, -1.1101582300831807 
0.229999999999991, -1.1016779837572683 
0.2399999999999899, -1.0929793763818245 
0.2499999999999888, -1.0840695625597894 
0.2599999999999877, -1.0749559175107255 
0.2699999999999866, -1.06564603137424 
0.2799999999999855, -1.0561477027373356 
0.2899999999999844, -1.0464689313700963 
0.2999999999999833, -1.036617910162191 
0.3099999999999822, -1.0266030162611435 
0.3199999999999811, -1.0164328014220683 
0.32999999999998, -1.0061159815874654 
0.3399999999999789, -0.995661425724665 
0.3499999999999778, -0.9850781439574129 
0.35999999999997667, -0.9743752750368704 
0.36999999999997557, -0.9635620732057651 
0.37999999999997447, -0.952647894517504 
0.38999999999997337, -0.9416421826796363 
0.39999999999997227, -0.9305544544979861 
0.40999999999997117, -0.9193942850040175 
0.41999999999997006, -0.9081712923534074 
0.42999999999996896, -0.8968951225883444 
0.43999999999996786, -0.885575434359662 
0.44999999999996676, -0.8742218837075055 
0.45999999999996566, -0.8628441090007927 
0.46999999999996456, -0.8514517161362402 
0.47999999999996346, -0.8400542640972055 
0.48999999999996235, -0.8286612509710013 
0.49999999999996125, -0.817282100520815 
0.5099999999999602, -0.805926149404826 
0.519999999999959, -0.7946026351307413 
0.529999999999958, -0.783320684828769 
0.5399999999999568, -0.7720893049201439 
0.5499999999999557, -0.7609173717517878 
0.5599999999999546, -0.7498136232606631 
0.5699999999999535, -0.7387866517239371 
0.5799999999999524, -0.7278448976433755 
0.5899999999999513, -0.7169966448044853 
0.5999999999999502, -0.7062500165430163 
0.6099999999999491, -0.6956129732435382 
0.619999999999948, -0.6850933110871202 
0.6299999999999469, -0.6746986620576754 
0.6399999999999458, -0.6644364952094419 
0.6499999999999447, -0.6543141191914004 
0.6599999999999436, -0.6443386860182583 
0.6699999999999425, -0.6345171960720111 
0.6799999999999414, -0.6248565043130676 
0.6899999999999403, -0.6153633276755316 
0.6999999999999392, -0.6060442536174897 
0.7099999999999381, -0.5969057497940655 
0.719999999999937, -0.5879541748185542 
0.7299999999999359, -0.5791957900751518 
0.7399999999999348, -0.5706367725455859 
0.7499999999999337, -0.5622832286113391 
0.7599999999999326, -0.5541412087930424 
0.7699999999999315, -0.5462167233889986 
0.7799999999999304, -0.5385157589755623 
0.7899999999999293, -0.53104429573324 
0.7999999999999282, -0.5238083255637448 
0.8099999999999271, -0.5168138709648451 
0.819999999999926, -0.5100670046314728 
0.8299999999999249, -0.5035738697532703 
0.8399999999999238, -0.4973407009803156 
0.8499999999999227, -0.49137384603012824 
0.8599999999999216, -0.4856797879101431 
0.8699999999999205, -0.4802651677304233 
0.8799999999999194, -0.4751368080814491 
0.8899999999999183, -0.47030173695113686 
0.8999999999999172, -0.4657672121537063 
0.9099999999999161, -0.4615407462404288 
0.919999999999915, -0.4576301318584867 
0.9299999999999139, -0.4540434675189296 
0.9399999999999128, -0.450789183727825 
0.9499999999999117, -0.44787606942588737 
0.9599999999999106, -0.44531329867088565 
0.9699999999999095, -0.44311045748364436 
0.9799999999999084, -0.441277570762134 
0.9899999999999073, -0.43982512914862626 
0.9999999999999062, -0.4387641157117532 
1.0099999999999052, -0.43810603227809936 
1.019999999999904, -0.4378629252162156 
1.029999999999903, -0.4380474104391264 
1.039999999999902, -0.43867269734896785 
1.0499999999999008, -0.43975261139878297 
1.0599999999998997, -0.4413016148911066 
1.0699999999998986, -0.4433348255702288 
1.0799999999998975, -0.4458680324943561 
1.0899999999998964, -0.44891770859483193 
1.0999999999998953, -0.45250101924166586 
1.1099999999998942, -0.45663582603765496 
1.119999999999893, -0.46134068495726416 
1.129999999999892, -0.46663483783144 
1.1399999999998909, -0.4725381960562736 
1.1499999999998898, -0.47907131527306723 
1.1599999999998887, -0.4862553596317023 
1.1699999999998876, -0.49411205411085096 
1.1799999999998865, -0.5026636232312084 
1.1899999999998854, -0.5119327143663666 
1.1999999999998843, -0.5219423037365589 
1.2099999999998832, -0.5327155830712553 
1.219999999999882, -0.5442758248574249 
1.229999999999881, -0.5566462240631604 
1.2399999999998799, -0.5698497142556151 
1.2499999999998788, -0.583908756134213 
1.2599999999998777, -0.5988450966936054 
1.2699999999998766, -0.614679497536176 
1.2799999999998755, -0.6314314312926819 
1.2899999999998744, -0.6491187457035225 
1.2999999999998733, -0.6677572956826857 
1.3099999999998722, -0.6873605446487485 
1.319999999999871, -0.7079391375741307 
1.32999999999987, -0.7295004495777766 
1.3399999999998689, -0.7520481154584653 
1.3499999999998678, -0.7755815473107618 
1.3599999999998666, -0.8000954492386634 
1.3699999999998655, -0.8255793401158088 
1.3799999999998644, -0.8520170972435761 
1.3899999999998633, -0.8793865355120819 
1.3999999999998622, -0.9076590381335645 
1.4099999999998611, -0.9367992560347993 
1.41999999999986, -0.9667648933984955 
1.429999999999859, -0.9975065964709253 
1.4399999999998578, -1.0289679614634493 
1.4499999999998567, -1.061085675068443 
1.4599999999998556, -1.0937897977446622 
1.4699999999998545, -1.1270041955405001 
1.4799999999998534, -1.1606471209438507 
1.4899999999998523, -1.194631937298441 
1.4999999999998512, -1.2288679750227427 
1.5099999999998501, -1.2632615015965352 
1.519999999999849, -1.2977167814728863 
1.529999999999848, -1.3321371971662417 
1.5399999999998468, -1.3664263991578356 
1.5499999999998457, -1.4004894502621956 
1.5599999999998446, -1.4342339299078444 
1.5699999999998435, -1.4675709654504714 
1.5799999999998424, -1.500416161053589 
1.5899999999998413, -1.532690399591132 
1.5999999999998402, -1.5643204990817061 
1.6099999999998391, -1.5952397119097323 
1.619999999999838, -1.6253880620466399 
1.629999999999837, -1.6547125221930512 
1.6399999999998358, -1.6831670388148063 
1.6499999999998347, -1.7107124181246274 
1.6599999999998336, -1.737316089957537 
1.6699999999998325, -1.7629517691041763 
1.6799999999998314, -1.787599035010062 
1.6899999999998303, -1.811242850917557 
1.6999999999998292, -1.8338730426850116 
1.709999999999828, -1.8554837558706625 
1.719999999999827, -1.8760729074429923 
1.729999999999826, -1.895641645897532 
1.7399999999998248, -1.9141938308279673 
1.7499999999998237, -1.9317355402920886 
1.7599999999998226, -1.948274611770211 
1.7699999999998215, -1.9638202202357977 
1.7799999999998204, -1.9783824949091828 
1.7899999999998193, -1.9919721746757895 
1.7999999999998182, -2.0046003009226063 
1.809999999999817, -2.0162779456616637 
1.819999999999816, -2.0270159722322725 
1.8299999999998149, -2.0368248255606316 
1.8399999999998138, -2.0457143488578313 
1.8499999999998127, -2.0536936237068257 
1.8599999999998116, -2.060770830680392 
1.8699999999998105, -2.066953127905506 
1.8799999999998094, -2.0722465453116077 
1.8899999999998083, -2.0766558926444114 
1.8999999999998072, -2.0801846796738994 
1.909999999999806, -2.0828350473613173 
1.919999999999805, -2.084607709067659 
1.9299999999998039, -2.085501901181326 
1.9399999999998028, -2.085515342815223 
1.9499999999998017, -2.0846442044752598 
1.9599999999998006, -2.0828830858363174 
1.9699999999997995, -2.0802250029824503 
1.9799999999997984, -2.0766613856791225 
1.9899999999997973, -2.0721820854505717 
1.9999999999997962, -2.066775395437596 
2.0099999999998173, -2.060428083212047 
2.0199999999998384, -2.0531254379244577 
2.0299999999998595, -2.0448513333595075 
2.0399999999998806, -2.035588308667495 
2.0499999999999017, -2.025317668724076 
2.059999999999923, -2.014019606238083 
2.069999999999944, -2.001673347869384 
2.079999999999965, -1.988257326723241 
2.089999999999986, -1.9737493836406004 
2.100000000000007, -1.9581269996873787 
2.1100000000000283, -1.9413675621407096 
2.1200000000000494, -1.923448666053539 
2.1300000000000705, -1.9043484531268684 
2.1400000000000916, -1.8840459891058978 
2.1500000000001127, -1.8625216802175615 
2.160000000000134, -1.839757728259598 
2.170000000000155, -1.8157386228174355 
2.180000000000176, -1.7904516677146687 
2.190000000000197, -1.7638875371966096 
2.2000000000002182, -1.7360408555207683 
2.2100000000002393, -1.7069107916187143 
2.2200000000002604, -1.6765016583586834 
2.2300000000002815, -1.644823503761425 
2.2400000000003026, -1.611892679413357 
2.2500000000003237, -1.5777323694164742 
2.260000000000345, -1.5423730616700277 
2.270000000000366, -1.5058529422642515 
2.280000000000387, -1.4682181934522571 
2.290000000000408, -1.429523176210202 
2.3000000000004293, -1.3898304799246568 
2.3100000000004504, -1.349210824336743 
2.3200000000004715, -1.3077428025355307 
2.3300000000004926, -1.2655124584580284 
2.3400000000005137, -1.2226126978615235 
2.3500000000005348, -1.1791425378408478 
2.360000000000556, -1.1352062063469333 
2.370000000000577, -1.0909121094476677 
2.380000000000598, -1.0463716898561057 
2.390000000000619, -1.0016982051435326 
2.4000000000006403, -0.9570054577125816 
2.4100000000006614, -0.9124065107672343 
2.4200000000006825, -0.8680124250298998 
2.4300000000007036, -0.8239310497924999 
2.4400000000007247, -0.7802658991466278 
2.450000000000746, -0.7371151401299408 
2.460000000000767, -0.6945707143558347 
2.470000000000788, -0.6527176088245658 
2.480000000000809, -0.6116332854336919 
2.49000000000083, -0.5713872725904088 
2.5000000000008513, -0.5320409166128471 
2.5100000000008724, -0.4936472855624439 
2.5200000000008935, -0.4562512139678584 
2.5300000000009146, -0.4198894736933005 
2.5400000000009357, -0.38459105400303395 
2.550000000000957, -0.3503775326437416 
2.560000000000978, -0.31726351941856995 
2.570000000000999, -0.28525715413481384 
2.58000000000102, -0.2543606418241929 
2.5900000000010412, -0.22457080960650075 
2.6000000000010624, -0.19587967134510648 
2.6100000000010835, -0.16827498819112935 
2.6200000000011046, -0.14174081511603262 
2.6300000000011257, -0.11625802549595549 
2.6400000000011468, -0.09180480766391517 
2.650000000001168, -0.06835712903800444 
2.660000000001189, -0.045889164933832306 
2.67000000000121, -0.024373690462673705 
2.680000000001231, -0.0037824350008367905 
2.6900000000012523, 0.012375026624160252 
2.7000000000012734, 0.026848113885985965 
2.7100000000012945, 0.040490290329089094 
2.7200000000013156, 0.05333338264470299 
2.7300000000013367, 0.06540857238513977 
2.740000000001358, 0.07674628313620754 
2.750000000001379, 0.08737608989561906 
2.7600000000014, 0.09732664804154517 
2.770000000001421, 0.10662563944582026 
2.780000000001442, 0.11529973347196394 
2.7900000000014633, 0.12337456079079173 
2.8000000000014844, 0.130874698139486 
2.8100000000015055, 0.13782366233874102 
2.8200000000015266, 0.1442439120634903 
2.8300000000015477, 0.15015685603338502 
2.840000000001569, 0.15558286644809305 
2.85000000000159, 0.1605412966388353 
2.860000000001611, 0.16505050204107158 
2.870000000001632, 0.16912786371402702 
2.8800000000016532, 0.17278981374120583 
2.8900000000016743, 0.17605186194279057 
2.9000000000016954, 0.17892862341660395 
2.9100000000017165, 0.18143384649993152 
2.9200000000017377, 0.18358044081080827 
2.9300000000017588, 0.18538050508521117 
2.94000000000178, 0.18684535457679394 
2.950000000001801, 0.18798554782913024 
2.960000000001822, 0.18881091266765115 
2.970000000001843, 0.18933057129023706 
2.9800000000018643, 0.18955296436238883 
2.9900000000018854, 0.18948587404562628 
3.0000000000019065, 0.18913644590673923 
3.0100000000019276, 0.18851120967121257 
3.0200000000019487, 0.1876160987969453 
3.03000000000197, 0.18645646885463743 
3.040000000001991, 0.18503711470920214 
3.050000000002012, 0.183362286502556 
3.060000000002033, 0.18143570444229573 
3.070000000002054, 0.17926057240329743 
3.0800000000020753, 0.1768395903502462 
3.0900000000020964, 0.17417496558862075 
3.1000000000021175, 0.1712684228497303 
3.1100000000021386, 0.16812121321204518 
3.1200000000021597, 0.16473412185618744 
3.130000000002181, 0.1611074746444857 
3.140000000002202, 0.15724114350776888 
3.150000000002223, 0.15313455061187256 
3.160000000002244, 0.14878667126388845 
3.1700000000022652, 0.14419603550313131 
3.1800000000022863, 0.1393607283037087 
3.1900000000023074, 0.1342783882939115 
3.2000000000023285, 0.12894620487173464 
3.2100000000023496, 0.12336091356489433 
3.2200000000023707, 0.11751878944677842 
3.230000000002392, 0.11141563837566604 
3.240000000002413, 0.10504678577190406 
3.250000000002434, 0.09840706258482461 
3.260000000002455, 0.09149078802601861 
3.2700000000024763, 0.08429174855567684 
3.2800000000024974, 0.07680317250112549 
3.2900000000025185, 0.06901769955785131 
3.3000000000025396, 0.0609273442688966 
3.3100000000025607, 0.052523452393283855 
3.3200000000025818, 0.04379664885173055 
3.330000000002603, 0.03473677567061154 
3.340000000002624, 0.02533281802347182 
3.350000000002645, 0.015572816081868335 
3.360000000002666, 0.00544375991980184 
3.3700000000026873, -0.002997434344841721 
3.3800000000027084, -0.009545378464888421 
3.3900000000027295, -0.016499431381027017 
3.4000000000027506, -0.02387008376284253 
3.4100000000027717, -0.0316681049004139 
3.420000000002793, -0.039904569937093994 
3.430000000002814, -0.048590900616340804 
3.440000000002835, -0.05773892340089684 
3.450000000002856, -0.06736094973715004 
3.460000000002877, -0.07746988436148086 
3.4700000000028983, -0.08807936893003054 
3.4800000000029194, -0.09920396996386872 
3.4900000000029405, -0.1108594222215654 
3.5000000000029616, -0.12306294124812696 
3.5100000000029827, -0.1358336221421427 
3.520000000003004, -0.14919294571216352 
3.530000000003025, -0.16316541839403287 
3.540000000003046, -0.17777937888099216 
3.550000000003067, -0.1930680127823656 
3.5600000000030882, -0.20907062730759707 
3.5700000000031094, -0.22583425167504395 
3.5800000000031305, -0.24341564660290627 
3.5900000000031516, -0.26188382909221697 
3.6000000000031727, -0.2813232484053981 
3.6100000000031938, -0.3018377878652282 
3.620000000003215, -0.3235558177474827 
3.630000000003236, -0.34663659094409 
3.640000000003257, -0.37127836024809785 
3.650000000003278, -0.39772871054340597 
3.6600000000032993, -0.4262977490742902 
3.6700000000033204, -0.4573749923031153 
3.6800000000033415, -0.49145103993344097 
3.6900000000033626, -0.5291454463663142 
3.7000000000033837, -0.5712425931378712 
3.710000000003405, -0.6187378233577676 
3.720000000003426, -0.6728965733259586 
3.730000000003447, -0.7353295941331269 
3.740000000003468, -0.8080872815436763 
3.750000000003489, -0.8937749377062842 
3.7600000000035103, -0.9956870549032806 
3.7700000000035314, -1.1179496667338547 
3.7800000000035525, -1.2656403945875467 
3.7900000000035736, -1.4448178018469353 
3.8000000000035947, -1.6623247486589334 
3.810000000003616, -1.9251313696294097 
3.820000000003637, -2.2388867522200995 
3.830000000003658, -2.605393137954818 
3.840000000003679, -3.019200721961255 
3.8500000000037002, -3.4647026849613054 
3.8600000000037213, -3.9164105289603652 
3.8700000000037424, -4.344462696535205 
3.8800000000037635, -4.723553193431795 
3.8900000000037847, -5.039787423871296 
3.9000000000038058, -5.291567786137584 
3.910000000003827, -5.485726851985002 
3.920000000003848, -5.632651074638378 
3.930000000003869, -5.742840383144078 
3.94000000000389, -5.825276628286793 
3.9500000000039113, -5.887006601377837 
3.9600000000039324, -5.933301975117381 
3.9700000000039535, -5.968002911211828 
3.9800000000039746, -5.993863743303274 
3.9900000000039957, -6.012838175731709 
4.000000000004016, -6.026294311370133 
4.010000000003993, -6.035168393101505 
4.02000000000397, -6.040069936433465 
4.030000000003946, -6.041349358102277 
4.040000000003923, -6.039136136888882 
4.0500000000039, -6.033352292314596 
4.0600000000038765, -6.023702780120634 
4.070000000003853, -6.009641085857876 
4.08000000000383, -5.990304433046652 
4.090000000003807, -5.96440801913294 
4.100000000003783, -5.93008079334383 
4.11000000000376, -5.88461568104381 
4.120000000003737, -5.824094488918831 
4.130000000003713, -5.742833839064717 
4.14000000000369, -5.632592267467228 
4.150000000003667, -5.481507767058481 
4.1600000000036434, -5.2728689139626495 
4.17000000000362, -4.984196622819969 
4.180000000003597, -4.587876048838225 
4.1900000000035735, -4.05552529502009 
4.20000000000355, -3.3680357899135624 
4.210000000003527, -2.5293428528083832 
4.220000000003504, -1.5755530460435854 
4.23000000000348, -0.5708450848200094 
4.240000000003457, 0.4067038087862599 
4.250000000003434, 1.28771471204264 
4.26000000000341, 2.0296576630832686 
4.270000000003387, 2.6180301322924797 
4.280000000003364, 3.0640109420143586 
4.2900000000033405, 3.392464064855536 
4.300000000003317, 3.6308956496830516 
4.310000000003294, 3.803316259628003 
4.320000000003271, 3.9283578100244445 
4.330000000003247, 4.019610704380333 
4.340000000003224, 4.086685211443575 
4.350000000003201, 4.136287549260732 
4.360000000003177, 4.1730818544308335 
4.370000000003154, 4.200316922644836 
4.380000000003131, 4.220261652637855 
4.390000000003107, 4.234501103979308 
4.400000000003084, 4.244135687522939 
4.410000000003061, 4.249914199589345 
4.4200000000030375, 4.252321615355632 
4.430000000003014, 4.2516354086530255 
4.440000000002991, 4.247959198521806 
4.450000000002968, 4.241239110224233 
4.460000000002944, 4.231265863162404 
4.470000000002921, 4.21766390324035 
4.480000000002898, 4.1998676819871 
4.490000000002874, 4.177084413733148 
4.500000000002851, 4.148242497823374 
4.510000000002828, 4.111925797828756 
4.520000000002804, 4.066297194167852 
4.530000000002781, 4.009022143761881 
4.540000000002758, 3.9372171410714474 
4.5500000000027345, 3.8474717770903855 
4.560000000002711, 3.736026022834677 
4.570000000002688, 3.599214455929243 
4.580000000002665, 3.4342807334417036 
4.590000000002641, 3.240556779386772 
4.600000000002618, 3.0207468829704314 
4.610000000002595, 2.781741074392757 
4.620000000002571, 2.534294681489227 
4.630000000002548, 2.29134419077415 
4.640000000002525, 2.065523636452662 
4.6500000000025015, 1.8669396966930791 
4.660000000002478, 1.7020075312190752 
4.670000000002455, 1.5734477789531487 
4.6800000000024315, 1.481020616432727 
4.690000000002408, 1.422481665290044 
4.700000000002385, 1.3944245534675623 
4.710000000002362, 1.3928877935198931 
4.720000000002338, 1.4137368992470523 
4.730000000002315, 1.4528838408571854 
4.740000000002292, 1.5064089733781432 
4.750000000002268, 1.5706344761720397 
4.760000000002245, 1.642178778490645 
4.770000000002222, 1.7180048261876695 
4.7800000000021985, 1.7954634125422049 
4.790000000002175, 1.8723264833800999 
4.800000000002152, 1.946803813232866 
4.810000000002129, 2.0175385149384377 
4.820000000002105, 2.0835807623546256 
4.830000000002082, 2.1443430915001382 
4.840000000002059, 2.1995433843775274 
4.850000000002035, 2.2491425893467816 
4.860000000002012, 2.2932835754903187 
4.870000000001989, 2.332235863655624 
4.880000000001965, 2.366349004886862 
4.890000000001942, 2.3960156023047223 
4.900000000001919, 2.4216436612117653 
4.9100000000018955, 2.443637156734913 
4.920000000001872, 2.462383350780682 
4.930000000001849, 2.478245341922033 
4.940000000001826, 2.4915584669110973 
4.950000000001802, 2.5026293922096636 
