t, s[1].omega / s[0].omega 
0, -0.8601701677803979 
0.009999999999999995, -0.8767329176111736 
0.019999999999999934, -0.8908914219858021 
0.029999999999999874, -0.9014819516524186 
0.04000000000000012, -0.9086418173296789 
0.050000000000000405, -0.913150506707358 
0.06000000000000069, -0.9158454694296504 
0.07000000000000098, -0.9173719503194085 
0.08000000000000126, -0.9181551839128839 
0.09000000000000155, -0.9184492670194894 
0.10000000000000184, -0.9183899318343551 
0.11000000000000212, -0.918030087045676 
0.12000000000000241, -0.9173569209459431 
0.130000000000002, -0.9162940958101945 
0.1400000000000009, -0.9146938751840474 
0.1499999999999998, -0.9123286154348721 
0.1599999999999987, -0.9089040093773813 
0.1699999999999976, -0.9041380827678731 
0.1799999999999965, -0.8979582672293696 
0.1899999999999954, -0.8907994796342745 
0.1999999999999943, -0.883792166617923 
0.2099999999999932, -0.878487120651215 
0.2199999999999921, -0.8760602069308655 
0.229999999999991, -0.8765880845914866 
0.2399999999999899, -0.8791013184038702 
0.2499999999999888, -0.8823165289913609 
0.2599999999999877, -0.8852990074519346 
0.2699999999999866, -0.8876345604230295 
0.2799999999999855, -0.8892713609207389 
0.2899999999999844, -0.8903148272489625 
0.2999999999999833, -0.890898296109931 
0.3099999999999822, -0.8911271701216608 
0.3199999999999811, -0.8910619496921021 
0.32999999999998, -0.8907136331269709 
0.3399999999999789, -0.8900370523539417 
0.3499999999999778, -0.8889145649316724 
0.35999999999997667, -0.8871261605765529 
0.36999999999997557, -0.8843085240347834 
0.37999999999997447, -0.8799249176282787 
0.38999999999997337, -0.8733087566714222 
0.39999999999997227, -0.8638824045399314 
0.40999999999997117, -0.8515829687994183 
0.41999999999997006, -0.8372559312743368 
0.42999999999996896, -0.8225696525648791 
0.43999999999996786, -0.8093481325100267 
0.44999999999996676, -0.7988302535813748 
0.45999999999996566, -0.7913799600651308 
0.46999999999996456, -0.7866659565770393 
0.47999999999996346, -0.7840206311747907 
0.48999999999996235, -0.7827415545023693 
0.49999999999996125, -0.782255445569539 
0.5099999999999602, -0.7821636756584704 
0.519999999999959, -0.7822199157109703 
0.529999999999958, -0.7822842052946105 
0.5399999999999568, -0.7822789505978085 
0.5499999999999557, -0.782156060382754 
0.5599999999999546, -0.781875640328784 
0.5699999999999535, -0.7813943331161559 
0.5799999999999524, -0.7806626097656318 
0.5899999999999513, -0.7796320416427094 
0.5999999999999502, -0.7782724055093732 
0.6099999999999491, -0.7765921738591757 
0.619999999999948, -0.7746487822202341 
0.6299999999999469, -0.7725380336526826 
0.6399999999999458, -0.7703675880354124 
0.6499999999999447, -0.7682317365043164 
0.6599999999999436, -0.7662001865789592 
0.6699999999999425, -0.764320488997887 
0.6799999999999414, -0.7626262825205589 
0.6899999999999403, -0.7611443733731028 
0.6999999999999392, -0.7598976425215392 
0.7099999999999381, -0.7589039383652405 
0.719999999999937, -0.7581726855981021 
0.7299999999999359, -0.7577014129204243 
0.7399999999999348, -0.7574741320173485 
0.7499999999999337, -0.757462604453554 
0.7599999999999326, -0.7576302794555162 
0.7699999999999315, -0.7579376325094975 
0.7799999999999304, -0.7583472991805362 
0.7899999999999293, -0.7588277960121658 
0.7999999999999282, -0.7593552239750659 
0.8099999999999271, -0.7599126167544371 
0.819999999999926, -0.7604866163556172 
0.8299999999999249, -0.7610617323230037 
0.8399999999999238, -0.7616141626324231 
0.8499999999999227, -0.7621090855414202 
0.8599999999999216, -0.7625049729655432 
0.8699999999999205, -0.7627642804850325 
0.8799999999999194, -0.762864562181808 
0.8899999999999183, -0.7628033529776239 
0.8999999999999172, -0.7625954784784258 
0.9099999999999161, -0.7622671781890298 
0.919999999999915, -0.7618525315028131 
0.9299999999999139, -0.7613952460481583 
0.9399999999999128, -0.7609562811489333 
0.9499999999999117, -0.7606261492870955 
0.9599999999999106, -0.7605391728082588 
0.9699999999999095, -0.7608847450024168 
0.9799999999999084, -0.761908478416064 
0.9899999999999073, -0.7638958945961812 
0.9999999999999062, -0.7671340839460674 
1.0099999999999052, -0.7718509174732023 
1.019999999999904, -0.7781346273278776 
1.029999999999903, -0.785842422665632 
1.039999999999902, -0.7945268677551396 
1.0499999999999008, -0.8034446822097967 
1.0599999999998997, -0.8117189883381606 
1.0699999999998986, -0.8186283824884324 
1.0799999999998975, -0.8238439918995717 
1.0899999999998964, -0.8274444004373358 
1.0999999999998953, -0.829743596519563 
1.1099999999998942, -0.8310994514644475 
1.119999999999893, -0.8318060852365221 
1.129999999999892, -0.8320660705311825 
1.1399999999998909, -0.8320008300375166 
1.1499999999998898, -0.8316691159496912 
1.1599999999998887, -0.8310814924047843 
1.1699999999998876, -0.8302092862215481 
1.1799999999998865, -0.8289918199658869 
1.1899999999998854, -0.8273504915109472 
1.1999999999998843, -0.8252246412776554 
1.2099999999998832, -0.8226483567828964 
1.219999999999882, -0.8198725026771954 
1.229999999999881, -0.8174739839826733 
1.2399999999998799, -0.8162978634833922 
1.2499999999998788, -0.8171019677840322 
1.2599999999998777, -0.8200810140237182 
1.2699999999998766, -0.8247086470255212 
1.2799999999998755, -0.8300335356743271 
1.2899999999998744, -0.8351282865638952 
1.2999999999998733, -0.8393953013985994 
1.3099999999998722, -0.8426288294809282 
1.319999999999871, -0.8448977050883018 
1.32999999999987, -0.8463877841965528 
1.3399999999998689, -0.8472933245884336 
1.3499999999998678, -0.8477682148805048 
1.3599999999998666, -0.8479136047878988 
1.3699999999998655, -0.8477790436440488 
1.3799999999998644, -0.8473636067912794 
1.3899999999998633, -0.846610188956069 
1.3999999999998622, -0.8453894026053457 
1.4099999999998611, -0.8434726049974502 
1.41999999999986, -0.8405023673145694 
1.429999999999859, -0.8359909832587918 
1.4399999999998578, -0.8294111037010984 
1.4499999999998567, -0.8204411713788945 
1.4599999999998556, -0.8093026210747885 
1.4699999999998545, -0.7969172098188103 
1.4799999999998534, -0.7846429230053055 
1.4899999999998523, -0.7737397487847718 
1.4999999999998512, -0.7649691293379933 
1.5099999999998501, -0.758521840218018 
1.519999999999849, -0.7541716188594548 
1.529999999999848, -0.7514834223373007 
1.5399999999998468, -0.7499799087239769 
1.5499999999998457, -0.74924107895038 
1.5599999999998446, -0.748945204940387 
1.5699999999998435, -0.7488698315044718 
1.5799999999998424, -0.7488722283012741 
1.5899999999998413, -0.7488640853668225 
1.5999999999998402, -0.7487889574039993 
1.6099999999998391, -0.74860591869565 
1.619999999999838, -0.7482803220723924 
1.629999999999837, -0.7477818570151242 
1.6399999999998358, -0.7470895068127368 
1.6499999999998347, -0.7462006963710033 
1.6599999999998336, -0.7451382950350798 
1.6699999999998325, -0.7439484266865077 
1.6799999999998314, -0.7426880013501467 
1.6899999999998303, -0.7414092435404454 
1.6999999999998292, -0.7401503326014656 
1.709999999999828, -0.7389353797983476 
1.719999999999827, -0.7377805214131893 
1.729999999999826, -0.7367010584437075 
1.7399999999998248, -0.7357163847574821 
1.7499999999998237, -0.7348518128825033 
1.7599999999998226, -0.7341376626486065 
1.7699999999998215, -0.7336062922420347 
1.7799999999998204, -0.7332878895283664 
1.7899999999998193, -0.7332061265976754 
1.7999999999998182, -0.7333749638422943 
1.809999999999817, -0.7337976106148187 
1.819999999999816, -0.7344678645383739 
1.8299999999998149, -0.7353730736093866 
1.8399999999998138, -0.7364971771957983 
1.8499999999998127, -0.7378218842052281 
1.8599999999998116, -0.7393241395386968 
1.8699999999998105, -0.7409689806271453 
1.8799999999998094, -0.7426994378710722 
1.8899999999998083, -0.7444294016102591 
1.8999999999998072, -0.7460485880827434 
1.909999999999806, -0.7474447591216643 
1.919999999999805, -0.7485349718885544 
1.9299999999998039, -0.7492865070529267 
1.9399999999998028, -0.7497146933674502 
1.9499999999998017, -0.7498633921639247 
1.9599999999998006, -0.7497835301174742 
1.9699999999997995, -0.7495200292678044 
1.9799999999997984, -0.7491089965929334 
1.9899999999997973, -0.7485835605971629 
1.9999999999997962, -0.7479880063229298 
2.0099999999998173, -0.7474027375056755 
2.0199999999998384, -0.7469845557056047 
2.0299999999998595, -0.7470249776657539 
2.0399999999998806, -0.7480190492118164 
2.0499999999999017, -0.7507121278830091 
2.059999999999923, -0.756051036901643 
2.069999999999944, -0.7649311568847941 
2.079999999999965, -0.7776809608013625 
2.089999999999986, -0.793478492338495 
2.100000000000007, -0.81025987746716 
2.1100000000000283, -0.8255482841424582 
2.1200000000000494, -0.8376670537160292 
2.1300000000000705, -0.8462551094845544 
2.1400000000000916, -0.8518685980520522 
2.1500000000001127, -0.8553390973871384 
2.160000000000134, -0.8573900627225497 
2.170000000000155, -0.8585311580520765 
2.180000000000176, -0.8590830540600495 
2.190000000000197, -0.8592302480451686 
2.2000000000002182, -0.8590631986615682 
2.2100000000002393, -0.8586020450663641 
2.2200000000002604, -0.8578029259584528 
2.2300000000002815, -0.8565480943994606 
2.2400000000003026, -0.8546196859562633 
2.2500000000003237, -0.8516587239843213 
2.260000000000345, -0.8471229434389352 
2.270000000000366, -0.8402916587211253 
2.280000000000387, -0.8304271261467354 
2.290000000000408, -0.8172226526586064 
2.3000000000004293, -0.8014437381214258 
2.3100000000004504, -0.7851548342195914 
2.3200000000004715, -0.7709044697506671 
2.3300000000004926, -0.7603815659213025 
2.3400000000005137, -0.7538074180382635 
2.3500000000005348, -0.7503662862693552 
2.360000000000556, -0.7489503388685808 
2.370000000000577, -0.7486320552497211 
2.380000000000598, -0.7487985005486304 
2.390000000000619, -0.7491045828441522 
2.4000000000006403, -0.7493796697029397 
2.4100000000006614, -0.7495480652320466 
2.4200000000006825, -0.7495764068573055 
2.4300000000007036, -0.7494427468851836 
2.4400000000007247, -0.7491191735668152 
2.450000000000746, -0.7485625366594303 
2.460000000000767, -0.7477120387965734 
2.470000000000788, -0.7464964813772986 
2.480000000000809, -0.7448551820088574 
2.49000000000083, -0.7427703858937269 
2.5000000000008513, -0.7402951977409932 
2.5100000000008724, -0.7375539181218851 
2.5200000000008935, -0.7347083784976826 
2.5300000000009146, -0.7319120525638688 
2.5400000000009357, -0.7292801458626587 
2.550000000000957, -0.7268846762189518 
2.560000000000978, -0.7247650357064963 
2.570000000000999, -0.7229412437416861 
2.58000000000102, -0.7214228573657394 
2.5900000000010412, -0.7202123505030096 
2.6000000000010624, -0.7193047404632585 
2.6100000000010835, -0.7186859723567298 
2.6200000000011046, -0.7183321529242626 
2.6300000000011257, -0.7182107604591571 
2.6400000000011468, -0.7182838277159073 
2.650000000001168, -0.7185122131385038 
2.660000000001189, -0.7188597752179071 
2.67000000000121, -0.719296529775938 
2.680000000001231, -0.7198002986112277 
2.6900000000012523, -0.7203564909811597 
2.7000000000012734, -0.7209554700003896 
2.7100000000012945, -0.7215870931073434 
2.7200000000013156, -0.7222333408786539 
2.7300000000013367, -0.7228623480049705 
2.740000000001358, -0.7234286459681888 
2.750000000001379, -0.7238821829231897 
2.7600000000014, -0.7241825318781528 
2.770000000001421, -0.7243098602991219 
2.780000000001442, -0.724266623770338 
2.7900000000014633, -0.7240714899949666 
2.8000000000014844, -0.7237518267378741 
2.8100000000015055, -0.7233401837421688 
2.8200000000015266, -0.7228771032389902 
2.8300000000015477, -0.7224207499415278 
2.840000000001569, -0.722063435364617 
2.85000000000159, -0.7219545694397568 
2.860000000001611, -0.7223273780429884 
2.870000000001632, -0.7235220633405233 
2.8800000000016532, -0.7259911430918656 
2.8900000000016743, -0.7302647425777542 
2.9000000000016954, -0.7368475831435719 
2.9100000000017165, -0.746024835127739 
2.9200000000017377, -0.7575967752663767 
2.9300000000017588, -0.7706717786645403 
2.94000000000178, -0.7837623245881953 
2.950000000001801, -0.795312509902941 
2.960000000001822, -0.8043500812705787 
2.970000000001843, -0.8107357593242837 
2.9800000000018643, -0.8149061518098547 
2.9900000000018854, -0.8174699411281978 
3.0000000000019065, -0.8189553749639786 
3.0100000000019276, -0.8197358085281458 
3.0200000000019487, -0.8200449299813194 
3.03000000000197, -0.8200128657409937 
3.040000000001991, -0.8196948925600273 
3.050000000002012, -0.8190862082434421 
3.060000000002033, -0.818122847956789 
3.070000000002054, -0.816669344090904 
3.0800000000020753, -0.8144935145392893 
3.0900000000020964, -0.8112318752751255 
3.1000000000021175, -0.806361892964277 
3.1100000000021386, -0.7992296300816051 
3.1200000000021597, -0.7892337636345395 
3.130000000002181, -0.7762699571484037 
3.140000000002202, -0.7612949441672445 
3.150000000002223, -0.7463886160975688 
3.160000000002244, -0.7338293321330418 
3.1700000000022652, -0.7248881156618185 
3.1800000000022863, -0.7194904766978778 
3.1900000000023074, -0.7167617421376367 
3.2000000000023285, -0.7156946333108173 
3.2100000000023496, -0.715501929336271 
3.2200000000023707, -0.7156826028671966 
3.230000000002392, -0.7159598524913606 
3.240000000002413, -0.7161971867635349 
3.250000000002434, -0.7163327338334665 
3.260000000002455, -0.716337112376429 
3.2700000000024763, -0.7161888970435512 
3.2800000000024974, -0.7158610754275933 
3.2900000000025185, -0.7153147450506816 
3.3000000000025396, -0.7144998246827123 
3.3100000000025607, -0.7133651314382377 
3.3200000000025818, -0.7118790409862961 
3.330000000002603, -0.7100543988109977 
3.340000000002624, -0.7079616323550014 
3.350000000002645, -0.7057159793812742 
3.360000000002666, -0.7034438830497448 
3.3700000000026873, -0.7012504895588434 
3.3800000000027084, -0.6992053825744998 
3.3900000000027295, -0.6973465097417709 
3.4000000000027506, -0.6956922405994366 
3.4100000000027717, -0.6942526027948224 
3.420000000002793, -0.6930358863092151 
3.430000000002814, -0.6920506120251642 
3.440000000002835, -0.6913044086161688 
3.450000000002856, -0.690801566021471 
3.460000000002877, -0.6905407710942355 
3.4700000000028983, -0.690514082986747 
3.4800000000029194, -0.6907076166621355 
3.4900000000029405, -0.6911037579424758 
3.5000000000029616, -0.6916842038035822 
3.5100000000029827, -0.6924328175675745 
3.520000000003004, -0.6933371455788766 
3.530000000003025, -0.6943873329643717 
3.540000000003046, -0.6955712492864335 
3.550000000003067, -0.696865568084044 
3.5600000000030882, -0.6982251764035163 
3.5700000000031094, -0.6995772216818494 
3.5800000000031305, -0.7008278824054792 
3.5900000000031516, -0.7018842301980169 
3.6000000000031727, -0.7026810452474646 
3.6100000000031938, -0.7031956716366168 
3.620000000003215, -0.7034431368918961 
3.630000000003236, -0.7034590366985232 
3.640000000003257, -0.7032828182637129 
3.650000000003278, -0.7029485768596715 
3.6600000000032993, -0.7024841736706854 
3.6700000000033204, -0.7019176227005185 
3.6800000000033415, -0.7012912803781322 
3.6900000000033626, -0.700687076118456 
3.7000000000033837, -0.7002680135978976 
3.710000000003405, -0.700339741524213 
3.720000000003426, -0.7014252340332465 
3.730000000003447, -0.7043154480111535 
3.740000000003468, -0.710002689873578 
3.750000000003489, -0.719353924289515 
3.7600000000035103, -0.7324757385692695 
3.7700000000035314, -0.7481300516689742 
3.7800000000035525, -0.7639548812910264 
3.7900000000035736, -0.7776578729726545 
3.8000000000035947, -0.78810389700935 
3.810000000003616, -0.7953667839738742 
3.820000000003637, -0.8001205660122709 
3.830000000003658, -0.8031096799455053 
3.840000000003679, -0.8049241579754769 
3.8500000000037002, -0.8059685753231912 
3.8600000000037213, -0.8064981368185575 
3.8700000000037424, -0.8066612202948636 
3.8800000000037635, -0.8065298178756526 
3.8900000000037847, -0.8061151120258117 
3.9000000000038058, -0.8053688526305077 
3.910000000003827, -0.8041706573541975 
3.920000000003848, -0.8023013196702957 
3.930000000003869, -0.7994077336598309 
3.94000000000389, -0.7949846599878131 
3.9500000000039113, -0.7884373183005158 
3.9600000000039324, -0.7793130843869653 
3.9700000000039535, -0.7676917548319826 
3.9800000000039746, -0.7544607044879545 
3.9900000000039957, -0.7411084645476451 
4.000000000004016, -0.7291003536503565 
4.010000000003993, -0.7193467731344362 
4.02000000000397, -0.7120895781475343 
4.030000000003946, -0.7070934004055449 
4.040000000003923, -0.7038992294440142 
4.0500000000039, -0.7020105234053535 
4.0600000000038765, -0.7009930371319862 
4.070000000003853, -0.7005112435740632 
4.08000000000383, -0.7003276901838074 
4.090000000003807, -0.7002849866225663 
4.100000000003783, -0.7002830116852634 
4.11000000000376, -0.7002582211683895 
4.120000000003737, -0.7001680227335063 
4.130000000003713, -0.6999810864335687 
4.14000000000369, -0.6996736478102081 
4.150000000003667, -0.6992312328784731 
4.1600000000036434, -0.698653648138605 
4.17000000000362, -0.697958735128255 
4.180000000003597, -0.6971799135579524 
4.1900000000035735, -0.6963565022683014 
4.20000000000355, -0.6955218124502569 
4.210000000003527, -0.6946959655164633 
4.220000000003504, -0.6938864968034861 
4.23000000000348, -0.6930945328961952 
4.240000000003457, -0.6923221416765611 
4.250000000003434, -0.6915777523481736 
4.26000000000341, -0.6908790237547027 
4.270000000003387, -0.6902540192429321 
4.280000000003364, -0.6897415187931453 
4.2900000000033405, -0.6893905807010536 
4.300000000003317, -0.6892589881526232 
4.310000000003294, -0.6894103533459863 
4.320000000003271, -0.6899102219935221 
4.330000000003247, -0.6908220176424628 
4.340000000003224, -0.6922035425565604 
4.350000000003201, -0.6941037314726142 
4.360000000003177, -0.6965576133513919 
4.370000000003154, -0.6995756954675747 
4.380000000003131, -0.7031238393899545 
4.390000000003107, -0.7070941664873625 
4.400000000003084, -0.7112797208701458 
4.410000000003061, -0.7153811093792783 
4.4200000000030375, -0.7190703200702233 
4.430000000003014, -0.7220940805036915 
4.440000000002991, -0.7243494764262329 
4.450000000002968, -0.7258800924038791 
4.460000000002944, -0.7268120158709399 
4.470000000002921, -0.727285649847351 
4.480000000002898, -0.7274157150301959 
4.490000000002874, -0.727278243132554 
4.500000000002851, -0.7269112567854249 
4.510000000002828, -0.7263188377981301 
4.520000000002804, -0.7254740283504593 
4.530000000002781, -0.7243199516008592 
4.540000000002758, -0.7227708694532351 
4.5500000000027345, -0.720716143897169 
4.560000000002711, -0.7180287844723766 
4.570000000002688, -0.7145730606621423 
4.580000000002665, -0.7101970058495437 
4.590000000002641, -0.7047242883852117 
4.600000000002618, -0.6980686213781088 
4.610000000002595, -0.6905871418384313 
4.620000000002571, -0.6833140587186283 
4.630000000002548, -0.67748142557682 
4.640000000002525, -0.6737141910713327 
4.6500000000025015, -0.6718281721755816 
4.660000000002478, -0.6712275169000215 
4.670000000002455, -0.6713202437947932 
4.6800000000024315, -0.6716920511459337 
4.690000000002408, -0.6721069776298246 
4.700000000002385, -0.6724506643507252 
4.710000000002362, -0.6726756093300514 
4.720000000002338, -0.6727637849653381 
4.730000000002315, -0.6727045242329347 
4.740000000002292, -0.6724822939598942 
4.750000000002268, -0.6720706277419556 
4.760000000002245, -0.6714313228420778 
4.770000000002222, -0.6705205740926669 
4.7800000000021985, -0.6693041882157489 
4.790000000002175, -0.6677795838760965 
4.800000000002152, -0.6659933152830185 
4.810000000002129, -0.6640388262292731 
4.820000000002105, -0.662030908580905 
4.830000000002082, -0.6600725528657136 
4.840000000002059, -0.6582343183006415 
4.850000000002035, -0.6565528280041084 
4.860000000002012, -0.655041383394021 
4.870000000001989, -0.6537028703398844 
4.880000000001965, -0.652539242449451 
4.890000000001942, -0.6515563216061457 
4.900000000001919, -0.6507649110630574 
4.9100000000018955, -0.6501796852099735 
4.920000000001872, -0.6498170765797862 
