t, s[1].omega / s[0].omega 
0, -0.2798562580863379 
0.009999999999999995, -0.2667567669063294 
0.019999999999999934, -0.2566766539333848 
0.029999999999999874, -0.24947476646923325 
0.04000000000000012, -0.24449419914613396 
0.050000000000000405, -0.24107431341494795 
0.06000000000000069, -0.23871459423754468 
0.07000000000000098, -0.23707613094697008 
0.08000000000000126, -0.23594189939103988 
0.09000000000000155, -0.23517935539658938 
0.10000000000000184, -0.23471463339946422 
0.11000000000000212, -0.2345176819538084 
0.12000000000000241, -0.23459631156157568 
0.130000000000002, -0.23499815056376727 
0.1400000000000009, -0.23582106985338633 
0.1499999999999998, -0.23723426180348003 
0.1599999999999987, -0.23951310014996824 
0.1699999999999976, -0.24308805050813528 
0.1799999999999965, -0.2485908623841937 
0.1899999999999954, -0.25682527446604625 
0.1999999999999943, -0.26847421771310853 
0.2099999999999932, -0.2833227217888663 
0.2199999999999921, -0.29937465644205175 
0.229999999999991, -0.3133861844789956 
0.2399999999999899, -0.32318664223111604 
0.2499999999999888, -0.3289306259084431 
0.2599999999999877, -0.33198257044009416 
0.2699999999999866, -0.3335779648573082 
0.2799999999999855, -0.3344474886124681 
0.2899999999999844, -0.334950703763826 
0.2999999999999833, -0.335253075527636 
0.3099999999999822, -0.33543084326582584 
0.3199999999999811, -0.33552050810174794 
0.32999999999998, -0.33554054085851637 
0.3399999999999789, -0.3355013139137796 
0.3499999999999778, -0.33541076645392 
0.35999999999997667, -0.3352790367858306 
0.36999999999997557, -0.33512297620557485 
0.37999999999997447, -0.33496970675549176 
0.38999999999997337, -0.3348571616416089 
0.39999999999997227, -0.33482972985043624 
0.40999999999997117, -0.3349289881771205 
0.41999999999997006, -0.3351816334227288 
0.42999999999996896, -0.3355878098141469 
0.43999999999996786, -0.3361139406063442 
0.44999999999996676, -0.3366953465164592 
0.45999999999996566, -0.33725168296801183 
0.46999999999996456, -0.33770983275922684 
0.47999999999996346, -0.33802150658907804 
0.48999999999996235, -0.3381664456382154 
0.49999999999996125, -0.3381431678050641 
0.5099999999999602, -0.3379552737503329 
0.519999999999959, -0.33759896841858883 
0.529999999999958, -0.33705238602102894 
0.5399999999999568, -0.33626408188430734 
0.5499999999999557, -0.33513724733425354 
0.5599999999999546, -0.33350809807432363 
0.5699999999999535, -0.33112530451754474 
0.5799999999999524, -0.32766000718059307 
0.5899999999999513, -0.3228085126077381 
0.5999999999999502, -0.3165283266917915 
0.6099999999999491, -0.3092709312472029 
0.619999999999948, -0.30190047345049537 
0.6299999999999469, -0.2952594989704166 
0.6399999999999458, -0.28980095471685896 
0.6499999999999447, -0.28556952006469566 
0.6599999999999436, -0.28238533332170757 
0.6699999999999425, -0.28001096072162385 
0.6799999999999414, -0.27823488726120715 
0.6899999999999403, -0.2768960207208194 
0.6999999999999392, -0.2758823983588682 
0.7099999999999381, -0.2751228387639689 
0.719999999999937, -0.27457925892733104 
0.7299999999999359, -0.2742423495091439 
0.7399999999999348, -0.274131702323274 
0.7499999999999337, -0.274301490383566 
0.7599999999999326, -0.27485365024407055 
0.7699999999999315, -0.27596185868819656 
0.7799999999999304, -0.2779106032634511 
0.7899999999999293, -0.28115086686029744 
0.7999999999999282, -0.28635550093130213 
0.8099999999999271, -0.2943929511914322 
0.819999999999926, -0.3059952020924375 
0.8299999999999249, -0.3208285451644724 
0.8399999999999238, -0.33640006772756775 
0.8499999999999227, -0.3488058971253049 
0.8599999999999216, -0.35586494117566253 
0.8699999999999205, -0.35854529796823625 
0.8799999999999194, -0.35901044374164975 
0.8899999999999183, -0.3587707557794062 
0.8999999999999172, -0.3584659306149772 
0.9099999999999161, -0.3582646971040196 
0.919999999999915, -0.3581675894294442 
0.9299999999999139, -0.35813756722312773 
0.9399999999999128, -0.3581406426664611 
0.9499999999999117, -0.35815360713532096 
0.9599999999999106, -0.3581627910369369 
0.9699999999999095, -0.35816189056546655 
0.9799999999999084, -0.35815111244360465 
0.9899999999999073, -0.3581379709496164 
0.9999999999999062, -0.35813916501823423 
1.0099999999999052, -0.3581821121705245 
1.019999999999904, -0.3583040727699341 
1.029999999999903, -0.35854703060625465 
1.039999999999902, -0.35894779402802623 
1.0499999999999008, -0.3595245138317858 
1.0599999999998997, -0.36026287526700773 
1.0699999999998986, -0.3611083337850979 
1.0799999999998975, -0.36197271199257347 
1.0899999999998964, -0.3627577418022688 
1.0999999999998953, -0.36338453419188094 
1.1099999999998942, -0.363810956347355 
1.119999999999893, -0.3640290128625967 
1.129999999999892, -0.3640494267305102 
1.1399999999998909, -0.3638846454375952 
1.1499999999998898, -0.36353567761993566 
1.1599999999998887, -0.36298187830768774 
1.1699999999998876, -0.3621700959677887 
1.1799999999998865, -0.3609997329423433 
1.1899999999998854, -0.3593032344552386 
1.1999999999998843, -0.3568312209456735 
1.2099999999998832, -0.3532740415128229 
1.219999999999882, -0.348376516560605 
1.229999999999881, -0.3421635084147586 
1.2399999999998799, -0.33512118960659487 
1.2499999999998788, -0.32806954680609274 
1.2599999999998777, -0.3217579795992521 
1.2699999999998766, -0.31656787537456316 
1.2799999999998755, -0.31252230157996747 
1.2899999999998744, -0.3094528573835963 
1.2999999999998733, -0.30714355018434547 
1.3099999999998722, -0.30540235485634815 
1.319999999999871, -0.30408266335334566 
1.32999999999987, -0.30308255402489337 
1.3399999999998689, -0.3023377966118431 
1.3499999999998678, -0.30181537369538713 
1.3599999999998666, -0.30151002559325224 
1.3699999999998655, -0.30144490625204584 
1.3799999999998644, -0.30167741047345287 
1.3899999999998633, -0.30231194603633926 
1.3999999999998622, -0.303522532533439 
1.4099999999998611, -0.305588844339971 
1.41999999999986, -0.308946775073344 
1.429999999999859, -0.31423937742469377 
1.4399999999998578, -0.32230321940625006 
1.4499999999998567, -0.33391456580058204 
1.4599999999998556, -0.3490529214895172 
1.4699999999998545, -0.3659162760733238 
1.4799999999998534, -0.38113305673991216 
1.4899999999998523, -0.3920501385831569 
1.4999999999998512, -0.3984976329435096 
1.5099999999998501, -0.40189643818917353 
1.519999999999849, -0.40366376525669334 
1.529999999999848, -0.40464650845283157 
1.5399999999998468, -0.4052465226146654 
1.5499999999998457, -0.4056370957292124 
1.5599999999998446, -0.40589257282815694 
1.5699999999998435, -0.406046601618936 
1.5799999999998424, -0.4061152723801854 
1.5899999999998413, -0.4061060804136103 
1.5999999999998402, -0.406022048657751 
1.6099999999998391, -0.40586496840377917 
1.619999999999838, -0.4056394023287675 
1.629999999999837, -0.4053575534126108 
1.6399999999998358, -0.40504336823995957 
1.6499999999998347, -0.4047328759114249 
1.6599999999998336, -0.4044684417483945 
1.6699999999998325, -0.40428782959625736 
1.6799999999998314, -0.40421226273221567 
1.6899999999998303, -0.40423834086717114 
1.6999999999998292, -0.40433716460088204 
1.709999999999828, -0.4044617940231127 
1.719999999999827, -0.40456078603351003 
1.729999999999826, -0.40459172606932536 
1.7399999999998248, -0.4045283121748081 
1.7499999999998237, -0.4043590937400464 
1.7599999999998226, -0.40408092103289467 
1.7699999999998215, -0.40369121116631385 
1.7799999999998204, -0.4031809627197055 
1.7899999999998193, -0.40252777026079417 
1.7999999999998182, -0.401685896957279 
1.809999999999817, -0.40056782412799097 
1.819999999999816, -0.39900716710619405 
1.8299999999998149, -0.39668736785986913 
1.8399999999998138, -0.39302803928421837 
1.8499999999998127, -0.3870926510405578 
1.8599999999998116, -0.37778315385674144 
1.8699999999998105, -0.3646826081108502 
1.8799999999998094, -0.34909021961489667 
1.8899999999998083, -0.33367163804694594 
1.8999999999998072, -0.32067371487095225 
1.909999999999806, -0.3108639026118038 
1.919999999999805, -0.3039088785502866 
1.9299999999998039, -0.2991124057142285 
1.9399999999998028, -0.29582906023605743 
1.9499999999998017, -0.29357944098575117 
1.9599999999998006, -0.2920390970049511 
1.9699999999997995, -0.29099859655864047 
1.9799999999997984, -0.29032802917392736 
1.9899999999997973, -0.2899524711346247 
1.9999999999997962, -0.2898372661334788 
2.0099999999998173, -0.289980940681162 
2.0199999999998384, -0.2904142951077241 
2.0299999999998595, -0.2912051526794694 
2.0399999999998806, -0.29246889405283294 
2.0499999999999017, -0.29438463302233736 
2.059999999999923, -0.2972139927803423 
2.069999999999944, -0.30130971177876026 
2.079999999999965, -0.3070779916814274 
2.089999999999986, -0.31482456113298385 
2.100000000000007, -0.3244295587025875 
2.1100000000000283, -0.3350057399087728 
2.1200000000000494, -0.3450272577224061 
2.1300000000000705, -0.35314078364254103 
2.1400000000000916, -0.3588869273877882 
2.1500000000001127, -0.3626026765073733 
2.160000000000134, -0.3648907298789875 
2.170000000000155, -0.3662668216771892 
2.180000000000176, -0.36707513498221045 
2.190000000000197, -0.3675214075003017 
2.2000000000002182, -0.36772203617149307 
2.2100000000002393, -0.3677395532344327 
2.2200000000002604, -0.36760413465244557 
2.2300000000002815, -0.36732677651077095 
2.2400000000003026, -0.3669092246140474 
2.2500000000003237, -0.36635401670575873 
2.260000000000345, -0.365675375736742 
2.270000000000366, -0.36490789360783926 
2.280000000000387, -0.36410716446740343 
2.290000000000408, -0.36333900225233234 
2.3000000000004293, -0.36266154168554593 
2.3100000000004504, -0.3621097370289506 
2.3200000000004715, -0.3616889624688711 
2.3300000000004926, -0.3613780739987723 
2.3400000000005137, -0.36113881180495433 
2.3500000000005348, -0.3609277390841292 
2.360000000000556, -0.36070668896371 
2.370000000000577, -0.360448420444937 
2.380000000000598, -0.36013671444086465 
2.390000000000619, -0.35976275468063396 
2.4000000000006403, -0.35932028895958795 
2.4100000000006614, -0.3588008805844769 
2.4200000000006825, -0.3581887659144553 
2.4300000000007036, -0.3574527950587473 
2.4400000000007247, -0.3565295803474608 
2.450000000000746, -0.3552851557543891 
2.460000000000767, -0.3534312865362971 
2.470000000000788, -0.3503709980419979 
2.480000000000809, -0.34502628341097114 
2.49000000000083, -0.33598752576512836 
2.5000000000008513, -0.3225559867931522 
2.5100000000008724, -0.3061722814612037 
2.5200000000008935, -0.29000389186414505 
2.5300000000009146, -0.2766199640871797 
2.5400000000009357, -0.26675710624102533 
2.550000000000957, -0.25992219973853325 
2.560000000000978, -0.25529685266983876 
2.570000000000999, -0.25217611606408863 
2.58000000000102, -0.25006054946868905 
2.5900000000010412, -0.24862400815492455 
2.6000000000010624, -0.2476624474878591 
2.6100000000010835, -0.24705377165636705 
2.6200000000011046, -0.2467320284285183 
2.6300000000011257, -0.2466731376538786 
2.6400000000011468, -0.24688941371459835 
2.650000000001168, -0.24743154038619633 
2.660000000001189, -0.24839810232523019 
2.67000000000121, -0.24995384319413388 
2.680000000001231, -0.2523575167815386 
2.6900000000012523, -0.25599509303709805 
2.7000000000012734, -0.26139492900397443 
2.7100000000012945, -0.26915290259171304 
2.7200000000013156, -0.2796286659297146 
2.7300000000013367, -0.2923494984242172 
2.740000000001358, -0.30558339699843756 
2.750000000001379, -0.31702173799262867 
2.7600000000014, -0.32529769207910575 
2.770000000001421, -0.3305437083124769 
2.780000000001442, -0.33364152215179527 
2.7900000000014633, -0.335435340817964 
2.8000000000014844, -0.33648100604448383 
2.8100000000015055, -0.3370927403049694 
2.8200000000015266, -0.33743865503762105 
2.8300000000015477, -0.33760766098899014 
2.840000000001569, -0.3376465882199151 
2.85000000000159, -0.33757968319599835 
2.860000000001611, -0.33741968460201044 
2.870000000001632, -0.3371757356078713 
2.8800000000016532, -0.3368605575297613 
2.8900000000016743, -0.3364968540615755 
2.9000000000016954, -0.3361206890307614 
2.9100000000017165, -0.33577893225691247 
2.9200000000017377, -0.3355201575047046 
2.9300000000017588, -0.33538211463259693 
2.94000000000178, -0.33538054322179967 
2.950000000001801, -0.33550294288497967 
2.960000000001822, -0.33570956496135834 
2.970000000001843, -0.33594277625164704 
2.9800000000018643, -0.3361425451613667 
2.9900000000018854, -0.3362611168176477 
3.0000000000019065, -0.3362696734075855 
3.0100000000019276, -0.3361553898424844 
3.0200000000019487, -0.33591276988690705 
3.03000000000197, -0.33553369231628494 
3.040000000001991, -0.3349976551742241 
3.050000000002012, -0.3342605430703077 
3.060000000002033, -0.3332380225659285 
3.070000000002054, -0.33177841597569324 
3.0800000000020753, -0.329622067699756 
3.0900000000020964, -0.32636022643440554 
3.1000000000021175, -0.32145612371488935 
3.1100000000021386, -0.3144599917091572 
3.1200000000021597, -0.30546623253397087 
3.130000000002181, -0.2954320160544779 
3.140000000002202, -0.28578841672395844 
3.150000000002223, -0.27761854211370557 
3.160000000002244, -0.27127500319297443 
3.1700000000022652, -0.26658446305686007 
3.1800000000022863, -0.2631851241904 
3.1900000000023074, -0.26072702734491093 
3.2000000000023285, -0.2589385794791451 
3.2100000000023496, -0.25762944956706235 
3.2200000000023707, -0.2566749124455646 
3.230000000002392, -0.2559998140132561 
3.240000000002413, -0.2555674182178861 
3.250000000002434, -0.2553740799825084 
3.260000000002455, -0.2554499727127069 
3.2700000000024763, -0.2558667679620045 
3.2800000000024974, -0.2567544808464567 
3.2900000000025185, -0.25833124129061236 
3.3000000000025396, -0.26095007923642266 
3.3100000000025607, -0.2651601188413057 
3.3200000000025818, -0.2717476723974044 
3.330000000002603, -0.2816276904068299 
3.340000000002624, -0.29529989546805396 
3.350000000002645, -0.31171706326965065 
3.360000000002666, -0.32762616145246587 
3.3700000000026873, -0.33940282754145634 
3.3800000000027084, -0.34598931302049774 
3.3900000000027295, -0.348864046335679 
3.4000000000027506, -0.34990051138272343 
3.4100000000027717, -0.35024057768441785 
3.420000000002793, -0.3503710698886224 
3.430000000002814, -0.35045211402127424 
3.440000000002835, -0.35052128690005124 
3.450000000002856, -0.3505796799497395 
3.460000000002877, -0.3506211691991722 
3.4700000000028983, -0.3506405813084099 
3.4800000000029194, -0.35063554080879844 
3.4900000000029405, -0.35060732380997206 
3.5000000000029616, -0.35056243723218533 
3.5100000000029827, -0.3505150908128046 
3.520000000003004, -0.3504896021151672 
3.530000000003025, -0.35052084304892434 
3.540000000003046, -0.35065072247676193 
3.550000000003067, -0.3509198497813809 
3.5600000000030882, -0.351355304329839 
3.5700000000031094, -0.3519571077087421 
3.5800000000031305, -0.35268821018434077 
3.5900000000031516, -0.3534752974058421 
3.6000000000031727, -0.35422561840866296 
3.6100000000031938, -0.35485439647355604 
3.620000000003215, -0.35530692393917673 
3.630000000003236, -0.35556308903405914 
3.640000000003257, -0.3556263265437153 
3.650000000003278, -0.3555072949441144 
3.6600000000032993, -0.35520974405577876 
3.6700000000033204, -0.3547196232183268 
3.6800000000033415, -0.3539946128215231 
3.6900000000033626, -0.3529504594921654 
3.7000000000033837, -0.351442239311118 
3.710000000003405, -0.34924556773467713 
3.720000000003426, -0.34606120623950754 
3.730000000003447, -0.34159514767878896 
3.740000000003468, -0.335758234353428 
3.750000000003489, -0.3288931328000888 
3.7600000000035103, -0.3217599961719725 
3.7700000000035314, -0.31517893266887986 
3.7800000000035525, -0.30965558650432434 
3.7900000000035736, -0.3053031193361031 
3.8000000000035947, -0.30198858873688833 
3.810000000003616, -0.29949669493839615 
3.820000000003637, -0.29762261738965085 
3.830000000003658, -0.2962048079846375 
3.840000000003679, -0.29512828068419106 
3.8500000000037002, -0.2943182106965852 
3.8600000000037213, -0.2937327842726033 
3.8700000000037424, -0.2933586656287719 
3.8800000000037635, -0.29321040113298386 
3.8900000000037847, -0.2933347780908295 
3.9000000000038058, -0.29382174847460013 
3.910000000003827, -0.29482465054435064 
3.920000000003848, -0.2965935582150622 
3.930000000003869, -0.2995244906830313 
3.94000000000389, -0.3042163042699083 
3.9500000000039113, -0.311485559757608 
3.9600000000039324, -0.32218507064452434 
3.9700000000039535, -0.3365550900890014 
3.9800000000039746, -0.35314577042004025 
3.9900000000039957, -0.368608241867065 
4.000000000004016, -0.3798270096298495 
4.010000000003993, -0.3862576997377745 
4.02000000000397, -0.3893744657938546 
4.030000000003946, -0.3908002098137262 
4.040000000003923, -0.39150282874755093 
4.0500000000039, -0.39191142788390443 
4.0600000000038765, -0.39218615961247 
4.070000000003853, -0.3923808417451447 
4.08000000000383, -0.39251260820482625 
4.090000000003807, -0.39258687175881934 
4.100000000003783, -0.39260525712962285 
4.11000000000376, -0.3925682112718727 
4.120000000003737, -0.3924767690556657 
4.130000000003713, -0.39233512403218596 
4.14000000000369, -0.39215422882840023 
4.150000000003667, -0.3919552843703192 
4.1600000000036434, -0.39177071620486703 
4.17000000000362, -0.39164024152356686 
4.180000000003597, -0.39160171646502206 
4.1900000000035735, -0.3916793620472891 
4.20000000000355, -0.3918735408630037 
4.210000000003527, -0.39215626889608857 
4.220000000003504, -0.3924757627035758 
4.23000000000348, -0.39277017997440467 
4.240000000003457, -0.3929848855560426 
4.250000000003434, -0.3930841831501525 
4.26000000000341, -0.39305240857491586 
4.270000000003387, -0.3928866627386519 
4.280000000003364, -0.39258674294192175 
4.2900000000033405, -0.3921457835904064 
4.300000000003317, -0.39154149473565825 
4.310000000003294, -0.39072514305897327 
4.320000000003271, -0.38960327013428386 
4.330000000003247, -0.38800476904025105 
4.340000000003224, -0.3856254987313672 
4.350000000003201, -0.3819568396746627 
4.360000000003177, -0.376266631666909 
4.370000000003154, -0.3678238188799245 
4.380000000003131, -0.35653113835236216 
4.390000000003107, -0.3435305585136636 
4.400000000003084, -0.3308147645055731 
4.410000000003061, -0.3200061998013545 
4.4200000000030375, -0.31167899892902357 
4.430000000003014, -0.30561518779646335 
4.440000000002991, -0.3013094983031762 
4.450000000002968, -0.298272030761379 
4.460000000002944, -0.29612577676769497 
4.470000000002921, -0.29460833875093356 
4.480000000002898, -0.2935470661010343 
4.490000000002874, -0.29283430194804183 
4.500000000002851, -0.29240957788131483 
4.510000000002828, -0.29224909251703984 
4.520000000002804, -0.2923615481629765 
4.530000000002781, -0.29278982271376275 
4.540000000002758, -0.2936187779722489 
4.5500000000027345, -0.2949902500167588 
4.560000000002711, -0.297126192435316 
4.570000000002688, -0.3003578180176823 
4.580000000002665, -0.30514637956925533 
4.590000000002641, -0.31204845185964397 
4.600000000002618, -0.32152254257815704 
4.610000000002595, -0.3334734452771363 
4.620000000002571, -0.34672721782748706 
4.630000000002548, -0.35918523223123516 
4.640000000002525, -0.3690302153415376 
4.6500000000025015, -0.37576314239509834 
4.660000000002478, -0.3799632214140305 
4.670000000002455, -0.382480286444305 
4.6800000000024315, -0.38397759748051014 
4.690000000002408, -0.3848674041780039 
4.700000000002385, -0.38538322065965586 
4.710000000002362, -0.38565295221029516 
4.720000000002338, -0.38574514322866316 
4.730000000002315, -0.3856944953197394 
4.740000000002292, -0.3855160002945247 
4.750000000002268, -0.3852142205880742 
4.760000000002245, -0.3847916633265882 
4.770000000002222, -0.38425784816716113 
4.7800000000021985, -0.38363766119208337 
4.790000000002175, -0.3829746488647468 
4.800000000002152, -0.3823251196270462 
4.810000000002129, -0.3817440609952317 
4.820000000002105, -0.38126973831312627 
4.830000000002082, -0.3809142572569615 
4.840000000002059, -0.3806629147484547 
4.850000000002035, -0.38048112201818707 
