t, s[1].omega / s[0].omega 
0, -0.22000680630492364 
0.009999999999999995, -0.22081555551899634 
0.019999999999999934, -0.22184851408474185 
0.029999999999999874, -0.223019377746804 
0.04000000000000012, -0.22420008731093694 
0.050000000000000405, -0.22525915710410324 
0.06000000000000069, -0.2261028429807917 
0.07000000000000098, -0.22669210812987406 
0.08000000000000126, -0.2270310134557077 
0.09000000000000155, -0.2271428590252033 
0.10000000000000184, -0.22704968603215742 
0.11000000000000212, -0.22675996039363672 
0.12000000000000241, -0.22626258629177834 
0.130000000000002, -0.22552511151108107 
0.1400000000000009, -0.2244971672232877 
0.1499999999999998, -0.22312415375669703 
0.1599999999999987, -0.22137680541504667 
0.1699999999999976, -0.2192920243713045 
0.1799999999999965, -0.21699855186095177 
0.1899999999999954, -0.2146934219178928 
0.1999999999999943, -0.21257204997985313 
0.2099999999999932, -0.2107624531747953 
0.2199999999999921, -0.20930572573045123 
0.229999999999991, -0.20817668305915155 
0.2399999999999899, -0.20731549178795522 
0.2499999999999888, -0.20665207219639137 
0.2599999999999877, -0.20612043057213697 
0.2699999999999866, -0.2056656820512835 
0.2799999999999855, -0.20524611117862598 
0.2899999999999844, -0.20483166268941302 
0.2999999999999833, -0.20440006148988382 
0.3099999999999822, -0.2039314366377031 
0.3199999999999811, -0.2034012248443577 
0.32999999999998, -0.2027690982955943 
0.3399999999999789, -0.20195822973213304 
0.3499999999999778, -0.20081361326729708 
0.35999999999997667, -0.19902289271584273 
0.36999999999997557, -0.19599861614126912 
0.37999999999997447, -0.19082252990028947 
0.38999999999997337, -0.18257977377622198 
0.39999999999997227, -0.17132857831994525 
0.40999999999997117, -0.1587876325998982 
0.41999999999997006, -0.14732568595191356 
0.42999999999996896, -0.13832072218621433 
0.43999999999996786, -0.13185795035992795 
0.44999999999996676, -0.1274009293257156 
0.45999999999996566, -0.1243481855978992 
0.46999999999996456, -0.12223381158625343 
0.47999999999996346, -0.12074210241116486 
0.48999999999996235, -0.11967167466050459 
0.49999999999996125, -0.11889964342807906 
0.5099999999999602, -0.11835683029010143 
0.519999999999959, -0.11801354519459295 
0.529999999999958, -0.11787397178046441 
0.5399999999999568, -0.11797818266622243 
0.5499999999999557, -0.11841198000866564 
0.5599999999999546, -0.1193244966677208 
0.5699999999999535, -0.12094699697263567 
0.5799999999999524, -0.12357751288918288 
0.5899999999999513, -0.12740558434398336 
0.5999999999999502, -0.13188533762091306 
0.6099999999999491, -0.13454481878976907 
0.619999999999948, -0.1309858977629174 
0.6299999999999469, -0.11921922074978156 
0.6399999999999458, -0.10344504036566111 
0.6499999999999447, -0.08938720660918309 
0.6599999999999436, -0.07927911205374996 
0.6699999999999425, -0.07265929304076198 
0.6799999999999414, -0.06843302548924857 
0.6899999999999403, -0.06571848865007454 
0.6999999999999392, -0.06394859588117145 
0.7099999999999381, -0.06278640470388433 
0.719999999999937, -0.06204042775865828 
0.7299999999999359, -0.06161049909835533 
0.7399999999999348, -0.061459079315874396 
0.7499999999999337, -0.06160067866449161 
0.7599999999999326, -0.062106127083236304 
0.7699999999999315, -0.06312301231694781 
0.7799999999999304, -0.06491788042691321 
0.7899999999999293, -0.06794661535381023 
0.7999999999999282, -0.07293949181314255 
0.8099999999999271, -0.08088354627752167 
0.819999999999926, -0.09247394442439458 
0.8299999999999249, -0.10635185843303689 
0.8399999999999238, -0.1173634545511669 
0.8499999999999227, -0.12005746518445896 
0.8599999999999216, -0.11526796351604637 
0.8699999999999205, -0.10808619075249988 
0.8799999999999194, -0.10190305217470186 
0.8899999999999183, -0.0975033835565442 
0.8999999999999172, -0.09458225029637908 
0.9099999999999161, -0.09268049107421286 
0.919999999999915, -0.09144870483317755 
0.9299999999999139, -0.09066396302526718 
0.9399999999999128, -0.0901965679451418 
0.9499999999999117, -0.08998070222981007 
0.9599999999999106, -0.08999744585807676 
0.9699999999999095, -0.0902691443956738 
0.9799999999999084, -0.09086419219154974 
0.9899999999999073, -0.09191353560329169 
0.9999999999999062, -0.09364278371204818 
1.0099999999999052, -0.09642469136859658 
1.019999999999904, -0.10084740246133224 
1.029999999999903, -0.10774579707063733 
1.039999999999902, -0.11800176187204543 
1.0499999999999008, -0.13174530482402727 
1.0599999999998997, -0.1470831136942814 
1.0699999999998986, -0.16029394895641164 
1.0799999999998975, -0.16877629219492826 
1.0899999999998964, -0.17290674469025213 
1.0999999999998953, -0.17447686176302074 
1.1099999999998942, -0.1749165595678722 
1.119999999999893, -0.17495277147212804 
1.129999999999892, -0.17487810135209936 
1.1399999999998909, -0.174793542795433 
1.1499999999998898, -0.1747295595073889 
1.1599999999998887, -0.17469518832476866 
1.1699999999998876, -0.17469651052774782 
1.1799999999998865, -0.1747441150075667 
1.1899999999998854, -0.1748574184154465 
1.1999999999998843, -0.17506872180352012 
1.2099999999998832, -0.1754278041422353 
1.219999999999882, -0.17600679203396463 
1.229999999999881, -0.17690405217591038 
1.2399999999998799, -0.17824380357103958 
1.2499999999998788, -0.1801634724695976 
1.2599999999998777, -0.1827742102871665 
1.2699999999998766, -0.18608237690975363 
1.2799999999998755, -0.18989591886717044 
1.2899999999998744, -0.19380704939773624 
1.2999999999998733, -0.19733607876027712 
1.3099999999998722, -0.20015356931640196 
1.319999999999871, -0.20218220158565026 
1.32999999999987, -0.20352695655023897 
1.3399999999998689, -0.20435285184170954 
1.3499999999998678, -0.20480739346053678 
1.3599999999998666, -0.2049960772797223 
1.3699999999998655, -0.20498498778786298 
1.3799999999998644, -0.2048111864089309 
1.3899999999998633, -0.2044936351194889 
1.3999999999998622, -0.20404381603830507 
1.4099999999998611, -0.2034767182656611 
1.41999999999986, -0.20282124162935422 
1.429999999999859, -0.20212612540257474 
1.4399999999998578, -0.2014567166755939 
1.4499999999998567, -0.20088224723874668 
1.4599999999998556, -0.2004597593912123 
1.4699999999998545, -0.20022207369222067 
1.4799999999998534, -0.20017227646588887 
1.4899999999998523, -0.20028328284961555 
1.4999999999998512, -0.2005021920725391 
1.5099999999998501, -0.2007610064270951 
1.519999999999849, -0.20099236191056075 
1.529999999999848, -0.20114355608560003 
1.5399999999998468, -0.20118188894789713 
1.5499999999998457, -0.2010902800053591 
1.5599999999998446, -0.2008573907468517 
1.5699999999998435, -0.20046661794998638 
1.5799999999998424, -0.1998855123183445 
1.5899999999998413, -0.1990551591297661 
1.5999999999998402, -0.19787990738701447 
1.6099999999998391, -0.1962231715907419 
1.619999999999838, -0.19392594030767657 
1.629999999999837, -0.19087311280810218 
1.6399999999998358, -0.18710803994440933 
1.6499999999998347, -0.18291522672195165 
1.6599999999998336, -0.17874925256770333 
1.6699999999998325, -0.17502727179702166 
1.6799999999998314, -0.17196898547865552 
1.6899999999998303, -0.16959222769810672 
1.6999999999998292, -0.16779885349287724 
1.709999999999828, -0.16645567720301613 
1.719999999999827, -0.16543807607871894 
1.729999999999826, -0.16464529312966927 
1.7399999999998248, -0.1640021267558408 
1.7499999999998237, -0.16345557204519973 
1.7599999999998226, -0.16296999419575262 
1.7699999999998215, -0.16252215582305518 
1.7799999999998204, -0.16209635305228162 
1.7899999999998193, -0.16167879026816967 
1.7999999999998182, -0.16124820726217157 
1.809999999999817, -0.16075506884324356 
1.819999999999816, -0.16007145185167684 
1.8299999999998149, -0.158877507930209 
1.8399999999998138, -0.1564543221877153 
1.8499999999998127, -0.1515012857687134 
1.8599999999998116, -0.14254641738390567 
1.8699999999998105, -0.12952140764847514 
1.8799999999998094, -0.11490195570796564 
1.8899999999998083, -0.1019302896481529 
1.8999999999998072, -0.09217295531941877 
1.909999999999806, -0.08545887704210989 
1.919999999999805, -0.08098641223948139 
1.9299999999998039, -0.07800436899504229 
1.9399999999998028, -0.07598177888060073 
1.9499999999998017, -0.07457983819144151 
1.9599999999998006, -0.0735917428529152 
1.9699999999997995, -0.07289605091839582 
1.9799999999997984, -0.07242777197121403 
1.9899999999997973, -0.07216304213931767 
1.9999999999997962, -0.07211377317354961 
2.0099999999998173, -0.07233045644599716 
2.0199999999998384, -0.07291200846603235 
2.0299999999998595, -0.0740180055833058 
2.0399999999998806, -0.07586038675868922 
2.0499999999999017, -0.07858958452476991 
2.059999999999923, -0.08184897275938904 
2.069999999999944, -0.08375732568799626 
2.079999999999965, -0.08032477553615716 
2.089999999999986, -0.06864308144748943 
2.100000000000007, -0.05189609362064414 
2.1100000000000283, -0.03635865383734428 
2.1200000000000494, -0.02506307623306537 
2.1300000000000705, -0.017708251282176457 
2.1400000000000916, -0.013064361995295351 
2.1500000000001127, -0.010109251417010915 
2.160000000000134, -0.00818836683615361 
2.170000000000155, -0.006916498261422694 
2.180000000000176, -0.006075187476713475 
2.190000000000197, -0.005547331781859769 
2.2000000000002182, -0.005282002684921199 
2.2100000000002393, -0.005279459070722922 
2.2200000000002604, -0.005590880125326423 
2.2300000000002815, -0.006331331278002632 
2.2400000000003026, -0.007705211946496149 
2.2500000000003237, -0.010032379061492612 
2.260000000000345, -0.013708397856051782 
2.270000000000366, -0.01885706607706338 
2.280000000000387, -0.024181892169884277 
2.290000000000408, -0.02540846028682887 
2.3000000000004293, -0.017542043695037545 
2.3100000000004504, -0.0021728419687524763 
2.3200000000004715, 0.013107071945580149 
2.3300000000004926, 0.024304590169409314 
2.3400000000005137, 0.03139953087923228 
2.3500000000005348, 0.03565305082071103 
2.360000000000556, 0.038158847816630176 
2.370000000000577, 0.03961164044240059 
2.380000000000598, 0.04041355987328964 
2.390000000000619, 0.04078895298892579 
2.4000000000006403, 0.040856340937292145 
2.4100000000006614, 0.04066650106385044 
2.4200000000006825, 0.0402188120538962 
2.4300000000007036, 0.039462847680523765 
2.4400000000007247, 0.03828892706494907 
2.450000000000746, 0.03651474046873751 
2.460000000000767, 0.033900302719423084 
2.470000000000788, 0.03031480138366905 
2.480000000000809, 0.026381946710357117 
2.49000000000083, 0.024819143709528695 
2.5000000000008513, 0.030403096165624015 
2.5100000000008724, 0.044464044862631814 
2.5200000000008935, 0.06108571045810566 
2.5300000000009146, 0.07428455474210256 
2.5400000000009357, 0.08284759100906008 
2.550000000000957, 0.08796918268273937 
2.560000000000978, 0.09096004658786735 
2.570000000000999, 0.09269198676718289 
2.58000000000102, 0.09367314366329794 
2.5900000000010412, 0.0941894501211817 
2.6000000000010624, 0.0943998589049749 
2.6100000000010835, 0.09438971932672728 
2.6200000000011046, 0.0941992296078642 
2.6300000000011257, 0.0938393397711254 
2.6400000000011468, 0.09330523133031896 
2.650000000001168, 0.09260314271532205 
2.660000000001189, 0.09182771260406 
2.67000000000121, 0.09136977215489714 
2.680000000001231, 0.09232455408703404 
2.6900000000012523, 0.09672142290247453 
2.7000000000012734, 0.106145953470686 
2.7100000000012945, 0.11891907989210929 
2.7200000000013156, 0.1309031374679604 
2.7300000000013367, 0.13963384408292442 
2.740000000001358, 0.14517299872955786 
2.750000000001379, 0.14847828318298723 
2.7600000000014, 0.15039950988411238 
2.770000000001421, 0.1514926205149884 
2.780000000001442, 0.15209139894169577 
2.7900000000014633, 0.152394939929002 
2.8000000000014844, 0.15252594923936041 
2.8100000000015055, 0.1525656566810685 
2.8200000000015266, 0.15257628820813182 
2.8300000000015477, 0.15261947034882337 
2.840000000001569, 0.15277705292759508 
2.85000000000159, 0.15317940800664565 
2.860000000001611, 0.15403967011223654 
2.870000000001632, 0.15566698663557982 
2.8800000000016532, 0.1583806430077346 
2.8900000000016743, 0.16224913287913242 
2.9000000000016954, 0.16681808179633437 
2.9100000000017165, 0.1712512979562913 
2.9200000000017377, 0.1748629233578572 
2.9300000000017588, 0.17742736353323912 
2.94000000000178, 0.17905969516694123 
2.950000000001801, 0.17998524791522547 
2.960000000001822, 0.18041219762783914 
2.970000000001843, 0.18050059473498833 
2.9800000000018643, 0.18037034717670222 
2.9900000000018854, 0.1801145743076323 
3.0000000000019065, 0.1798077606496435 
3.0100000000019276, 0.1795092405444578 
3.0200000000019487, 0.17926567977524024 
3.03000000000197, 0.17911486904604018 
3.040000000001991, 0.17909040466360648 
3.050000000002012, 0.1792247803711352 
3.060000000002033, 0.17954740513072753 
3.070000000002054, 0.18007434484825668 
3.0800000000020753, 0.18079023460656363 
3.0900000000020964, 0.18163158786368533 
3.1000000000021175, 0.1824882361734744 
3.1100000000021386, 0.18323090830282693 
3.1200000000021597, 0.18374864779952077 
3.130000000002181, 0.18396923889060876 
3.140000000002202, 0.18385452115950732 
3.150000000002223, 0.18338534960993946 
3.160000000002244, 0.18255523048606723 
3.1700000000022652, 0.18138191121136663 
3.1800000000022863, 0.1799310054398035 
3.1900000000023074, 0.17832881236800385 
3.2000000000023285, 0.17673898656658457 
3.2100000000023496, 0.17530791864428047 
3.2200000000023707, 0.17411926090257332 
3.230000000002392, 0.17318827882917726 
3.240000000002413, 0.17248628439471825 
3.250000000002434, 0.17196821812910076 
3.260000000002455, 0.1715885499919321 
3.2700000000024763, 0.1713052676692765 
3.2800000000024974, 0.17107689361144535 
3.2900000000025185, 0.17085690254477565 
3.3000000000025396, 0.1705880835215547 
3.3100000000025607, 0.17019738416307198 
3.3200000000025818, 0.16958948793501394 
3.330000000002603, 0.16863583762510462 
3.340000000002624, 0.1671578090552129 
3.350000000002645, 0.16491315917803814 
3.360000000002666, 0.16162135801573507 
3.3700000000026873, 0.1571008065988719 
3.3800000000027084, 0.1515546783517499 
3.3900000000027295, 0.1457727570600189 
3.4000000000027506, 0.1407943311969484 
3.4100000000027717, 0.13720720579501325 
3.420000000002793, 0.1349261602275658 
3.430000000002814, 0.13354580258913526 
3.440000000002835, 0.13268465781598254 
3.450000000002856, 0.13209034492978197 
3.460000000002877, 0.1316162119136383 
3.4700000000028983, 0.13117588869999752 
3.4800000000029194, 0.13070891092418507 
3.4900000000029405, 0.13015767914558043 
3.5000000000029616, 0.12944916517198818 
3.5100000000029827, 0.12847449700522345 
3.520000000003004, 0.12705877391447498 
3.530000000003025, 0.12491139983713924 
3.540000000003046, 0.1215494037995146 
3.550000000003067, 0.11621841050854254 
3.5600000000030882, 0.10797472280752825 
3.5700000000031094, 0.09638539559449832 
3.5800000000031305, 0.08304748292075602 
3.5900000000031516, 0.07178565530451857 
3.6000000000031727, 0.06525187226664836 
3.6100000000031938, 0.06272000238846259 
3.620000000003215, 0.06218224507986527 
3.630000000003236, 0.06228639819693708 
3.640000000003257, 0.062461767503746504 
3.650000000003278, 0.06253131381288664 
3.6600000000032993, 0.062458228440346986 
3.6700000000033204, 0.06223995319738083 
3.6800000000033415, 0.061869937575677415 
3.6900000000033626, 0.06132197602402763 
3.7000000000033837, 0.06053791496302785 
3.710000000003405, 0.05940920677549265 
3.720000000003426, 0.057743825879211855 
3.730000000003447, 0.05520713216359798 
3.740000000003468, 0.051225235620805255 
3.750000000003489, 0.044871182545587265 
3.7600000000035103, 0.034917368864069265 
3.7700000000035314, 0.020661443945053842 
3.7800000000035525, 0.0040555327598778505 
3.7900000000035736, -0.00923607442668352 
3.8000000000035947, -0.015567937446361252 
3.810000000003616, -0.01642977611291977 
3.820000000003637, -0.015048006571944567 
3.830000000003658, -0.01334419878107867 
3.840000000003679, -0.011946260988290628 
3.8500000000037002, -0.010933093710692277 
3.8600000000037213, -0.010239908109757893 
3.8700000000037424, -0.009794841875055346 
3.8800000000037635, -0.009552024396061752 
3.8900000000037847, -0.009496158045692022 
3.9000000000038058, -0.009643678389429682 
3.910000000003827, -0.010048558880719451 
3.920000000003848, -0.010817050303094669 
3.930000000003869, -0.012136676115936834 
3.94000000000389, -0.014327225240533934 
3.9500000000039113, -0.01791921816132311 
3.9600000000039324, -0.023734754504867832 
3.9700000000039535, -0.032817970635546624 
3.9800000000039746, -0.04577987606138808 
3.9900000000039957, -0.06123425614330939 
4.000000000004016, -0.07509750069256808 
4.010000000003993, -0.08372907350081585 
4.02000000000397, -0.08722757455988178 
4.030000000003946, -0.0878602015112809 
4.040000000003923, -0.08745152452808322 
4.0500000000039, -0.08684580648397726 
4.0600000000038765, -0.0863191042818224 
4.070000000003853, -0.08592767375217727 
4.08000000000383, -0.08566483130805212 
4.090000000003807, -0.08551620802471058 
4.100000000003783, -0.0854768368035522 
4.11000000000376, -0.08555693689994165 
4.120000000003737, -0.08578621209159175 
4.130000000003713, -0.08622042324603911 
4.14000000000369, -0.08695230518466467 
4.150000000003667, -0.08812855572309979 
4.1600000000036434, -0.08997340783256988 
4.17000000000362, -0.0928125877484957 
4.180000000003597, -0.0970687697197253 
4.1900000000035735, -0.10315020137735227 
4.20000000000355, -0.1111217199293127 
4.210000000003527, -0.12023959200825149 
4.220000000003504, -0.12894580069209927 
4.23000000000348, -0.13578689188973084 
4.240000000003457, -0.14032874374039947 
4.250000000003434, -0.14301518570474483 
4.26000000000341, -0.14450902217239842 
4.270000000003387, -0.14531777329123788 
4.280000000003364, -0.14574699882981093 
4.2900000000033405, -0.1459635599732327 
4.300000000003317, -0.14605679243357714 
4.310000000003294, -0.14607673067004207 
4.320000000003271, -0.14605556785138143 
4.330000000003247, -0.14602019693685184 
4.340000000003224, -0.14600056748748913 
4.350000000003201, -0.1460358674698238 
4.360000000003177, -0.14617880618049411 
4.370000000003154, -0.14649746957354745 
4.380000000003131, -0.14707386819096388 
4.390000000003107, -0.1479970928758971 
4.400000000003084, -0.14934602238633293 
4.410000000003061, -0.15115496151109659 
4.4200000000030375, -0.15336533741332198 
4.430000000003014, -0.15579415945736408 
4.440000000002991, -0.15816835716859404 
4.450000000002968, -0.16022939994401458 
4.460000000002944, -0.16183139245730432 
4.470000000002921, -0.16295839745255164 
4.480000000002898, -0.16367449649322313 
4.490000000002874, -0.16406554333019704 
4.500000000002851, -0.16420510301598498 
4.510000000002828, -0.164143520108903 
4.520000000002804, -0.16390924335158136 
4.530000000002781, -0.16351518306210922 
4.540000000002758, -0.1629677876571221 
4.5500000000027345, -0.16227854587708201 
4.560000000002711, -0.16147618860761603 
4.570000000002688, -0.1606142857087823 
4.580000000002665, -0.15976765799512874 
4.590000000002641, -0.15901670117227434 
4.600000000002618, -0.15842780062285045 
4.610000000002595, -0.15803998147607087 
4.620000000002571, -0.15786069754922777 
4.630000000002548, -0.15786718844068987 
4.640000000002525, -0.15801079043160265 
4.6500000000025015, -0.15822551217504388 
4.660000000002478, -0.15844168702900369 
4.670000000002455, -0.15860032732046764 
4.6800000000024315, -0.15866109084767277 
4.690000000002408, -0.1586007281979212 
4.700000000002385, -0.1584047329402905 
4.710000000002362, -0.15805673497368783 
4.720000000002338, -0.15752823039294625 
4.730000000002315, -0.15676919516990478 
4.740000000002292, -0.1557006327335002 
4.750000000002268, -0.1542144941171853 
4.760000000002245, -0.15219428157710602 
4.770000000002222, -0.14957249826324637 
4.7800000000021985, -0.14641628812362698 
4.790000000002175, -0.14297464069817445 
4.800000000002152, -0.1396076209973182 
4.810000000002129, -0.13662926566845182 
4.820000000002105, -0.13419807262606095 
4.830000000002082, -0.13232059821097894 
4.840000000002059, -0.13091621013363597 
