t, s[1].omega / s[0].omega 
0, -0.48002059191464086 
0.009999999999999995, -0.48217730703198436 
0.019999999999999934, -0.48441558931751916 
0.029999999999999874, -0.48653776130561627 
0.04000000000000012, -0.4883597050402698 
0.050000000000000405, -0.4897716240036961 
0.06000000000000069, -0.49075452629033123 
0.07000000000000098, -0.4913523168736799 
0.08000000000000126, -0.49163073678922453 
0.09000000000000155, -0.49164736375610907 
0.10000000000000184, -0.49143654265920267 
0.11000000000000212, -0.4910025245965753 
0.12000000000000241, -0.4903132675125462 
0.130000000000002, -0.4892894345187913 
0.1400000000000009, -0.4877853191512481 
0.1499999999999998, -0.48556307395980014 
0.1599999999999987, -0.48227608658689913 
0.1699999999999976, -0.47750943236057475 
0.1799999999999965, -0.47095307834873734 
0.1899999999999954, -0.46270695192915035 
0.1999999999999943, -0.4534759790566906 
0.2099999999999932, -0.4443384214447927 
0.2199999999999921, -0.43621935344966223 
0.229999999999991, -0.42956329453222086 
0.2399999999999899, -0.42438238786450605 
0.2499999999999888, -0.42046595230193073 
0.2599999999999877, -0.41754917400265024 
0.2699999999999866, -0.4153952567006473 
0.2799999999999855, -0.41381975984533115 
0.2899999999999844, -0.41268922889471266 
0.2999999999999833, -0.41191217210115044 
0.3099999999999822, -0.4114299423165752 
0.3199999999999811, -0.41120995945519595 
0.32999999999998, -0.4112417304133637 
0.3399999999999789, -0.4115355483358371 
0.3499999999999778, -0.4121236728445347 
0.35999999999997667, -0.4130637292539814 
0.36999999999997557, -0.4144436246653817 
0.37999999999997447, -0.41638588828961287 
0.38999999999997337, -0.41904606318753945 
0.39999999999997227, -0.4225936616831504 
0.40999999999997117, -0.4271570425774326 
0.41999999999997006, -0.4327178019679082 
0.42999999999996896, -0.43898396199281037 
0.43999999999996786, -0.4453571245315075 
0.44999999999996676, -0.4511182299324096 
0.45999999999996566, -0.45574995477254826 
0.46999999999996456, -0.45911564561857315 
0.47999999999996346, -0.4613760408878223 
0.48999999999996235, -0.46280013770308415 
0.49999999999996125, -0.46363418370974585 
0.5099999999999602, -0.464056375855275 
0.519999999999959, -0.4641779458499632 
0.529999999999958, -0.46405675824321424 
0.5399999999999568, -0.46370895639678295 
0.5499999999999557, -0.46311575271221594 
0.5599999999999546, -0.4622277031700278 
0.5699999999999535, -0.46097235115702473 
0.5799999999999524, -0.4592741914550289 
0.5899999999999513, -0.457093777216778 
0.5999999999999502, -0.4544766537016948 
0.6099999999999491, -0.4515771995978243 
0.619999999999948, -0.4486228505472418 
0.6299999999999469, -0.44583334035582584 
0.6399999999999458, -0.4433534686482582 
0.6499999999999447, -0.4412371637470658 
0.6599999999999436, -0.43947133045444725 
0.6699999999999425, -0.4380097904370113 
0.6799999999999414, -0.4367993476274565 
0.6899999999999403, -0.4357944822240663 
0.6999999999999392, -0.4349636664513232 
0.7099999999999381, -0.4342912691648597 
0.719999999999937, -0.43377812570524704 
0.7299999999999359, -0.43344277498115796 
0.7399999999999348, -0.433324642565278 
0.7499999999999337, -0.4334901809709849 
0.7599999999999326, -0.4340430709699958 
0.7699999999999315, -0.43513977814362786 
0.7799999999999304, -0.4370114233447981 
0.7899999999999293, -0.43999043645813796 
0.7999999999999282, -0.4445318550837188 
0.8099999999999271, -0.45119696700440504 
0.819999999999926, -0.46052661769967324 
0.8299999999999249, -0.4727072124827891 
0.8399999999999238, -0.487065573416212 
0.8499999999999227, -0.5018438438535232 
0.8599999999999216, -0.5148765732239624 
0.8699999999999205, -0.5248114382983868 
0.8799999999999194, -0.5315900130532896 
0.8899999999999183, -0.5359180529117434 
0.8999999999999172, -0.538597668376623 
0.9099999999999161, -0.5402326441072897 
0.919999999999915, -0.5412083889132446 
0.9299999999999139, -0.5417538259986248 
0.9399999999999128, -0.5419991016423327 
0.9499999999999117, -0.5420125581186473 
0.9599999999999106, -0.5418212232931648 
0.9699999999999095, -0.5414213955277426 
0.9799999999999084, -0.5407849418932333 
0.9899999999999073, -0.5398668553199546 
0.9999999999999062, -0.5386200528764078 
1.0099999999999052, -0.5370208846365286 
1.019999999999904, -0.5350989814427989 
1.029999999999903, -0.5329516686660213 
1.039999999999902, -0.5307243789604889 
1.0499999999999008, -0.528564232349475 
1.0599999999998997, -0.5265777903231499 
1.0699999999998986, -0.5248161811199833 
1.0799999999998975, -0.5232853637094685 
1.0899999999998964, -0.5219661928778099 
1.0999999999998953, -0.5208322862614432 
1.1099999999998942, -0.5198614527960816 
1.119999999999893, -0.5190413592555089 
1.129999999999892, -0.5183717397559191 
1.1399999999998909, -0.5178652900228132 
1.1499999999998898, -0.517548651899985 
1.1599999999998887, -0.5174642444142392 
1.1699999999998876, -0.5176733428855015 
1.1799999999998865, -0.5182606649370087 
1.1899999999998854, -0.5193405467830802 
1.1999999999998843, -0.5210641662103045 
1.2099999999998832, -0.5236254352864699 
1.219999999999882, -0.527258867224133 
1.229999999999881, -0.5322145513300544 
1.2399999999998799, -0.5386851813958532 
1.2499999999998788, -0.5466627908652292 
1.2599999999998777, -0.5557557748714836 
1.2699999999998766, -0.5651162597125052 
1.2799999999998755, -0.5736734797173794 
1.2899999999998744, -0.5806082198483344 
1.2999999999998733, -0.5856656310999271 
1.3099999999998722, -0.5890669564405254 
1.319999999999871, -0.5912221153737595 
1.32999999999987, -0.5925155188070983 
1.3399999999998689, -0.5932289035930758 
1.3499999999998678, -0.593542459088942 
1.3599999999998666, -0.5935578669587736 
1.3699999999998655, -0.5933182332492691 
1.3799999999998644, -0.5928185342270096 
1.3899999999998633, -0.5920068286387431 
1.3999999999998622, -0.5907790158082307 
1.4099999999998611, -0.5889740825631956 
1.41999999999986, -0.5863858831387744 
1.429999999999859, -0.5828175615251447 
1.4399999999998578, -0.5781932297561638 
1.4499999999998567, -0.5726798444125067 
1.4599999999998556, -0.5667036610684971 
1.4699999999998545, -0.5608018352066553 
1.4799999999998534, -0.5554168132614405 
1.4899999999998523, -0.5507878953669723 
1.4999999999998512, -0.5469694803060096 
1.5099999999998501, -0.5439052714545245 
1.519999999999849, -0.5414951099794665 
1.529999999999848, -0.5396345155363849 
1.5399999999998468, -0.5382318108233833 
1.5499999999998457, -0.5372126311136131 
1.5599999999998446, -0.5365190154330863 
1.5699999999998435, -0.5361069949126392 
1.5799999999998424, -0.5359444212195594 
1.5899999999998413, -0.5360096350464086 
1.5999999999998402, -0.5362910523917137 
1.6099999999998391, -0.5367875065428048 
1.619999999999838, -0.5375089734247576 
1.629999999999837, -0.5384769128241592 
1.6399999999998358, -0.5397227186279354 
1.6499999999998347, -0.5412817339569201 
1.6599999999998336, -0.5431795479714154 
1.6699999999998325, -0.5454085550632903 
1.6799999999998314, -0.5478989863732365 
1.6899999999998303, -0.5505008762295137 
1.6999999999998292, -0.5530018766223155 
1.709999999999828, -0.5551890171105633 
1.719999999999827, -0.5569209442960285 
1.729999999999826, -0.5581597060736263 
1.7399999999998248, -0.5589484029338728 
1.7499999999998237, -0.5593649029616365 
1.7599999999998226, -0.5594840228121497 
1.7699999999998215, -0.5593578508273569 
1.7799999999998204, -0.5590082179699964 
1.7899999999998193, -0.5584224801062745 
1.7999999999998182, -0.5575458356570366 
1.809999999999817, -0.5562649190845566 
1.819999999999816, -0.554377868999672 
1.8299999999998149, -0.5515493809644284 
1.8399999999998138, -0.5472670341543148 
1.8499999999998127, -0.5408670834103055 
1.8599999999998116, -0.5317695797334854 
1.8699999999998105, -0.519988768776961 
1.8799999999998094, -0.5065577432031938 
1.8899999999998083, -0.4932248990535787 
1.8999999999998072, -0.4815325946995787 
1.909999999999806, -0.4722010309275665 
1.919999999999805, -0.4652072630748278 
1.9299999999998039, -0.4601629447260837 
1.9399999999998028, -0.4566078931624597 
1.9499999999998017, -0.4541431174945161 
1.9599999999998006, -0.4524633225532223 
1.9699999999997995, -0.4513483699490147 
1.9799999999997984, -0.45064446204654446 
1.9899999999997973, -0.4502465985647784 
1.9999999999997962, -0.4500852598929921 
2.0099999999998173, -0.450117277281625 
2.0199999999998384, -0.4503201180114756 
2.0299999999998595, -0.4506887860774092 
2.0399999999998806, -0.45123455259706124 
2.0499999999999017, -0.45198447432482763 
2.059999999999923, -0.45297998320469973 
2.069999999999944, -0.45427176857815627 
2.079999999999965, -0.45590714267137294 
2.089999999999986, -0.4579064608484429 
2.100000000000007, -0.4602301919411292 
2.1100000000000283, -0.46275115915499576 
2.1200000000000494, -0.4652604147568688 
2.1300000000000705, -0.4675251194899529 
2.1400000000000916, -0.4693712178524597 
2.1500000000001127, -0.4707315932705738 
2.160000000000134, -0.47163273077529755 
2.170000000000155, -0.47214741288900897 
2.180000000000176, -0.47235186368407367 
2.190000000000197, -0.47230200969766045 
2.2000000000002182, -0.4720240509781436 
2.2100000000002393, -0.4715100776904114 
2.2200000000002604, -0.47071198475369214 
2.2300000000002815, -0.4695302886307561 
2.2400000000003026, -0.46779871643111004 
2.2500000000003237, -0.4652749833614013 
2.260000000000345, -0.4616674592160484 
2.270000000000366, -0.4567443502642779 
2.280000000000387, -0.4505315746197451 
2.290000000000408, -0.4434649776275264 
2.3000000000004293, -0.4362865665943497 
2.3100000000004504, -0.42970810029738826 
2.3200000000004715, -0.42414152698159713 
2.3300000000004926, -0.4196750975480831 
2.3400000000005137, -0.416199364065357 
2.3500000000005348, -0.4135351441037451 
2.360000000000556, -0.4115074224919654 
2.370000000000577, -0.40997392620067863 
2.380000000000598, -0.40882999524516483 
2.390000000000619, -0.4080045681900174 
2.4000000000006403, -0.40745452846576863 
2.4100000000006614, -0.407160301141393 
2.4200000000006825, -0.4071236603375761 
2.4300000000007036, -0.4073680451260807 
2.4400000000007247, -0.40794155958730327 
2.450000000000746, -0.40892281193170943 
2.460000000000767, -0.4104294051607072 
2.470000000000788, -0.4126274933905191 
2.480000000000809, -0.4157368991466729 
2.49000000000083, -0.4200175611638616 
2.5000000000008513, -0.4257090924191952 
2.5100000000008724, -0.4328889539640328 
2.5200000000008935, -0.4412616533561883 
2.5300000000009146, -0.4500339906712192 
2.5400000000009357, -0.45812569968127476 
2.550000000000957, -0.46468483888921214 
2.560000000000978, -0.4694445177618277 
2.570000000000999, -0.4726290400569634 
2.58000000000102, -0.4746452333992339 
2.5900000000010412, -0.475864441648853 
2.6000000000010624, -0.4765524605926833 
2.6100000000010835, -0.4768768017823331 
2.6200000000011046, -0.476932546818989 
2.6300000000011257, -0.47676389505285915 
2.6400000000011468, -0.4763775225815542 
2.650000000001168, -0.4757503147531509 
2.660000000001189, -0.4748363652775283 
2.67000000000121, -0.4735798762830499 
2.680000000001231, -0.47194025573695847 
2.6900000000012523, -0.4699277871329457 
2.7000000000012734, -0.46763122302529503 
2.7100000000012945, -0.46520942600432846 
2.7200000000013156, -0.4628416357514157 
2.7300000000013367, -0.4606689749457743 
2.740000000001358, -0.4587649118024316 
2.750000000001379, -0.45714135589821747 
2.7600000000014, -0.4557724339200736 
2.770000000001421, -0.45461809699440475 
2.780000000001442, -0.4536400984641105 
2.7900000000014633, -0.4528103235814548 
2.8000000000014844, -0.4521141510145451 
2.8100000000015055, -0.45155170305232967 
2.8200000000015266, -0.45113916625221534 
2.8300000000015477, -0.4509116501293282 
2.840000000001569, -0.4509286545746517 
2.85000000000159, -0.45128319414418916 
2.860000000001611, -0.4521158103431393 
2.870000000001632, -0.4536346332330872 
2.8800000000016532, -0.4561411551175074 
2.8900000000016743, -0.46005550383682675 
2.9000000000016954, -0.46591860041443744 
2.9100000000017165, -0.4743144377046834 
2.9200000000017377, -0.48561739987144525 
2.9300000000017588, -0.4995234551190574 
2.94000000000178, -0.514642550109859 
2.950000000001801, -0.5288054160756485 
2.960000000001822, -0.5402128752978747 
2.970000000001843, -0.5483200243388312 
2.9800000000018643, -0.5536231652548642 
2.9900000000018854, -0.5569454905893348 
3.0000000000019065, -0.5589865582241037 
3.0100000000019276, -0.5602185629488889 
3.0200000000019487, -0.5609300633094162 
3.03000000000197, -0.5612888241232241 
3.040000000001991, -0.5613868034400973 
3.050000000002012, -0.5612663497030083 
3.060000000002033, -0.5609337826829756 
3.070000000002054, -0.5603661451848547 
3.0800000000020753, -0.5595165559071584 
3.0900000000020964, -0.5583245890225073 
3.1000000000021175, -0.5567383234703526 
3.1100000000021386, -0.5547486590991251 
3.1200000000021597, -0.5524209565485874 
3.130000000002181, -0.549896748542726 
3.140000000002202, -0.5473534892064953 
3.150000000002223, -0.544946918174709 
3.160000000002244, -0.5427741741312928 
3.1700000000022652, -0.5408714882213597 
3.1800000000022863, -0.53923337177298 
3.1900000000023074, -0.5378352898492863 
3.2000000000023285, -0.5366503150919557 
3.2100000000023496, -0.5356583113995699 
3.2200000000023707, -0.5348497365341537 
3.230000000002392, -0.5342266248782782 
3.240000000002413, -0.5338026109877958 
3.250000000002434, -0.5336030478440964 
3.260000000002455, -0.5336657464811847 
3.2700000000024763, -0.534042612400339 
3.2800000000024974, -0.5348023017607733 
3.2900000000025185, -0.5360337088751584 
3.3000000000025396, -0.537849260356901 
3.3100000000025607, -0.5403850773802777 
3.3200000000025818, -0.5437914180997035 
3.330000000002603, -0.5482015951018051 
3.340000000002624, -0.5536650372676448 
3.350000000002645, -0.5600442466475504 
3.360000000002666, -0.5669245848749979 
3.3700000000026873, -0.5736465222601386 
3.3800000000027084, -0.5795277736157446 
3.3900000000027295, -0.5841457688716847 
3.4000000000027506, -0.5874462113346497 
3.4100000000027717, -0.5896306639817102 
3.420000000002793, -0.5909793930656915 
3.430000000002814, -0.5917381776409362 
3.440000000002835, -0.5920815722746912 
3.450000000002856, -0.5921155289889826 
3.460000000002877, -0.5918894077674483 
3.4700000000028983, -0.5914039456635767 
3.4800000000029194, -0.5906110114256704 
3.4900000000029405, -0.5894046502438062 
3.5000000000029616, -0.58760632240084 
3.5100000000029827, -0.5849561297816941 
3.520000000003004, -0.5811401570967731 
3.530000000003025, -0.5758992887099886 
3.540000000003046, -0.5692259755261829 
3.550000000003067, -0.5615251900815172 
3.5600000000030882, -0.5535395780199499 
3.5700000000031094, -0.546037724557338 
3.5800000000031305, -0.5395286112791507 
3.5900000000031516, -0.5341948111178024 
3.6000000000031727, -0.5299889418015865 
3.6100000000031938, -0.5267576392081671 
3.620000000003215, -0.5243248135159004 
3.630000000003236, -0.5225308186804651 
3.640000000003257, -0.5212446381557948 
3.650000000003278, -0.5203638122514214 
3.6600000000032993, -0.5198103545335692 
3.6700000000033204, -0.5195263191672049 
3.6800000000033415, -0.5194703024919948 
3.6900000000033626, -0.5196151417365046 
3.7000000000033837, -0.5199467059000848 
3.710000000003405, -0.520463516228227 
3.720000000003426, -0.5211766972561754 
3.730000000003447, -0.5221092453105414 
3.740000000003468, -0.5232927593112395 
3.750000000003489, -0.5247588983183519 
3.7600000000035103, -0.526522864322217 
3.7700000000035314, -0.5285591343455237 
3.7800000000035525, -0.5307777272392318 
3.7900000000035736, -0.5330200041541178 
3.8000000000035947, -0.535092190464024 
3.810000000003616, -0.536828149317793 
3.820000000003637, -0.5381407822890603 
3.830000000003658, -0.5390282723984279 
3.840000000003679, -0.5395424432668656 
3.8500000000037002, -0.5397498242720823 
3.8600000000037213, -0.5397052385654217 
3.8700000000037424, -0.5394391695502898 
3.8800000000037635, -0.5389518533525692 
3.8900000000037847, -0.5382068765703759 
3.9000000000038058, -0.5371185755508497 
3.910000000003827, -0.5355281511181661 
3.920000000003848, -0.5331648861174163 
3.930000000003869, -0.5295991053208279 
3.94000000000389, -0.5242300966708141 
3.9500000000039113, -0.5164232546254202 
3.9600000000039324, -0.5059205527529502 
3.9700000000039535, -0.4933549986479072 
3.9800000000039746, -0.48025490125870823 
3.9900000000039957, -0.4682782364162712 
4.000000000004016, -0.4584183563079079 
4.010000000003993, -0.4508657481233704 
4.02000000000397, -0.4453301994825458 
4.030000000003946, -0.4413741390914104 
4.040000000003923, -0.4385900454972468 
4.0500000000039, -0.4366568092401694 
4.0600000000038765, -0.43534007792106505 
4.070000000003853, -0.4344754871269324 
4.08000000000383, -0.4339508387268339 
4.090000000003807, -0.4336920223220271 
4.100000000003783, -0.4336532368911651 
4.11000000000376, -0.4338108743675028 
4.120000000003737, -0.4341602819717667 
4.130000000003713, -0.43471467128645375 
4.14000000000369, -0.43550529524661236 
4.150000000003667, -0.43658142394949123 
4.1600000000036434, -0.4380074472947804 
4.17000000000362, -0.4398526702303121 
4.180000000003597, -0.44216799133158835 
4.1900000000035735, -0.444946170174882 
4.20000000000355, -0.4480754649058614 
4.210000000003527, -0.4513204868672177 
4.220000000003504, -0.4543719327504391 
4.23000000000348, -0.4569581633673928 
4.240000000003457, -0.45894033617599234 
4.250000000003434, -0.46032267454848325 
4.26000000000341, -0.46119470847084704 
4.270000000003387, -0.4616659557366417 
4.280000000003364, -0.46182684246303535 
4.2900000000033405, -0.4617343351652729 
4.300000000003317, -0.46140920247889283 
4.310000000003294, -0.4608349149801062 
4.320000000003271, -0.459953583877864 
4.330000000003247, -0.45865902020323723 
4.340000000003224, -0.4567933978276882 
4.350000000003201, -0.45416484249154604 
4.360000000003177, -0.45061253316562483 
4.370000000003154, -0.44612612344345626 
4.380000000003131, -0.44095203418606843 
4.390000000003107, -0.43556223062579935 
4.400000000003084, -0.43046356902655375 
4.410000000003061, -0.4260023861150423 
4.4200000000030375, -0.422305759656631 
4.430000000003014, -0.41934070732597284 
4.440000000002991, -0.41700047825071157 
4.450000000002968, -0.41516517649594425 
4.460000000002944, -0.4137310523843932 
4.470000000002921, -0.4126198849532095 
4.480000000002898, -0.4117792248463844 
4.490000000002874, -0.4111798633779412 
4.500000000002851, -0.4108136149481595 
4.510000000002828, -0.4106927789004363 
4.520000000002804, -0.4108519550423031 
4.530000000002781, -0.4113527433608207 
4.540000000002758, -0.4122919022470879 
4.5500000000027345, -0.4138133572342568 
4.560000000002711, -0.4161232297493105 
4.570000000002688, -0.4195029524124629 
4.580000000002665, -0.4243050252426007 
4.590000000002641, -0.43089561909940377 
4.600000000002618, -0.43948799081702994 
4.610000000002595, -0.4498475989768137 
4.620000000002571, -0.46103851240935356 
4.630000000002548, -0.47160132534142135 
4.640000000002525, -0.4802656316668627 
4.6500000000025015, -0.486560599397977 
4.660000000002478, -0.4907540607701346 
4.670000000002455, -0.4934037678893614 
4.6800000000024315, -0.49502327435047766 
4.690000000002408, -0.4959765440333629 
4.700000000002385, -0.49649169101429835 
4.710000000002362, -0.4967011963864767 
4.720000000002338, -0.49667448391097685 
4.730000000002315, -0.49643802514567037 
4.740000000002292, -0.495986484654739 
4.750000000002268, -0.4952899437354671 
4.760000000002245, -0.49430299670251837 
4.770000000002222, -0.49298190364117883 
4.7800000000021985, -0.4913124325215926 
4.790000000002175, -0.48933951794659486 
4.800000000002152, -0.4871766813392807 
4.810000000002129, -0.48497871085010774 
4.820000000002105, -0.48289091722327304 
4.830000000002082, -0.48100914315010634 
4.840000000002059, -0.4793705028801593 
4.850000000002035, -0.47796802883871603 
4.860000000002012, -0.4767724243739811 
4.870000000001989, -0.4757498710546678 
4.880000000001965, -0.47487284253789497 
4.890000000001942, -0.4741252351576491 
