t, s[1].omega / s[0].omega 
0, -0.9699979445125329 
0.009999999999999995, -0.969722272069478 
0.019999999999999934, -0.9693010555102124 
0.029999999999999874, -0.9687265711998019 
0.04000000000000012, -0.9680143603522218 
0.050000000000000405, -0.9672197076788209 
0.06000000000000069, -0.9664387188870219 
0.07000000000000098, -0.9657914323653816 
0.08000000000000126, -0.9653866772630518 
0.09000000000000155, -0.9652854835855481 
0.10000000000000184, -0.9654852725598383 
0.11000000000000212, -0.9659257173726286 
0.12000000000000241, -0.9665081162871216 
0.130000000000002, -0.9671252767797518 
0.1400000000000009, -0.9676911752069495 
0.1499999999999998, -0.9681557339633545 
0.1599999999999987, -0.9684996305684667 
0.1699999999999976, -0.9687136149974998 
0.1799999999999965, -0.9687776387162816 
0.1899999999999954, -0.9686604767612365 
0.1999999999999943, -0.9683427685640119 
0.2099999999999932, -0.9678419522567797 
0.2199999999999921, -0.9672221963702999 
0.229999999999991, -0.9665925703091096 
0.2399999999999899, -0.9660929641000416 
0.2499999999999888, -0.9658565268446279 
0.2599999999999877, -0.9659600651226732 
0.2699999999999866, -0.9664003265985818 
0.2799999999999855, -0.9671090525297943 
0.2899999999999844, -0.9679843369260408 
0.2999999999999833, -0.9689213464851737 
0.3099999999999822, -0.9698366688686633 
0.3199999999999811, -0.9706779757284059 
0.32999999999998, -0.9714137390695153 
0.3399999999999789, -0.9720102132069549 
0.3499999999999778, -0.9724169732954118 
0.35999999999997667, -0.9725808381594956 
0.36999999999997557, -0.9724790652092357 
0.37999999999997447, -0.972140192064828 
0.38999999999997337, -0.97164322485091 
0.39999999999997227, -0.9711131818004496 
0.40999999999997117, -0.9707140655631153 
0.41999999999997006, -0.970613332861487 
0.42999999999996896, -0.9709165861173453 
0.43999999999996786, -0.9716254394831936 
0.44999999999996676, -0.9726561347036475 
0.45999999999996566, -0.9738889992606982 
0.46999999999996456, -0.9752087824146307 
0.47999999999996346, -0.9765261620436173 
0.48999999999996235, -0.9777799720538725 
0.49999999999996125, -0.9789201357594272 
0.5099999999999602, -0.9798836706328631 
0.519999999999959, -0.9805904608445168 
0.529999999999958, -0.9809740360380442 
0.5399999999999568, -0.9810211913491412 
0.5499999999999557, -0.9807816316003845 
0.5599999999999546, -0.9803538950624412 
0.5699999999999535, -0.9798803162788953 
0.5799999999999524, -0.9795490769868933 
0.5899999999999513, -0.9795616454174385 
0.5999999999999502, -0.9800516719500086 
0.6099999999999491, -0.9810226655967642 
0.619999999999948, -0.9823688852477105 
0.6299999999999469, -0.9839446162193135 
0.6399999999999458, -0.9856172424277448 
0.6499999999999447, -0.9872871205649321 
0.6599999999999436, -0.9888814575347018 
0.6699999999999425, -0.9903303675973834 
0.6799999999999414, -0.9915447016517579 
0.6899999999999403, -0.9924255811498096 
0.6999999999999392, -0.9929097543832138 
0.7099999999999381, -0.9930065027931366 
0.719999999999937, -0.9927909501675317 
0.7299999999999359, -0.9923808939457781 
0.7399999999999348, -0.9919359178470915 
0.7499999999999337, -0.9916654358539775 
0.7599999999999326, -0.9917906836349557 
0.7699999999999315, -0.992447881452519 
0.7799999999999304, -0.9936206067300494 
0.7899999999999293, -0.9951750382475101 
0.7999999999999282, -0.9969451388731865 
0.8099999999999271, -0.9987892796152071 
0.819999999999926, -1.000604530572991 
0.8299999999999249, -1.0023129041074406 
0.8399999999999238, -1.003833779622008 
0.8499999999999227, -1.0050674830248774 
0.8599999999999216, -1.0059175866815144 
0.8699999999999205, -1.0063408029487604 
0.8799999999999194, -1.006371909051135 
0.8899999999999183, -1.0061048640158536 
0.8999999999999172, -1.005671539384502 
0.9099999999999161, -1.0052476229328016 
0.919999999999915, -1.0050545759733909 
0.9299999999999139, -1.0053008537668984 
0.9399999999999128, -1.006078937637107 
0.9499999999999117, -1.0073259183078462 
0.9599999999999106, -1.0088866653631725 
0.9699999999999095, -1.010597498518954 
0.9799999999999084, -1.0123286070149324 
0.9899999999999073, -1.013988908351596 
0.9999999999999062, -1.015508381720313 
1.0099999999999052, -1.0168119131178563 
1.019999999999904, -1.0178102908520514 
1.029999999999903, -1.0184283382674313 
1.039999999999902, -1.0186480236285704 
1.0499999999999008, -1.0185208230610103 
1.0599999999998997, -1.018148753964824 
1.0699999999998986, -1.0176735612336045 
1.0799999999998975, -1.017282095693339 
1.0899999999998964, -1.0171833088046185 
1.0999999999998953, -1.0175268538390125 
1.1099999999998942, -1.0183279726504035 
1.119999999999893, -1.0194822978773295 
1.129999999999892, -1.0208398024784575 
1.1399999999998909, -1.0222618717719547 
1.1499999999998898, -1.0236441990528453 
1.1599999999998887, -1.0249169166599403 
1.1699999999998876, -1.0260275829115038 
1.1799999999998865, -1.0269188714354602 
1.1899999999998854, -1.0275247799841596 
1.1999999999998843, -1.027797177688389 
1.2099999999998832, -1.0277381555725835 
1.219999999999882, -1.027406898217411 
1.229999999999881, -1.0269095806185033 
1.2399999999998799, -1.0263955702098213 
1.2499999999998788, -1.0260457795178908 
1.2599999999998777, -1.0260193514395108 
1.2699999999998766, -1.026381747355794 
1.2799999999998755, -1.0270873038075246 
1.2899999999998744, -1.0280240035731094 
1.2999999999998733, -1.029063821191951 
1.3099999999998722, -1.030093909400052 
1.319999999999871, -1.031033377768778 
1.32999999999987, -1.0318338100900868 
1.3399999999998689, -1.0324629965116139 
1.3499999999998678, -1.0328852180327146 
1.3599999999998666, -1.0330594062714618 
1.3699999999998655, -1.032961193609811 
1.3799999999998644, -1.0326074729707855 
1.3899999999998633, -1.032064146902684 
1.3999999999998622, -1.0314433292740082 
1.4099999999998611, -1.030893206579763 
1.41999999999986, -1.0305623466090228 
1.429999999999859, -1.0305426408554026 
1.4399999999998578, -1.03083873031556 
1.4499999999998567, -1.0313841246855158 
1.4599999999998556, -1.0320725751515232 
1.4699999999998545, -1.0327873794061075 
1.4799999999998534, -1.0334298229653196 
1.4899999999998523, -1.0339369155111222 
1.4999999999998512, -1.0342796439799746 
1.5099999999998501, -1.0344453840292567 
1.519999999999849, -1.0344190035077214 
1.529999999999848, -1.0341812042565446 
1.5399999999998468, -1.033727106859127 
1.5499999999998457, -1.0330873978217143 
1.5599999999998446, -1.0323376939293132 
1.5699999999998435, -1.0315941798869068 
1.5799999999998424, -1.0309896485999948 
1.5899999999998413, -1.030630625610235 
1.5999999999998402, -1.0305632215464469 
1.6099999999998391, -1.0307668241182317 
1.619999999999838, -1.0311627944403359 
1.629999999999837, -1.0316347274876025 
1.6399999999998358, -1.0320638152168968 
1.6499999999998347, -1.0323608782640006 
1.6599999999998336, -1.0324788443662307 
1.6699999999998325, -1.0324066595124322 
1.6799999999998314, -1.032150185878084 
1.6899999999998303, -1.0317128622225802 
1.6999999999998292, -1.0310938812647448 
1.709999999999828, -1.0303055439982045 
1.719999999999827, -1.0293931731461712 
1.729999999999826, -1.0284427604579855 
1.7399999999998248, -1.027569591868746 
1.7499999999998237, -1.02688828338157 
1.7599999999998226, -1.0264796844791928 
1.7699999999998215, -1.0263688583770292 
1.7799999999998204, -1.0265114926524053 
1.7899999999998193, -1.0267987441247841 
1.7999999999998182, -1.027094124972919 
1.809999999999817, -1.0272783425746892 
1.819999999999816, -1.0272732671131193 
1.8299999999998149, -1.0270468075627357 
1.8399999999998138, -1.0266051196701307 
1.8499999999998127, -1.0259717379044593 
1.8599999999998116, -1.0251665917467314 
1.8699999999998105, -1.0242046787032586 
1.8799999999998094, -1.0231140197902808 
1.8899999999998083, -1.0219544157208178 
1.8999999999998072, -1.020821157829279 
1.909999999999806, -1.0198291688081011 
1.919999999999805, -1.019085293969089 
1.9299999999998039, -1.0186586324908746 
1.9399999999998028, -1.0185493155382874 
1.9499999999998017, -1.0186716274655485 
1.9599999999998006, -1.0188814803980322 
1.9699999999997995, -1.019031986652746 
1.9799999999997984, -1.019010875033966 
1.9899999999997973, -1.0187520491242152 
1.9999999999997962, -1.0182380800165116 
2.0099999999998173, -1.0174921019175032 
2.0199999999998384, -1.016553326496609 
2.0299999999998595, -1.0154544613987675 
2.0399999999998806, -1.0142226956311289 
2.0499999999999017, -1.0128993799256134 
2.059999999999923, -1.011557184309793 
2.069999999999944, -1.010300149734415 
2.079999999999965, -1.0092461551495462 
2.089999999999986, -1.0084987732429438 
2.100000000000007, -1.0081096462776764 
2.1100000000000283, -1.0080407551954824 
2.1200000000000494, -1.0081652642141936 
2.1300000000000705, -1.0083202760277203 
2.1400000000000916, -1.0083625471492723 
2.1500000000001127, -1.0081912932063786 
2.160000000000134, -1.0077536140780268 
2.170000000000155, -1.0070476380360214 
2.180000000000176, -1.0061113374131974 
2.190000000000197, -1.0049934690089386 
2.2000000000002182, -1.0037323011205448 
2.2100000000002393, -1.0023614418902635 
2.2200000000002604, -1.0009313666973225 
2.2300000000002815, -0.9995241019967289 
2.2400000000003026, -0.9982494448455373 
2.2500000000003237, -0.997224828628764 
2.260000000000345, -0.9965434931133589 
2.270000000000366, -0.9962321409793411 
2.280000000000387, -0.9962203144178523 
2.290000000000408, -0.9963610467108311 
2.3000000000004293, -0.9964919296764769 
2.3100000000004504, -0.9964813235742076 
2.3200000000004715, -0.9962424742345557 
2.3300000000004926, -0.9957379330222936 
2.3400000000005137, -0.9949804800384827 
2.3500000000005348, -0.9940155622840927 
2.360000000000556, -0.9928904763972619 
2.370000000000577, -0.9916393516877794 
2.380000000000598, -0.990295428635457 
2.390000000000619, -0.9889132032463273 
2.4000000000006403, -0.9875791443443898 
2.4100000000006614, -0.9864029914545676 
2.4200000000006825, -0.9854942136123064 
2.4300000000007036, -0.9849297154112991 
2.4400000000007247, -0.9847165983019438 
2.450000000000746, -0.984772394433334 
2.460000000000767, -0.9849524225107481 
2.470000000000788, -0.9851062689287526 
2.480000000000809, -0.985116890999075 
2.49000000000083, -0.9849130484881927 
2.5000000000008513, -0.9844725464895613 
2.5100000000008724, -0.9838166229387919 
2.5200000000008935, -0.9829864391990997 
2.5300000000009146, -0.9820160938807682 
2.5400000000009357, -0.9809276443879673 
2.550000000000957, -0.9797493658669965 
2.560000000000978, -0.9785366720764334 
2.570000000000999, -0.9773779523654403 
2.58000000000102, -0.9763805429027949 
2.5900000000010412, -0.9756437039678245 
2.6000000000010624, -0.9752291392130039 
2.6100000000010835, -0.9751343173315322 
2.6200000000011046, -0.9752813421205002 
2.6300000000011257, -0.9755407968425571 
2.6400000000011468, -0.9757789725934383 
2.650000000001168, -0.9758936620119844 
2.660000000001189, -0.9758276473256042 
2.67000000000121, -0.9755687641715529 
2.680000000001231, -0.9751366157188665 
2.6900000000012523, -0.974556951083655 
2.7000000000012734, -0.9738431428081442 
2.7100000000012945, -0.973002107786599 
2.7200000000013156, -0.9720566924786764 
2.7300000000013367, -0.9710638997675215 
2.740000000001358, -0.9701163706341649 
2.750000000001379, -0.9693240570480469 
2.7600000000014, -0.968782558005155 
2.770000000001421, -0.96854417017195 
2.780000000001442, -0.9686014058058222 
2.7900000000014633, -0.9688848444535799 
2.8000000000014844, -0.9692825684697248 
2.8100000000015055, -0.9696775546211097 
2.8200000000015266, -0.9699804000221433 
2.8300000000015477, -0.9701431812364412 
2.840000000001569, -0.9701554618834052 
2.85000000000159, -0.9700253194284272 
2.860000000001611, -0.9697557121605057 
2.870000000001632, -0.9693366673541288 
2.8800000000016532, -0.9687613794707501 
2.8900000000016743, -0.9680504579382059 
2.9000000000016954, -0.9672659564550539 
2.9100000000017165, -0.9665098921699463 
2.9200000000017377, -0.9659045310612484 
2.9300000000017588, -0.9655550990309528 
2.94000000000178, -0.965514337248661 
2.950000000001801, -0.9657702991930962 
2.960000000001822, -0.9662554104680146 
2.970000000001843, -0.966868040202411 
2.9800000000018643, -0.967502975482648 
2.9900000000018854, -0.9680793018591917 
3.0000000000019065, -0.9685521040646442 
3.0100000000019276, -0.9689042384240121 
3.0200000000019487, -0.9691242482266987 
3.03000000000197, -0.969187773788108 
3.040000000001991, -0.9690620334281013 
3.050000000002012, -0.9687314159823731 
3.060000000002033, -0.9682205058612182 
3.070000000002054, -0.9676012292300353 
3.0800000000020753, -0.9669895932746613 
3.0900000000020964, -0.9665291458125829 
3.1000000000021175, -0.9663498130905431 
3.1100000000021386, -0.9665185350709641 
3.1200000000021597, -0.9670208096205275 
3.130000000002181, -0.9677804822798021 
3.140000000002202, -0.9686926385149671 
3.150000000002223, -0.9696539964628734 
3.160000000002244, -0.9705853725712356 
3.1700000000022652, -0.9714381124711643 
3.1800000000022863, -0.9721807676356746 
3.1900000000023074, -0.9727757307894326 
3.2000000000023285, -0.9731687471623144 
3.2100000000023496, -0.9733081194196569 
3.2200000000023707, -0.973178420623824 
3.230000000002392, -0.9728171463509291 
3.240000000002413, -0.9723113926622815 
3.250000000002434, -0.9717938385084476 
3.260000000002455, -0.9714337960338578 
3.2700000000024763, -0.9713959161625904 
3.2800000000024974, -0.9717730984202754 
3.2900000000025185, -0.9725516425878389 
3.3000000000025396, -0.9736379432224112 
3.3100000000025607, -0.9749095469286918 
3.3200000000025818, -0.9762533113168037 
3.330000000002603, -0.9775839503264683 
3.340000000002624, -0.978842794192286 
3.350000000002645, -0.979978137624603 
3.360000000002666, -0.9809224692498075 
3.3700000000026873, -0.9815940412782198 
3.3800000000027084, -0.9819323957084866 
3.3900000000027295, -0.9819351981922558 
3.4000000000027506, -0.9816617807603933 
3.4100000000027717, -0.981218145347502 
3.420000000002793, -0.9807546260437053 
3.430000000002814, -0.9804659939969731 
3.440000000002835, -0.9805502529775406 
3.450000000002856, -0.981123656938754 
3.460000000002877, -0.9821687336556418 
3.4700000000028983, -0.9835677043714596 
3.4800000000029194, -0.9851733189812228 
3.4900000000029405, -0.9868569869699307 
3.5000000000029616, -0.9885239347463199 
3.5100000000029827, -0.9901034344266868 
3.520000000003004, -0.9915233141995532 
3.530000000003025, -0.9926910332094383 
3.540000000003046, -0.9935101468589523 
3.550000000003067, -0.993928097070481 
3.5600000000030882, -0.9939667477599451 
3.5700000000031094, -0.9937097085491073 
3.5800000000031305, -0.9932811245848121 
3.5900000000031516, -0.9928488407713608 
3.6000000000031727, -0.9926286361371608 
3.6100000000031938, -0.9928343857802023 
3.620000000003215, -0.9935781010495236 
3.630000000003236, -0.9948180906552488 
3.640000000003257, -0.996409350856487 
3.650000000003278, -0.9981876537731277 
3.6600000000032993, -1.0000182009411822 
3.6700000000033204, -1.001804216374299 
3.6800000000033415, -1.003470011599013 
3.6900000000033626, -1.0049333220658996 
3.7000000000033837, -1.006093738420854 
3.710000000003405, -1.0068613479657242 
3.720000000003426, -1.0072057523645503 
3.730000000003447, -1.007173132594058 
3.740000000003468, -1.0068639802801724 
3.750000000003489, -1.006416190308724 
3.7600000000035103, -1.0060136715022459 
3.7700000000035314, -1.005880372906464 
3.7800000000035525, -1.0062090683835794 
3.7900000000035736, -1.007062608535784 
3.8000000000035947, -1.0083555111231668 
3.810000000003616, -1.0099275602813467 
3.820000000003637, -1.0116209368058056 
3.830000000003658, -1.0133142278342069 
3.840000000003679, -1.014922838664996 
3.8500000000037002, -1.0163791975283514 
3.8600000000037213, -1.017607639376329 
3.8700000000037424, -1.0185205742019923 
3.8800000000037635, -1.019051042315351 
3.8900000000037847, -1.0191928201498706 
3.9000000000038058, -1.019006365991769 
3.910000000003827, -1.0185995084900958 
3.920000000003848, -1.018120703287838 
3.930000000003869, -1.0177625611522811 
3.94000000000389, -1.01772769478783 
3.9500000000039113, -1.018142070770574 
3.9600000000039324, -1.0189946014669657 
3.9700000000039535, -1.0201686483266728 
3.9800000000039746, -1.0215154787399674 
3.9900000000039957, -1.0229033253451376 
4.000000000004016, -1.0242355185346428 
4.010000000003993, -1.0254479636313707 
4.02000000000397, -1.0264904784284252 
4.030000000003946, -1.0273058653169729 
4.040000000003923, -1.0278306369283567 
4.0500000000039, -1.0280242106420827 
4.0600000000038765, -1.0278981572458283 
4.070000000003853, -1.0275192604235743 
4.08000000000383, -1.0270002195306933 
4.090000000003807, -1.0264964511814094 
4.100000000003783, -1.0261879143332502 
4.11000000000376, -1.0262185577094454 
4.120000000003737, -1.0266312367947532 
4.130000000003713, -1.0273650625255597 
4.14000000000369, -1.028303957368567 
4.150000000003667, -1.029322152539901 
4.1600000000036434, -1.0303122156225029 
4.17000000000362, -1.0311998954725368 
4.180000000003597, -1.0319419564214742 
4.1900000000035735, -1.0325082157277519 
4.20000000000355, -1.0328632549580954 
4.210000000003527, -1.0329683507467506 
4.220000000003504, -1.0328052940926886 
4.23000000000348, -1.0323988218683282 
4.240000000003457, -1.0318222871795353 
4.250000000003434, -1.0311943125505536 
4.26000000000341, -1.0306651709816255 
4.270000000003387, -1.0303753971005936 
4.280000000003364, -1.0304007608864145 
4.2900000000033405, -1.0307315281312637 
4.300000000003317, -1.0312931300280501 
4.310000000003294, -1.0319759924791208 
4.320000000003271, -1.0326645998778998 
4.330000000003247, -1.0332655615380126 
4.340000000003224, -1.033722591732962 
4.350000000003201, -1.03401166112105 
4.360000000003177, -1.0341219766552727 
4.370000000003154, -1.0340385779071637 
4.380000000003131, -1.0337440396913913 
4.390000000003107, -1.0332386418872368 
4.400000000003084, -1.0325602176549915 
4.410000000003061, -1.0317915421852049 
4.4200000000030375, -1.0310531954156326 
4.430000000003014, -1.0304755308593199 
4.440000000002991, -1.0301554534853126 
4.450000000002968, -1.0301274581149085 
4.460000000002944, -1.0303605928491628 
4.470000000002921, -1.0307676966284114 
4.480000000002898, -1.0312285969679096 
4.490000000002874, -1.031627242329533 
4.500000000002851, -1.031881115975749 
4.510000000002828, -1.0319502062816222 
4.520000000002804, -1.0318284118907384 
4.530000000002781, -1.0315232238162284 
4.540000000002758, -1.0310379476341551 
4.5500000000027345, -1.0303732361357676 
4.560000000002711, -1.0295460642803116 
4.570000000002688, -1.0286084602605474 
4.580000000002665, -1.0276524204026125 
4.590000000002641, -1.0267951097905923 
4.600000000002618, -1.0261472190627134 
4.610000000002595, -1.025781581771139 
4.620000000002571, -1.0257124795035986 
4.630000000002548, -1.0258830820078904 
4.640000000002525, -1.0261757087196783 
4.6500000000025015, -1.0264533498373922 
4.660000000002478, -1.0266023301402367 
4.670000000002455, -1.0265521204677843 
4.6800000000024315, -1.0262779970908433 
4.690000000002408, -1.0257911560744137 
4.700000000002385, -1.0251163753927415 
4.710000000002362, -1.0242729199640483 
4.720000000002338, -1.0232769047045045 
4.730000000002315, -1.022160768478604 
4.740000000002292, -1.0209904469561213 
4.750000000002268, -1.0198659339011475 
4.760000000002245, -1.0189027856394457 
4.770000000002222, -1.0182037745312225 
4.7800000000021985, -1.0178288147458894 
4.790000000002175, -1.017763779166052 
4.800000000002152, -1.0179095038606454 
4.810000000002129, -1.0181171789763608 
4.820000000002105, -1.0182437899293328 
4.830000000002082, -1.0181842921495738 
4.840000000002059, -1.0178806049983846 
4.850000000002035, -1.017323118725094 
4.860000000002012, -1.016539846672108 
4.870000000001989, -1.0155703139222398 
4.880000000001965, -1.0144457529443949 
4.890000000001942, -1.013194179784296 
4.900000000001919, -1.0118611762833931 
4.9100000000018955, -1.0105249305760475 
4.920000000001872, -1.0092931392809195 
4.930000000001849, -1.0082832944993172 
