t, s[1].omega / s[0].omega 
0, -0.7799977294751909 
0.009999999999999995, -0.7804363004011299 
0.019999999999999934, -0.7820581889469003 
0.029999999999999874, -0.7844701154325818 
0.04000000000000012, -0.7871341590957854 
0.050000000000000405, -0.7895879169693687 
0.06000000000000069, -0.7915794855186734 
0.07000000000000098, -0.7930503005363091 
0.08000000000000126, -0.7940501800011863 
0.09000000000000155, -0.7946629921580197 
0.10000000000000184, -0.7949646706596075 
0.11000000000000212, -0.7950052018474525 
0.12000000000000241, -0.7948015931698846 
0.130000000000002, -0.7943327747749919 
0.1400000000000009, -0.7935317613678146 
0.1499999999999998, -0.7922744409790232 
0.1599999999999987, -0.7903705262757242 
0.1699999999999976, -0.7875729767803052 
0.1799999999999965, -0.7836329760619062 
0.1899999999999954, -0.7784161681653952 
0.1999999999999943, -0.7720372591956435 
0.2099999999999932, -0.7649046669266035 
0.2199999999999921, -0.7576072420523527 
0.229999999999991, -0.7507169865417762 
0.2399999999999899, -0.7446443850332951 
0.2499999999999888, -0.7396013755187135 
0.2599999999999877, -0.7356352478699285 
0.2699999999999866, -0.7326811270578067 
0.2799999999999855, -0.7306071393350759 
0.2899999999999844, -0.7292484351876888 
0.2999999999999833, -0.7284330299398654 
0.3099999999999822, -0.7280010519546 
0.3199999999999811, -0.7278169103845551 
0.32999999999998, -0.7277739996522401 
0.3399999999999789, -0.7277931726803354 
0.3499999999999778, -0.7278176292490034 
0.35999999999997667, -0.7278071876622133 
0.36999999999997557, -0.727734257570379 
0.37999999999997447, -0.7275825481251326 
0.38999999999997337, -0.7273477584691221 
0.39999999999997227, -0.7270377022745617 
0.40999999999997117, -0.7266690148801318 
0.41999999999997006, -0.726260039309967 
0.42999999999996896, -0.7258231785809117 
0.43999999999996786, -0.7253612801670102 
0.44999999999996676, -0.7248699963337963 
0.45999999999996566, -0.7243440642724618 
0.46999999999996456, -0.7237836211952108 
0.47999999999996346, -0.7231980683891909 
0.48999999999996235, -0.7226076546053793 
0.49999999999996125, -0.7220443421671177 
0.5099999999999602, -0.7215530270475149 
0.519999999999959, -0.7211928639829278 
0.529999999999958, -0.7210374600012252 
0.5399999999999568, -0.7211725989498045 
0.5499999999999557, -0.7216909757779693 
0.5599999999999546, -0.7226846822345177 
0.5699999999999535, -0.7242369601130652 
0.5799999999999524, -0.7264141186873366 
0.5899999999999513, -0.7292563975579385 
0.5999999999999502, -0.7327641049492649 
0.6099999999999491, -0.7368751084064219 
0.619999999999948, -0.7414355167037857 
0.6299999999999469, -0.7461797993659415 
0.6399999999999458, -0.7507518893418269 
0.6499999999999447, -0.754788771740555 
0.6599999999999436, -0.7580355831579073 
0.6699999999999425, -0.760414672672338 
0.6799999999999414, -0.7620036681641936 
0.6899999999999403, -0.7629570481512455 
0.6999999999999392, -0.7634334338634241 
0.7099999999999381, -0.7635574305768402 
0.719999999999937, -0.7634100167114066 
0.7299999999999359, -0.7630321641294522 
0.7399999999999348, -0.7624315628966953 
0.7499999999999337, -0.7615891734609075 
0.7599999999999326, -0.7604672785998174 
0.7699999999999315, -0.7590246627759447 
0.7799999999999304, -0.7572479093721312 
0.7899999999999293, -0.7552067070472679 
0.7999999999999282, -0.7531238547085842 
0.8099999999999271, -0.7514048671757665 
0.819999999999926, -0.7505286726717018 
0.8299999999999249, -0.7507866467421261 
0.8399999999999238, -0.7521100540382415 
0.8499999999999227, -0.754216160402679 
0.8599999999999216, -0.7568211619734982 
0.8699999999999205, -0.7596347687631683 
0.8799999999999194, -0.7623338882835177 
0.8899999999999183, -0.7646563798396555 
0.8999999999999172, -0.7664786297961902 
0.9099999999999161, -0.7678010681416934 
0.919999999999915, -0.7686895691661674 
0.9299999999999139, -0.7692247651183154 
0.9399999999999128, -0.7694736302000051 
0.9499999999999117, -0.7694772471047595 
0.9599999999999106, -0.7692455823651756 
0.9699999999999095, -0.7687529497636592 
0.9799999999999084, -0.7679313177189819 
0.9899999999999073, -0.7666625695691291 
0.9999999999999062, -0.7647771423694153 
1.0099999999999052, -0.7620753687719517 
1.019999999999904, -0.758390801578574 
1.029999999999903, -0.7536915425031624 
1.039999999999902, -0.7481625686259722 
1.0499999999999008, -0.7421890808403951 
1.0599999999998997, -0.7362330028463623 
1.0699999999998986, -0.7306915454169889 
1.0799999999998975, -0.7258232832529746 
1.0899999999998964, -0.7217490825936344 
1.0999999999998953, -0.7184878674532095 
1.1099999999998942, -0.7159934497658863 
1.119999999999893, -0.7141807714338194 
1.129999999999892, -0.7129431901374316 
1.1399999999998909, -0.7121652834818665 
1.1499999999998898, -0.7117336130774229 
1.1599999999998887, -0.7115453846094544 
1.1699999999998876, -0.711513945856593 
1.1799999999998865, -0.7115706512089811 
1.1899999999998854, -0.7116638287218822 
1.1999999999998843, -0.7117564263294083 
1.2099999999998832, -0.711823919042209 
1.219999999999882, -0.7118532076866765 
1.229999999999881, -0.7118418249122643 
1.2399999999998799, -0.7117956213686936 
1.2499999999998788, -0.7117235345046574 
1.2599999999998777, -0.7116304619140231 
1.2699999999998766, -0.7115118521699367 
1.2799999999998755, -0.7113536371310794 
1.2899999999998744, -0.7111379307593546 
1.2999999999998733, -0.7108510514097203 
1.3099999999998722, -0.7104893863510061 
1.319999999999871, -0.7100612483410754 
1.32999999999987, -0.7095863487833788 
1.3399999999998689, -0.7090958104362028 
1.3499999999998678, -0.708634625416708 
1.3599999999998666, -0.7082667219557914 
1.3699999999998655, -0.7080813691251491 
1.3799999999998644, -0.7081986725990841 
1.3899999999998633, -0.7087714424524731 
1.3999999999998622, -0.7099809551631916 
1.4099999999998611, -0.7120249449945386 
1.41999999999986, -0.7150965417378564 
1.429999999999859, -0.7193515410691932 
1.4399999999998578, -0.7248589803438044 
1.4499999999998567, -0.731532103613745 
1.4599999999998556, -0.7390545926970842 
1.4699999999998545, -0.7468549868170554 
1.4799999999998534, -0.7542056930437934 
1.4899999999998523, -0.7604558059820208 
1.4999999999998512, -0.7652602861181512 
1.5099999999998501, -0.7686333887921867 
1.519999999999849, -0.770820712331278 
1.529999999999848, -0.7721294731410027 
1.5399999999998468, -0.772822767620789 
1.5499999999998457, -0.7730860708460907 
1.5599999999998446, -0.7730316229738378 
1.5699999999998435, -0.7727122737135576 
1.5799999999998424, -0.7721317384670562 
1.5899999999998413, -0.7712474122769615 
1.5999999999998402, -0.7699653542913791 
1.6099999999998391, -0.7681282809745076 
1.619999999999838, -0.7654989629719051 
1.629999999999837, -0.76174529324308 
1.6399999999998358, -0.7564428501491138 
1.6499999999998347, -0.7491348781747432 
1.6599999999998336, -0.7395335239782783 
1.6699999999998325, -0.7279282372334256 
1.6799999999998314, -0.7155610751358915 
1.6899999999998303, -0.7043374758703209 
1.6999999999998292, -0.6957955615925995 
1.709999999999828, -0.6903503916932031 
1.719999999999827, -0.6874679944293376 
1.729999999999826, -0.6862807930819521 
1.7399999999998248, -0.6860281433037418 
1.7499999999998237, -0.6861965696697806 
1.7599999999998226, -0.6864915818446898 
1.7699999999998215, -0.6867640032271798 
1.7799999999998204, -0.6869455455897828 
1.7899999999998193, -0.6870056402944483 
1.7999999999998182, -0.6869258206818121 
1.809999999999817, -0.6866854764246365 
1.819999999999816, -0.6862548524003879 
1.8299999999998149, -0.685594222766502 
1.8399999999998138, -0.68466070636756 
1.8499999999998127, -0.6834241656041634 
1.8599999999998116, -0.6818885056122291 
1.8699999999998105, -0.6801061668557962 
1.8799999999998094, -0.6781720254287902 
1.8899999999998083, -0.6761965577621756 
1.8999999999998072, -0.6742752416180122 
1.909999999999806, -0.67247190890346 
1.919999999999805, -0.6708197274204027 
1.9299999999998039, -0.6693320634295152 
1.9399999999998028, -0.668014293014917 
1.9499999999998017, -0.6668718813617314 
1.9599999999998006, -0.6659139956404142 
1.9699999999997995, -0.6651537452078167 
1.9799999999997984, -0.6646064605306248 
1.9899999999997973, -0.6642872129397583 
1.9999999999997962, -0.6642085424673146 
2.0099999999998173, -0.6643791339410586 
2.0199999999998384, -0.664803844996565 
2.0299999999998595, -0.6654850065182314 
2.0399999999998806, -0.6664243506063902 
2.0499999999999017, -0.6676243401793837 
2.059999999999923, -0.6690871120382844 
2.069999999999944, -0.6708088892818096 
2.079999999999965, -0.6727682899253854 
2.089999999999986, -0.6749098666418688 
2.100000000000007, -0.6771304162652478 
2.1100000000000283, -0.6792820015645814 
2.1200000000000494, -0.6812022955193253 
2.1300000000000705, -0.6827627876545369 
2.1400000000000916, -0.6839047378510106 
2.1500000000001127, -0.6846399544352432 
2.160000000000134, -0.6850232279366385 
2.170000000000155, -0.6851200269241534 
2.180000000000176, -0.6849851952637744 
2.190000000000197, -0.6846542993629318 
2.2000000000002182, -0.6841429344792539 
2.2100000000002393, -0.6834499802487118 
2.2200000000002604, -0.6825637756648091 
2.2300000000002815, -0.6814730666080251 
2.2400000000003026, -0.680186482786806 
2.2500000000003237, -0.6787630065471564 
2.260000000000345, -0.6773450762648514 
2.270000000000366, -0.6761571789595331 
2.280000000000387, -0.6754002162185655 
2.290000000000408, -0.6750288151859108 
2.3000000000004293, -0.6746498619204829 
2.3100000000004504, -0.6738869032303725 
2.3200000000004715, -0.6728897719144127 
2.3300000000004926, -0.6721930180482398 
2.3400000000005137, -0.672131601880922 
2.3500000000005348, -0.6726325322233863 
2.360000000000556, -0.6734231081558877 
2.370000000000577, -0.6742534566793851 
2.380000000000598, -0.6749744992061146 
2.390000000000619, -0.6755237574964486 
2.4000000000006403, -0.6758881583042704 
2.4100000000006614, -0.676073755730352 
2.4200000000006825, -0.6760870585000514 
2.4300000000007036, -0.6759246151812814 
2.4400000000007247, -0.6755672992648427 
2.450000000000746, -0.6749779586361128 
2.460000000000767, -0.674103971226924 
2.470000000000788, -0.6728886361107393 
2.480000000000809, -0.6712943010194972 
2.49000000000083, -0.6693318130424533 
2.5000000000008513, -0.6670783752042175 
2.5100000000008724, -0.6646652963692379 
2.5200000000008935, -0.6622387195229769 
2.5300000000009146, -0.6599192274501247 
2.5400000000009357, -0.6577829670036638 
2.550000000000957, -0.6558657391354823 
2.560000000000978, -0.6541779567928669 
2.570000000000999, -0.6527192254006116 
2.58000000000102, -0.651487675337168 
2.5900000000010412, -0.6504839169288494 
2.6000000000010624, -0.6497113172682214 
2.6100000000010835, -0.6491744256867659 
2.6200000000011046, -0.6488769660095125 
2.6300000000011257, -0.6488203714924763 
2.6400000000011468, -0.6490034250817115 
2.650000000001168, -0.6494231375872325 
2.660000000001189, -0.6500765530532753 
2.67000000000121, -0.6509627415452682 
2.680000000001231, -0.6520838020700921 
2.6900000000012523, -0.6534432201841316 
2.7000000000012734, -0.6550396117091901 
2.7100000000012945, -0.6568545354039137 
2.7200000000013156, -0.6588360872214576 
2.7300000000013367, -0.6608861093566016 
2.740000000001358, -0.6628645279631205 
2.750000000001379, -0.6646198191702356 
2.7600000000014, -0.6660346434076361 
2.770000000001421, -0.6670576847157359 
2.780000000001442, -0.6677020946979588 
2.7900000000014633, -0.6680189145295964 
2.8000000000014844, -0.6680674649551507 
2.8100000000015055, -0.6678962586397249 
2.8200000000015266, -0.6675352798441303 
2.8300000000015477, -0.6669951779573482 
2.840000000001569, -0.6662697101624396 
2.85000000000159, -0.6653403603206187 
2.860000000001611, -0.6641843213978833 
2.870000000001632, -0.6627879419283957 
2.8800000000016532, -0.6611648276038306 
2.8900000000016743, -0.6593653914715359 
2.9000000000016954, -0.657439838039104 
2.9100000000017165, -0.6553112244777225 
2.9200000000017377, -0.6526351974968787 
2.9300000000017588, -0.6489683188050737 
2.94000000000178, -0.6443791238115832 
2.950000000001801, -0.639745484665546 
2.960000000001822, -0.6361064967796622 
2.970000000001843, -0.6339010706950832 
2.9800000000018643, -0.6329337671834738 
2.9900000000018854, -0.6327606487960684 
3.0000000000019065, -0.6329821127112034 
3.0100000000019276, -0.6333344188681356 
3.0200000000019487, -0.6336729773621682 
3.03000000000197, -0.6339291731366309 
3.040000000001991, -0.6340738373146322 
3.050000000002012, -0.6340933722437331 
3.060000000002033, -0.6339758626682359 
3.070000000002054, -0.6337038197894324 
3.0800000000020753, -0.6332519591149603 
3.0900000000020964, -0.6325904293927548 
3.1000000000021175, -0.6316947111961552 
3.1100000000021386, -0.6305610631565177 
3.1200000000021597, -0.6292204997757929 
3.130000000002181, -0.6277401212328219 
3.140000000002202, -0.6262065945397313 
3.150000000002223, -0.6247006124679432 
3.160000000002244, -0.623278035341131 
3.1700000000022652, -0.621965937492649 
3.1800000000022863, -0.6207703504615106 
3.1900000000023074, -0.6196878769159666 
3.2000000000023285, -0.6187154018826277 
3.2100000000023496, -0.617855953202721 
3.2200000000023707, -0.6171213000818174 
3.230000000002392, -0.6165326217310035 
3.240000000002413, -0.6161202623697 
3.250000000002434, -0.6159230768859911 
3.260000000002455, -0.615987606844173 
3.2700000000024763, -0.6163673145808166 
3.2800000000024974, -0.6171221193944788 
3.2900000000025185, -0.6183182452051584 
3.3000000000025396, -0.6200276492896559 
3.3100000000025607, -0.6223248641814009 
3.3200000000025818, -0.6252769723996382 
3.330000000002603, -0.6289205150325121 
3.340000000002624, -0.6332206012937587 
3.350000000002645, -0.6380189144497554 
3.360000000002666, -0.6430026069619019 
3.3700000000026873, -0.6477458343575184 
3.3800000000027084, -0.6518410138736302 
3.3900000000027295, -0.6550452064870218 
3.4000000000027506, -0.6573315768144814 
3.4100000000027717, -0.6588267078103558 
3.420000000002793, -0.6597098927259764 
3.430000000002814, -0.6601426470617321 
3.440000000002835, -0.6602406796714051 
3.450000000002856, -0.660070669828911 
3.460000000002877, -0.6596540291856241 
3.4700000000028983, -0.6589676346767825 
3.4800000000029194, -0.6579364247363162 
3.4900000000029405, -0.6564138577557338 
3.5000000000029616, -0.6541458948211047 
3.5100000000029827, -0.6507175915740985 
3.520000000003004, -0.6455020332685778 
3.530000000003025, -0.6376927509948643 
3.540000000003046, -0.6265886114271093 
3.550000000003067, -0.6122195398583642 
3.5600000000030882, -0.5958856859935227 
3.5700000000031094, -0.579802327285805 
3.5800000000031305, -0.5659365236506353 
3.5900000000031516, -0.5551914139833602 
3.6000000000031727, -0.5474881597716827 
3.6100000000031938, -0.5422621168774847 
3.620000000003215, -0.5388603215212084 
3.630000000003236, -0.5367242671702679 
3.640000000003257, -0.5354337868762722 
3.650000000003278, -0.5346929582475413 
3.6600000000032993, -0.53430108857727 
3.6700000000033204, -0.5341253142357782 
3.6800000000033415, -0.5340792241563855 
3.6900000000033626, -0.5341076099255941 
3.7000000000033837, -0.5341763522808297 
3.710000000003405, -0.5342664000073245 
3.720000000003426, -0.5343708371070333 
3.730000000003447, -0.5344937427616672 
3.740000000003468, -0.534648926341977 
3.750000000003489, -0.5348562688081763 
3.7600000000035103, -0.5351342644058553 
3.7700000000035314, -0.5354897122280534 
3.7800000000035525, -0.5359083511959872 
3.7900000000035736, -0.5363518532263163 
3.8000000000035947, -0.5367650924379861 
3.810000000003616, -0.5370919503615122 
3.820000000003637, -0.5372913238513971 
3.830000000003658, -0.5373444468918247 
3.840000000003679, -0.537251590929033 
3.8500000000037002, -0.5370231892641554 
3.8600000000037213, -0.5366714137711379 
3.8700000000037424, -0.5362051339171329 
3.8800000000037635, -0.5356283935185865 
3.8900000000037847, -0.5349416018577512 
3.9000000000038058, -0.5341446912392164 
3.910000000003827, -0.5332409346987046 
3.920000000003848, -0.5322364956852244 
3.930000000003869, -0.5311196612347875 
3.94000000000389, -0.5297814671925825 
3.9500000000039113, -0.5278277813588222 
3.9600000000039324, -0.5243432027978013 
3.9700000000039535, -0.518037090645036 
3.9800000000039746, -0.508316156260034 
3.9900000000039957, -0.4964653444680499 
4.000000000004016, -0.48501527747878886 
4.010000000003993, -0.47585864142959844 
4.02000000000397, -0.46945984559934084 
4.030000000003946, -0.4653715298918056 
4.040000000003923, -0.46291266925920044 
4.0500000000039, -0.4615015637410348 
4.0600000000038765, -0.4607290645893339 
4.070000000003853, -0.46033195366596524 
4.08000000000383, -0.46014830591804073 
4.090000000003807, -0.4600807976880759 
4.100000000003783, -0.4600717286538549 
4.11000000000376, -0.4600875362362825 
4.120000000003737, -0.46011004992969917 
4.130000000003713, -0.4601324118266352 
4.14000000000369, -0.4601580513149487 
4.150000000003667, -0.46020094745765344 
4.1600000000036434, -0.4602848824676733 
4.17000000000362, -0.46043934582971413 
4.180000000003597, -0.460691047901374 
4.1900000000035735, -0.4610524530596581 
4.20000000000355, -0.4615112501132078 
4.210000000003527, -0.4620262725907847 
4.220000000003504, -0.46253456133922344 
4.23000000000348, -0.46296883969274516 
4.240000000003457, -0.46327672092915206 
4.250000000003434, -0.46343077976470337 
4.26000000000341, -0.4634258712139325 
4.270000000003387, -0.46326875185969907 
4.280000000003364, -0.46296691323069145 
4.2900000000033405, -0.46251988738199196 
4.300000000003317, -0.4619123335769276 
4.310000000003294, -0.4611059715724798 
4.320000000003271, -0.4600257735599135 
4.330000000003247, -0.4585329896028763 
4.340000000003224, -0.4563730888620122 
4.350000000003201, -0.45308667043530937 
4.360000000003177, -0.44790493272123905 
4.370000000003154, -0.4397817687870238 
4.380000000003131, -0.42790108782083774 
4.390000000003107, -0.4127057900901022 
4.400000000003084, -0.39634397493500556 
4.410000000003061, -0.38145833926007433 
4.4200000000030375, -0.36959443699336075 
4.430000000003014, -0.3609174070501625 
4.440000000002991, -0.35486136893742165 
4.450000000002968, -0.3507227296947961 
4.460000000002944, -0.3479162062213191 
4.470000000002921, -0.34602145132587286 
4.480000000002898, -0.34475584961636657 
4.490000000002874, -0.34393595490340945 
4.500000000002851, -0.34344641059489833 
4.510000000002828, -0.3432188528635746 
4.520000000002804, -0.34321902122842085 
4.530000000002781, -0.34343997695114103 
4.540000000002758, -0.3438999161271994 
4.5500000000027345, -0.34464357743775165 
4.560000000002711, -0.3457462880895006 
4.570000000002688, -0.3473188266007585 
4.580000000002665, -0.34950866902051764 
4.590000000002641, -0.3524876009354637 
4.600000000002618, -0.3564075172235103 
4.610000000002595, -0.36130510722284803 
4.620000000002571, -0.3669702863307604 
4.630000000002548, -0.37288026109538985 
4.640000000002525, -0.3783423297533949 
4.6500000000025015, -0.38280947003720567 
4.660000000002478, -0.3860944546245713 
4.670000000002455, -0.3883191304924878 
4.6800000000024315, -0.38973181807097707 
4.690000000002408, -0.3905697182487631 
4.700000000002385, -0.3910076248014568 
4.710000000002362, -0.3911565180049483 
4.720000000002338, -0.39107698456944173 
4.730000000002315, -0.3907921294860074 
4.740000000002292, -0.3902970100778306 
4.750000000002268, -0.38956695386887746 
4.760000000002245, -0.3885693676419556 
4.770000000002222, -0.3872833183794565 
4.7800000000021985, -0.3857254445872217 
4.790000000002175, -0.38396919361704585 
4.800000000002152, -0.38213823120455076 
4.810000000002129, -0.38036997952483664 
4.820000000002105, -0.37877178604475015 
4.830000000002082, -0.3773973302722693 
4.840000000002059, -0.3762497681021509 
4.850000000002035, -0.3752995287803781 
4.860000000002012, -0.37450348187051447 
4.870000000001989, -0.37381909899103805 
4.880000000001965, -0.3732125108742703 
4.890000000001942, -0.3726616969729858 
4.900000000001919, -0.37215693366848945 
4.9100000000018955, -0.37170075159674143 
