t, s[1].omega / s[0].omega 
0, -0.2601145203939868 
0.009999999999999995, -0.2723618880656169 
0.019999999999999934, -0.28479998538036433 
0.029999999999999874, -0.2952801161832441 
0.04000000000000012, -0.30270434312244193 
0.050000000000000405, -0.3073470586708614 
0.06000000000000069, -0.3100693914848608 
0.07000000000000098, -0.311639007453098 
0.08000000000000126, -0.3125484255384297 
0.09000000000000155, -0.3130736155608091 
0.10000000000000184, -0.3133619759894798 
0.11000000000000212, -0.31349153330186286 
0.12000000000000241, -0.3135036091846213 
0.130000000000002, -0.31342027132485284 
0.1400000000000009, -0.31325468451509186 
0.1499999999999998, -0.3130188367814773 
0.1599999999999987, -0.3127303779320993 
0.1699999999999976, -0.3124179282616762 
0.1799999999999965, -0.31212248468183335 
0.1899999999999954, -0.31189281691134285 
0.1999999999999943, -0.3117754075388238 
0.2099999999999932, -0.31180226661895505 
0.2199999999999921, -0.3119804181010896 
0.229999999999991, -0.31228609357799536 
0.2399999999999899, -0.3126667763455501 
0.2499999999999888, -0.3130532265896536 
0.2599999999999877, -0.31337821473507627 
0.2699999999999866, -0.313592558695548 
0.2799999999999855, -0.3136702541364226 
0.2899999999999844, -0.31360255019948363 
0.2999999999999833, -0.3133867248609593 
0.3099999999999822, -0.3130145877901467 
0.3199999999999811, -0.3124617859229832 
0.32999999999998, -0.3116758383225159 
0.3399999999999789, -0.3105596358801599 
0.3499999999999778, -0.3089486276934594 
0.35999999999997667, -0.3065881658938897 
0.36999999999997557, -0.3031409780336697 
0.37999999999997447, -0.29829031945163237 
0.38999999999997337, -0.29198546155397503 
0.39999999999997227, -0.28468913933055795 
0.40999999999997117, -0.2772941740985252 
0.41999999999997006, -0.27066487081077806 
0.42999999999996896, -0.2652535207675282 
0.43999999999996786, -0.26108989571538793 
0.44999999999996676, -0.2579786528802764 
0.45999999999996566, -0.25567221162617415 
0.46999999999996456, -0.2539539380397216 
0.47999999999996346, -0.25266065093739426 
0.48999999999996235, -0.2516797106934737 
0.49999999999996125, -0.2509397341629532 
0.5099999999999602, -0.2504024446617842 
0.519999999999959, -0.2500581560067642 
0.529999999999958, -0.24992591327247862 
0.5399999999999568, -0.2500594322989037 
0.5499999999999557, -0.25056092388527085 
0.5599999999999546, -0.25160624599195036 
0.5699999999999535, -0.25348537982575625 
0.5799999999999524, -0.25665694149384943 
0.5899999999999513, -0.2617874761728194 
0.5999999999999502, -0.26965583625459283 
0.6099999999999491, -0.2806306495641665 
0.619999999999948, -0.29349359899464367 
0.6299999999999469, -0.30466790385459336 
0.6399999999999458, -0.3103809569670769 
0.6499999999999447, -0.3103424754530151 
0.6599999999999436, -0.30733054860609255 
0.6699999999999425, -0.30393778026827756 
0.6799999999999414, -0.3012639309130514 
0.6899999999999403, -0.299441682152104 
0.6999999999999392, -0.29828337341196054 
0.7099999999999381, -0.2975758868911619 
0.719999999999937, -0.2971592596203475 
0.7299999999999359, -0.2969290241156112 
0.7399999999999348, -0.296821974083083 
0.7499999999999337, -0.2968031505807623 
0.7599999999999326, -0.29685741771738317 
0.7699999999999315, -0.29698521854346055 
0.7799999999999304, -0.2972014402402775 
0.7899999999999293, -0.2975362025214609 
0.7999999999999282, -0.29803608903893103 
0.8099999999999271, -0.2987637646397996 
0.819999999999926, -0.29979303641162386 
0.8299999999999249, -0.3011951662368024 
0.8399999999999238, -0.30301176464242696 
0.8499999999999227, -0.30521475748333443 
0.8599999999999216, -0.3076710750794362 
0.8699999999999205, -0.31014964411233337 
0.8799999999999194, -0.3123935199017849 
0.8899999999999183, -0.3142176444884357 
0.8999999999999172, -0.31555786642488426 
0.9099999999999161, -0.316447900945544 
0.919999999999915, -0.31696467695071323 
0.9299999999999139, -0.3171846773911638 
0.9399999999999128, -0.3171627559179019 
0.9499999999999117, -0.31692601848145424 
0.9599999999999106, -0.3164738688434748 
0.9699999999999095, -0.3157801543070523 
0.9799999999999084, -0.3147984640349545 
0.9899999999999073, -0.3134757117162309 
0.9999999999999062, -0.31177973544751936 
1.0099999999999052, -0.3097376775722912 
1.019999999999904, -0.30746238372767576 
1.029999999999903, -0.3051354888865853 
1.039999999999902, -0.3029459599397149 
1.0499999999999008, -0.3010267070362646 
1.0599999999998997, -0.29943024596407053 
1.0699999999998986, -0.2981433996642767 
1.0799999999998975, -0.2971164048940445 
1.0899999999998964, -0.29628782017828886 
1.0999999999998953, -0.2956000511746174 
1.1099999999998942, -0.29500692569201414 
1.119999999999893, -0.2944759376834929 
1.129999999999892, -0.2939875393559591 
1.1399999999998909, -0.293533512841397 
1.1499999999998898, -0.29311595064109325 
1.1599999999998887, -0.2927477429956472 
1.1699999999998876, -0.2924547459589589 
1.1799999999998865, -0.29227839195026145 
1.1899999999998854, -0.29227323206188294 
1.1999999999998843, -0.2924811262147685 
1.2099999999998832, -0.29283219451402287 
1.219999999999882, -0.2928749613487269 
1.229999999999881, -0.2912940634014898 
1.2399999999998799, -0.2857274287089567 
1.2499999999998788, -0.2742655662396374 
1.2599999999998777, -0.2582345490360785 
1.2699999999998766, -0.24186602896647763 
1.2799999999998755, -0.2285338016371207 
1.2899999999998744, -0.21904080521422226 
1.2999999999998733, -0.2126999360603509 
1.3099999999998722, -0.20855157777384709 
1.319999999999871, -0.20583644659833525 
1.32999999999987, -0.20404851834881618 
1.3399999999998689, -0.2028729888547946 
1.3499999999998678, -0.2021213888975973 
1.3599999999998666, -0.20168681232088165 
1.3699999999998655, -0.2015175072741303 
1.3799999999998644, -0.20160375149629584 
1.3899999999998633, -0.2019745734038645 
1.3999999999998622, -0.20270307210305108 
1.4099999999998611, -0.20392095587959225 
1.41999999999986, -0.2058439854682812 
1.429999999999859, -0.20880825364838018 
1.4399999999998578, -0.2133057195275804 
1.4499999999998567, -0.2199694474368284 
1.4599999999998556, -0.22937889775390796 
1.4699999999998545, -0.24151560869974475 
1.4799999999998534, -0.2550575320748337 
1.4899999999998523, -0.26753611600164257 
1.4999999999998512, -0.27692631004246404 
1.5099999999998501, -0.28290258799355894 
1.519999999999849, -0.286335122568916 
1.529999999999848, -0.2882347182317237 
1.5399999999998468, -0.2892932057710733 
1.5499999999998457, -0.28989510094419585 
1.5599999999998446, -0.29023763335147235 
1.5699999999998435, -0.2904205134607292 
1.5799999999998424, -0.29049508630118775 
1.5899999999998413, -0.2904889251494432 
1.5999999999998402, -0.29041858814255805 
1.6099999999998391, -0.2902974844794705 
1.619999999999838, -0.2901420228079321 
1.629999999999837, -0.2899767312979165 
1.6399999999998358, -0.28983720626627313 
1.6499999999998347, -0.28976896266636587 
1.6599999999998336, -0.28982116624990933 
1.6699999999998325, -0.2900361276683352 
1.6799999999998314, -0.2904366172796472 
1.6899999999998303, -0.2910136099106405 
1.6999999999998292, -0.29171911993599964 
1.709999999999828, -0.2924712703415843 
1.719999999999827, -0.29317500148804837 
1.729999999999826, -0.29374980743041446 
1.7399999999998248, -0.294147956136278 
1.7499999999998237, -0.2943543058131242 
1.7599999999998226, -0.29437297374297283 
1.7699999999998215, -0.2942112061715718 
1.7799999999998204, -0.29386621574375227 
1.7899999999998193, -0.29331496567914617 
1.7999999999998182, -0.292504498366175 
1.809999999999817, -0.29134156047812654 
1.819999999999816, -0.2896853127791207 
1.8299999999998149, -0.2873576235111838 
1.8399999999998138, -0.28419807747251047 
1.8499999999998127, -0.28017952091527465 
1.8599999999998116, -0.2755270404090635 
1.8699999999998105, -0.27070344018380493 
1.8799999999998094, -0.2662127797587971 
1.8899999999998083, -0.2623855773427595 
1.8999999999998072, -0.2593172601195646 
1.909999999999806, -0.2569405373657422 
1.919999999999805, -0.25512230311370765 
1.9299999999998039, -0.2537260473358078 
1.9399999999998028, -0.25263837066996075 
1.9499999999998017, -0.2517752294051703 
1.9599999999998006, -0.2510799949040795 
1.9699999999997995, -0.2505195839022231 
1.9799999999997984, -0.2500815657265357 
1.9899999999997973, -0.24977376542167168 
1.9999999999997962, -0.2496275186252177 
2.0099999999998173, -0.24970588803630278 
2.0199999999998384, -0.2501182763725222 
2.0299999999998595, -0.25104127512470714 
2.0399999999998806, -0.2527365809829229 
2.0499999999999017, -0.2555242796376507 
2.059999999999923, -0.25958496695382133 
2.069999999999944, -0.2643595827221175 
2.079999999999965, -0.26761779580017164 
2.089999999999986, -0.26574148100818085 
2.100000000000007, -0.25708725016705725 
2.1100000000000283, -0.24459186010465278 
2.1200000000000494, -0.23269639470169418 
2.1300000000000705, -0.22362772488566698 
2.1400000000000916, -0.21743608316118107 
2.1500000000001127, -0.2133965772914443 
2.160000000000134, -0.21079396560126837 
2.170000000000155, -0.20911804559421823 
2.180000000000176, -0.20804387201274283 
2.190000000000197, -0.2073750026374923 
2.2000000000002182, -0.20699822435686474 
2.2100000000002393, -0.20685510370691723 
2.2200000000002604, -0.2069265925544014 
2.2300000000002815, -0.20722697547256957 
2.2400000000003026, -0.2078050919857401 
2.2500000000003237, -0.20875219548454377 
2.260000000000345, -0.21021647735731927 
2.270000000000366, -0.21242305728590175 
2.280000000000387, -0.2156916362623515 
2.290000000000408, -0.22042445153784987 
2.3000000000004293, -0.22699905238607299 
2.3100000000004504, -0.2354808672030297 
2.3200000000004715, -0.24522056336237846 
2.3300000000004926, -0.25479577848821394 
2.3400000000005137, -0.2627305995580725 
2.3500000000005348, -0.26837929037399344 
2.360000000000556, -0.2719916182299029 
2.370000000000577, -0.27417017055335324 
2.380000000000598, -0.27545145596662074 
2.390000000000619, -0.27619240651482735 
2.4000000000006403, -0.2766027076008012 
2.4100000000006614, -0.2767993612349298 
2.4200000000006825, -0.2768462772498567 
2.4300000000007036, -0.27677807936856524 
2.4400000000007247, -0.2766144067651681 
2.450000000000746, -0.2763698203211815 
2.460000000000767, -0.27606200016543286 
2.470000000000788, -0.2757184126951157 
2.480000000000809, -0.2753794799600281 
2.49000000000083, -0.2750958555633068 
2.5000000000008513, -0.27491963585922574 
2.5100000000008724, -0.2748924029108807 
2.5200000000008935, -0.2750338238469021 
2.5300000000009146, -0.2753334039083339 
2.5400000000009357, -0.27574807278611607 
2.550000000000957, -0.2762092898840439 
2.560000000000978, -0.27664033458809323 
2.570000000000999, -0.27697662778838283 
2.58000000000102, -0.27717793089818443 
2.5900000000010412, -0.2772272937297418 
2.6000000000010624, -0.27712075933861563 
2.6100000000010835, -0.27685467388483437 
2.6200000000011046, -0.2764141809817823 
2.6300000000011257, -0.27576248056292313 
2.6400000000011468, -0.27482873552810894 
2.650000000001168, -0.2734938893813136 
2.660000000001189, -0.27158003955103366 
2.67000000000121, -0.2688638596107622 
2.680000000001231, -0.2651521589341913 
2.6900000000012523, -0.26043773213829724 
2.7000000000012734, -0.2550436613364038 
2.7100000000012945, -0.2495669736152642 
2.7200000000013156, -0.24459821747297222 
2.7300000000013367, -0.24047216403870744 
2.740000000001358, -0.23723935288282375 
2.750000000001379, -0.2347817490935614 
2.7600000000014, -0.23292926022662924 
2.770000000001421, -0.23152343743612458 
2.780000000001442, -0.23043941321734884 
2.7900000000014633, -0.22958775804213408 
2.8000000000014844, -0.22890970877287495 
2.8100000000015055, -0.22837181209600493 
2.8200000000015266, -0.22796243703321153 
2.8300000000015477, -0.22769133577713388 
2.840000000001569, -0.2275932047601886 
2.85000000000159, -0.2277363600540713 
2.860000000001611, -0.22823736039184128 
2.870000000001632, -0.22927909553374598 
2.8800000000016532, -0.2311152310446905 
2.8900000000016743, -0.2339968346741153 
2.9000000000016954, -0.23785312311735646 
2.9100000000017165, -0.24151682686027756 
2.9200000000017377, -0.24197631583308846 
2.9300000000017588, -0.2358538668195475 
2.94000000000178, -0.22349167337134976 
2.950000000001801, -0.20938731149762213 
2.960000000001822, -0.19753472828426372 
2.970000000001843, -0.1890764689382549 
2.9800000000018643, -0.18347000721312098 
2.9900000000018854, -0.179841003541279 
3.0000000000019065, -0.1774936145684934 
3.0100000000019276, -0.17596885480919333 
3.0200000000019487, -0.17498538395277372 
3.03000000000197, -0.17437817477689393 
3.040000000001991, -0.17405712117506317 
3.050000000002012, -0.1739834402248313 
3.060000000002033, -0.17415893315990677 
3.070000000002054, -0.1746250330897537 
3.0800000000020753, -0.1754708545579394 
3.0900000000020964, -0.1768513507232325 
3.1000000000021175, -0.17901741823647202 
3.1100000000021386, -0.1823561332472419 
3.1200000000021597, -0.18742089923798452 
3.130000000002181, -0.19487641573981812 
3.140000000002202, -0.20518901904599812 
3.150000000002223, -0.21793450175003598 
3.160000000002244, -0.23122320141881542 
3.1700000000022652, -0.2424693508127854 
3.1800000000022863, -0.2502387894728543 
3.1900000000023074, -0.25484794166317754 
3.2000000000023285, -0.25736795044233546 
3.2100000000023496, -0.2587190953110039 
3.2200000000023707, -0.25945570759320014 
3.230000000002392, -0.25986566144459905 
3.240000000002413, -0.26009125063868216 
3.250000000002434, -0.2602032367127104 
3.260000000002455, -0.26023843709940164 
3.2700000000024763, -0.2602181694801864 
3.2800000000024974, -0.2601581751939053 
3.2900000000025185, -0.2600752259348242 
3.3000000000025396, -0.25999239489682907 
3.3100000000025607, -0.259942901236286 
3.3200000000025818, -0.2599711902820834 
3.330000000002603, -0.26012981724771966 
3.340000000002624, -0.26047160671845937 
3.350000000002645, -0.26103734382975263 
3.360000000002666, -0.26183969581885064 
3.3700000000026873, -0.26284665671085655 
3.3800000000027084, -0.26397411130231463 
3.3900000000027295, -0.2651001220403518 
3.4000000000027506, -0.26610139014162315 
3.4100000000027717, -0.26689104051337853 
3.420000000002793, -0.2674334415669083 
3.430000000002814, -0.267732772493264 
3.440000000002835, -0.2678104532144251 
3.450000000002856, -0.2676855701233797 
3.460000000002877, -0.2673624831775089 
3.4700000000028983, -0.2668235745326092 
3.4800000000029194, -0.26602473014951744 
3.4900000000029405, -0.2648944207561002 
3.5000000000029616, -0.26334273641332245 
3.5100000000029827, -0.2612915603081193 
3.520000000003004, -0.2587310011382647 
3.530000000003025, -0.25577755849622685 
3.540000000003046, -0.2526761570457303 
3.550000000003067, -0.2497157469291475 
3.5600000000030882, -0.2471162714709385 
3.5700000000031094, -0.24497325494277003 
3.5800000000031305, -0.24327602839113682 
3.5900000000031516, -0.24195597078133643 
3.6000000000031727, -0.24092702311010403 
3.6100000000031938, -0.2401085743075048 
3.620000000003215, -0.23943510089375564 
3.630000000003236, -0.23885840472221345 
3.640000000003257, -0.23834624951678368 
3.650000000003278, -0.23787967429734072 
3.6600000000032993, -0.2374503965722583 
3.6700000000033204, -0.23705896517864794 
3.6800000000033415, -0.236713345578868 
3.6900000000033626, -0.2364257446103959 
3.7000000000033837, -0.23620066273684737 
3.710000000003405, -0.23599453572632428 
3.720000000003426, -0.2355999238522585 
3.730000000003447, -0.2343783281361446 
3.740000000003468, -0.23087086259199566 
3.750000000003489, -0.22289544935235628 
3.7600000000035103, -0.20931344826078155 
3.7700000000035314, -0.1923382431142655 
3.7800000000035525, -0.1762431731683631 
3.7900000000035736, -0.16372619908794678 
3.8000000000035947, -0.15502480698078266 
3.810000000003616, -0.14925357274599255 
3.820000000003637, -0.1454578687906543 
3.830000000003658, -0.14293738166678724 
3.840000000003679, -0.14124135122388462 
3.8500000000037002, -0.14009520069916898 
3.8600000000037213, -0.13933844946588972 
3.8700000000037424, -0.13888521895489675 
3.8800000000037635, -0.13870296673546265 
3.8900000000037847, -0.13880474347734048 
3.9000000000038058, -0.13925304308201372 
3.910000000003827, -0.14017650563132306 
3.920000000003848, -0.1418039562401014 
3.930000000003869, -0.14452203105103917 
3.94000000000389, -0.14895447618526636 
3.9500000000039113, -0.15601152290323353 
3.9600000000039324, -0.16669146781709787 
3.9700000000039535, -0.18114145820807867 
3.9800000000039746, -0.19691831412365363 
3.9900000000039957, -0.20898544643496902 
4.000000000004016, -0.21407372658407228 
4.010000000003993, -0.21370580621470986 
4.02000000000397, -0.21122266977957102 
4.030000000003946, -0.2086919824682349 
4.040000000003923, -0.2067610518028165 
4.0500000000039, -0.20543890838956275 
4.0600000000038765, -0.2045760510171327 
4.070000000003853, -0.20403092761637182 
4.08000000000383, -0.20370419736460071 
4.090000000003807, -0.20353519796315717 
4.100000000003783, -0.20349274315997073 
4.11000000000376, -0.20356854584623374 
4.120000000003737, -0.20377454772314868 
4.130000000003713, -0.20414385211994324 
4.14000000000369, -0.20473472495444206 
4.150000000003667, -0.20563688752991238 
4.1600000000036434, -0.2069782480872863 
4.17000000000362, -0.2089268648899884 
4.180000000003597, -0.21167506370283337 
4.1900000000035735, -0.21538116248953149 
4.20000000000355, -0.2200469623011386 
4.210000000003527, -0.22537031055257692 
4.220000000003504, -0.23072931652651812 
4.23000000000348, -0.23543272428349243 
4.240000000003457, -0.23906558906293066 
4.250000000003434, -0.24159960260169638 
4.26000000000341, -0.24324168934989002 
4.270000000003387, -0.24424550590392888 
4.280000000003364, -0.2448157480052399 
4.2900000000033405, -0.24509022428477972 
4.300000000003317, -0.2451525675302379 
4.310000000003294, -0.2450494091870108 
4.320000000003271, -0.24480456341620854 
4.330000000003247, -0.24443054406699288 
4.340000000003224, -0.2439393007168147 
4.350000000003201, -0.2433526342662115 
4.360000000003177, -0.24270981009825432 
4.370000000003154, -0.24206785775482867 
4.380000000003131, -0.24149226062886067 
4.390000000003107, -0.24104173334237103 
4.400000000003084, -0.24075438649276998 
4.410000000003061, -0.24063991146088534 
4.4200000000030375, -0.24067798681198563 
4.430000000003014, -0.24082233815076917 
4.440000000002991, -0.24101094289201583 
4.450000000002968, -0.24118080476911524 
4.460000000002944, -0.2412813835856676 
4.470000000002921, -0.24128030879677492 
4.480000000002898, -0.2411600332576623 
4.490000000002874, -0.24090895786139715 
4.500000000002851, -0.24051095059516023 
4.510000000002828, -0.23993453488046906 
4.520000000002804, -0.23912053200122085 
4.530000000002781, -0.23796645195544083 
4.540000000002758, -0.23630934485649885 
4.5500000000027345, -0.23392051427653066 
4.560000000002711, -0.23054810601224837 
4.570000000002688, -0.22605356798228615 
4.580000000002665, -0.2206118201512446 
4.590000000002641, -0.21478017374095854 
4.600000000002618, -0.20926584716330976 
4.610000000002595, -0.2045752371169208 
4.620000000002571, -0.20087159358440618 
4.630000000002548, -0.1980692497889642 
4.640000000002525, -0.19598394479249936 
4.6500000000025015, -0.19442870596087286 
4.660000000002478, -0.19325106412486426 
4.670000000002455, -0.19233906855347496 
4.6800000000024315, -0.19161617505713796 
4.690000000002408, -0.19103415367464854 
4.700000000002385, -0.19056733639634343 
4.710000000002362, -0.19020932771921617 
4.720000000002338, -0.18997260903780538 
4.730000000002315, -0.18989110917946575 
4.740000000002292, -0.19002474535233885 
4.750000000002268, -0.190460663728583 
4.760000000002245, -0.1912914060249172 
4.770000000002222, -0.19251000618828523 
4.7800000000021985, -0.19368835945859353 
4.790000000002175, -0.19333756839374083 
4.800000000002152, -0.18857333414781016 
4.810000000002129, -0.17704171727246698 
4.820000000002105, -0.16054100696504683 
4.830000000002082, -0.14414559080763953 
4.840000000002059, -0.13132879481923243 
