t, s[1].omega / s[0].omega 
0, -1.3799563542933293 
0.009999999999999995, -1.3753797580607967 
0.019999999999999934, -1.3703854790861032 
0.029999999999999874, -1.3649769747156535 
0.04000000000000012, -1.3591579920932284 
0.050000000000000405, -1.3529325669538812 
0.06000000000000069, -1.3463050222845847 
0.07000000000000098, -1.3392799668225708 
0.08000000000000126, -1.3318622933611648 
0.09000000000000155, -1.3240571768322236 
0.10000000000000184, -1.3158700721336893 
0.11000000000000212, -1.3073067116706751 
0.12000000000000241, -1.298373102578535 
0.130000000000002, -1.289075523596852 
0.1400000000000009, -1.279420521564007 
0.1499999999999998, -1.2694149075030803 
0.1599999999999987, -1.2590657522712008 
0.1699999999999976, -1.248380381746216 
0.1799999999999965, -1.2373663715265455 
0.1899999999999954, -1.226031541122415 
0.1999999999999943, -1.214383947619316 
0.2099999999999932, -1.20243187879737 
0.2199999999999921, -1.1901838456934892 
0.229999999999991, -1.1776485745965606 
0.2399999999999899, -1.1648349984695106 
0.2499999999999888, -1.151752247795841 
0.2599999999999877, -1.1384096408521907 
0.2699999999999866, -1.1248166734124971 
0.2799999999999855, -1.110983007893464 
0.2899999999999844, -1.0969184619552204 
0.2999999999999833, -1.0826329965752097 
0.3099999999999822, -1.0681367036175127 
0.3199999999999811, -1.0534397929238688 
0.32999999999998, -1.0385525789566243 
0.3399999999999789, -1.0234854670275988 
0.3499999999999778, -1.0082489391505174 
0.35999999999997667, -0.9928535395579862 
0.36999999999997557, -0.977309859927114 
0.37999999999997447, -0.9616285243606713 
0.38999999999997337, -0.9458201741731568 
0.39999999999997227, -0.9298954525332488 
0.40999999999997117, -0.9138649890158335 
0.41999999999997006, -0.8977393841181612 
0.42999999999996896, -0.8815291937955428 
0.43999999999996786, -0.8652449140725411 
0.44999999999996676, -0.8488969657856134 
0.45999999999996566, -0.8324956795128332 
0.46999999999996456, -0.8160512807454835 
0.47999999999996346, -0.799573875355119 
0.48999999999996235, -0.7830734354080822 
0.49999999999996125, -0.7665597853774424 
0.5099999999999602, -0.750042588799999 
0.519999999999959, -0.7335313354232773 
0.529999999999958, -0.717035328884477 
0.5399999999999568, -0.7005636749600685 
0.5499999999999557, -0.6841252704212423 
0.5599999999999546, -0.6677287925267357 
0.5699999999999535, -0.6513826891807152 
0.5799999999999524, -0.6350951697794247 
0.5899999999999513, -0.6188741967662886 
0.5999999999999502, -0.6027274779110475 
0.6099999999999491, -0.5866624593244537 
0.619999999999948, -0.5706863192159685 
0.6299999999999469, -0.5548059623979553 
0.6399999999999458, -0.5390280155359601 
0.6499999999999447, -0.5233588231409404 
0.6599999999999436, -0.5078044442956959 
0.6699999999999425, -0.4923706501043728 
0.6799999999999414, -0.4770629218507079 
0.6899999999999403, -0.4618864498476877 
0.6999999999999392, -0.4468461329585921 
0.7099999999999381, -0.43194657876688014 
0.719999999999937, -0.41719210437015486 
0.7299999999999359, -0.40258673777148696 
0.7399999999999348, -0.3881342198396668 
0.7499999999999337, -0.37383800680852314 
0.7599999999999326, -0.3597012732842746 
0.7699999999999315, -0.34572691572896175 
0.7799999999999304, -0.3319175563873348 
0.7899999999999293, -0.3182755476241376 
0.7999999999999282, -0.3048029766385318 
0.8099999999999271, -0.2915016705223942 
0.819999999999926, -0.2783732016294454 
0.8299999999999249, -0.2654188932225382 
0.8399999999999238, -0.25263982536700946 
0.8499999999999227, -0.24003684103869755 
0.8599999999999216, -0.2276105524160765 
0.8699999999999205, -0.2153613473269307 
0.8799999999999194, -0.20328939582105604 
0.8899999999999183, -0.1913946568416391 
0.8999999999999172, -0.17967688496919154 
0.9099999999999161, -0.16813563721321467 
0.919999999999915, -0.156770279828095 
0.9299999999999139, -0.14557999513110717 
0.9399999999999128, -0.13456378830177929 
0.9499999999999117, -0.12372049414327373 
0.9599999999999106, -0.11304878378782499 
0.9699999999999095, -0.10254717132965868 
0.9799999999999084, -0.09221402037017352 
0.9899999999999073, -0.08204755046150014 
0.9999999999999062, -0.07204584343584697 
1.0099999999999052, -0.06220684960930589 
1.019999999999904, -0.05252839384999711 
1.029999999999903, -0.043008181501601885 
1.039999999999902, -0.033643804154443006 
1.0499999999999008, -0.02443274525733181 
1.0599999999998997, -0.015372385564403391 
1.0699999999998986, -0.006460008412108057 
1.0799999999998975, 0.000025470717704506853 
1.0899999999998964, 0.000004036448884301177 
1.0999999999998953, 0.000006786833107010733 
1.1099999999998942, 0.000010396542290845752 
1.119999999999893, 0.0000059870120596230065 
1.129999999999892, 0.000013660869058909453 
1.1399999999998909, 0.000009837402553015254 
1.1499999999998898, 0.000014454276152811643 
1.1599999999998887, 0.0000037672069127489446 
1.1699999999998876, 0.000012087390141078524 
1.1799999999998865, 9.806413673638076e-7 
1.1899999999998854, 0.000019137126780330215 
1.1999999999998843, 0.000013440279451526454 
1.2099999999998832, 0.000017900576453689187 
1.219999999999882, 0.00000832348816530965 
1.229999999999881, 0.0000040448605134965886 
1.2399999999998799, 0.000009798127351748826 
1.2499999999998788, 0.000030250624511548852 
1.2599999999998777, 0.000011871133443683423 
1.2699999999998766, 0.000002798190262849194 
1.2799999999998755, 0.000007508386791375594 
1.2899999999998744, 0.0000013514454562307555 
1.2999999999998733, 0.000003218450256014512 
1.3099999999998722, 0.0000028767032247362213 
1.319999999999871, 0.000004571669598259817 
1.32999999999987, 0.00002702848532913494 
1.3399999999998689, 0.000001720452124204701 
1.3499999999998678, 0.0000054039496986948505 
1.3599999999998666, 0.00002758700148243637 
1.3699999999998655, 0.000028664393044873123 
1.3799999999998644, 0.000027119452531468734 
1.3899999999998633, 0.00002685927783446747 
1.3999999999998622, 0.000002683266386815891 
1.4099999999998611, 0.000002018402298926581 
1.41999999999986, 0.000028654494066218 
1.429999999999859, 0.00002821286886903344 
1.4399999999998578, 0.000004415097951950787 
1.4499999999998567, 0.000004551699213928355 
1.4599999999998556, 0.000003217571068523929 
1.4699999999998545, 0.0000040474496510740885 
1.4799999999998534, 0.00001065144140288191 
1.4899999999998523, 0.000012083966472941725 
1.4999999999998512, 0.000011912621548233675 
1.5099999999998501, 0.00001368716945450258 
1.519999999999849, 0.000006408511363047338 
1.529999999999848, 0.000008131136666225034 
1.5399999999998468, 0.00000783218117904245 
1.5499999999998457, 0.000009013891394443181 
1.5599999999998446, 6.397640340553053e-7 
1.5699999999998435, 7.371986693718302e-7 
1.5799999999998424, 0.000012799648890596644 
1.5899999999998413, 0.000011256212915912525 
1.5999999999998402, 0.000014141233202849615 
1.6099999999998391, 0.000010430698301963498 
1.619999999999838, 0.000018178234582079403 
1.629999999999837, 0.000011850878820984221 
1.6399999999998358, 0.000009532879184303294 
1.6499999999998347, 2.6177866507568724e-7 
1.6599999999998336, 0.0000021645169826315496 
1.6699999999998325, 0.000004328035554191399 
1.6799999999998314, 0.000010402035869017452 
1.6899999999998303, 0.000009536042459277076 
1.6999999999998292, 0.000034515503675164426 
1.709999999999828, 0.000016432387748533905 
1.719999999999827, 0.00011895501761422303 
1.729999999999826, 0.00034592567377637456 
1.7399999999998248, 0.0007012303368487121 
1.7499999999998237, 0.0011888043397518299 
1.7599999999998226, 0.0018126382025372772 
1.7699999999998215, 0.0025767836547864356 
1.7799999999998204, 0.003485359850629667 
1.7899999999998193, 0.00454255978149071 
1.7999999999998182, 0.005752656891675923 
1.809999999999817, 0.007120011901888902 
1.819999999999816, 0.008649079845649566 
1.8299999999998149, 0.01034441732342229 
1.8399999999998138, 0.012210689978998287 
1.8499999999998127, 0.014252680202320666 
1.8599999999998116, 0.016475295062470877 
1.8699999999998105, 0.018883574473937435 
1.8799999999998094, 0.02148269959854164 
1.8899999999998083, 0.024278001484482618 
1.8999999999998072, 0.027274969942858926 
1.909999999999806, 0.03047926266070491 
1.919999999999805, 0.03389671454801424 
1.9299999999998039, 0.03753334731438204 
1.9399999999998028, 0.04139537926874519 
1.9499999999998017, 0.04548923533319586 
1.9599999999998006, 0.0498215572589494 
1.9699999999997995, 0.05439921402920916 
1.9799999999997984, 0.05922931242984336 
1.9899999999997973, 0.06431920776440818 
1.9999999999997962, 0.06967651468506166 
2.0099999999998173, 0.07530911810524024 
2.0199999999998384, 0.0812251841535422 
2.0299999999998595, 0.0874331711210028 
2.0399999999998806, 0.09394184034576535 
2.0499999999999017, 0.10076026696995437 
2.059999999999923, 0.10789785049325551 
2.069999999999944, 0.11536432503618578 
2.079999999999965, 0.1231697692131989 
2.089999999999986, 0.13132461550149452 
2.100000000000007, 0.13983965897558062 
2.1100000000000283, 0.14872606526015708 
2.1200000000000494, 0.15799537753463258 
2.1300000000000705, 0.16765952240145734 
2.1400000000000916, 0.17773081440734473 
2.1500000000001127, 0.18822195898129582 
2.160000000000134, 0.19914605352606454 
2.170000000000155, 0.21051658637027584 
2.180000000000176, 0.22234743325685824 
2.190000000000197, 0.23465285100981334 
2.2000000000002182, 0.2474474679857528 
2.2100000000002393, 0.2607462708792921 
2.2200000000002604, 0.2745645874125873 
2.2300000000002815, 0.2889180643994546 
2.2400000000003026, 0.30382264063418685 
2.2500000000003237, 0.3192945140150886 
2.260000000000345, 0.3353501022738011 
2.270000000000366, 0.3520059966448474 
2.280000000000387, 0.3692789077768588 
2.290000000000408, 0.387185603159342 
2.3000000000004293, 0.4057428353186057 
2.3100000000004504, 0.4249672600259345 
2.3200000000004715, 0.44487534376294113 
2.3300000000004926, 0.4654832597063641 
2.3400000000005137, 0.4868067715308043 
2.3500000000005348, 0.5088611043868332 
2.360000000000556, 0.531660802497614 
2.370000000000577, 0.555219572934011 
2.380000000000598, 0.5795501152804967 
2.390000000000619, 0.6046639370964241 
2.4000000000006403, 0.6305711553134776 
2.4100000000006614, 0.6572802839939769 
2.4200000000006825, 0.6847980092088599 
2.4300000000007036, 0.7131289521800902 
2.4400000000007247, 0.7422754222697048 
2.450000000000746, 0.7722371618842515 
2.460000000000767, 0.8030110858938336 
2.470000000000788, 0.8345910187310233 
2.480000000000809, 0.8669674329242911 
2.49000000000083, 0.9001271934173188 
2.5000000000008513, 0.9340533126088796 
2.5100000000008724, 0.9687247215931818 
2.5200000000008935, 1.0041160635587147 
2.5300000000009146, 1.0401975156824506 
2.5400000000009357, 1.0769346461011984 
2.550000000000957, 1.1142883126176302 
2.560000000000978, 1.1522146096709882 
2.570000000000999, 1.1906648697412945 
2.58000000000102, 1.2295857247370416 
2.5900000000010412, 1.2689192320250902 
2.6000000000010624, 1.3086030685951457 
2.6100000000010835, 1.3485707954214181 
2.6200000000011046, 1.3887521924189818 
2.6300000000011257, 1.4290736625368377 
2.6400000000011468, 1.4694587015454041 
2.650000000001168, 1.5098284280393826 
2.660000000001189, 1.5501021661753147 
2.67000000000121, 1.5901980717911683 
2.680000000001231, 1.630033790908013 
2.6900000000012523, 1.6695271382810184 
2.7000000000012734, 1.7085967827257935 
2.7100000000012945, 1.747162925455518 
2.7200000000013156, 1.78514795765976 
2.7300000000013367, 1.82247708404627 
2.740000000001358, 1.859078900033161 
2.750000000001379, 1.8948859116747407 
2.7600000000014, 1.929834989160226 
2.770000000001421, 1.9638677467521701 
2.780000000001442, 1.9969308442304512 
2.7900000000014633, 2.0289762071724153 
2.8000000000014844, 2.0599611656272914 
2.8100000000015055, 2.089848512838731 
2.8200000000015266, 2.1186064875529547 
2.8300000000015477, 2.1462086850596913 
2.840000000001569, 2.1726339034061253 
2.85000000000159, 2.1978659321796434 
2.860000000001611, 2.221893291870427 
2.870000000001632, 2.2447089321152958 
2.8800000000016532, 2.26630989711799 
2.8900000000016743, 2.286696966277261 
2.9000000000016954, 2.305874277577808 
2.9100000000017165, 2.323848940658345 
2.9200000000017377, 2.340630645713432 
2.9300000000017588, 2.356231273556263 
2.94000000000178, 2.370664511308422 
2.950000000001801, 2.3839454773242843 
2.960000000001822, 2.396090358130243 
2.970000000001843, 2.407116059383538 
2.9800000000018643, 2.417039872147593 
2.9900000000018854, 2.42587915514986 
3.0000000000019065, 2.4336510331388794 
3.0100000000019276, 2.4403721109902703 
3.0200000000019487, 2.446058202823934 
3.03000000000197, 2.45072407508224 
3.040000000001991, 2.454383202274498 
3.050000000002012, 2.4570475339094755 
3.060000000002033, 2.4587272710069987 
3.070000000002054, 2.459430650494283 
3.0800000000020753, 2.459163735744846 
3.0900000000020964, 2.4579302115014965 
3.1000000000021175, 2.4557311814338267 
3.1100000000021386, 2.4525649666103506 
3.1200000000021597, 2.448426903212407 
3.130000000002181, 2.443309137878719 
3.140000000002202, 2.437200419145267 
3.150000000002223, 2.43008588353515 
3.160000000002244, 2.4219468349589843 
3.1700000000022652, 2.4127605162118466 
3.1800000000022863, 2.4024998715021995 
3.1900000000023074, 2.3911332991285748 
3.2000000000023285, 2.3786243936393516 
3.2100000000023496, 2.36493167708021 
3.2200000000023707, 2.350008319265287 
3.230000000002392, 2.333801847416845 
3.240000000002413, 2.316253846021559 
3.250000000002434, 2.29729964836959 
3.260000000002455, 2.2768680219979234 
3.2700000000024763, 2.2548808511776555 
3.2800000000024974, 2.2312528206932853 
3.2900000000025185, 2.205891106490664 
3.3000000000025396, 2.178695080349398 
3.3100000000025607, 2.1495560375957283 
3.3200000000025818, 2.118356959041275 
3.330000000002603, 2.084972320834549 
3.340000000002624, 2.049267968759825 
3.350000000002645, 2.0111010767116615 
3.360000000002666, 1.9703202125922028 
3.3700000000026873, 1.9267655386722702 
3.3800000000027084, 1.8802691774368474 
3.3900000000027295, 1.8306557779605077 
3.4000000000027506, 1.7777433217241327 
3.4100000000027717, 1.721344210208434 
3.420000000002793, 1.6612666792090003 
3.430000000002814, 1.5973165861372707 
3.440000000002835, 1.5292996160214023 
3.450000000002856, 1.457023948818388 
3.460000000002877, 1.380303424229149 
3.4700000000028983, 1.2989612296618989 
3.4800000000029194, 1.212834121523589 
3.4900000000029405, 1.1217771689522593 
3.5000000000029616, 1.025668981984809 
3.5100000000029827, 0.9244173529207933 
3.520000000003004, 0.817965200788365 
3.530000000003025, 0.7062966655752072 
3.540000000003046, 0.5894431533792126 
3.550000000003067, 0.4674890889725599 
3.5600000000030882, 0.34057709255018265 
3.5700000000031094, 0.20891226756396117 
3.5800000000031305, 0.0727652719196479 
3.5900000000031516, -0.06335569810998931 
3.6000000000031727, -0.19868499297760941 
3.6100000000031938, -0.3373380428989188 
3.620000000003215, -0.4788243843566417 
3.630000000003236, -0.622601484896366 
3.640000000003257, -0.7680824000236858 
3.650000000003278, -0.9146452437149293 
3.6600000000032993, -1.0616441759274706 
3.6700000000033204, -1.2084214994250968 
3.6800000000033415, -1.3543203705737912 
3.6900000000033626, -1.4986975747423565 
3.7000000000033837, -1.6409358035302277 
3.710000000003405, -1.7804549007255963 
3.720000000003426, -1.916721614118264 
3.730000000003447, -2.0492574937410994 
3.740000000003468, -2.1776447027918637 
3.750000000003489, -2.301529642365997 
3.7600000000035103, -2.4206244220650968 
3.7700000000035314, -2.534706324055645 
3.7800000000035525, -2.643615499763675 
3.7900000000035736, -2.747251201338468 
3.8000000000035947, -2.845566883282988 
3.810000000003616, -2.93856451543341 
3.820000000003637, -3.0262884313130742 
3.830000000003658, -3.1088190016351165 
3.840000000003679, -3.1862663775745332 
3.8500000000037002, -3.258764498137073 
3.8600000000037213, -3.3264655053396734 
3.8700000000037424, -3.3895346636103647 
3.8800000000037635, -3.4481458382079193 
3.8900000000037847, -3.5024775528344034 
3.9000000000038058, -3.5527096193431262 
3.910000000003827, -3.599020312241767 
3.920000000003848, -3.641584046833886 
3.930000000003869, -3.680569511375153 
3.94000000000389, -3.7161381995065197 
3.9500000000039113, -3.7484432884566523 
3.9600000000039324, -3.777628810168146 
3.9700000000039535, -3.8038290658171374 
3.9800000000039746, -3.8271682385287082 
3.9900000000039957, -3.84776016394671 
4.000000000004016, -3.865708223328429 
4.010000000003993, -3.8811053287424455 
4.02000000000397, -3.894033974581807 
4.030000000003946, -3.9045663338630643 
4.040000000003923, -3.9127643816176794 
4.0500000000039, -3.9186800310867174 
4.0600000000038765, -3.9223552714215546 
4.070000000003853, -3.923822298209621 
4.08000000000383, -3.9231036304338613 
4.090000000003807, -3.9202122094933185 
4.100000000003783, -3.9151514777190433 
4.11000000000376, -3.9079154354745707 
4.120000000003737, -3.8984886774932934 
4.130000000003713, -3.886846410634678 
4.14000000000369, -3.872954456793943 
4.150000000003667, -3.8567692463295473 
4.1600000000036434, -3.8382378091303178 
4.17000000000362, -3.8172977723752335 
4.180000000003597, -3.7938773761839184 
4.1900000000035735, -3.767895520745282 
4.20000000000355, -3.739261861164153 
4.210000000003527, -3.70787696918162 
4.220000000003504, -3.673632584080634 
4.23000000000348, -3.636411978428951 
4.240000000003457, -3.5960904677386765 
4.250000000003434, -3.5525360964854955 
4.26000000000341, -3.5056105360154572 
4.270000000003387, -3.455170232380903 
4.280000000003364, -3.4010678437114534 
4.2900000000033405, -3.343154006869768 
4.300000000003317, -3.281279471304012 
4.310000000003294, -3.215297633551035 
4.320000000003271, -3.1450674980803854 
4.330000000003247, -3.0704570784173013 
4.340000000003224, -2.991347236140908 
4.350000000003201, -2.9076359340048925 
4.360000000003177, -2.8192428529698974 
4.370000000003154, -2.7261142917316157 
4.380000000003131, -2.628228232353076 
4.390000000003107, -2.5255994185850703 
4.400000000003084, -2.418284256923067 
4.410000000003061, -2.3063853177357587 
4.4200000000030375, -2.1900551888811886 
4.430000000003014, -2.069499421395945 
4.440000000002991, -1.9449783102353337 
4.450000000002968, -1.8168072760169973 
4.460000000002944, -1.6853556581814508 
4.470000000002921, -1.5510437957546508 
4.480000000002898, -1.41433835628284 
4.490000000002874, -1.2757459711746948 
4.500000000002851, -1.135805338961025 
4.510000000002828, -0.9950780576075517 
4.520000000002804, -0.8541385332531697 
4.530000000002781, -0.7135633766942983 
4.540000000002758, -0.5739207338202649 
4.5500000000027345, -0.43575999838662793 
4.560000000002711, -0.2996023250254041 
4.570000000002688, -0.16593230089033928 
4.580000000002665, -0.03519105249360298 
4.590000000002641, 0.08593800498948448 
4.600000000002618, 0.20100013481436232 
4.610000000002595, 0.3121632802150895 
4.620000000002571, 0.4192191623039279 
4.630000000002548, 0.5220089190159515 
4.640000000002525, 0.6204207550041342 
4.6500000000025015, 0.7143867700026508 
4.660000000002478, 0.8038791823462417 
4.670000000002455, 0.8889061551905946 
4.6800000000024315, 0.9695074142853715 
4.690000000002408, 1.0457498211264518 
4.700000000002385, 1.1177230369361453 
4.710000000002362, 1.1855353837143754 
4.720000000002338, 1.2493099805331185 
4.730000000002315, 1.3091812076927172 
4.740000000002292, 1.3652915291674166 
4.750000000002268, 1.4177886853298525 
4.760000000002245, 1.466823253298474 
4.770000000002222, 1.5125465611833855 
4.7800000000021985, 1.5551089346396192 
4.790000000002175, 1.5946582490120127 
4.800000000002152, 1.6313387574852742 
4.810000000002129, 1.6652901645636575 
4.820000000002105, 1.6966469144649532 
4.830000000002082, 1.7255376652467274 
4.840000000002059, 1.7520849213736165 
4.850000000002035, 1.7764047997282506 
4.860000000002012, 1.798606906566405 
4.870000000001989, 1.8187943054698914 
4.880000000001965, 1.8370635588511157 
4.890000000001942, 1.853504827937613 
4.900000000001919, 1.8682020183669446 
