t, s[1].omega / s[0].omega 
0, -0.7399976763335812 
0.009999999999999995, -0.7397464353415248 
0.019999999999999934, -0.739454414478114 
0.029999999999999874, -0.7391137939785974 
0.04000000000000012, -0.738717838769057 
0.050000000000000405, -0.738266141146163 
0.06000000000000069, -0.7377674341951336 
0.07000000000000098, -0.7372403474237816 
0.08000000000000126, -0.7367138490513848 
0.09000000000000155, -0.7362286305467199 
0.10000000000000184, -0.7358393158444141 
0.11000000000000212, -0.7356161958274043 
0.12000000000000241, -0.7356447239166649 
0.130000000000002, -0.7360214509572918 
0.1400000000000009, -0.7368462943637762 
0.1499999999999998, -0.73821231894615 
0.1599999999999987, -0.7401944537556975 
0.1699999999999976, -0.7428371790623947 
0.1799999999999965, -0.7461390408583125 
0.1899999999999954, -0.750031486974118 
0.1999999999999943, -0.754354674134765 
0.2099999999999932, -0.7588453023287199 
0.2199999999999921, -0.7631630383380814 
0.229999999999991, -0.7669703193592747 
0.2399999999999899, -0.7700346659792932 
0.2499999999999888, -0.7722866964596731 
0.2599999999999877, -0.7737981480367202 
0.2699999999999866, -0.7747112551796107 
0.2799999999999855, -0.7751732740214304 
0.2899999999999844, -0.7753014396448419 
0.2999999999999833, -0.775173613101865 
0.3099999999999822, -0.7748313131798806 
0.3199999999999811, -0.7742860332704198 
0.32999999999998, -0.7735257362574649 
0.3399999999999789, -0.7725228463310948 
0.3499999999999778, -0.7712485077205763 
0.35999999999997667, -0.7697006960556528 
0.36999999999997557, -0.7679529952325673 
0.37999999999997447, -0.7662176721495664 
0.38999999999997337, -0.7648810259687122 
0.39999999999997227, -0.7644289963253419 
0.40999999999997117, -0.7652229913732618 
0.41999999999997006, -0.7672698692309999 
0.42999999999996896, -0.7702248244902695 
0.43999999999996786, -0.7736018836867071 
0.44999999999996676, -0.7769499935788867 
0.45999999999996566, -0.779930979340404 
0.46999999999996456, -0.7823575161016907 
0.47999999999996346, -0.7841882282249861 
0.48999999999996235, -0.785479054327454 
0.49999999999996125, -0.7863252380280439 
0.5099999999999602, -0.786820528624059 
0.519999999999959, -0.7870369945492217 
0.529999999999958, -0.7870176870540065 
0.5399999999999568, -0.7867739739996261 
0.5499999999999557, -0.7862822339413593 
0.5599999999999546, -0.785477421829767 
0.5699999999999535, -0.7842440785564752 
0.5799999999999524, -0.7824106699955943 
0.5899999999999513, -0.7797620856582045 
0.5999999999999502, -0.7760924340512546 
0.6099999999999491, -0.7713069749000935 
0.619999999999948, -0.7655316120000252 
0.6299999999999469, -0.7591403238212537 
0.6399999999999458, -0.7526521159839406 
0.6499999999999447, -0.7465636155125888 
0.6599999999999436, -0.7412281023293703 
0.6699999999999425, -0.7368243096859495 
0.6799999999999414, -0.733385250685006 
0.6899999999999403, -0.7308443026123256 
0.6999999999999392, -0.729076339614753 
0.7099999999999381, -0.7279294485053003 
0.719999999999937, -0.7272486678281861 
0.7299999999999359, -0.7268927189298019 
0.7399999999999348, -0.7267436416450022 
0.7499999999999337, -0.7267096764748777 
0.7599999999999326, -0.7267230063089498 
0.7699999999999315, -0.7267348620033877 
0.7799999999999304, -0.7267105100384985 
0.7899999999999293, -0.7266259615061469 
0.7999999999999282, -0.7264670990654591 
0.8099999999999271, -0.726230381243606 
0.819999999999926, -0.7259228278832335 
0.8299999999999249, -0.7255589323780797 
0.8399999999999238, -0.7251544152382036 
0.8499999999999227, -0.7247198325434355 
0.8599999999999216, -0.7242578786646479 
0.8699999999999205, -0.7237657558350932 
0.8799999999999194, -0.7232406044561703 
0.8899999999999183, -0.7226847008836189 
0.8999999999999172, -0.7221085410929243 
0.9099999999999161, -0.7215321409102442 
0.919999999999915, -0.7209858724638212 
0.9299999999999139, -0.7205116213968207 
0.9399999999999128, -0.7201639426132032 
0.9499999999999117, -0.7200101269881819 
0.9599999999999106, -0.7201280674454271 
0.9699999999999095, -0.7206015117701128 
0.9799999999999084, -0.721513293656456 
0.9899999999999073, -0.7229376765445942 
0.9999999999999062, -0.7249323333364177 
1.0099999999999052, -0.7275287358325808 
1.019999999999904, -0.7307179834488575 
1.029999999999903, -0.7344297432516952 
1.039999999999902, -0.7385081923401547 
1.0499999999999008, -0.7427015018110356 
1.0599999999998997, -0.7466909504309827 
1.0699999999998986, -0.7501701806790618 
1.0799999999998975, -0.7529394015031939 
1.0899999999998964, -0.7549513651925119 
1.0999999999998953, -0.7562832349069202 
1.1099999999998942, -0.7570694005585585 
1.119999999999893, -0.7574436110440934 
1.129999999999892, -0.75750967816494 
1.1399999999998909, -0.7573344095534147 
1.1499999999998898, -0.75695060036212 
1.1599999999998887, -0.7563622835249659 
1.1699999999998876, -0.7555497033243895 
1.1799999999998865, -0.7544752019762007 
1.1899999999998854, -0.7530940109071251 
1.1999999999998843, -0.7513759177210315 
1.2099999999998832, -0.7493420758558509 
1.219999999999882, -0.7471088350801259 
1.229999999999881, -0.7449038702953426 
1.2399999999998799, -0.7430068001802013 
1.2499999999998788, -0.7416332914243977 
1.2599999999998777, -0.7408910623746002 
1.2699999999998766, -0.7408439201244017 
1.2799999999998755, -0.7415037353842637 
1.2899999999998744, -0.742726762544957 
1.2999999999998733, -0.74422365544606 
1.3099999999998722, -0.7456992695766496 
1.319999999999871, -0.7469610860301384 
1.32999999999987, -0.7479320147854591 
1.3399999999998689, -0.7486108581861931 
1.3499999999998678, -0.7490289966763015 
1.3599999999998666, -0.7492214646848198 
1.3699999999998655, -0.7492114831698848 
1.3799999999998644, -0.7490024985914798 
1.3899999999998633, -0.7485728808212636 
1.3999999999998622, -0.7478710789461765 
1.4099999999998611, -0.7468123784815726 
1.41999999999986, -0.7452829225180806 
1.429999999999859, -0.7431610604741852 
1.4399999999998578, -0.7403636449284888 
1.4499999999998567, -0.7369061843892623 
1.4599999999998556, -0.732938339312059 
1.4699999999998545, -0.7287173135126148 
1.4799999999998534, -0.7245295290396168 
1.4899999999998523, -0.7206139051327097 
1.4999999999998512, -0.7171267063566249 
1.5099999999998501, -0.7141460489594047 
1.519999999999849, -0.7116931930750499 
1.529999999999848, -0.7097528549924188 
1.5399999999998468, -0.7082866478701807 
1.5499999999998457, -0.7072409637740467 
1.5599999999998446, -0.7065524304589526 
1.5699999999998435, -0.7061530761173038 
1.5799999999998424, -0.7059756519088471 
1.5899999999998413, -0.7059584098800931 
1.5999999999998402, -0.706048445035994 
1.6099999999998391, -0.7062032646721186 
1.619999999999838, -0.7063909630116425 
1.629999999999837, -0.706589702957733 
1.6399999999998358, -0.7067868837320816 
1.6499999999998347, -0.7069775816938029 
1.6599999999998336, -0.7071612944015339 
1.6699999999998325, -0.7073366268053245 
1.6799999999998314, -0.7074954757791787 
1.6899999999998303, -0.7076200259065639 
1.6999999999998292, -0.7076853076988685 
1.709999999999828, -0.707666692969063 
1.719999999999827, -0.7075480686972171 
1.729999999999826, -0.7073261767648187 
1.7399999999998248, -0.7070101142467227 
1.7499999999998237, -0.7066186476545786 
1.7599999999998226, -0.7061788462017653 
1.7699999999998215, -0.7057281798783551 
1.7799999999998204, -0.705320620158359 
1.7899999999998193, -0.7050362080568224 
1.7999999999998182, -0.7049926277572052 
1.809999999999817, -0.7053560479513166 
1.819999999999816, -0.706346848325922 
1.8299999999998149, -0.7082341673544035 
1.8399999999998138, -0.7113116374053814 
1.8499999999998127, -0.7158451791006233 
1.8599999999998116, -0.7219843828492541 
1.8699999999998105, -0.7296408414991048 
1.8799999999998094, -0.7383750036838185 
1.8899999999998083, -0.7473909481557068 
1.8999999999998072, -0.7557372983109839 
1.909999999999806, -0.7626573032614242 
1.919999999999805, -0.7678424295948874 
1.9299999999998039, -0.7714111490392285 
1.9399999999998028, -0.7737020072350667 
1.9499999999998017, -0.7750771624595032 
1.9599999999998006, -0.7758253027225054 
1.9699999999997995, -0.7761427112421655 
1.9799999999997984, -0.7761468515178079 
1.9899999999997973, -0.7758942829812673 
1.9999999999997962, -0.775392117632937 
2.0099999999998173, -0.7746002817042242 
2.0199999999998384, -0.7734239526404887 
2.0299999999998595, -0.7716957170970434 
2.0399999999998806, -0.7691484758537005 
2.0499999999999017, -0.7653876652570071 
2.059999999999923, -0.7598935001659711 
2.069999999999944, -0.7521257268789198 
2.079999999999965, -0.7418242851386411 
2.089999999999986, -0.729458712624109 
2.100000000000007, -0.716427312176844 
2.1100000000000283, -0.7045589284042024 
2.1200000000000494, -0.6952050628556508 
2.1300000000000705, -0.6887505705566604 
2.1400000000000916, -0.6848075223385499 
2.1500000000001127, -0.6826767108146644 
2.160000000000134, -0.6816879363170181 
2.170000000000155, -0.6813375661984145 
2.180000000000176, -0.6812970195693662 
2.190000000000197, -0.6813715895682727 
2.2000000000002182, -0.6814532955368251 
2.2100000000002393, -0.6814835933417223 
2.2200000000002604, -0.6814281519745563 
2.2300000000002815, -0.6812613962694982 
2.2400000000003026, -0.6809582986671628 
2.2500000000003237, -0.6804922097135233 
2.260000000000345, -0.6798386898172826 
2.270000000000366, -0.6789848111715265 
2.280000000000387, -0.67794027317136 
2.290000000000408, -0.6767429136217252 
2.3000000000004293, -0.6754522965316052 
2.3100000000004504, -0.6741332753079972 
2.3200000000004715, -0.672839389157076 
2.3300000000004926, -0.6716050000825696 
2.3400000000005137, -0.6704474317394562 
2.3500000000005348, -0.6693745015202714 
2.360000000000556, -0.6683922816925761 
2.370000000000577, -0.667510381221867 
2.380000000000598, -0.6667444144571785 
2.390000000000619, -0.6661163697978185 
2.4000000000006403, -0.6656536227419314 
2.4100000000006614, -0.6653871008169859 
2.4200000000006825, -0.6653490348910088 
2.4300000000007036, -0.6655708135998142 
2.4400000000007247, -0.6660814645007334 
2.450000000000746, -0.6669070091165425 
2.460000000000767, -0.6680703175379545 
2.470000000000788, -0.6695902031885208 
2.480000000000809, -0.6714775634900796 
2.49000000000083, -0.673725909208922 
2.5000000000008513, -0.6762948691619918 
2.5100000000008724, -0.6790901614137899 
2.5200000000008935, -0.6819524883580932 
2.5300000000009146, -0.6846740389536536 
2.5400000000009357, -0.6870500063232389 
2.550000000000957, -0.6889415892259301 
2.560000000000978, -0.6903086154462585 
2.570000000000999, -0.6911939679573801 
2.58000000000102, -0.6916811157077303 
2.5900000000010412, -0.6918555755362925 
2.6000000000010624, -0.6917836957173154 
2.6100000000010835, -0.6915057720746551 
2.6200000000011046, -0.6910359912457918 
2.6300000000011257, -0.6903638493087613 
2.6400000000011468, -0.6894547158175358 
2.650000000001168, -0.6882491685742695 
2.660000000001189, -0.686661509960187 
2.67000000000121, -0.6845772010861745 
2.680000000001231, -0.6818461978453453 
2.6900000000012523, -0.6782679262145479 
2.7000000000012734, -0.6735837807283958 
2.7100000000012945, -0.6675610244909972 
2.7200000000013156, -0.6602796443304214 
2.7300000000013367, -0.6524578184574712 
2.740000000001358, -0.6452932118164068 
2.750000000001379, -0.6397692414439442 
2.7600000000014, -0.6361664226343178 
2.770000000001421, -0.6341782738041551 
2.780000000001442, -0.6332869292097054 
2.7900000000014633, -0.6330269554306588 
2.8000000000014844, -0.633072732143002 
2.8100000000015055, -0.633227428516937 
2.8200000000015266, -0.6333833234717213 
2.8300000000015477, -0.6334850109849118 
2.840000000001569, -0.6335034319646339 
2.85000000000159, -0.6334197135010292 
2.860000000001611, -0.6332160983843711 
2.870000000001632, -0.6328721673621198 
2.8800000000016532, -0.6323659724195407 
2.8900000000016743, -0.6316803224179673 
2.9000000000016954, -0.630813021476572 
2.9100000000017165, -0.6297862110667346 
2.9200000000017377, -0.6286474132986937 
2.9300000000017588, -0.6274585675081112 
2.94000000000178, -0.6262783561079475 
2.950000000001801, -0.6251483016386106 
2.960000000001822, -0.6240890758085537 
2.970000000001843, -0.6231057109121586 
2.9800000000018643, -0.6221963526629991 
2.9900000000018854, -0.6213599888462722 
3.0000000000019065, -0.6206013446368599 
3.0100000000019276, -0.6199332996870901 
3.0200000000019487, -0.6193779229742078 
3.03000000000197, -0.6189669591673785 
3.040000000001991, -0.618742086604638 
3.050000000002012, -0.6187549592584951 
3.060000000002033, -0.6190670044310351 
3.070000000002054, -0.6197489941955443 
3.0800000000020753, -0.6208802579520168 
3.0900000000020964, -0.6225467431048426 
3.1000000000021175, -0.6248357048210745 
3.1100000000021386, -0.6278226690744738 
3.1200000000021597, -0.6315445927836978 
3.130000000002181, -0.6359555543316595 
3.140000000002202, -0.6408746256879813 
3.150000000002223, -0.6459617621534945 
3.160000000002244, -0.6507726613952783 
3.1700000000022652, -0.6548996451237163 
3.1800000000022863, -0.6581140637491074 
3.1900000000023074, -0.6604051711474944 
3.2000000000023285, -0.6619092940687604 
3.2100000000023496, -0.6628092423648255 
3.2200000000023707, -0.6632673195847087 
3.230000000002392, -0.6634001179041877 
3.240000000002413, -0.6632768290435683 
3.250000000002434, -0.6629240736439892 
3.260000000002455, -0.6623281428491368 
3.2700000000024763, -0.6614304695355216 
3.2800000000024974, -0.6601137283363642 
3.2900000000025185, -0.658176642643892 
3.3000000000025396, -0.6552997423321419 
3.3100000000025607, -0.6510208698173693 
3.3200000000025818, -0.6447788549573479 
3.330000000002603, -0.6361251842192853 
3.340000000002624, -0.6251271673034708 
3.350000000002645, -0.6126833564466255 
3.360000000002666, -0.6002982347457013 
3.3700000000026873, -0.5893716099107829 
3.3800000000027084, -0.580649444377377 
3.3900000000027295, -0.5742010476467536 
3.4000000000027506, -0.5697007815805586 
3.4100000000027717, -0.56670024832174 
3.420000000002793, -0.5647797714363952 
3.430000000002814, -0.5636026546894561 
3.440000000002835, -0.5629196104808831 
3.450000000002856, -0.562554707916098 
3.460000000002877, -0.5623876738778948 
3.4700000000028983, -0.5623381361950913 
3.4800000000029194, -0.5623533551346362 
3.4900000000029405, -0.5623995214663208 
3.5000000000029616, -0.5624562669923476 
3.5100000000029827, -0.5625138466858165 
3.520000000003004, -0.5625720819102653 
3.530000000003025, -0.5626395096036213 
3.540000000003046, -0.562730727792728 
3.550000000003067, -0.5628605595880574 
3.5600000000030882, -0.5630357572722235 
3.5700000000031094, -0.5632475193510336 
3.5800000000031305, -0.5634692123798772 
3.5900000000031516, -0.5636619273107722 
3.6000000000031727, -0.5637860021323429 
3.6100000000031938, -0.5638123731490772 
3.620000000003215, -0.5637278333697691 
3.630000000003236, -0.5635331343248787 
3.640000000003257, -0.5632374439415458 
3.650000000003278, -0.5628533997220904 
3.6600000000032993, -0.5623951504999024 
3.6700000000033204, -0.5618801413911545 
3.6800000000033415, -0.5613350650252831 
3.6900000000033626, -0.5608069481262901 
3.7000000000033837, -0.5603807656948638 
3.710000000003405, -0.5602035436259578 
3.720000000003426, -0.5605078705531802 
3.730000000003447, -0.5616085886209453 
3.740000000003468, -0.5638137315255477 
3.750000000003489, -0.5671839895313797 
3.7600000000035103, -0.5712192971508447 
3.7700000000035314, -0.574876828980642 
3.7800000000035525, -0.5772509620925855 
3.7900000000035736, -0.5782826421654932 
3.8000000000035947, -0.5785800794870679 
3.810000000003616, -0.5787338091829883 
3.820000000003637, -0.5789950064132182 
3.830000000003658, -0.5793675265096634 
3.840000000003679, -0.579774367208986 
3.8500000000037002, -0.580145544061476 
3.8600000000037213, -0.5804393634051508 
3.8700000000037424, -0.5806366356916136 
3.8800000000037635, -0.5807298037173612 
3.8900000000037847, -0.5807142282571235 
3.9000000000038058, -0.5805827413070783 
3.910000000003827, -0.5803232047360016 
3.920000000003848, -0.5799192229707422 
3.930000000003869, -0.5793547385622706 
3.94000000000389, -0.5786226791666934 
3.9500000000039113, -0.5777351339324279 
3.9600000000039324, -0.5767289152826928 
3.9700000000039535, -0.5756603622777965 
3.9800000000039746, -0.5745899495119302 
3.9900000000039957, -0.5735653610654462 
4.000000000004016, -0.5726123836233892 
4.010000000003993, -0.5717362778554859 
4.02000000000397, -0.5709298373564956 
4.030000000003946, -0.5701826751182597 
4.040000000003923, -0.5694882088455416 
4.0500000000039, -0.5688475868997094 
4.0600000000038765, -0.5682716278831893 
4.070000000003853, -0.5677822970259604 
4.08000000000383, -0.5674148157153006 
4.090000000003807, -0.5672209012987101 
4.100000000003783, -0.5672732291214823 
4.11000000000376, -0.5676709880871058 
4.120000000003737, -0.5685461328774148 
4.130000000003713, -0.5700691938579684 
4.14000000000369, -0.5724515453700671 
4.150000000003667, -0.5759367574238465 
4.1600000000036434, -0.5807664438172923 
4.17000000000362, -0.5870993820406296 
4.180000000003597, -0.5948724346223508 
4.1900000000035735, -0.6036476728975323 
4.20000000000355, -0.6125873554273469 
4.210000000003527, -0.6207011007656303 
4.220000000003504, -0.6272651829400295 
4.23000000000348, -0.6320693893450188 
4.240000000003457, -0.6353226121236512 
4.250000000003434, -0.6374002432303763 
4.26000000000341, -0.6386569053747195 
4.270000000003387, -0.6393564658687502 
4.280000000003364, -0.6396708988231522 
4.2900000000033405, -0.6396998981186517 
4.300000000003317, -0.6394887752470433 
4.310000000003294, -0.6390382382499487 
4.320000000003271, -0.6383055377195057 
4.330000000003247, -0.6371982961560907 
4.340000000003224, -0.6355648824063452 
4.350000000003201, -0.633192241311709 
4.360000000003177, -0.6298346409155455 
4.370000000003154, -0.6253027386984266 
4.380000000003131, -0.619607702843379 
4.390000000003107, -0.6130683607268395 
4.400000000003084, -0.6062535125840798 
4.410000000003061, -0.5997658201035408 
4.4200000000030375, -0.5940360579051194 
4.430000000003014, -0.5892574392171858 
4.440000000002991, -0.5854373881127003 
4.450000000002968, -0.5824817535553437 
4.460000000002944, -0.5802594851688234 
4.470000000002921, -0.5786383032514021 
4.480000000002898, -0.577499812149932 
4.490000000002874, -0.5767438285727876 
4.500000000002851, -0.5762881996145934 
4.510000000002828, -0.5760672005505812 
4.520000000002804, -0.5760297394162471 
4.530000000002781, -0.5761377568525012 
4.540000000002758, -0.5763649266237902 
4.5500000000027345, -0.5766956600785539 
4.560000000002711, -0.57712423034941 
4.570000000002688, -0.5776534163213076 
4.580000000002665, -0.5782915111716136 
4.590000000002641, -0.5790463067117793 
4.600000000002618, -0.5799155138202916 
4.610000000002595, -0.5808755751777013 
4.620000000002571, -0.5818743993321072 
4.630000000002548, -0.5828353242027956 
4.640000000002525, -0.583675130996248 
4.6500000000025015, -0.5843282657666027 
4.660000000002478, -0.5847626351246653 
4.670000000002455, -0.5849787628412577 
4.6800000000024315, -0.5849969310014329 
4.690000000002408, -0.5848424149849692 
4.700000000002385, -0.5845351368706735 
4.710000000002362, -0.5840844846110997 
4.720000000002338, -0.583487399285792 
4.730000000002315, -0.5827276981806937 
4.740000000002292, -0.5817750654245925 
4.750000000002268, -0.5805817251959506 
4.760000000002245, -0.5790721684716207 
4.770000000002222, -0.5771153148980784 
4.7800000000021985, -0.5744634953925867 
4.790000000002175, -0.5706659822723016 
4.800000000002152, -0.5650739650779711 
4.810000000002129, -0.5571941275948707 
4.820000000002105, -0.5473817322645416 
4.830000000002082, -0.5370760530804224 
4.840000000002059, -0.5279745442671001 
4.850000000002035, -0.5210339463943329 
4.860000000002012, -0.5162999430914578 
4.870000000001989, -0.513325768115042 
4.880000000001965, -0.5115740792066884 
4.890000000001942, -0.5106024397939114 
4.900000000001919, -0.510099759840321 
4.9100000000018955, -0.5098643994367345 
4.920000000001872, -0.5097714123364395 
