t, s[1].omega / s[0].omega 
0, -1.3499949231349877 
0.009999999999999995, -1.3492852448429176 
0.019999999999999934, -1.348176158740949 
0.029999999999999874, -1.3466691416138474 
0.04000000000000012, -1.3447668021618542 
0.050000000000000405, -1.3424734320122065 
0.06000000000000069, -1.339795714540446 
0.07000000000000098, -1.336743539030471 
0.08000000000000126, -1.3333308596626254 
0.09000000000000155, -1.329576544079698 
0.10000000000000184, -1.325505196865928 
0.11000000000000212, -1.3211480418297252 
0.12000000000000241, -1.3165440953604313 
0.130000000000002, -1.3117419842167832 
0.1400000000000009, -1.3068026998177185 
0.1499999999999998, -1.3018031648862858 
0.1599999999999987, -1.2968396618719138 
0.1699999999999976, -1.2920291490216416 
0.1799999999999965, -1.2875058130224368 
0.1899999999999954, -1.2834106126247973 
0.1999999999999943, -1.2798735719866234 
0.2099999999999932, -1.2769918842138885 
0.2199999999999921, -1.2748100061350094 
0.229999999999991, -1.2733087420364515 
0.2399999999999899, -1.2724075993114783 
0.2499999999999888, -1.2719795056489356 
0.2599999999999877, -1.2718722398872693 
0.2699999999999866, -1.2719292580451484 
0.2799999999999855, -1.272004346485654 
0.2899999999999844, -1.2719679585545012 
0.2999999999999833, -1.2717060648523657 
0.3099999999999822, -1.2711137937950463 
0.3199999999999811, -1.2700861890764925 
0.32999999999998, -1.2685077597449745 
0.3399999999999789, -1.2662417916676063 
0.3499999999999778, -1.2631199844130736 
0.35999999999997667, -1.258932988660429 
0.36999999999997557, -1.2534228260888736 
0.37999999999997447, -1.2462788818132227 
0.38999999999997337, -1.2371399857885268 
0.39999999999997227, -1.2256057206055513 
0.40999999999997117, -1.2112600232398658 
0.41999999999997006, -1.1937088372553388 
0.42999999999996896, -1.1726306792538514 
0.43999999999996786, -1.1478347716059993 
0.44999999999996676, -1.119316997334386 
0.45999999999996566, -1.0873011732781077 
0.46999999999996456, -1.0522537536794978 
0.47999999999996346, -1.0148647108222262 
0.48999999999996235, -0.9759949411104127 
0.49999999999996125, -0.9365986645466278 
0.5099999999999602, -0.8976351375300834 
0.519999999999959, -0.8599856843328413 
0.529999999999958, -0.8243893149599182 
0.5399999999999568, -0.7914043971871316 
0.5499999999999557, -0.7613972360342475 
0.5599999999999546, -0.7345530883972871 
0.5699999999999535, -0.7109022723615936 
0.5799999999999524, -0.6903536533477136 
0.5899999999999513, -0.6727291479733082 
0.5999999999999502, -0.6577949933546616 
0.6099999999999491, -0.6452875915288477 
0.619999999999948, -0.6349333244801348 
0.6299999999999469, -0.6264627340161826 
0.6399999999999458, -0.61961995408334 
0.6499999999999447, -0.6141684241579513 
0.6599999999999436, -0.6098938496011109 
0.6699999999999425, -0.6066052198592568 
0.6799999999999414, -0.6041345183129125 
0.6899999999999403, -0.6023355954179447 
0.6999999999999392, -0.6010825444115194 
0.7099999999999381, -0.6002678184500646 
0.719999999999937, -0.5998002557147054 
0.7299999999999359, -0.5996031287899666 
0.7399999999999348, -0.599612300527673 
0.7499999999999337, -0.5997745455283847 
0.7599999999999326, -0.600046080155406 
0.7699999999999315, -0.6003913312437119 
0.7799999999999304, -0.6007819614500173 
0.7899999999999293, -0.6011961549111385 
0.7999999999999282, -0.6016181484316404 
0.8099999999999271, -0.6020379697639895 
0.819999999999926, -0.6024513165723269 
0.8299999999999249, -0.602859481074176 
0.8399999999999238, -0.6032692027912844 
0.8499999999999227, -0.603692323724254 
0.8599999999999216, -0.6041451338900736 
0.8699999999999205, -0.6046473329551313 
0.8799999999999194, -0.6052205905515718 
0.8899999999999183, -0.6058867517667252 
0.8999999999999172, -0.6066657910014216 
0.9099999999999161, -0.6075736571898848 
0.919999999999915, -0.6086201758058395 
0.9299999999999139, -0.609807185994145 
0.9399999999999128, -0.6111271036162815 
0.9499999999999117, -0.6125621135652821 
0.9599999999999106, -0.6140841932868963 
0.9699999999999095, -0.6156561280165888 
0.9799999999999084, -0.6172335725071886 
0.9899999999999073, -0.618768041410667 
0.9999999999999062, -0.6202105051228332 
1.0099999999999052, -0.6215150970550034 
1.019999999999904, -0.6226423749948349 
1.029999999999903, -0.6235616630935296 
1.039999999999902, -0.6242522123148228 
1.0499999999999008, -0.6247031836377014 
1.0599999999998997, -0.624912691682547 
1.0699999999998986, -0.6248862843207577 
1.0799999999998975, -0.624635261319883 
1.0899999999998964, -0.6241751786517953 
1.0999999999998953, -0.6235247899218924 
1.1099999999998942, -0.6227055839452753 
1.119999999999893, -0.6217420137661663 
1.129999999999892, -0.6206624870888949 
1.1399999999998909, -0.6195012000363983 
1.1499999999998898, -0.6183009399417472 
1.1599999999998887, -0.6171170535561132 
1.1699999999998876, -0.6160228726137039 
1.1799999999998865, -0.6151170107098897 
1.1899999999998854, -0.6145330984741258 
1.1999999999998843, -0.6144527136503323 
1.2099999999998832, -0.6151224911526492 
1.219999999999882, -0.6168766542214381 
1.229999999999881, -0.6201664443612973 
1.2399999999998799, -0.625598013639342 
1.2499999999998788, -0.6339799642606752 
1.2599999999998777, -0.6463801906808287 
1.2699999999998766, -0.6641876103986588 
1.2799999999998755, -0.6891652114229129 
1.2899999999998744, -0.7234626301702379 
1.2999999999998733, -0.7695251828178644 
1.3099999999998722, -0.8297947948907352 
1.319999999999871, -0.9060756768955454 
1.32999999999987, -0.9985180161799744 
1.3399999999998689, -1.1044775049383109 
1.3499999999998678, -1.2179932372565854 
1.3599999999998666, -1.33075729473016 
1.3699999999998655, -1.4345431615250877 
1.3799999999998644, -1.5236745487274284 
1.3899999999998633, -1.5960040021405417 
1.3999999999998622, -1.652260356269738 
1.4099999999998611, -1.6947304808575863 
1.41999999999986, -1.7261453334480636 
1.429999999999859, -1.7490479844185516 
1.4399999999998578, -1.7655484319473944 
1.4499999999998567, -1.7772924473711835 
1.4599999999998556, -1.785519457706907 
1.4699999999998545, -1.7911436811735857 
1.4799999999998534, -1.794830923380757 
1.4899999999998523, -1.7970625513473817 
1.4999999999998512, -1.798186181223234 
1.5099999999998501, -1.7984552833604666 
1.519999999999849, -1.7980601747131644 
1.529999999999848, -1.7971519773019884 
1.5399999999998468, -1.7958596593213327 
1.5499999999998457, -1.7942990089864723 
1.5599999999998446, -1.7925726718837507 
1.5699999999998435, -1.7907634031848576 
1.5799999999998424, -1.78892742490344 
1.5899999999998413, -1.7870969618259034 
1.5999999999998402, -1.785296395944185 
1.6099999999998391, -1.7835662176366016 
1.619999999999838, -1.7819800354583013 
1.629999999999837, -1.7806394441802458 
1.6399999999998358, -1.779642177294789 
1.6499999999998347, -1.7790367280417547 
1.6599999999998336, -1.7787893204421483 
1.6699999999998325, -1.778783110936151 
1.6799999999998314, -1.7788467462652813 
1.6899999999998303, -1.7787903061065795 
1.6999999999998292, -1.7784267749909826 
1.709999999999828, -1.777570422225467 
1.719999999999827, -1.7760144705842222 
1.729999999999826, -1.7734922902509496 
1.7399999999998248, -1.7696215846854266 
1.7499999999998237, -1.7638237921935869 
1.7599999999998226, -1.755202853696331 
1.7699999999998215, -1.7423586002802622 
1.7799999999998204, -1.7231019629842754 
1.7899999999998193, -1.6940416545433095 
1.7999999999998182, -1.6500561274821626 
1.809999999999817, -1.583824798268921 
1.819999999999816, -1.4859783418971555 
1.8299999999998149, -1.3469883468110304 
1.8399999999998138, -1.1618743510195604 
1.8499999999998127, -0.9365920775561862 
1.8599999999998116, -0.6910894992180107 
1.8699999999998105, -0.4538594318118077 
1.8799999999998094, -0.24978731167136223 
1.8899999999998083, -0.0905504204553341 
1.8999999999998072, 0.025232408472350074 
1.909999999999806, 0.10564413124413008 
1.919999999999805, 0.1609843854860781 
1.9299999999998039, 0.19907751692730866 
1.9399999999998028, 0.22552726609963422 
1.9499999999998017, 0.24411851993765568 
1.9599999999998006, 0.2573523733401195 
1.9699999999997995, 0.26687756549902386 
1.9799999999997984, 0.27378947022429845 
1.9899999999997973, 0.278825280961436 
1.9999999999997962, 0.28248867642971864 
2.0099999999998173, 0.2851291719285603 
2.0199999999998384, 0.28699294447613677 
2.0299999999998595, 0.2882557765653833 
2.0399999999998806, 0.2890447605940554 
2.0499999999999017, 0.2894529190002962 
2.059999999999923, 0.2895493882573377 
2.069999999999944, 0.2893869273528631 
2.079999999999965, 0.28900802518553514 
2.089999999999986, 0.28845067851322476 
2.100000000000007, 0.2877549443553939 
2.1100000000000283, 0.28697164057488017 
2.1200000000000494, 0.2861751130552953 
2.1300000000000705, 0.2854828470861159 
2.1400000000000916, 0.2850858234004285 
2.1500000000001127, 0.2852945153984392 
2.160000000000134, 0.28660498002607204 
2.170000000000155, 0.28978424655533136 
2.180000000000176, 0.29595729713328534 
2.190000000000197, 0.3066396572645736 
2.2000000000002182, 0.323598434620407 
2.2100000000002393, 0.34838233837087845 
2.2200000000002604, 0.3814679878122504 
2.2300000000002815, 0.42136587836499595 
2.2400000000003026, 0.46448531415299255 
2.2500000000003237, 0.5062865368763536 
2.260000000000345, 0.5430550589004052 
2.270000000000366, 0.5729678865760066 
2.280000000000387, 0.5959601440473382 
2.290000000000408, 0.6129672552327811 
2.3000000000004293, 0.6252259490815646 
2.3100000000004504, 0.6338823604013781 
2.3200000000004715, 0.639851327800312 
2.3300000000004926, 0.6438069338066539 
2.3400000000005137, 0.6462209793628253 
2.3500000000005348, 0.647409213683576 
2.360000000000556, 0.647570921847912 
2.370000000000577, 0.6468192126298242 
2.380000000000598, 0.6452037394402709 
2.390000000000619, 0.6427288897552493 
2.4000000000006403, 0.6393706636679106 
2.4100000000006614, 0.6350951498776459 
2.4200000000006825, 0.6298805882809125 
2.4300000000007036, 0.623743047830083 
2.4400000000007247, 0.616762488460687 
2.450000000000746, 0.6091020872322136 
2.460000000000767, 0.60101138361777 
2.470000000000788, 0.5928060796887348 
2.480000000000809, 0.5848254659565515 
2.49000000000083, 0.5773790660863949 
2.5000000000008513, 0.5707002155080979 
2.5100000000008724, 0.5649210702169721 
2.5200000000008935, 0.5600731562829595 
2.5300000000009146, 0.5561071959893067 
2.5400000000009357, 0.552921231109138 
2.550000000000957, 0.5503874234987607 
2.560000000000978, 0.5483722161920649 
2.570000000000999, 0.5467486108444332 
2.58000000000102, 0.545401722941165 
2.5900000000010412, 0.5442295712262006 
2.6000000000010624, 0.5431408801334702 
2.6100000000010835, 0.5420511109107903 
2.6200000000011046, 0.5408773232207733 
2.6300000000011257, 0.5395319185971926 
2.6400000000011468, 0.5379148103374196 
2.650000000001168, 0.535903005924297 
2.660000000001189, 0.5333358209568007 
2.67000000000121, 0.5299927181236714 
2.680000000001231, 0.5255586552349506 
2.6900000000012523, 0.5195680700863982 
2.7000000000012734, 0.5113118467675232 
2.7100000000012945, 0.4996793893969428 
2.7200000000013156, 0.48288658862117523 
2.7300000000013367, 0.45800671801014414 
2.740000000001358, 0.4201834699534444 
2.750000000001379, 0.36143012046892875 
2.7600000000014, 0.2692706207345695 
2.770000000001421, 0.12679489506111233 
2.780000000001442, -0.08155012847881456 
2.7900000000014633, -0.3568217493200281 
2.8000000000014844, -0.6750993353538568 
2.8100000000015055, -0.9940037128725133 
2.8200000000015266, -1.2739414897128072 
2.8300000000015477, -1.4922731928276347 
2.840000000001569, -1.6465860058200885 
2.85000000000159, -1.7483026467488179 
2.860000000001611, -1.8127502982314796 
2.870000000001632, -1.852922602995136 
2.8800000000016532, -1.8778913368528352 
2.8900000000016743, -1.893437503851012 
2.9000000000016954, -1.9031032026772745 
2.9100000000017165, -1.9090328925828028 
2.9200000000017377, -1.9125279954499428 
2.9300000000017588, -1.9143875119643614 
2.94000000000178, -1.9151138239995187 
2.950000000001801, -1.9150394892838183 
2.960000000001822, -1.9144086667826923 
2.970000000001843, -1.9134299334007925 
2.9800000000018643, -1.912304492675975 
2.9900000000018854, -1.9112266502049968 
3.0000000000019065, -1.9103571921559466 
3.0100000000019276, -1.909785975488142 
3.0200000000019487, -1.9095134523223085 
3.03000000000197, -1.909471310998877 
3.040000000001991, -1.9095720832604681 
3.050000000002012, -1.9097553119774462 
3.060000000002033, -1.9100031018143655 
3.070000000002054, -1.9103210276066172 
3.0800000000020753, -1.9107018841874757 
3.0900000000020964, -1.9110971526515372 
3.1000000000021175, -1.9114110697627933 
3.1100000000021386, -1.9115131808912196 
3.1200000000021597, -1.9112530781128905 
3.130000000002181, -1.9104630542606478 
3.140000000002202, -1.90894335217381 
3.150000000002223, -1.906430299938256 
3.160000000002244, -1.9025467875549056 
3.1700000000022652, -1.8967295636034744 
3.1800000000022863, -1.8881212050013585 
3.1900000000023074, -1.875407497194467 
3.2000000000023285, -1.8565754090179167 
3.2100000000023496, -1.8285713587455534 
3.2200000000023707, -1.7868806608519898 
3.230000000002392, -1.7251903098095753 
3.240000000002413, -1.6356330893159199 
3.250000000002434, -1.5105908759081417 
3.260000000002455, -1.3469109542926652 
3.2700000000024763, -1.151110412954091 
3.2800000000024974, -0.9405676782267006 
3.2900000000025185, -0.7372504948303338 
3.3000000000025396, -0.5585351568879663 
3.3100000000025607, -0.4124936299096783 
3.3200000000025818, -0.29904665621839677 
3.330000000002603, -0.2136095060437012 
3.340000000002624, -0.15025697761436885 
3.350000000002645, -0.10348518525624711 
3.360000000002666, -0.06885094906177874 
3.3700000000026873, -0.04301339403113567 
3.3800000000027084, -0.023550073946562774 
3.3900000000027295, -0.008733715817442976 
3.4000000000027506, 0.0024135242032970487 
3.4100000000027717, 0.010286724027911219 
3.420000000002793, 0.016228021902618357 
3.430000000002814, 0.020681304190212756 
3.440000000002835, 0.02396520647423099 
3.450000000002856, 0.026308221605741075 
3.460000000002877, 0.02787262790638395 
3.4700000000028983, 0.028770666059575147 
3.4800000000029194, 0.029075245777957462 
3.4900000000029405, 0.02882665660161506 
3.5000000000029616, 0.02803618520431692 
3.5100000000029827, 0.02668711715072557 
3.520000000003004, 0.02473325563064781 
3.530000000003025, 0.02209476667505754 
3.540000000003046, 0.018650806827474675 
3.550000000003067, 0.014227947757613237 
3.5600000000030882, 0.008582813008607242 
3.5700000000031094, 0.0013764969765066336 
3.5800000000031305, -0.007057189875893101 
3.5900000000031516, -0.01802160439963099 
3.6000000000031727, -0.03260897592887501 
3.6100000000031938, -0.052130963845592945 
3.620000000003215, -0.07844052752001376 
3.630000000003236, -0.1141395583868288 
3.640000000003257, -0.16281708774490122 
3.650000000003278, -0.22923948971409588 
3.6600000000032993, -0.31928755238942985 
3.6700000000033204, -0.4392365173228335 
3.6800000000033415, -0.5938150156019304 
3.6900000000033626, -0.7827326783497838 
3.7000000000033837, -0.9966651881897453 
3.710000000003405, -1.216080704152756 
3.720000000003426, -1.416928933738847 
3.730000000003447, -1.5813071140669868 
3.740000000003468, -1.703933679732623 
3.750000000003489, -1.7897168377154067 
3.7600000000035103, -1.8475104683220513 
3.7700000000035314, -1.8857346750106276 
3.7800000000035525, -1.9108253136889952 
3.7900000000035736, -1.9272354949632495 
3.8000000000035947, -1.9379080252461742 
3.810000000003616, -1.944751056233069 
3.820000000003637, -1.9489956195959952 
3.830000000003658, -1.951438190804671 
3.840000000003679, -1.9525994381497556 
3.8500000000037002, -1.9528280071917183 
3.8600000000037213, -1.952369548055938 
3.8700000000037424, -1.9514126864074883 
3.8800000000037635, -1.950116581505959 
3.8900000000037847, -1.9486205065383362 
3.9000000000038058, -1.9470372322249712 
3.910000000003827, -1.945439598601004 
3.920000000003848, -1.9438569828525525 
3.930000000003869, -1.9422943862470414 
3.94000000000389, -1.9407695171801942 
3.9500000000039113, -1.9393452645814304 
3.9600000000039324, -1.9381311800065038 
3.9700000000039535, -1.9372432206454075 
3.9800000000039746, -1.936740159565234 
3.9900000000039957, -1.9365774280886545 
4.000000000004016, -1.936609054982675 
4.010000000003993, -1.9366294521263505 
4.02000000000397, -1.9364183352366666 
4.030000000003946, -1.9357584642564243 
4.040000000003923, -1.9344189111012549 
4.0500000000039, -1.9321091849168899 
4.0600000000038765, -1.9284057083045123 
4.070000000003853, -1.9226389553529646 
4.08000000000383, -1.9137117308859066 
4.090000000003807, -1.8997957675816797 
4.100000000003783, -1.877825571461158 
4.11000000000376, -1.842695875903425 
4.120000000003737, -1.7861622422731402 
4.130000000003713, -1.695885875361086 
4.14000000000369, -1.556131971877167 
4.150000000003667, -1.3524742520760376 
4.1600000000036434, -1.0800547485190364 
4.17000000000362, -0.7494298771672623 
4.180000000003597, -0.3889271083821598 
4.1900000000035735, -0.04655608176379492 
4.20000000000355, 0.22660885935820277 
4.210000000003527, 0.4129589710573752 
4.220000000003504, 0.5282129473743441 
4.23000000000348, 0.5970006037464991 
4.240000000003457, 0.6382310327498901 
4.250000000003434, 0.6634911581872511 
4.26000000000341, 0.6793743259040599 
4.270000000003387, 0.689594337528043 
4.280000000003364, 0.6962794730266362 
4.2900000000033405, 0.7006847650824349 
4.300000000003317, 0.7035752081628787 
4.310000000003294, 0.7054338863210183 
4.320000000003271, 0.7065776094175699 
4.330000000003247, 0.7072229644380962 
4.340000000003224, 0.7075251291692057 
4.350000000003201, 0.7076012754836606 
4.360000000003177, 0.7075449477658469 
4.370000000003154, 0.7074349254285379 
4.380000000003131, 0.7073405162262426 
4.390000000003107, 0.7073243560722771 
4.400000000003084, 0.7074433020271642 
4.410000000003061, 0.7077477498620541 
4.4200000000030375, 0.7082796216666488 
4.430000000003014, 0.7090693255840025 
4.440000000002991, 0.7101321635786593 
4.450000000002968, 0.7114648982287094 
4.460000000002944, 0.7130433804217311 
4.470000000002921, 0.7148221452533389 
4.480000000002898, 0.7167365859582008 
4.490000000002874, 0.7187077093583913 
4.500000000002851, 0.7206487219686699 
4.510000000002828, 0.7224720776196176 
4.520000000002804, 0.724095395287829 
4.530000000002781, 0.7254449056754679 
4.540000000002758, 0.7264556468915442 
4.5500000000027345, 0.7270682020967575 
4.560000000002711, 0.7272220720117829 
4.570000000002688, 0.7268456390522606 
4.580000000002665, 0.7258420481418102 
4.590000000002641, 0.7240691418412382 
4.600000000002618, 0.7213096439493394 
4.610000000002595, 0.7172245999209468 
4.620000000002571, 0.7112777393247406 
4.630000000002548, 0.7026095542145696 
4.640000000002525, 0.6898264096824999 
4.6500000000025015, 0.6706553731975602 
4.660000000002478, 0.6414244989245753 
4.670000000002455, 0.5964587593628231 
4.6800000000024315, 0.5279948946406322 
4.690000000002408, 0.42836998205434357 
4.700000000002385, 0.29663182445816405 
4.710000000002362, 0.1462685284095596 
4.720000000002338, 0.001968534535012952 
4.730000000002315, -0.11521419745463612 
4.740000000002292, -0.20040069936605934 
4.750000000002268, -0.25819436208101 
4.760000000002245, -0.29623827085806487 
4.770000000002222, -0.32121987188911016 
4.7800000000021985, -0.33788756414338444 
4.790000000002175, -0.3493143207519644 
4.800000000002152, -0.3574074585918041 
4.810000000002129, -0.36333339469281983 
4.820000000002105, -0.3678063458884212 
4.830000000002082, -0.3712687701808123 
4.840000000002059, -0.3739999245650089 
4.850000000002035, -0.3761801521689751 
4.860000000002012, -0.37792882918443965 
4.870000000001989, -0.3793268673697947 
4.880000000001965, -0.3804301949873585 
4.890000000001942, -0.3812779569571683 
4.900000000001919, -0.38189761135655276 
4.9100000000018955, -0.3823081998837038 
4.920000000001872, -0.3825225554246712 
4.930000000001849, -0.38254891584393513 
4.940000000001826, -0.38239224371462 
