t, s[1].omega / s[0].omega 
0, -1.1799940372987587 
0.009999999999999995, -1.1792551331510743 
0.019999999999999934, -1.1782342710355147 
0.029999999999999874, -1.1769325592494377 
0.04000000000000012, -1.1753518183052167 
0.050000000000000405, -1.1734949361106892 
0.06000000000000069, -1.1713663131926322 
0.07000000000000098, -1.168972356015938 
0.08000000000000126, -1.1663219771957238 
0.09000000000000155, -1.1634270656050327 
0.10000000000000184, -1.1603028940205917 
0.11000000000000212, -1.1569684348259304 
0.12000000000000241, -1.1534465552808801 
0.130000000000002, -1.1497640653241394 
0.1400000000000009, -1.1459515968026703 
0.1499999999999998, -1.1420433070150249 
0.1599999999999987, -1.1380764220413524 
0.1699999999999976, -1.1340906618571092 
0.1799999999999965, -1.1301276097436255 
0.1899999999999954, -1.1262300906482516 
0.1999999999999943, -1.1224415976753546 
0.2099999999999932, -1.1188057529236592 
0.2199999999999921, -1.1153657216236792 
0.229999999999991, -1.1121634417614983 
0.2399999999999899, -1.1092385140904928 
0.2499999999999888, -1.1066266415343449 
0.2599999999999877, -1.1043576161438615 
0.2699999999999866, -1.1024530050178039 
0.2799999999999855, -1.1009238403711197 
0.2899999999999844, -1.0997687189980778 
0.2999999999999833, -1.0989727172853443 
0.3099999999999822, -1.0985074131842798 
0.3199999999999811, -1.0983320998487538 
0.32999999999998, -1.0983960356487914 
0.3399999999999789, -1.0986413740647878 
0.3499999999999778, -1.099006311729448 
0.35999999999997667, -1.099428004863957 
0.36999999999997557, -1.0998449150625282 
0.37999999999997447, -1.1001984097896895 
0.38999999999997337, -1.1004336106075798 
0.39999999999997227, -1.100499614937563 
0.40999999999997117, -1.100349297121113 
0.41999999999997006, -1.0999389217423428 
0.42999999999996896, -1.0992277871576475 
0.43999999999996786, -1.0981780731834443 
0.44999999999996676, -1.0967550050237118 
0.45999999999996566, -1.0949273736656642 
0.46999999999996456, -1.0926683774803476 
0.47999999999996346, -1.0899566780340577 
0.48999999999996235, -1.0867775052303252 
0.49999999999996125, -1.0831236149013288 
0.5099999999999602, -1.0789959064413703 
0.519999999999959, -1.0744035532515361 
0.529999999999958, -1.0693635785539013 
0.5399999999999568, -1.063899906732974 
0.5499999999999557, -1.0580420125381003 
0.5599999999999546, -1.0518233551101892 
0.5699999999999535, -1.0452798072668348 
0.5799999999999524, -1.0384482715285797 
0.5899999999999513, -1.0313656229394472 
0.5999999999999502, -1.0240680510456754 
0.6099999999999491, -1.016590805960077 
0.619999999999948, -1.0089682985657826 
0.6299999999999469, -1.001234468853401 
0.6399999999999458, -0.9934233198174746 
0.6499999999999447, -0.9855695141327504 
0.6599999999999436, -0.9777089420402203 
0.6699999999999425, -0.9698791863009354 
0.6799999999999414, -0.9621198292505871 
0.6899999999999403, -0.9544725646425626 
0.6999999999999392, -0.9469810912182421 
0.7099999999999381, -0.9396907753175431 
0.719999999999937, -0.9326480771972976 
0.7299999999999359, -0.9258997420185668 
0.7399999999999348, -0.9194917643006032 
0.7499999999999337, -0.913468146554422 
0.7599999999999326, -0.9078694903743273 
0.7699999999999315, -0.9027314812256508 
0.7799999999999304, -0.8980833539082993 
0.7899999999999293, -0.8939464493192716 
0.7999999999999282, -0.890332988402213 
0.8099999999999271, -0.8872451899212251 
0.819999999999926, -0.8846748408029679 
0.8299999999999249, -0.8826033907660021 
0.8399999999999238, -0.8810025907463358 
0.8499999999999227, -0.8798356351950076 
0.8599999999999216, -0.879058711985588 
0.8699999999999205, -0.8786228206322357 
0.8799999999999194, -0.8784756973396869 
0.8899999999999183, -0.8785636871938194 
0.8999999999999172, -0.8788334276954881 
0.9099999999999161, -0.8792332478571653 
0.919999999999915, -0.8797142349289692 
0.9299999999999139, -0.8802309680087909 
0.9399999999999128, -0.8807419573713114 
0.9499999999999117, -0.8812098558609841 
0.9599999999999106, -0.8816015222599666 
0.9699999999999095, -0.881888016379227 
0.9799999999999084, -0.8820445933315167 
0.9899999999999073, -0.8820507424672275 
0.9999999999999062, -0.8818902878575522 
1.0099999999999052, -0.8815515357950713 
1.019999999999904, -0.8810274252380207 
1.029999999999903, -0.8803156148686415 
1.039999999999902, -0.8794184308406742 
1.0499999999999008, -0.8783426062683725 
1.0599999999998997, -0.877098767858403 
1.0699999999998986, -0.8757006633652676 
1.0799999999998975, -0.8741641682508648 
1.0899999999998964, -0.872506151235568 
1.0999999999998953, -0.8707433070731897 
1.1099999999998942, -0.8688910749235351 
1.119999999999893, -0.8669627510426186 
1.129999999999892, -0.8649688786371483 
1.1399999999998909, -0.8629169619539102 
1.1499999999998898, -0.860811512970192 
1.1599999999998887, -0.8586544033634176 
1.1699999999998876, -0.8564454659384435 
1.1799999999998865, -0.8541832708099842 
1.1899999999998854, -0.8518659933891749 
1.1999999999998843, -0.8494922934154283 
1.2099999999998832, -0.8470621355170036 
1.219999999999882, -0.8445774994870752 
1.229999999999881, -0.8420429490994498 
1.2399999999998799, -0.8394660480200589 
1.2499999999998788, -0.8368576268885618 
1.2599999999998777, -0.834231914925039 
1.2699999999998766, -0.8316065521004905 
1.2799999999998755, -0.8290024951986055 
1.2899999999998744, -0.8264438252578656 
1.2999999999998733, -0.823957457572846 
1.3099999999998722, -0.821572751046827 
1.319999999999871, -0.8193210128821939 
1.32999999999987, -0.8172348980351515 
1.3399999999998689, -0.8153477101776699 
1.3499999999998678, -0.8136926208410179 
1.3599999999998666, -0.8123018340962885 
1.3699999999998655, -0.8112057334767422 
1.3799999999998644, -0.8104320539942399 
1.3899999999998633, -0.8100051237714628 
1.3999999999998622, -0.8099452165767621 
1.4099999999998611, -0.810268048895335 
1.41999999999986, -0.810984444350525 
1.429999999999859, -0.8121001760031251 
1.4399999999998578, -0.8136159850576399 
1.4499999999998567, -0.8155277642257985 
1.4599999999998556, -0.8178268863004678 
1.4699999999998545, -0.8205006535831861 
1.4799999999998534, -0.8235328413214767 
1.4899999999998523, -0.8269043075194742 
1.4999999999998512, -0.8305936415497476 
1.5099999999998501, -0.8345778241992041 
1.519999999999849, -0.8388328716852247 
1.529999999999848, -0.8433344356691134 
1.5399999999998468, -0.8480583305688048 
1.5499999999998457, -0.8529809589654203 
1.5599999999998446, -0.8580796062047714 
1.5699999999998435, -0.8633325771184943 
1.5799999999998424, -0.8687191519061539 
1.5899999999998413, -0.8742193454412089 
1.5999999999998402, -0.8798134653643722 
1.6099999999998391, -0.8854814799038075 
1.619999999999838, -0.8912022266091247 
1.629999999999837, -0.8969525175988166 
1.6399999999998358, -0.9027062239197317 
1.6499999999998347, -0.9084334481579421 
1.6599999999998336, -0.9140999157086384 
1.6699999999998325, -0.9196667245506599 
1.6799999999998314, -0.9250905834105072 
1.6899999999998303, -0.9303246320845219 
1.6999999999998292, -0.9353198724462672 
1.709999999999828, -0.9400271485712448 
1.719999999999827, -0.9443995133132372 
1.729999999999826, -0.9483947291299077 
1.7399999999998248, -0.951977598870011 
1.7499999999998237, -0.9551218277990638 
1.7599999999998226, -0.9578111868013142 
1.7699999999998215, -0.9600398648562937 
1.7799999999998204, -0.9618120374481915 
1.7899999999998193, -0.9631408022309722 
1.7999999999998182, -0.9640467166996881 
1.809999999999817, -0.9645562026171011 
1.819999999999816, -0.9647000625574363 
1.8299999999998149, -0.9645123002885059 
1.8399999999998138, -0.964029367289222 
1.8499999999998127, -0.9632898877272692 
1.8599999999998116, -0.9623348523962055 
1.8699999999998105, -0.9612082206122329 
1.8799999999998094, -0.9599578257750622 
1.8899999999998083, -0.9586364418156792 
1.8999999999998072, -0.9573028322816507 
1.909999999999806, -0.9560225731881512 
1.919999999999805, -0.9548684213524191 
1.9299999999998039, -0.9539200019503606 
1.9399999999998028, -0.9532626240847483 
1.9499999999998017, -0.9529851100235008 
1.9599999999998006, -0.9531766433792781 
1.9699999999997995, -0.9539227927242653 
1.9799999999997984, -0.9553010256379196 
1.9899999999997973, -0.9573761600800077 
1.9999999999997962, -0.9601962702584995 
2.0099999999998173, -0.9637895477105332 
2.0199999999998384, -0.968162509498695 
2.0299999999998595, -0.9732997621206819 
2.0399999999998806, -0.9791653096144596 
2.0499999999999017, -0.9857051843447578 
2.059999999999923, -0.9928510216689088 
2.069999999999944, -1.0005241216777951 
2.079999999999965, -1.0086395473203302 
2.089999999999986, -1.0171098831289742 
2.100000000000007, -1.0258483944324885 
2.1100000000000283, -1.0347714524605023 
2.1200000000000494, -1.0438002009410925 
2.1300000000000705, -1.0528615201715779 
2.1400000000000916, -1.0618883919345508 
2.1500000000001127, -1.0708197885087885 
2.160000000000134, -1.0796002112208247 
2.170000000000155, -1.0881789985027805 
2.180000000000176, -1.0965095174693404 
2.190000000000197, -1.104548349629833 
2.2000000000002182, -1.1122545794092609 
2.2100000000002393, -1.1195892894688113 
2.2200000000002604, -1.1265153537212447 
2.2300000000002815, -1.1329975922467745 
2.2400000000003026, -1.1390033094645153 
2.2500000000003237, -1.1445031799307295 
2.260000000000345, -1.149472382818339 
2.270000000000366, -1.1538918295568474 
2.280000000000387, -1.1577492947886276 
2.290000000000408, -1.1610402617499491 
2.3000000000004293, -1.163768334527585 
2.3100000000004504, -1.1659451451691694 
2.3200000000004715, -1.1675897765360652 
2.3300000000004926, -1.1687278097861635 
2.3400000000005137, -1.1693901680337753 
2.3500000000005348, -1.1696119527152429 
2.360000000000556, -1.1694314546517484 
2.370000000000577, -1.1688894745552292 
2.380000000000598, -1.1680290188832494 
2.390000000000619, -1.1668953577473393 
2.4000000000006403, -1.1655363513896713 
2.4100000000006614, -1.1640028788415577 
2.4200000000006825, -1.1623491464401448 
2.4300000000007036, -1.1606326281102255 
2.4400000000007247, -1.1589134097360598 
2.450000000000746, -1.1572527900864158 
2.460000000000767, -1.1557111321894462 
2.470000000000788, -1.1543451416420338 
2.480000000000809, -1.153204927051171 
2.49000000000083, -1.152331312499188 
2.5000000000008513, -1.1517538703338015 
2.5100000000008724, -1.1514900072195795 
2.5200000000008935, -1.1515451998156068 
2.5300000000009146, -1.1519142132156748 
2.5400000000009357, -1.1525829321275871 
2.550000000000957, -1.1535303542926434 
2.560000000000978, -1.1547303524892236 
2.570000000000999, -1.1561529711542937 
2.58000000000102, -1.1577652213463878 
2.5900000000010412, -1.1595315053840023 
2.6000000000010624, -1.1614138923605435 
2.6100000000010835, -1.1633724633864582 
2.6200000000011046, -1.1653658692656008 
2.6300000000011257, -1.1673521332558239 
2.6400000000011468, -1.1692896314548906 
2.650000000001168, -1.1711381246242063 
2.660000000001189, -1.1728597079582832 
2.67000000000121, -1.1744195791735557 
2.680000000001231, -1.1757865785399415 
2.6900000000012523, -1.1769335047669667 
2.7000000000012734, -1.177837243149984 
2.7100000000012945, -1.1784787526377252 
2.7200000000013156, -1.1788429508099292 
2.7300000000013367, -1.1789185192485576 
2.740000000001358, -1.1786976361277417 
2.750000000001379, -1.1781756351250476 
2.7600000000014, -1.1773505927893722 
2.770000000001421, -1.176222858679719 
2.780000000001442, -1.1747945590134958 
2.7900000000014633, -1.1730691190268705 
2.8000000000014844, -1.1710508564172633 
2.8100000000015055, -1.1687446952960274 
2.8200000000015266, -1.1661560373647055 
2.8300000000015477, -1.1632908075473887 
2.840000000001569, -1.160155669476491 
2.85000000000159, -1.1567583863667532 
2.860000000001611, -1.1531082879829688 
2.870000000001632, -1.1492167958776067 
2.8800000000016532, -1.1450979565214572 
2.8900000000016743, -1.1407689342083778 
2.9000000000016954, -1.1362504215804787 
2.9100000000017165, -1.1315669348302764 
2.9200000000017377, -1.1267469731435718 
2.9300000000017588, -1.1218230374144438 
2.94000000000178, -1.116831519675678 
2.950000000001801, -1.111812487488511 
2.960000000001822, -1.106809390124352 
2.970000000001843, -1.1018686994508073 
2.9800000000018643, -1.0970394657580655 
2.9900000000018854, -1.092372722758468 
3.0000000000019065, -1.0879206311876037 
3.0100000000019276, -1.0837352280252943 
3.0200000000019487, -1.0798666696843213 
3.03000000000197, -1.0763609350360746 
3.040000000001991, -1.073257082955003 
3.050000000002012, -1.0705843128564765 
3.060000000002033, -1.068359211375115 
3.070000000002054, -1.066583634377323 
3.0800000000020753, -1.0652436343860463 
3.0900000000020964, -1.0643096930418994 
3.1000000000021175, -1.0637382881991597 
3.1100000000021386, -1.063474577315555 
3.1200000000021597, -1.0634557825472362 
3.130000000002181, -1.0636147698264609 
3.140000000002202, -1.0638833396518699 
3.150000000002223, -1.0641948693941738 
3.160000000002244, -1.0644861197985747 
3.1700000000022652, -1.0646981924394003 
3.1800000000022863, -1.0647767632492773 
3.1900000000023074, -1.0646718028319908 
3.2000000000023285, -1.0643370276939963 
3.2100000000023496, -1.0637293187561094 
3.2200000000023707, -1.0628083079886723 
3.230000000002392, -1.0615362814504985 
3.240000000002413, -1.0598784836880217 
3.250000000002434, -1.0578038375905499 
3.260000000002455, -1.0552860186068778 
3.2700000000024763, -1.0523047490040989 
3.2800000000024974, -1.048847117518908 
3.2900000000025185, -1.0449086965752192 
3.3000000000025396, -1.0404942364081256 
3.3100000000025607, -1.0356177689003345 
3.3200000000025818, -1.0303020474014715 
3.330000000002603, -1.0245773629694161 
3.340000000002624, -1.018479885063711 
3.350000000002645, -1.0120497495580827 
3.360000000002666, -1.005329142983385 
3.3700000000026873, -0.998360607968678 
3.3800000000027084, -0.9911857331416426 
3.3900000000027295, -0.9838443108452739 
3.4000000000027506, -0.9763739675237564 
3.4100000000027717, -0.9688102087794199 
3.420000000002793, -0.9611867807525097 
3.430000000002814, -0.953536231882273 
3.440000000002835, -0.9458905602375063 
3.450000000002856, -0.9382818455871533 
3.460000000002877, -0.9307427863458468 
3.4700000000028983, -0.923307084631817 
3.4800000000029194, -0.9160096444778953 
3.4900000000029405, -0.9088865666995362 
3.5000000000029616, -0.9019749382204506 
3.5100000000029827, -0.8953124239454013 
3.520000000003004, -0.8889366764576216 
3.530000000003025, -0.8828845842975691 
3.540000000003046, -0.8771913849096282 
3.550000000003067, -0.8718896748638438 
3.5600000000030882, -0.8670083583786564 
3.5700000000031094, -0.8625715852192781 
3.5800000000031305, -0.8585977393270846 
3.5900000000031516, -0.855098547666554 
3.6000000000031727, -0.8520783818698414 
3.6100000000031938, -0.8495338206632783 
3.620000000003215, -0.8474535271914532 
3.630000000003236, -0.8458184723813955 
3.640000000003257, -0.8446025056297468 
3.650000000003278, -0.8437732413838833 
3.6600000000032993, -0.8432931997141379 
3.6700000000033204, -0.8431211157757246 
3.6800000000033415, -0.8432133209637345 
3.6900000000033626, -0.8435250993215294 
3.7000000000033837, -0.8440119357019124 
3.710000000003405, -0.8446305944735438 
3.720000000003426, -0.8453399949663327 
3.730000000003447, -0.8461018776580372 
3.740000000003468, -0.8468812790646282 
3.750000000003489, -0.8476468502305281 
3.7600000000035103, -0.8483710618120363 
3.7700000000035314, -0.8490303375838082 
3.7800000000035525, -0.8496051486102768 
3.7900000000035736, -0.850080084266011 
3.8000000000035947, -0.8504438967136404 
3.810000000003616, -0.850689496135144 
3.820000000003637, -0.8508138592007558 
3.830000000003658, -0.8508178069574932 
3.840000000003679, -0.8507056133190795 
3.8500000000037002, -0.8504844221968973 
3.8600000000037213, -0.850163477729462 
3.8700000000037424, -0.8497532030972242 
3.8800000000037635, -0.8492641926005323 
3.8900000000037847, -0.8487062028381784 
3.9000000000038058, -0.8480872376974374 
3.910000000003827, -0.8474128170626899 
3.920000000003848, -0.8466855020220017 
3.930000000003869, -0.8459047230894318 
3.94000000000389, -0.8450669264935817 
3.9500000000039113, -0.8441660208353441 
3.9600000000039324, -0.8431940760976387 
3.9700000000039535, -0.8421422026466793 
3.9800000000039746, -0.8410015227840398 
3.9900000000039957, -0.839764144071404 
4.000000000004016, -0.8384240528674061 
4.010000000003993, -0.8369778667200813 
4.02000000000397, -0.8354254114541853 
4.030000000003946, -0.8337701173962578 
4.040000000003923, -0.8320192534880471 
4.0500000000039, -0.8301840337412727 
4.0600000000038765, -0.8282796356402412 
4.070000000003853, -0.8263251652734079 
4.08000000000383, -0.8243435916845269 
4.090000000003807, -0.8223616567139268 
4.100000000003783, -0.8204097501155501 
4.11000000000376, -0.818521726152575 
4.120000000003737, -0.8167346295391924 
4.130000000003713, -0.8150882969222197 
4.14000000000369, -0.8136248055483979 
4.150000000003667, -0.8123877528566374 
4.1600000000036434, -0.8114213680526265 
4.17000000000362, -0.8107694770063791 
4.180000000003597, -0.8104743621847997 
4.1900000000035735, -0.8105755766874079 
4.20000000000355, -0.8111087829776086 
4.210000000003527, -0.8121046905987009 
4.220000000003504, -0.8135881622700202 
4.23000000000348, -0.8155775449125744 
4.240000000003457, -0.81808426326062 
4.250000000003434, -0.8211126915403717 
4.26000000000341, -0.8246602962872811 
4.270000000003387, -0.8287180234659007 
4.280000000003364, -0.8332708876075436 
4.2900000000033405, -0.8382987106201222 
4.300000000003317, -0.8437769531617332 
4.310000000003294, -0.8496775811238015 
4.320000000003271, -0.8559699125348692 
4.330000000003247, -0.8626213947459049 
4.340000000003224, -0.8695982670950341 
4.350000000003201, -0.8768660699363958 
4.360000000003177, -0.8843899671613699 
4.370000000003154, -0.8921348569349679 
4.380000000003131, -0.90006525552449 
4.390000000003107, -0.9081449531738627 
4.400000000003084, -0.9163364601583968 
4.410000000003061, -0.9246002860380601 
4.4200000000030375, -0.9328941252291811 
4.430000000003014, -0.9411720551930326 
4.440000000002991, -0.9493838854092628 
4.450000000002968, -0.9574748188608208 
4.460000000002944, -0.9653855936431089 
4.470000000002921, -0.9730532502437549 
4.480000000002898, -0.9804126118796098 
4.490000000002874, -0.9873984695023731 
4.500000000002851, -0.9939483393545273 
4.510000000002828, -1.000005532219856 
4.520000000002804, -1.0055221728555845 
4.530000000002781, -1.0104617692784308 
4.540000000002758, -1.0148009757652192 
4.5500000000027345, -1.0185303181194412 
4.560000000002711, -1.0216538264971922 
4.570000000002688, -1.0241877045867875 
4.580000000002665, -1.0261583087723443 
4.590000000002641, -1.0275997875567875 
4.600000000002618, -1.0285517341352157 
4.610000000002595, -1.029057148638462 
4.620000000002571, -1.0291609171092677 
4.630000000002548, -1.0289089172354542 
4.640000000002525, -1.028347773674867 
4.6500000000025015, -1.0275252153919208 
4.660000000002478, -1.026490932071848 
4.670000000002455, -1.0252977801445118 
4.6800000000024315, -1.0240031450407538 
4.690000000002408, -1.0226702228432323 
4.700000000002385, -1.0213689460724769 
4.710000000002362, -1.0201762572458073 
4.720000000002338, -1.019175448267652 
4.730000000002315, -1.0184543526144778 
4.740000000002292, -1.0181023120112345 
4.750000000002268, -1.0182060341456054 
4.760000000002245, -1.0188446838370204 
4.770000000002222, -1.0200847561772195 
4.7800000000021985, -1.0219754063700195 
4.790000000002175, -1.0245449085346512 
4.800000000002152, -1.0277987681265779 
4.810000000002129, -1.0317197467425452 
4.820000000002105, -1.0362697383879689 
4.830000000002082, -1.0413931435343555 
4.840000000002059, -1.0470211906967217 
4.850000000002035, -1.0530765905054764 
4.860000000002012, -1.05947796901269 
4.870000000001989, -1.0661436770761976 
4.880000000001965, -1.0729947579686012 
4.890000000001942, -1.0799570266930851 
4.900000000001919, -1.0869623395949182 
4.9100000000018955, -1.0939492005612397 
4.920000000001872, -1.1008628669509244 
