t, s[1].omega / s[0].omega 
0, -0.5999977273479733 
0.009999999999999995, -0.5997758503127003 
0.019999999999999934, -0.5995585057347903 
0.029999999999999874, -0.5993302053869319 
0.04000000000000012, -0.5990728963814036 
0.050000000000000405, -0.5987728410720938 
0.06000000000000069, -0.5984245188795093 
0.07000000000000098, -0.598031178327438 
0.08000000000000126, -0.5976039005509688 
0.09000000000000155, -0.597161464973934 
0.10000000000000184, -0.5967325763226965 
0.11000000000000212, -0.5963612730186969 
0.12000000000000241, -0.5961160275886306 
0.130000000000002, -0.5961029093948407 
0.1400000000000009, -0.5964826146591558 
0.1499999999999998, -0.5974892617198962 
0.1599999999999987, -0.5994440439657347 
0.1699999999999976, -0.6027469355798293 
0.1799999999999965, -0.6078143992245578 
0.1899999999999954, -0.6149223096805904 
0.1999999999999943, -0.6239521603097742 
0.2099999999999932, -0.6341744008865566 
0.2199999999999921, -0.6443453115842683 
0.229999999999991, -0.6532242838615887 
0.2399999999999899, -0.660126933126455 
0.2499999999999888, -0.6650374405709658 
0.2599999999999877, -0.6683277364561626 
0.2699999999999866, -0.67044696627478 
0.2799999999999855, -0.6717657565270972 
0.2899999999999844, -0.6725444245748241 
0.2999999999999833, -0.6729506755517495 
0.3099999999999822, -0.6730848229878237 
0.3199999999999811, -0.6729987860156592 
0.32999999999998, -0.6727069083179343 
0.3399999999999789, -0.6721898261346916 
0.3499999999999778, -0.6713933523790584 
0.35999999999997667, -0.6702257122213746 
0.36999999999997557, -0.6685600882239936 
0.37999999999997447, -0.6662547623569717 
0.38999999999997337, -0.6632033686011486 
0.39999999999997227, -0.6594091043289015 
0.40999999999997117, -0.65503914497479 
0.41999999999997006, -0.6504025967770983 
0.42999999999996896, -0.6458507534007498 
0.43999999999996786, -0.6416691366899683 
0.44999999999996676, -0.6380260696120812 
0.45999999999996566, -0.6349815727655597 
0.46999999999996456, -0.6325231711600368 
0.47999999999996346, -0.6306003028790064 
0.48999999999996235, -0.6291471195265346 
0.49999999999996125, -0.6280947051199399 
0.5099999999999602, -0.6273768283321942 
0.519999999999959, -0.6269326128664162 
0.529999999999958, -0.6267079894507719 
0.5399999999999568, -0.6266566434616211 
0.5499999999999557, -0.6267406005009379 
0.5599999999999546, -0.6269304507895647 
0.5699999999999535, -0.6272052516017828 
0.5799999999999524, -0.6275521180644291 
0.5899999999999513, -0.6279652559545119 
0.5999999999999502, -0.6284437569034819 
0.6099999999999491, -0.6289872646934741 
0.619999999999948, -0.6295892866452585 
0.6299999999999469, -0.6302298122825476 
0.6399999999999458, -0.6308712083264749 
0.6499999999999447, -0.6314618162893011 
0.6599999999999436, -0.6319480187076394 
0.6699999999999425, -0.6322891187803383 
0.6799999999999414, -0.6324663654919618 
0.6899999999999403, -0.6324819320477022 
0.6999999999999392, -0.6323509930038816 
0.7099999999999381, -0.6320930241674279 
0.719999999999937, -0.6317263905935342 
0.7299999999999359, -0.6312672871613454 
0.7399999999999348, -0.6307328275095218 
0.7499999999999337, -0.6301484619644836 
0.7599999999999326, -0.6295608875901044 
0.7699999999999315, -0.6290580798602845 
0.7799999999999304, -0.6287963225660171 
0.7899999999999293, -0.6290268023391825 
0.7999999999999282, -0.6300969865917477 
0.8099999999999271, -0.6323772865692922 
0.819999999999926, -0.6360659731760625 
0.8299999999999249, -0.6409330224848262 
0.8399999999999238, -0.6462628282116145 
0.8499999999999227, -0.6512084786515986 
0.8599999999999216, -0.6552685942224721 
0.8699999999999205, -0.6583909108980223 
0.8799999999999194, -0.66074035077008 
0.8899999999999183, -0.662493514342947 
0.8999999999999172, -0.6637810058436828 
0.9099999999999161, -0.6646980385172009 
0.919999999999915, -0.66531859295519 
0.9299999999999139, -0.6657004203440517 
0.9399999999999128, -0.6658854299405343 
0.9499999999999117, -0.6658991222733348 
0.9599999999999106, -0.6657499545661963 
0.9699999999999095, -0.6654285485055632 
0.9799999999999084, -0.6649070928311227 
0.9899999999999073, -0.6641406569122161 
0.9999999999999062, -0.663073947136026 
1.0099999999999052, -0.6616576384408897 
1.019999999999904, -0.6598742843957628 
1.029999999999903, -0.6577633399297265 
1.039999999999902, -0.6554264647575507 
1.0499999999999008, -0.6530031639905253 
1.0599999999998997, -0.6506303000151445 
1.0699999999998986, -0.6484108323830142 
1.0799999999998975, -0.6464048989096047 
1.0899999999998964, -0.6446381390363569 
1.0999999999998953, -0.643115607000532 
1.1099999999998942, -0.6418333137579967 
1.119999999999893, -0.6407849496545923 
1.129999999999892, -0.6399645216848092 
1.1399999999998909, -0.6393665559372839 
1.1499999999998898, -0.6389853427330399 
1.1599999999998887, -0.6388142360221263 
1.1699999999998876, -0.6388455560102424 
1.1799999999998865, -0.6390712420297384 
1.1899999999998854, -0.6394840677291078 
1.1999999999998843, -0.6400789569392951 
1.2099999999998832, -0.6408536827470115 
1.219999999999882, -0.641807940729002 
1.229999999999881, -0.6429395476453623 
1.2399999999998799, -0.6442367840918194 
1.2499999999998788, -0.6456675286813892 
1.2599999999998777, -0.6471693849617949 
1.2699999999998766, -0.6486489093338208 
1.2799999999998755, -0.6499971576640636 
1.2899999999998744, -0.6511185865829364 
1.2999999999998733, -0.6519573192250032 
1.3099999999998722, -0.6525045713992214 
1.319999999999871, -0.6527861572624674 
1.32999999999987, -0.6528421983715837 
1.3399999999998689, -0.6527106793128168 
1.3499999999998678, -0.652418683500283 
1.3599999999998666, -0.6519796324970428 
1.3699999999998655, -0.6513937834279735 
1.3799999999998644, -0.6506503807553574 
1.3899999999998633, -0.6497312332206755 
1.3999999999998622, -0.6486161518114059 
1.4099999999998611, -0.6472896907970181 
1.41999999999986, -0.6457443267817045 
1.429999999999859, -0.6439674181729304 
1.4399999999998578, -0.6418991824972184 
1.4499999999998567, -0.6393895337588897 
1.4599999999998556, -0.6362660830743615 
1.4699999999998545, -0.6325844803906163 
1.4799999999998534, -0.628812132715937 
1.4899999999998523, -0.6256018845192836 
1.4999999999998512, -0.6233613968225166 
1.5099999999998501, -0.6220962280603681 
1.519999999999849, -0.621563181403882 
1.529999999999848, -0.6214728405104932 
1.5399999999998468, -0.621596463535578 
1.5499999999998457, -0.6217867228549647 
1.5599999999998446, -0.6219605352787552 
1.5699999999998435, -0.6220750500249788 
1.5799999999998424, -0.6221083314120353 
1.5899999999998413, -0.6220465098559134 
1.5999999999998402, -0.6218761965216513 
1.6099999999998391, -0.6215809708251697 
1.619999999999838, -0.6211416803245781 
1.629999999999837, -0.6205409613404412 
1.6399999999998358, -0.6197716777611995 
1.6499999999998347, -0.6188462386793628 
1.6599999999998336, -0.6178007105560337 
1.6699999999998325, -0.6166886757075614 
1.6799999999998314, -0.6155666224225076 
1.6899999999998303, -0.6144792963316348 
1.6999999999998292, -0.6134527599386427 
1.709999999999828, -0.6124964631085255 
1.719999999999827, -0.6116104025088098 
1.729999999999826, -0.6107927052878744 
1.7399999999998248, -0.6100450667311977 
1.7499999999998237, -0.6093757629755583 
1.7599999999998226, -0.6088011123224839 
1.7699999999998215, -0.608346304115486 
1.7799999999998204, -0.6080460809730426 
1.7899999999998193, -0.6079453710975588 
1.7999999999998182, -0.6080997970335955 
1.809999999999817, -0.608575950843688 
1.819999999999816, -0.6094512089916734 
1.8299999999998149, -0.6108123845449951 
1.8399999999998138, -0.6127513946660597 
1.8499999999998127, -0.6153542631605629 
1.8599999999998116, -0.6186778947193705 
1.8699999999998105, -0.6227100100300573 
1.8799999999998094, -0.6273174513607703 
1.8899999999998083, -0.6322110338407081 
1.8999999999998072, -0.6369758493659924 
1.909999999999806, -0.6411904791227595 
1.919999999999805, -0.644575043825147 
1.9299999999998039, -0.6470608261502018 
1.9399999999998028, -0.64874579489745 
1.9499999999998017, -0.6497989545093166 
1.9599999999998006, -0.6503850079377967 
1.9699999999997995, -0.6506302490080011 
1.9799999999997984, -0.6506162966991516 
1.9899999999997973, -0.6503841959964516 
1.9999999999997962, -0.6499384627758017 
2.0099999999998173, -0.6492464587245397 
2.0199999999998384, -0.6482310665845876 
2.0299999999998595, -0.6467558747634287 
2.0399999999998806, -0.6446051450079091 
2.0499999999999017, -0.6414707721721703 
2.059999999999923, -0.6369800396247558 
2.069999999999944, -0.6308190029477421 
2.079999999999965, -0.6229681820515047 
2.089999999999986, -0.6139138070126735 
2.100000000000007, -0.6045818426554436 
2.1100000000000283, -0.5959563574434156 
2.1200000000000494, -0.5886953862381719 
2.1300000000000705, -0.5830185756226107 
2.1400000000000916, -0.578824724917953 
2.1500000000001127, -0.5758620998760019 
2.160000000000134, -0.5738492210672443 
2.170000000000155, -0.5725342303454 
2.180000000000176, -0.571714270705522 
2.190000000000197, -0.5712354542775664 
2.2000000000002182, -0.570985528555406 
2.2100000000002393, -0.5708849635876374 
2.2200000000002604, -0.5708788032268458 
2.2300000000002815, -0.5709301258644033 
2.2400000000003026, -0.5710153544281227 
2.2500000000003237, -0.5711213501126494 
2.260000000000345, -0.5712438742586944 
2.270000000000366, -0.5713864650603577 
2.280000000000387, -0.5715582584675187 
2.290000000000408, -0.5717694116943719 
2.3000000000004293, -0.5720241354411953 
2.3100000000004504, -0.57231358263067 
2.3200000000004715, -0.5726125236521457 
2.3300000000004926, -0.5728830538416799 
2.3400000000005137, -0.5730848122335008 
2.3500000000005348, -0.5731865143118224 
2.360000000000556, -0.5731724761629201 
2.370000000000577, -0.5730418091486335 
2.380000000000598, -0.5728029857312067 
2.390000000000619, -0.572468080198544 
2.4000000000006403, -0.5720494302988679 
2.4100000000006614, -0.571559533384155 
2.4200000000006825, -0.5710142335810622 
2.4300000000007036, -0.5704394946440797 
2.4400000000007247, -0.5698824395137845 
2.450000000000746, -0.569426679279606 
2.460000000000767, -0.5692080720338936 
2.470000000000788, -0.5694163351434377 
2.480000000000809, -0.5702492175278884 
2.49000000000083, -0.5717784324173859 
2.5000000000008513, -0.5737558527769411 
2.5100000000008724, -0.5755733810016295 
2.5200000000008935, -0.5766226180478363 
2.5300000000009146, -0.5767954125709895 
2.5400000000009357, -0.5764941668121658 
2.550000000000957, -0.5761846465931539 
2.560000000000978, -0.5760886440898558 
2.570000000000999, -0.5762047047957399 
2.58000000000102, -0.5764423756372707 
2.5900000000010412, -0.5767115980743451 
2.6000000000010624, -0.5769515005795218 
2.6100000000010835, -0.5771285188332576 
2.6200000000011046, -0.5772261797025057 
2.6300000000011257, -0.5772356760025656 
2.6400000000011468, -0.5771494033859336 
2.650000000001168, -0.5769574222375454 
2.660000000001189, -0.5766467229452155 
2.67000000000121, -0.5762036350025577 
2.680000000001231, -0.5756196407861804 
2.6900000000012523, -0.5748993256502938 
2.7000000000012734, -0.5740664471606987 
2.7100000000012945, -0.5731628411426485 
2.7200000000013156, -0.5722383799737126 
2.7300000000013367, -0.5713368398783139 
2.740000000001358, -0.5704856604649701 
2.750000000001379, -0.5696940877767872 
2.7600000000014, -0.5689583779717933 
2.770000000001421, -0.5682697025046213 
2.780000000001442, -0.5676209640253301 
2.7900000000014633, -0.567011004736334 
2.8000000000014844, -0.5664467107314513 
2.8100000000015055, -0.5659443657602488 
2.8200000000015266, -0.5655314474403303 
2.8300000000015477, -0.5652495282545938 
2.840000000001569, -0.5651585004985972 
2.85000000000159, -0.5653420695289558 
2.860000000001611, -0.5659141794979903 
2.870000000001632, -0.5670254006532818 
2.8800000000016532, -0.5688667136740951 
2.8900000000016743, -0.5716646486144316 
2.9000000000016954, -0.5756556623839117 
2.9100000000017165, -0.5810211425299159 
2.9200000000017377, -0.5877691127985252 
2.9300000000017588, -0.5955894970758135 
2.94000000000178, -0.6037935997392991 
2.950000000001801, -0.6114809216982355 
2.960000000001822, -0.6179035142206264 
2.970000000001843, -0.6227473732276338 
2.9800000000018643, -0.6261166063814476 
2.9900000000018854, -0.6283234175964535 
3.0000000000019065, -0.6296978298937618 
3.0100000000019276, -0.6305004930786684 
3.0200000000019487, -0.6309091656341316 
3.03000000000197, -0.6310330315561623 
3.040000000001991, -0.6309297321924683 
3.050000000002012, -0.6306167401892596 
3.060000000002033, -0.6300758625378572 
3.070000000002054, -0.6292519773060173 
3.0800000000020753, -0.6280487959229586 
3.0900000000020964, -0.626328247256748 
3.1000000000021175, -0.6239268045944909 
3.1100000000021386, -0.62070605912751 
3.1200000000021597, -0.6166391797519031 
3.130000000002181, -0.6118891953662704 
3.140000000002202, -0.6068024743699575 
3.150000000002223, -0.6017948707605008 
3.160000000002244, -0.5972102519422424 
3.1700000000022652, -0.5932462608563353 
3.1800000000022863, -0.5899630746874523 
3.1900000000023074, -0.5873315584507715 
3.2000000000023285, -0.585280085225077 
3.2100000000023496, -0.583724891120738 
3.2200000000023707, -0.5825853065451572 
3.230000000002392, -0.5817896890230172 
3.240000000002413, -0.5812768863883817 
3.250000000002434, -0.5809960337256008 
3.260000000002455, -0.5809059678948887 
3.2700000000024763, -0.5809747061115249 
3.2800000000024974, -0.5811790730221816 
3.2900000000025185, -0.581504423330745 
3.3000000000025396, -0.581944275195755 
3.3100000000025607, -0.5824993876383572 
3.3200000000025818, -0.5831753779867063 
3.330000000002603, -0.5839776738645055 
3.340000000002624, -0.5849030733829796 
3.350000000002645, -0.5859291591731306 
3.360000000002666, -0.5870061916663205 
3.3700000000026873, -0.5880586402758559 
3.3800000000027084, -0.5890007060900053 
3.3900000000027295, -0.5897604177417162 
3.4000000000027506, -0.5902982316225149 
3.4100000000027717, -0.5906095841372173 
3.420000000002793, -0.5907135162674795 
3.430000000002814, -0.5906372730171032 
3.440000000002835, -0.5904044961766148 
3.450000000002856, -0.5900287740532122 
3.460000000002877, -0.589510847147451 
3.4700000000028983, -0.5888371768808138 
3.4800000000029194, -0.5879780519556107 
3.4900000000029405, -0.586883504478652 
3.5000000000029616, -0.5854742410660511 
3.5100000000029827, -0.5836223740698055 
3.520000000003004, -0.5811158932572439 
3.530000000003025, -0.5776155331388446 
3.540000000003046, -0.5726703940155792 
3.550000000003067, -0.5659349774659597 
3.5600000000030882, -0.557609776735484 
3.5700000000031094, -0.5486797766226813 
3.5800000000031305, -0.5404732343584363 
3.5900000000031516, -0.5339145733290855 
3.6000000000031727, -0.5292278026606734 
3.6100000000031938, -0.5261518124101129 
3.620000000003215, -0.5242628049720971 
3.630000000003236, -0.5231684284732676 
3.640000000003257, -0.5225721342082708 
3.650000000003278, -0.5222715857665541 
3.6600000000032993, -0.5221364483233819 
3.6700000000033204, -0.5220854565295185 
3.6800000000033415, -0.5220686728925857 
3.6900000000033626, -0.522055413972667 
3.7000000000033837, -0.5220268676992496 
3.710000000003405, -0.5219723641968378 
3.720000000003426, -0.5218883946670669 
3.730000000003447, -0.5217792499406757 
3.740000000003468, -0.5216575236999028 
3.750000000003489, -0.5215423304693776 
3.7600000000035103, -0.5214539515830874 
3.7700000000035314, -0.5214059333079353 
3.7800000000035525, -0.5213979903709379 
3.7900000000035736, -0.5214135707533216 
3.8000000000035947, -0.5214239906657734 
3.810000000003616, -0.5213974821778607 
3.820000000003637, -0.5213084936409942 
3.830000000003658, -0.5211427362576535 
3.840000000003679, -0.5208968236647985 
3.8500000000037002, -0.5205747286742816 
3.8600000000037213, -0.5201841299528042 
3.8700000000037424, -0.5197346023328531 
3.8800000000037635, -0.5192383529361214 
3.8900000000037847, -0.5187137100373458 
3.9000000000038058, -0.5181915857437887 
3.910000000003827, -0.5177248108129342 
3.920000000003848, -0.5173980566886193 
3.930000000003869, -0.5173292274216712 
3.94000000000389, -0.5176387773019813 
3.9500000000039113, -0.5183487272654664 
3.9600000000039324, -0.519204697721838 
3.9700000000039535, -0.5195725915722166 
3.9800000000039746, -0.518729148394142 
3.9900000000039957, -0.5165110712143579 
4.000000000004016, -0.5135555121041369 
4.010000000003993, -0.5107492530001381 
4.02000000000397, -0.5086215051189347 
4.030000000003946, -0.5072523455111075 
4.040000000003923, -0.5064842507977948 
4.0500000000039, -0.5061126337140708 
4.0600000000038765, -0.5059701596598336 
4.070000000003853, -0.5059425595936535 
4.08000000000383, -0.505958674796197 
4.090000000003807, -0.5059761137740086 
4.100000000003783, -0.5059696294004417 
4.11000000000376, -0.5059234373047746 
4.120000000003737, -0.5058270548990704 
4.130000000003713, -0.5056740988317827 
4.14000000000369, -0.505463486389364 
4.150000000003667, -0.5052019932226299 
4.1600000000036434, -0.5049061240055256 
4.17000000000362, -0.5046007107351449 
4.180000000003597, -0.5043129335265755 
4.1900000000035735, -0.5040634666197994 
4.20000000000355, -0.5038588876989265 
4.210000000003527, -0.5036892398579189 
4.220000000003504, -0.5035319822347805 
4.23000000000348, -0.50336024870661 
4.240000000003457, -0.5031512203500881 
4.250000000003434, -0.5028909535305324 
4.26000000000341, -0.5025748027534418 
4.270000000003387, -0.5022052335006781 
4.280000000003364, -0.5017895413062557 
4.2900000000033405, -0.501339222692547 
4.300000000003317, -0.5008718442958944 
4.310000000003294, -0.5004159144423099 
4.320000000003271, -0.5000192783927735 
4.330000000003247, -0.49976113395357646 
4.340000000003224, -0.49976524688331914 
4.350000000003201, -0.5002040957421126 
4.360000000003177, -0.5012666530643554 
4.370000000003154, -0.5030431388511883 
4.380000000003131, -0.505309340170014 
4.390000000003107, -0.5073681066796416 
4.400000000003084, -0.5083170362518806 
4.410000000003061, -0.5077629258765539 
4.4200000000030375, -0.5061740278483811 
4.430000000003014, -0.5043829855482731 
4.440000000002991, -0.5029538786133405 
4.450000000002968, -0.5020391380699787 
4.460000000002944, -0.501554243872518 
4.470000000002921, -0.5013527287441033 
4.480000000002898, -0.5013082891080216 
4.490000000002874, -0.5013336666946336 
4.500000000002851, -0.5013746868316369 
4.510000000002828, -0.5013992493525468 
4.520000000002804, -0.5013881019512746 
4.530000000002781, -0.501328789392872 
4.540000000002758, -0.5012126194587854 
4.5500000000027345, -0.5010343005915894 
4.560000000002711, -0.5007938022821927 
4.570000000002688, -0.5004993403243951 
4.580000000002665, -0.500169283266842 
4.590000000002641, -0.49983033244000924 
4.600000000002618, -0.4995109272695271 
4.610000000002595, -0.4992320544902814 
4.620000000002571, -0.49899987822467284 
4.630000000002548, -0.4988039116194063 
4.640000000002525, -0.49862152438813234 
4.6500000000025015, -0.49842635111985983 
4.660000000002478, -0.4981963898519968 
4.670000000002455, -0.4979184269847862 
4.6800000000024315, -0.497588244006388 
4.690000000002408, -0.49720849519788884 
4.700000000002385, -0.4967866739911718 
4.710000000002362, -0.49633479336778913 
4.720000000002338, -0.4958715805914623 
4.730000000002315, -0.49542770184955076 
4.740000000002292, -0.49505453020450485 
4.750000000002268, -0.49483638940653096 
4.760000000002245, -0.4949032464003033 
4.770000000002222, -0.49543202087057736 
4.7800000000021985, -0.49660645297387 
4.790000000002175, -0.49848765334918077 
4.800000000002152, -0.5007892607551014 
4.810000000002129, -0.5027479653594797 
4.820000000002105, -0.5034666973375687 
4.830000000002082, -0.5026544343746019 
4.840000000002059, -0.5008819264718829 
4.850000000002035, -0.499000526314829 
4.860000000002012, -0.4975375469072511 
4.870000000001989, -0.496609363377331 
4.880000000001965, -0.4961142630377539 
4.890000000001942, -0.4959014907033012 
4.900000000001919, -0.4958453447518433 
4.9100000000018955, -0.495859990212922 
4.920000000001872, -0.49589224727896253 
