t, s[1].omega / s[0].omega 
0, -0.4798261981606918 
0.009999999999999995, -0.46306615822835806 
0.019999999999999934, -0.44890407640805796 
0.029999999999999874, -0.43821293783230486 
0.04000000000000012, -0.430705575131586 
0.050000000000000405, -0.42565079489922153 
0.06000000000000069, -0.42232750589584755 
0.07000000000000098, -0.42017748551722284 
0.08000000000000126, -0.4188105316923683 
0.09000000000000155, -0.4179665946132668 
0.10000000000000184, -0.4174765887643842 
0.11000000000000212, -0.41723266017339633 
0.12000000000000241, -0.41716809218967177 
0.130000000000002, -0.4172446216916107 
0.1400000000000009, -0.41744502246929766 
0.1499999999999998, -0.4177693238475976 
0.1599999999999987, -0.41823329542646404 
0.1699999999999976, -0.41886764247897945 
0.1799999999999965, -0.4197157511310798 
0.1899999999999954, -0.4208270478275734 
0.1999999999999943, -0.42224266832097673 
0.2099999999999932, -0.42397161607886236 
0.2199999999999921, -0.4259618526376886 
0.229999999999991, -0.42808296375167176 
0.2399999999999899, -0.4301445158606317 
0.2499999999999888, -0.4319553978955205 
0.2599999999999877, -0.43338931432681466 
0.2699999999999866, -0.43441034788486954 
0.2799999999999855, -0.43505093479929025 
0.2899999999999844, -0.43537141553113223 
0.2999999999999833, -0.43542809113006087 
0.3099999999999822, -0.43525630508195307 
0.3199999999999811, -0.4348628192975523 
0.32999999999998, -0.434220223745491 
0.3399999999999789, -0.4332586953641912 
0.3499999999999778, -0.4318541122227219 
0.35999999999997667, -0.4298183143069977 
0.36999999999997557, -0.42691119681402157 
0.37999999999997447, -0.4229111107359252 
0.38999999999997337, -0.4177653432014782 
0.39999999999997227, -0.4117466590876913 
0.40999999999997117, -0.4054389318844279 
0.41999999999997006, -0.39949065506421766 
0.42999999999996896, -0.39434290061267496 
0.43999999999996786, -0.39014571837555784 
0.44999999999996676, -0.38684157844739714 
0.45999999999996566, -0.38428349176892695 
0.46999999999996456, -0.3823139085256186 
0.47999999999996346, -0.3807998674318326 
0.48999999999996235, -0.3796422740544486 
0.49999999999996125, -0.37877431382905014 
0.5099999999999602, -0.3781571174844832 
0.519999999999959, -0.37777627132750113 
0.529999999999958, -0.3776406234427695 
0.5399999999999568, -0.3777840890907522 
0.5499999999999557, -0.37827110825645993 
0.5599999999999546, -0.37920663149431333 
0.5699999999999535, -0.3807515706768393 
0.5799999999999524, -0.3831436164983917 
0.5899999999999513, -0.3867188172566084 
0.5999999999999502, -0.3919161112827288 
0.6099999999999491, -0.3992181454384484 
0.619999999999948, -0.4089458781227793 
0.6299999999999469, -0.42086117341250223 
0.6399999999999458, -0.43379994240015457 
0.6499999999999447, -0.44590855553212494 
0.6599999999999436, -0.455633820599603 
0.6699999999999425, -0.4625081060635467 
0.6799999999999414, -0.46697102747982944 
0.6899999999999403, -0.46974276811550075 
0.6999999999999392, -0.47142966370394535 
0.7099999999999381, -0.47243616394274024 
0.719999999999937, -0.47300578919558456 
0.7299999999999359, -0.4732776308676942 
0.7399999999999348, -0.4733263761586537 
0.7499999999999337, -0.47318578654358656 
0.7599999999999326, -0.47286183642133295 
0.7699999999999315, -0.472341352495621 
0.7799999999999304, -0.4716012102719562 
0.7899999999999293, -0.4706221345465059 
0.7999999999999282, -0.4694075827707159 
0.8099999999999271, -0.4680006570311602 
0.819999999999926, -0.46648581772671316 
0.8299999999999249, -0.4649682643903481 
0.8399999999999238, -0.46354152235975593 
0.8499999999999227, -0.4622634823523531 
0.8599999999999216, -0.46115163755593835 
0.8699999999999205, -0.4601932645338415 
0.8799999999999194, -0.45936066842832873 
0.8899999999999183, -0.45862436584187655 
0.8999999999999172, -0.45796148944176424 
0.9099999999999161, -0.4573597836006029 
0.919999999999915, -0.45681911358657024 
0.9299999999999139, -0.45635273512511565 
0.9399999999999128, -0.45599021132983253 
0.9499999999999117, -0.4557834947572882 
0.9599999999999106, -0.45581773025497113 
0.9699999999999095, -0.45622879673609235 
0.9799999999999084, -0.4572300891619802 
0.9899999999999073, -0.45915025363695217 
0.9999999999999062, -0.46247778644016285 
1.0099999999999052, -0.46788841483822247 
1.019999999999904, -0.47618210005041905 
1.029999999999903, -0.4879844213953821 
1.039999999999902, -0.5031026696044782 
1.0499999999999008, -0.5198799343841053 
1.0599999999998997, -0.535552253122083 
1.0699999999998986, -0.5478857842491235 
1.0799999999998975, -0.5563762085194333 
1.0899999999998964, -0.5618007485761849 
1.0999999999998953, -0.5651928891686315 
1.1099999999998942, -0.5673284777724954 
1.119999999999893, -0.5686847735550467 
1.129999999999892, -0.569537972639642 
1.1399999999998909, -0.5700474445421679 
1.1499999999998898, -0.5703049763726329 
1.1599999999998887, -0.5703602921608437 
1.1699999999998876, -0.5702337404689455 
1.1799999999998865, -0.5699226530003523 
1.1899999999998854, -0.5694055918278464 
1.1999999999998843, -0.5686484229765285 
1.2099999999998832, -0.567616340384703 
1.219999999999882, -0.5662937338846292 
1.229999999999881, -0.5647063651373353 
1.2399999999998799, -0.5629312032645208 
1.2499999999998788, -0.5610811935732651 
1.2599999999998777, -0.5592707374634417 
1.2699999999998766, -0.5575840853594458 
1.2799999999998755, -0.5560635245207922 
1.2899999999998744, -0.5547165301235821 
1.2999999999998733, -0.5535311044149674 
1.3099999999998722, -0.5524900715387566 
1.319999999999871, -0.551580544608022 
1.32999999999987, -0.5507987693374069 
1.3399999999998689, -0.5501521265964887 
1.3499999999998678, -0.5496600521412461 
1.3599999999998666, -0.5493549972031342 
1.3699999999998655, -0.5492839683478715 
1.3799999999998644, -0.5495108741703529 
1.3899999999998633, -0.5501197863120506 
1.3999999999998622, -0.551219044435513 
1.4099999999998611, -0.5529455066835641 
1.41999999999986, -0.5554665431293364 
1.429999999999859, -0.5589736957015929 
1.4399999999998578, -0.563655727086987 
1.4499999999998567, -0.5696327063340713 
1.4599999999998556, -0.5768396131402604 
1.4699999999998545, -0.5848934644002192 
1.4799999999998534, -0.5930629516612304 
1.4899999999998523, -0.6004726254628123 
1.4999999999998512, -0.6064701716059664 
1.5099999999998501, -0.6108569771732317 
1.519999999999849, -0.6138157016439998 
1.529999999999848, -0.6156857531299308 
1.5399999999998468, -0.61679059748482 
1.5499999999998457, -0.6173705791432502 
1.5599999999998446, -0.6175797205397069 
1.5699999999998435, -0.6175021715112747 
1.5799999999998424, -0.6171667314946209 
1.5899999999998413, -0.6165526879489392 
1.5999999999998402, -0.6155857692031785 
1.6099999999998391, -0.6141252556632752 
1.619999999999838, -0.6119480398671862 
1.629999999999837, -0.6087485165332229 
1.6399999999998358, -0.6041948272535064 
1.6499999999998347, -0.5980845427339957 
1.6599999999998336, -0.5905627046460802 
1.6699999999998325, -0.5822178499599626 
1.6799999999998314, -0.5738898346301176 
1.6899999999998303, -0.566315146392061 
1.6999999999998292, -0.5599039150490909 
1.709999999999828, -0.554748464443131 
1.719999999999827, -0.5507474766594527 
1.729999999999826, -0.5477230918820796 
1.7399999999998248, -0.5454899482198905 
1.7499999999998237, -0.543884545920162 
1.7599999999998226, -0.5427728635604347 
1.7699999999998215, -0.5420488869153904 
1.7799999999998204, -0.5416305237142691 
1.7899999999998193, -0.5414555540955723 
1.7999999999998182, -0.541478434157901 
1.809999999999817, -0.5416680597511071 
1.819999999999816, -0.542006378061485 
1.8299999999998149, -0.5424876070606727 
1.8399999999998138, -0.5431175288132685 
1.8499999999998127, -0.543911745287698 
1.8599999999998116, -0.5448910781163653 
1.8699999999998105, -0.5460720413545868 
1.8799999999998094, -0.5474515690364586 
1.8899999999998083, -0.5489891435239179 
1.8999999999998072, -0.5505959317346177 
1.909999999999806, -0.5521442259089626 
1.919999999999805, -0.5535014784767112 
1.9299999999998039, -0.5545720497537965 
1.9399999999998028, -0.555319293368431 
1.9499999999998017, -0.5557573533817577 
1.9599999999998006, -0.5559259275373312 
1.9699999999997995, -0.5558662459293996 
1.9799999999997984, -0.5556061135325094 
1.9899999999997973, -0.5551522167498375 
1.9999999999997962, -0.55448463880145 
2.0099999999998173, -0.5535485832392686 
2.0199999999998384, -0.552238141111071 
2.0299999999998595, -0.5503651709501006 
2.0399999999998806, -0.5476044456195006 
2.0499999999999017, -0.5434138721163226 
2.059999999999923, -0.5369768392267446 
2.069999999999944, -0.5273421623523256 
2.079999999999965, -0.5140243779949367 
2.089999999999986, -0.49788068579156847 
2.100000000000007, -0.4811848108638056 
2.1100000000000283, -0.46635264045765645 
2.1200000000000494, -0.4546677333586605 
2.1300000000000705, -0.44618265567067705 
2.1400000000000916, -0.44031861850187315 
2.1500000000001127, -0.436380381763116 
2.160000000000134, -0.4337832353219051 
2.170000000000155, -0.4320986890198742 
2.180000000000176, -0.4310319999959497 
2.190000000000197, -0.4303867062782311 
2.2000000000002182, -0.4300344255146683 
2.2100000000002393, -0.42989319015059985 
2.2200000000002604, -0.4299131327840011 
2.2300000000002815, -0.43006765012997217 
2.2400000000003026, -0.430348477186802 
2.2500000000003237, -0.430763401162121 
2.260000000000345, -0.43133529242399204 
2.270000000000366, -0.43210064906530554 
2.280000000000387, -0.43310508919765595 
2.290000000000408, -0.43439261268927865 
2.3000000000004293, -0.4359859973571961 
2.3100000000004504, -0.43785964037490005 
2.3200000000004715, -0.4399159525385497 
2.3300000000004926, -0.4419874108419952 
2.3400000000005137, -0.4438800817346258 
2.3500000000005348, -0.4454402908107461 
2.360000000000556, -0.44659831105757053 
2.370000000000577, -0.44736345367010244 
2.380000000000598, -0.4477881010921821 
2.390000000000619, -0.4479314432056721 
2.4000000000006403, -0.44783721978341007 
2.4100000000006614, -0.4475232632612885 
2.4200000000006825, -0.44697550532022295 
2.4300000000007036, -0.44614043980654206 
2.4400000000007247, -0.4449128844028536 
2.450000000000746, -0.4431204414935134 
2.460000000000767, -0.44051670120534137 
2.470000000000788, -0.43681559634644146 
2.480000000000809, -0.4318130280717523 
2.49000000000083, -0.42558848144342365 
2.5000000000008513, -0.4186311413448404 
2.5100000000008724, -0.41169226966136085 
2.5200000000008935, -0.4054382980866246 
2.5300000000009146, -0.4002160922943053 
2.5400000000009357, -0.3960650674085368 
2.550000000000957, -0.39285296531874064 
2.560000000000978, -0.3903965558198581 
2.570000000000999, -0.3885260244756875 
2.58000000000102, -0.38710747370666443 
2.5900000000010412, -0.3860450525165434 
2.6000000000010624, -0.3852761724072935 
2.6100000000010835, -0.3847660736800139 
2.6200000000011046, -0.3845041738055027 
2.6300000000011257, -0.38450304969821675 
2.6400000000011468, -0.3848004607466026 
2.650000000001168, -0.3854648583634465 
2.660000000001189, -0.38660493357740894 
2.67000000000121, -0.38838340159012585 
2.680000000001231, -0.3910332618531538 
2.6900000000012523, -0.3948685971433337 
2.7000000000012734, -0.4002670737370921 
2.7100000000012945, -0.4075760325623275 
2.7200000000013156, -0.4168830846918813 
2.7300000000013367, -0.42768474717931804 
2.740000000001358, -0.43874901973278063 
2.750000000001379, -0.4485636332832855 
2.7600000000014, -0.45614629621744973 
2.770000000001421, -0.461399300433988 
2.780000000001442, -0.46478975738271133 
2.7900000000014633, -0.46689207807896144 
2.8000000000014844, -0.4681590538517374 
2.8100000000015055, -0.46888830070544457 
2.8200000000015266, -0.46925851632488697 
2.8300000000015477, -0.46936976816286896 
2.840000000001569, -0.46927116324662216 
2.85000000000159, -0.4689770975595577 
2.860000000001611, -0.4684769878411541 
2.870000000001632, -0.46774375058933215 
2.8800000000016532, -0.46674625775558287 
2.8900000000016743, -0.46546910310604395 
2.9000000000016954, -0.4639361286942605 
2.9100000000017165, -0.4622238412944063 
2.9200000000017377, -0.4604493126874206 
2.9300000000017588, -0.4587345324829871 
2.94000000000178, -0.4571699054871775 
2.950000000001801, -0.4557980641302312 
2.960000000001822, -0.45461980781880396 
2.970000000001843, -0.4536108176520739 
2.9800000000018643, -0.45273834833844556 
2.9900000000018854, -0.45197294364526874 
3.0000000000019065, -0.4512947259610833 
3.0100000000019276, -0.4506959903276523 
3.0200000000019487, -0.45018243798235835 
3.03000000000197, -0.44977512120972285 
3.040000000001991, -0.44951469650257314 
3.050000000002012, -0.449469386069236 
3.060000000002033, -0.44974828534270117 
3.070000000002054, -0.4505221439846977 
3.0800000000020753, -0.45205379549765545 
3.0900000000020964, -0.4547379473519605 
3.1000000000021175, -0.45913951116506596 
3.1100000000021386, -0.4659893907112876 
3.1200000000021597, -0.4760358494403195 
3.130000000002181, -0.489602019661211 
3.140000000002202, -0.5058812831223138 
3.150000000002223, -0.5226259436053048 
3.160000000002244, -0.5371299050496805 
3.1700000000022652, -0.547880563773582 
3.1800000000022863, -0.5550263134701146 
3.1900000000023074, -0.5595301148797929 
3.2000000000023285, -0.5623352533210019 
3.2100000000023496, -0.5640904757411936 
3.2200000000023707, -0.5651867997159603 
3.230000000002392, -0.5658510208575672 
3.240000000002413, -0.5662136261698203 
3.250000000002434, -0.5663473640964469 
3.260000000002455, -0.5662873103513998 
3.2700000000024763, -0.5660409245832059 
3.2800000000024974, -0.5655935041930735 
3.2900000000025185, -0.5649133571153279 
3.3000000000025396, -0.5639612507940243 
3.3100000000025607, -0.5627079390115223 
3.3200000000025818, -0.5611582256029447 
3.330000000002603, -0.5593697129228423 
3.340000000002624, -0.5574491515627826 
3.350000000002645, -0.5555222599186899 
3.360000000002666, -0.5536953852048278 
3.3700000000026873, -0.5520327059710582 
3.3800000000027084, -0.5505562790382732 
3.3900000000027295, -0.5492600758250094 
3.4000000000027506, -0.5481263534664409 
3.4100000000027717, -0.5471379092467756 
3.420000000002793, -0.546285023255126 
3.430000000002814, -0.545568539947493 
3.440000000002835, -0.5450010623778953 
3.450000000002856, -0.5446077350286587 
3.460000000002877, -0.544427421010359 
3.4700000000028983, -0.5445146378218926 
3.4800000000029194, -0.5449424285285587 
3.4900000000029405, -0.5458062260548247 
3.5000000000029616, -0.5472283983628531 
3.5100000000029827, -0.5493620356829046 
3.520000000003004, -0.5523898605249031 
3.530000000003025, -0.5565089960218825 
3.540000000003046, -0.5618852543408406 
3.550000000003067, -0.5685587502596613 
3.5600000000030882, -0.5763072912197987 
3.5700000000031094, -0.5845474318180315 
3.5800000000031305, -0.5924231271177361 
3.5900000000031516, -0.5991308316365176 
3.6000000000031727, -0.6042547641133463 
3.6100000000031938, -0.6078300024694925 
3.620000000003215, -0.6101544356373567 
3.630000000003236, -0.6115744152011371 
3.640000000003257, -0.6123716914291208 
3.650000000003278, -0.6127381398502916 
3.6600000000032993, -0.6127875989290266 
3.6700000000033204, -0.6125729098117497 
3.6800000000033415, -0.6120961961031506 
3.6900000000033626, -0.6113095744508215 
3.7000000000033837, -0.6101065657495488 
3.710000000003405, -0.608307510193263 
3.720000000003426, -0.6056509803471661 
3.730000000003447, -0.6018212052401235 
3.740000000003468, -0.5965562028584395 
3.750000000003489, -0.5898427608594953 
3.7600000000035103, -0.5820771541419012 
3.7700000000035314, -0.5739957372501239 
3.7800000000035525, -0.5663709295009085 
3.7900000000035736, -0.5597262651216119 
3.8000000000035947, -0.5542623450263212 
3.810000000003616, -0.5499459839733702 
3.820000000003637, -0.5466313399305079 
3.830000000003658, -0.544143774963064 
3.840000000003679, -0.5423207950728065 
3.8500000000037002, -0.5410259097474404 
3.8600000000037213, -0.5401497999863901 
3.8700000000037424, -0.5396070683793937 
3.8800000000037635, -0.5393323139871394 
3.8900000000037847, -0.5392768679453263 
3.9000000000038058, -0.5394064857647065 
3.910000000003827, -0.5396999306465367 
3.920000000003848, -0.5401482477240821 
3.930000000003869, -0.5407543243359344 
3.94000000000389, -0.5415318694748553 
3.9500000000039113, -0.5425022295189554 
3.9600000000039324, -0.5436868551083044 
3.9700000000039535, -0.5450936330877185 
3.9800000000039746, -0.5466980782025226 
3.9900000000039957, -0.5484265317173509 
4.000000000004016, -0.5501552939665127 
4.010000000003993, -0.5517371272720648 
4.02000000000397, -0.5530470942375393 
4.030000000003946, -0.5540188961355172 
4.040000000003923, -0.5546490147067361 
4.0500000000039, -0.554973906730158 
4.0600000000038765, -0.5550413261150926 
4.070000000003853, -0.5548899355729525 
4.08000000000383, -0.5545386100099602 
4.090000000003807, -0.5539805418168272 
4.100000000003783, -0.5531765501848744 
4.11000000000376, -0.5520424211795782 
4.120000000003737, -0.5504242886513581 
4.130000000003713, -0.5480543924393962 
4.14000000000369, -0.5444828690477388 
4.150000000003667, -0.5390103559587289 
4.1600000000036434, -0.5307391735154406 
4.17000000000362, -0.5189804875932633 
4.180000000003597, -0.504055941609315 
4.1900000000035735, -0.48773973952117944 
4.20000000000355, -0.47244415238357573 
4.210000000003527, -0.45984662915713087 
4.220000000003504, -0.45038730355653706 
4.23000000000348, -0.4436856235010878 
4.240000000003457, -0.43909574518580896 
4.250000000003434, -0.4360151296827274 
4.26000000000341, -0.4339795500971076 
4.270000000003387, -0.4326603379856911 
4.280000000003364, -0.4318341219916496 
4.2900000000033405, -0.4313525416661951 
4.300000000003317, -0.4311191096068149 
4.310000000003294, -0.43107335042452927 
4.320000000003271, -0.43118067140990063 
4.330000000003247, -0.43142643288006005 
4.340000000003224, -0.4318129813770938 
4.350000000003201, -0.4323584758853527 
4.360000000003177, -0.43309599132976917 
4.370000000003154, -0.43407063829417425 
4.380000000003131, -0.435331552228693 
4.390000000003107, -0.43691530592513084 
4.400000000003084, -0.43881946900391167 
4.410000000003061, -0.4409729420943858 
4.4200000000030375, -0.44322310130935144 
4.430000000003014, -0.4453641641562595 
4.440000000002991, -0.4472049336569402 
4.450000000002968, -0.4486326436765228 
4.460000000002944, -0.44962876137708785 
4.470000000002921, -0.4502386368998102 
4.480000000002898, -0.4505288670295588 
4.490000000002874, -0.4505570103455245 
4.500000000002851, -0.4503567819008813 
4.510000000002828, -0.44993154529654866 
4.520000000002804, -0.44924873863853476 
4.530000000002781, -0.4482307571198745 
4.540000000002758, -0.44674151928190275 
4.5500000000027345, -0.44457517341393904 
4.560000000002711, -0.4414688112139397 
4.570000000002688, -0.4371799602258326 
4.580000000002665, -0.43165296558958505 
4.590000000002641, -0.42519026042826297 
4.600000000002618, -0.4184313117523331 
4.610000000002595, -0.41207758429081676 
4.620000000002571, -0.40659808422506555 
4.630000000002548, -0.4021458916753352 
4.640000000002525, -0.39865343375979206 
4.6500000000025015, -0.39596053343919296 
4.660000000002478, -0.3938978990048821 
4.670000000002455, -0.39232338085649515 
4.6800000000024315, -0.391130928360379 
4.690000000002408, -0.3902483156132274 
4.700000000002385, -0.3896321149129157 
4.710000000002362, -0.389263542363351 
4.720000000002338, -0.38914652916753556 
4.730000000002315, -0.3893085609445747 
4.740000000002292, -0.3898047045164022 
4.750000000002268, -0.3907253482468923 
4.760000000002245, -0.3922080922211121 
4.770000000002222, -0.3944531435084469 
4.7800000000021985, -0.3977376603845479 
4.790000000002175, -0.40241406602387875 
4.800000000002152, -0.4088563717979155 
4.810000000002129, -0.4172957969237655 
4.820000000002105, -0.42752025024542073 
4.830000000002082, -0.4386048805174744 
4.840000000002059, -0.4490804101899427 
4.850000000002035, -0.4576610184647052 
4.860000000002012, -0.4638745193849013 
4.870000000001989, -0.4679978542416712 
4.880000000001965, -0.4705954556279469 
