t, s[1].omega / s[0].omega 
0, -0.46009100590452806 
0.009999999999999995, -0.46953279900080114 
0.019999999999999934, -0.47886470838750556 
0.029999999999999874, -0.4869494776231605 
0.04000000000000012, -0.49314047234275166 
0.050000000000000405, -0.4974402975271981 
0.06000000000000069, -0.5002325656187911 
0.07000000000000098, -0.5019637801828252 
0.08000000000000126, -0.5029876955232455 
0.09000000000000155, -0.5035404642589275 
0.10000000000000184, -0.5037643212310193 
0.11000000000000212, -0.5037353816509256 
0.12000000000000241, -0.5034828560397681 
0.130000000000002, -0.5029997022784813 
0.1400000000000009, -0.5022484928731423 
0.1499999999999998, -0.5011682508471971 
0.1599999999999987, -0.4996901288982344 
0.1699999999999976, -0.4977688316301174 
0.1799999999999965, -0.49542531641754256 
0.1899999999999954, -0.49277497855087143 
0.1999999999999943, -0.49000908189744485 
0.2099999999999932, -0.487331000549805 
0.2199999999999921, -0.48489153919136835 
0.229999999999991, -0.4827631287888156 
0.2399999999999899, -0.4809528151085886 
0.2499999999999888, -0.4794306194823844 
0.2599999999999877, -0.47815461592316766 
0.2699999999999866, -0.47708659985964774 
0.2799999999999855, -0.4761996218724388 
0.2899999999999844, -0.47548069398265325 
0.2999999999999833, -0.4749315782926947 
0.3099999999999822, -0.474569586177265 
0.3199999999999811, -0.4744295071096894 
0.32999999999998, -0.4745673516587212 
0.3399999999999789, -0.4750664595321113 
0.3499999999999778, -0.47604646007819235 
0.35999999999997667, -0.47767515105054886 
0.36999999999997557, -0.4801816919318053 
0.37999999999997447, -0.4838647467768924 
0.38999999999997337, -0.48907834735675315 
0.39999999999997227, -0.496159962141718 
0.40999999999997117, -0.5052536205933377 
0.41999999999997006, -0.5160315928913544 
0.42999999999996896, -0.527498000357674 
0.43999999999996786, -0.5382159584474129 
0.44999999999996676, -0.5469857762043763 
0.45999999999996566, -0.5533793933308939 
0.46999999999996456, -0.557663078769122 
0.47999999999996346, -0.5603804437326486 
0.48999999999996235, -0.5620389182050181 
0.49999999999996125, -0.5630044965782574 
0.5099999999999602, -0.5635098448855416 
0.519999999999959, -0.5636905510368695 
0.529999999999958, -0.5636156238610013 
0.5399999999999568, -0.5633058872312644 
0.5499999999999557, -0.5627424561680204 
0.5599999999999546, -0.561869530212974 
0.5699999999999535, -0.5605977792982106 
0.5799999999999524, -0.5588184430727337 
0.5899999999999513, -0.5564402412809418 
0.5999999999999502, -0.553450001431637 
0.6099999999999491, -0.5499666198800303 
0.619999999999948, -0.5462355120774129 
0.6299999999999469, -0.5425477805393126 
0.6399999999999458, -0.5391402920918795 
0.6499999999999447, -0.5361445815131535 
0.6599999999999436, -0.533595918485583 
0.6699999999999425, -0.5314704751739427 
0.6799999999999414, -0.5297206087181513 
0.6899999999999403, -0.528297206004703 
0.6999999999999392, -0.5271602405479403 
0.7099999999999381, -0.526282066779279 
0.719999999999937, -0.5256473037775539 
0.7299999999999359, -0.525251677616273 
0.7399999999999348, -0.5251010454594791 
0.7499999999999337, -0.525211166691831 
0.7599999999999326, -0.5256084531616358 
0.7699999999999315, -0.5263317044273215 
0.7799999999999304, -0.5274344921068916 
0.7899999999999293, -0.5289871305659612 
0.7999999999999282, -0.531075707336217 
0.8099999999999271, -0.5337931597429291 
0.819999999999926, -0.5372144359234277 
0.8299999999999249, -0.5413479341999903 
0.8399999999999238, -0.5460677934501869 
0.8499999999999227, -0.5510644492555435 
0.8599999999999216, -0.5558816437433632 
0.8699999999999205, -0.5600680581784061 
0.8799999999999194, -0.5633517607947658 
0.8899999999999183, -0.5657000655416511 
0.8999999999999172, -0.567245860110873 
0.9099999999999161, -0.568175288427031 
0.919999999999915, -0.5686534033145572 
0.9299999999999139, -0.5687968606313706 
0.9399999999999128, -0.5686720275129928 
0.9499999999999117, -0.5682993701877105 
0.9599999999999106, -0.567654337733496 
0.9699999999999095, -0.5666607250131663 
0.9799999999999084, -0.5651755649262038 
0.9899999999999073, -0.5629696641030635 
0.9999999999999062, -0.5597217053771297 
1.0099999999999052, -0.5550694336511377 
1.019999999999904, -0.5487726459206003 
1.029999999999903, -0.5409623591497089 
1.039999999999902, -0.5322702553233849 
1.0499999999999008, -0.5236218026451914 
1.0599999999998997, -0.5158222571352519 
1.0699999999998986, -0.5092963866032592 
1.0799999999998975, -0.5041088403331278 
1.0899999999998964, -0.5001180426940105 
1.0999999999998953, -0.4971129755202453 
1.1099999999998942, -0.4948883631404069 
1.119999999999893, -0.4932729319348261 
1.129999999999892, -0.4921337765917221 
1.1399999999998909, -0.49137175126457605 
1.1499999999998898, -0.490915011800338 
1.1599999999998887, -0.4907134289436784 
1.1699999999998876, -0.49073461214925385 
1.1799999999998865, -0.4909615437731791 
1.1899999999998854, -0.4913915845494121 
1.1999999999998843, -0.4920364540069886 
1.2099999999998832, -0.4929224392879082 
1.219999999999882, -0.4940893451312012 
1.229999999999881, -0.4955855212254681 
1.2399999999998799, -0.49745507985493614 
1.2499999999998788, -0.4997136394117606 
1.2599999999998777, -0.5023140419635336 
1.2699999999998766, -0.5051169765177014 
1.2799999999998755, -0.5078964958312763 
1.2899999999998744, -0.5104009735881092 
1.2999999999998733, -0.5124421584232215 
1.3099999999998722, -0.5139485273960445 
1.319999999999871, -0.5149517094258579 
1.32999999999987, -0.5155347481126931 
1.3399999999998689, -0.5157848076666637 
1.3499999999998678, -0.5157672218677997 
1.3599999999998666, -0.5155157932921577 
1.3699999999998655, -0.5150290084220093 
1.3799999999998644, -0.5142644413748607 
1.3899999999998633, -0.5131266715691358 
1.3999999999998622, -0.5114467536186443 
1.4099999999998611, -0.5089578044675297 
1.41999999999986, -0.5052898594641685 
1.429999999999859, -0.500040965380556 
1.4399999999998578, -0.49299036189447853 
1.4499999999998567, -0.4843961153089336 
1.4599999999998556, -0.475087635312564 
1.4699999999998545, -0.4661294960481925 
1.4799999999998534, -0.4583245554721742 
1.4899999999998523, -0.45199601233918923 
1.4999999999998512, -0.4470934202991524 
1.5099999999998501, -0.4433934230996865 
1.519999999999849, -0.440641623016805 
1.529999999999848, -0.4386167155843941 
1.5399999999998468, -0.4371473460440452 
1.5499999999998457, -0.43610895032562375 
1.5599999999998446, -0.43541506173624667 
1.5699999999998435, -0.4350089803770466 
1.5799999999998424, -0.4348576338844313 
1.5899999999998413, -0.4349479023782886 
1.5999999999998402, -0.43528522174171325 
1.6099999999998391, -0.4358941758387587 
1.619999999999838, -0.4368206288523746 
1.629999999999837, -0.4381343888573297 
1.6399999999998358, -0.4399299975270591 
1.6499999999998347, -0.4423204920509668 
1.6599999999998336, -0.4454149216089487 
1.6699999999998325, -0.44926812136308936 
1.6799999999998314, -0.45380150548971887 
1.6899999999998303, -0.45873115732797515 
1.6999999999998292, -0.4635861927657813 
1.709999999999828, -0.46786867664401005 
1.719999999999827, -0.4712599675677528 
1.729999999999826, -0.4737032411669597 
1.7399999999998248, -0.4753277864097279 
1.7499999999998237, -0.47632468954373824 
1.7599999999998226, -0.4768648323088329 
1.7699999999998215, -0.4770697566361318 
1.7799999999998204, -0.47701071247396093 
1.7899999999998193, -0.4767151226005174 
1.7999999999998182, -0.4761710676147127 
1.809999999999817, -0.4753278056058236 
1.819999999999816, -0.4740951399001303 
1.8299999999998149, -0.47235008470335405 
1.8399999999998138, -0.4699657934394967 
1.8499999999998127, -0.4668753783752784 
1.8599999999998116, -0.46315367945873664 
1.8699999999998105, -0.4590520737644275 
1.8799999999998094, -0.454927508075255 
1.8899999999998083, -0.451104221797402 
1.8999999999998072, -0.44777536830209363 
1.909999999999806, -0.4449952068567411 
1.919999999999805, -0.44272701043739254 
1.9299999999998039, -0.44089583997572523 
1.9399999999998028, -0.4394233425591243 
1.9499999999998017, -0.4382444825727479 
1.9599999999998006, -0.4373130918570613 
1.9699999999997995, -0.43660231343772393 
1.9799999999997984, -0.4361036848571369 
1.9899999999997973, -0.4358268392649415 
1.9999999999997962, -0.4358008357572912 
2.0099999999998173, -0.43607775355826306 
2.0199999999998384, -0.4367391266482616 
2.0299999999998595, -0.4379057450332332 
2.0399999999998806, -0.4397507845017733 
2.0499999999999017, -0.44251401653737615 
2.059999999999923, -0.4465086174900466 
2.069999999999944, -0.45209820464890144 
2.079999999999965, -0.45960029448512446 
2.089999999999986, -0.46906776788363924 
2.100000000000007, -0.4799886707163686 
2.1100000000000283, -0.49117191687366624 
2.1200000000000494, -0.5011588019900708 
2.1300000000000705, -0.5089680720852817 
2.1400000000000916, -0.5144527029172616 
2.1500000000001127, -0.5180338569855842 
2.160000000000134, -0.5202698860723406 
2.170000000000155, -0.5216188835183718 
2.180000000000176, -0.5223904610116785 
2.190000000000197, -0.5227739185837326 
2.2000000000002182, -0.5228758234750011 
2.2100000000002393, -0.5227469582682417 
2.2200000000002604, -0.5223977664289878 
2.2300000000002815, -0.5218062522676761 
2.2400000000003026, -0.5209235522051551 
2.2500000000003237, -0.5196840090226305 
2.260000000000345, -0.5180275954059674 
2.270000000000366, -0.5159372563617608 
2.280000000000387, -0.5134768576674122 
2.290000000000408, -0.5107984043103357 
2.3000000000004293, -0.5080999123963605 
2.3100000000004504, -0.505558431207479 
2.3200000000004715, -0.5032842849237705 
2.3300000000004926, -0.5013162999498542 
2.3400000000005137, -0.49964369001468406 
2.3500000000005348, -0.4982326953356898 
2.360000000000556, -0.497046246184315 
2.370000000000577, -0.49605485868047294 
2.380000000000598, -0.49524125403968 
2.390000000000619, -0.49460176341818246 
2.4000000000006403, -0.4941467959118403 
2.4100000000006614, -0.4939017229905117 
2.4200000000006825, -0.4939089086498778 
2.4300000000007036, -0.49423132622433485 
2.4400000000007247, -0.49495808670190805 
2.450000000000746, -0.4962119673326882 
2.460000000000767, -0.49815816207267083 
2.470000000000788, -0.5010109994438545 
2.480000000000809, -0.5050296248878029 
2.49000000000083, -0.5104831131913952 
2.5000000000008513, -0.517554098360963 
2.5100000000008724, -0.5261612048497135 
2.5200000000008935, -0.5357626363028019 
2.5300000000009146, -0.5453466533152842 
2.5400000000009357, -0.5537913170423604 
2.550000000000957, -0.5603876701944496 
2.560000000000978, -0.5650518363226373 
2.570000000000999, -0.5681190740913217 
2.58000000000102, -0.5700329036741894 
2.5900000000010412, -0.5711661237043144 
2.6000000000010624, -0.5717766780704379 
2.6100000000010835, -0.5720234254274423 
2.6200000000011046, -0.5719923280116188 
2.6300000000011257, -0.5717155249511052 
2.6400000000011468, -0.5711806103325202 
2.650000000001168, -0.5703321397289578 
2.660000000001189, -0.569069881515245 
2.67000000000121, -0.5672530324845332 
2.680000000001231, -0.564726743276491 
2.6900000000012523, -0.5613873278645115 
2.7000000000012734, -0.55727487965161 
2.7100000000012945, -0.5526285593430162 
2.7200000000013156, -0.5478316876642181 
2.7300000000013367, -0.5432677839538311 
2.740000000001358, -0.5391981537519915 
2.750000000001379, -0.5357321208906946 
2.7600000000014, -0.5328670071008335 
2.770000000001421, -0.530543665192895 
2.780000000001442, -0.5286871102342323 
2.7900000000014633, -0.5272278558078763 
2.8000000000014844, -0.5261099137374246 
2.8100000000015055, -0.5252919291623508 
2.8200000000015266, -0.5247456904614725 
2.8300000000015477, -0.5244542372111449 
2.840000000001569, -0.5244105562239848 
2.85000000000159, -0.5246172231673634 
2.860000000001611, -0.5250870307418156 
2.870000000001632, -0.525844403425751 
2.8800000000016532, -0.5269270142816318 
2.8900000000016743, -0.5283862506228254 
2.9000000000016954, -0.5302838006505938 
2.9100000000017165, -0.5326797413527988 
2.9200000000017377, -0.5356063749844362 
2.9300000000017588, -0.5390257333152476 
2.94000000000178, -0.5427836410565717 
2.950000000001801, -0.5465976966101466 
2.960000000001822, -0.5501202266944191 
2.970000000001843, -0.5530618726957774 
2.9800000000018643, -0.5552891607216672 
2.9900000000018854, -0.556827021626911 
3.0000000000019065, -0.5577901132575855 
3.0100000000019276, -0.5583100033315984 
3.0200000000019487, -0.5584934527924608 
3.03000000000197, -0.5584083803754832 
3.040000000001991, -0.5580822294608283 
3.050000000002012, -0.5575011598443269 
3.060000000002033, -0.5566037220697806 
3.070000000002054, -0.5552656240524829 
3.0800000000020753, -0.553275211620833 
3.0900000000020964, -0.5503086592626365 
3.1000000000021175, -0.5459389341642725 
3.1100000000021386, -0.539749455975329 
3.1200000000021597, -0.5316063115781438 
3.130000000002181, -0.5219592699786059 
3.140000000002202, -0.5118256806762957 
3.150000000002223, -0.5023350174150304 
3.160000000002244, -0.49423781799774824 
3.1700000000022652, -0.4877725355966368 
3.1800000000022863, -0.4828257814715921 
3.1900000000023074, -0.47913906455604466 
3.2000000000023285, -0.47643943133920813 
3.2100000000023496, -0.4744940093791448 
3.2200000000023707, -0.47312201946984017 
3.230000000002392, -0.47218975727235685 
3.240000000002413, -0.4716013194304945 
3.250000000002434, -0.4712900530214589 
3.260000000002455, -0.4712121431129031 
3.2700000000024763, -0.4713424247886901 
3.2800000000024974, -0.47167211977342544 
3.2900000000025185, -0.47220808419689925 
3.3000000000025396, -0.47297294861391326 
3.3100000000025607, -0.4740049881929373 
3.3200000000025818, -0.4753555257599105 
3.330000000002603, -0.4770802319992149 
3.340000000002624, -0.4792196715961762 
3.350000000002645, -0.48176650345125605 
3.360000000002666, -0.48462673742163875 
3.3700000000026873, -0.48760109698879034 
3.3800000000027084, -0.49042082212652255 
3.3900000000027295, -0.49283812676457195 
3.4000000000027506, -0.49471254808854354 
3.4100000000027717, -0.4960309211706669 
3.420000000002793, -0.4968640335480382 
3.430000000002814, -0.49730850713586355 
3.440000000002835, -0.49744790382168225 
3.450000000002856, -0.49733608071957647 
3.460000000002877, -0.49699224753161475 
3.4700000000028983, -0.49639789020941033 
3.4800000000029194, -0.49548975826481206 
3.4900000000029405, -0.49414655713422573 
3.5000000000029616, -0.4921719717037045 
3.5100000000029827, -0.48928878236130835 
3.520000000003004, -0.48518150137180693 
3.530000000003025, -0.47963702172551564 
3.540000000003046, -0.4727658974929053 
3.550000000003067, -0.4651242490229278 
3.5600000000030882, -0.4575335582261627 
3.5700000000031094, -0.45070549187754744 
3.5800000000031305, -0.44500467076047157 
3.5900000000031516, -0.4404713756093609 
3.6000000000031727, -0.4369662824002355 
3.6100000000031938, -0.43429597572857404 
3.620000000003215, -0.4322796470135725 
3.630000000003236, -0.4307725372152819 
3.640000000003257, -0.42966820116283727 
3.650000000003278, -0.42889337117121473 
3.6600000000032993, -0.4284018187435514 
3.6700000000033204, -0.4281696199486166 
3.6800000000033415, -0.42819251707441425 
3.6900000000033626, -0.4284854834823636 
3.7000000000033837, -0.4290844508411141 
3.710000000003405, -0.43005003375432693 
3.720000000003426, -0.4314726039024218 
3.730000000003447, -0.43347664901891275 
3.740000000003468, -0.43621907025403006 
3.750000000003489, -0.43987001004135157 
3.7600000000035103, -0.44455774540894966 
3.7700000000035314, -0.4502632526056434 
3.7800000000035525, -0.45669275813669047 
3.7900000000035736, -0.4632418014590213 
3.8000000000035947, -0.46917752068027463 
3.810000000003616, -0.4739642273885143 
3.820000000003637, -0.4774520982228328 
3.830000000003658, -0.4797995645640508 
3.840000000003679, -0.4812813307292755 
3.8500000000037002, -0.4821517787143893 
3.8600000000037213, -0.4825962209850889 
3.8700000000037424, -0.4827309668061104 
3.8800000000037635, -0.48261699195922114 
3.8900000000037847, -0.482271731326808 
3.9000000000038058, -0.4816755253228876 
3.910000000003827, -0.48077465849674283 
3.920000000003848, -0.47948668765632474 
3.930000000003869, -0.4777178617238137 
3.94000000000389, -0.47540279217329323 
3.9500000000039113, -0.47256217215868174 
3.9600000000039324, -0.4693432787650753 
3.9700000000039535, -0.46599572868505373 
3.9800000000039746, -0.462783179518888 
3.9900000000039957, -0.4598952577625153 
4.000000000004016, -0.45741597151557495 
4.010000000003993, -0.4553450482182407 
4.02000000000397, -0.45363715244316377 
4.030000000003946, -0.45223401781791084 
4.040000000003923, -0.451083108999253 
4.0500000000039, -0.45014580919963176 
4.0600000000038765, -0.4493998329953395 
4.070000000003853, -0.4488394783569061 
4.08000000000383, -0.44847593704258515 
4.090000000003807, -0.44833891213006194 
4.100000000003783, -0.4484803229727464 
4.11000000000376, -0.4489807709156336 
4.120000000003737, -0.4499594454565313 
4.130000000003713, -0.4515878327035151 
4.14000000000369, -0.4541059905440349 
4.150000000003667, -0.45783515430183463 
4.1600000000036434, -0.4631682026441464 
4.17000000000362, -0.4704972102268411 
4.180000000003597, -0.4800190581599253 
4.1900000000035735, -0.49141221428070825 
4.20000000000355, -0.5035924571471454 
4.210000000003527, -0.5149628717897106 
4.220000000003504, -0.5242020320286904 
4.23000000000348, -0.5308715730266725 
4.240000000003457, -0.5352993950636482 
4.250000000003434, -0.5380933231189253 
4.26000000000341, -0.5398000634791529 
4.270000000003387, -0.5408041732396625 
4.280000000003364, -0.5413463458252894 
4.2900000000033405, -0.5415664000021186 
4.300000000003317, -0.5415372413274209 
4.310000000003294, -0.5412852892889227 
4.320000000003271, -0.5408008797005434 
4.330000000003247, -0.5400435545661325 
4.340000000003224, -0.53894833839842 
4.350000000003201, -0.5374411212305471 
4.360000000003177, -0.5354704310429544 
4.370000000003154, -0.5330515150582366 
4.380000000003131, -0.5302967860937872 
4.390000000003107, -0.5273992588751375 
4.400000000003084, -0.5245690238701756 
4.410000000003061, -0.5219666901535253 
4.4200000000030375, -0.5196749494051898 
4.430000000003014, -0.5177097551243706 
4.440000000002991, -0.5160481074003769 
4.450000000002968, -0.5146532670496022 
4.460000000002944, -0.5134907010951506 
4.470000000002921, -0.5125357661208179 
4.480000000002898, -0.5117763424010117 
4.490000000002874, -0.5112132316917305 
4.500000000002851, -0.5108601060713279 
4.510000000002828, -0.510743958250343 
4.520000000002804, -0.5109065327415292 
4.530000000002781, -0.5114070060560398 
4.540000000002758, -0.5123260129664013 
4.5500000000027345, -0.5137706745173845 
4.560000000002711, -0.5158790760838503 
4.570000000002688, -0.5188198624944159 
4.580000000002665, -0.5227773351066116 
4.590000000002641, -0.5279053336276792 
4.600000000002618, -0.5342321802228253 
4.610000000002595, -0.5415266771844169 
4.620000000002571, -0.5492115538421305 
4.630000000002548, -0.5564714693441328 
4.640000000002525, -0.5625787549187204 
4.6500000000025015, -0.5671932028977221 
4.660000000002478, -0.5703863051297995 
4.670000000002455, -0.5724492816778012 
4.6800000000024315, -0.5737002277771059 
4.690000000002408, -0.5743907136122047 
4.700000000002385, -0.5746888047491547 
4.710000000002362, -0.5746916522254086 
4.720000000002338, -0.5744407292002507 
4.730000000002315, -0.5739303577538744 
4.740000000002292, -0.5731079772993477 
4.750000000002268, -0.5718679360962653 
4.760000000002245, -0.5700450787229905 
4.770000000002222, -0.5674240406428145 
4.7800000000021985, -0.5637921309791344 
4.790000000002175, -0.5590552973516992 
4.800000000002152, -0.553373369463982 
4.810000000002129, -0.5471894443035218 
4.820000000002105, -0.541076538006957 
4.830000000002082, -0.5355108832419422 
4.840000000002059, -0.5307477930979723 
4.850000000002035, -0.5268400543786236 
4.860000000002012, -0.5237205148779082 
4.870000000001989, -0.5212764212865068 
4.880000000001965, -0.5193928470077086 
4.890000000001942, -0.5179710273114345 
