t, s[1].omega / s[0].omega 
0, -1.48001196960106 
0.009999999999999995, -1.4809167303582038 
0.019999999999999934, -1.4813072903257491 
0.029999999999999874, -1.4812747446110182 
0.04000000000000012, -1.4809000337039258 
0.050000000000000405, -1.4802569279449929 
0.06000000000000069, -1.4794221744238916 
0.07000000000000098, -1.4784860580719468 
0.08000000000000126, -1.4775546521741976 
0.09000000000000155, -1.476743348855373 
0.10000000000000184, -1.4761576520360498 
0.11000000000000212, -1.4758436056357536 
0.12000000000000241, -1.4757384791221364 
0.130000000000002, -1.4756948379286814 
0.1400000000000009, -1.4755533003928443 
0.1499999999999998, -1.4751713324526916 
0.1599999999999987, -1.474387542565712 
0.1699999999999976, -1.4729526895191805 
0.1799999999999965, -1.4704466150412165 
0.1899999999999954, -1.4662003373425743 
0.1999999999999943, -1.4593039354823838 
0.2099999999999932, -1.4489299985453568 
0.2199999999999921, -1.4353280854466548 
0.229999999999991, -1.4212222280885476 
0.2399999999999899, -1.4112525639456046 
0.2499999999999888, -1.4078087552318832 
0.2599999999999877, -1.4087969309973363 
0.2699999999999866, -1.410960266017341 
0.2799999999999855, -1.4126676292904177 
0.2899999999999844, -1.4136310377606203 
0.2999999999999833, -1.4139936826194963 
0.3099999999999822, -1.4139114126992178 
0.3199999999999811, -1.413459471277837 
0.32999999999998, -1.412648584311914 
0.3399999999999789, -1.4115076300484255 
0.3499999999999778, -1.4102971558212298 
0.35999999999997667, -1.4098541024757787 
0.36999999999997557, -1.411581518899349 
0.37999999999997447, -1.416352955697596 
0.38999999999997337, -1.4233436751767847 
0.39999999999997227, -1.4307010028308584 
0.40999999999997117, -1.4370093284427579 
0.41999999999997006, -1.4417467046238632 
0.42999999999996896, -1.4449713720450588 
0.43999999999996786, -1.4469659047160703 
0.44999999999996676, -1.4480434104281363 
0.45999999999996566, -1.4484693269055406 
0.46999999999996456, -1.4484426147368719 
0.47999999999996346, -1.4481075458948527 
0.48999999999996235, -1.4475806784622025 
0.49999999999996125, -1.4469777503399153 
0.5099999999999602, -1.4464191897833059 
0.519999999999959, -1.4460042527287384 
0.529999999999958, -1.4457810199610484 
0.5399999999999568, -1.445742135696224 
0.5499999999999557, -1.4458326959715524 
0.5599999999999546, -1.4459591033609134 
0.5699999999999535, -1.4460105545747302 
0.5799999999999524, -1.4458805859358388 
0.5899999999999513, -1.4454666004072694 
0.5999999999999502, -1.4446518825329036 
0.6099999999999491, -1.4432880531427685 
0.619999999999948, -1.4411904002390126 
0.6299999999999469, -1.4381534556410465 
0.6399999999999458, -1.4339988815884444 
0.6499999999999447, -1.428685365086336 
0.6599999999999436, -1.422518039744157 
0.6699999999999425, -1.4163841626508842 
0.6799999999999414, -1.4116156888525349 
0.6899999999999403, -1.4091084481427745 
0.6999999999999392, -1.4085442595936206 
0.7099999999999381, -1.4088898257969265 
0.719999999999937, -1.4093404984395306 
0.7299999999999359, -1.4095600544882998 
0.7399999999999348, -1.4094619650591627 
0.7499999999999337, -1.4090045920763061 
0.7599999999999326, -1.4080872098838206 
0.7699999999999315, -1.4065003333958304 
0.7799999999999304, -1.4039473287166304 
0.7899999999999293, -1.4003371388921773 
0.7999999999999282, -1.3967404875157259 
0.8099999999999271, -1.3965841024568904 
0.819999999999926, -1.4039749302164755 
0.8299999999999249, -1.4183729068339705 
0.8399999999999238, -1.434168566083628 
0.8499999999999227, -1.4466615780318761 
0.8599999999999216, -1.4547775822076239 
0.8699999999999205, -1.4594522091068358 
0.8799999999999194, -1.461911619494677 
0.8899999999999183, -1.4630578390081779 
0.8999999999999172, -1.4634377132608254 
0.9099999999999161, -1.4633585012194579 
0.919999999999915, -1.4630019158311627 
0.9299999999999139, -1.4625146306234997 
0.9399999999999128, -1.4620685451863877 
0.9499999999999117, -1.4618535218158701 
0.9599999999999106, -1.4619860995295317 
0.9699999999999095, -1.462434098017884 
0.9799999999999084, -1.4630587336895178 
0.9899999999999073, -1.46370631825523 
0.9999999999999062, -1.4642534146632062 
1.0099999999999052, -1.4646105058983165 
1.019999999999904, -1.4647139204582815 
1.029999999999903, -1.4645150515285343 
1.039999999999902, -1.4639709574718798 
1.0499999999999008, -1.4630398657495909 
1.0599999999998997, -1.4616821516865302 
1.0699999999998986, -1.4598675478972918 
1.0799999999998975, -1.4575939009653311 
1.0899999999998964, -1.454928583543079 
1.0999999999998953, -1.4520790582632128 
1.1099999999998942, -1.4494478090952065 
1.119999999999893, -1.4475249883030128 
1.129999999999892, -1.4465540612097743 
1.1399999999998909, -1.4463226142027146 
1.1499999999998898, -1.4463931839132091 
1.1599999999998887, -1.4464255586395762 
1.1699999999998876, -1.446239797155005 
1.1799999999998865, -1.4457153467767283 
1.1899999999998854, -1.4446746583150851 
1.1999999999998843, -1.4427704058014006 
1.2099999999998832, -1.4393628063004733 
1.219999999999882, -1.433500046478262 
1.229999999999881, -1.4245347301192222 
1.2399999999998799, -1.4142662550554206 
1.2499999999998788, -1.4089408137040755 
1.2599999999998777, -1.414347743618786 
1.2699999999998766, -1.4274625518114896 
1.2799999999998755, -1.4404544265484058 
1.2899999999998744, -1.4493877307231524 
1.2999999999998733, -1.4544809947779167 
1.3099999999998722, -1.4570833798767722 
1.319999999999871, -1.4582643494224234 
1.32999999999987, -1.4586473903038748 
1.3399999999998689, -1.4585581054635675 
1.3499999999998678, -1.4581719340215435 
1.3599999999998666, -1.4576306955847311 
1.3699999999998655, -1.457142178345993 
1.3799999999998644, -1.4570120497161068 
1.3899999999998633, -1.4575047217761754 
1.3999999999998622, -1.4586207599810632 
1.4099999999998611, -1.4600919940075152 
1.41999999999986, -1.4615967414493842 
1.429999999999859, -1.462913064195021 
1.4399999999998578, -1.463928799802439 
1.4499999999998567, -1.4646000606526053 
1.4599999999998556, -1.4649167623440165 
1.4699999999998545, -1.4648832996230539 
1.4799999999998534, -1.4645097243782466 
1.4899999999998523, -1.4638093768803924 
1.4999999999998512, -1.4628014391236097 
1.5099999999998501, -1.4615190721263382 
1.519999999999849, -1.4600242498904714 
1.529999999999848, -1.458429246650073 
1.5399999999998468, -1.456916471285081 
1.5499999999998457, -1.4557166912576947 
1.5599999999998446, -1.4549938645574525 
1.5699999999998435, -1.4547106140996386 
1.5799999999998424, -1.454653694296645 
1.5899999999998413, -1.4545881565180274 
1.5999999999998402, -1.4543407527152148 
1.6099999999998391, -1.4537643999189234 
1.619999999999838, -1.4526494650405264 
1.629999999999837, -1.450609684784435 
1.6399999999998358, -1.446933338408965 
1.6499999999998347, -1.4404473003029037 
1.6599999999998336, -1.4297027473432258 
1.6699999999998325, -1.4142732340602655 
1.6799999999998314, -1.3974089809828172 
1.6899999999998303, -1.3861800990550637 
1.6999999999998292, -1.3846379821093144 
1.709999999999828, -1.3892769821434707 
1.719999999999827, -1.3947045281398665 
1.729999999999826, -1.3985517647814627 
1.7399999999998248, -1.4007453298390464 
1.7499999999998237, -1.4018042294376574 
1.7599999999998226, -1.402158243648073 
1.7699999999998215, -1.4020545309116577 
1.7799999999998204, -1.4016133800218566 
1.7899999999998193, -1.4009089069717278 
1.7999999999998182, -1.4000868041258363 
1.809999999999817, -1.3995336358813557 
1.819999999999816, -1.3999426547413525 
1.8299999999998149, -1.4019430626820277 
1.8399999999998138, -1.4054681164176612 
1.8499999999998127, -1.4097358740888757 
1.8599999999998116, -1.4138792573344068 
1.8699999999998105, -1.4173783591286462 
1.8799999999998094, -1.420056426374388 
1.8899999999998083, -1.421930570021362 
1.8999999999998072, -1.4230998453200132 
1.909999999999806, -1.423687696754521 
1.919999999999805, -1.4238146091803494 
1.9299999999998039, -1.4235865371793448 
1.9399999999998028, -1.423095563089722 
1.9499999999998017, -1.4224303908869662 
1.9599999999998006, -1.421687858045041 
1.9699999999997995, -1.4209717430075002 
1.9799999999997984, -1.4203760162721037 
1.9899999999997973, -1.4199663809882195 
1.9999999999997962, -1.4197639219466258 
2.0099999999998173, -1.4197270076507593 
2.0199999999998384, -1.419754620258012 
2.0299999999998595, -1.419722030582392 
2.0399999999998806, -1.4195106485524598 
2.0499999999999017, -1.419002996931121 
2.059999999999923, -1.4180544529027403 
2.069999999999944, -1.4164640839965679 
2.079999999999965, -1.4139606123685153 
2.089999999999986, -1.4102197915474635 
2.100000000000007, -1.4049399098240678 
2.1100000000000283, -1.3980216864800243 
2.1200000000000494, -1.389892437977877 
2.1300000000000705, -1.3818273317681526 
2.1400000000000916, -1.3756703847380756 
2.1500000000001127, -1.3725543581250632 
2.160000000000134, -1.3719538787667431 
2.170000000000155, -1.3724884948442428 
2.180000000000176, -1.373146989630352 
2.190000000000197, -1.3735355255028507 
2.2000000000002182, -1.3735790017785936 
2.2100000000002393, -1.3732711787795464 
2.2200000000002604, -1.3725625824794303 
2.2300000000002815, -1.3713167375338047 
2.2400000000003026, -1.3693178755189315 
2.2500000000003237, -1.3664420650239677 
2.260000000000345, -1.3632721216644954 
2.270000000000366, -1.3621410955946098 
2.280000000000387, -1.366817924516655 
2.290000000000408, -1.37872125246156 
2.3000000000004293, -1.394205973049476 
2.3100000000004504, -1.4081666565428392 
2.3200000000004715, -1.4181692013320841 
2.3300000000004926, -1.4243751168531156 
2.3400000000005137, -1.4278669711285024 
2.3500000000005348, -1.4296567702698666 
2.360000000000556, -1.43043243345848 
2.370000000000577, -1.4306029672527374 
2.380000000000598, -1.4304023089331959 
2.390000000000619, -1.4299827979166153 
2.4000000000006403, -1.4294903983566465 
2.4100000000006614, -1.429105754042263 
2.4200000000006825, -1.429009823690185 
2.4300000000007036, -1.4292835934714345 
2.4400000000007247, -1.429858603177941 
2.450000000000746, -1.43058087992389 
2.460000000000767, -1.4312972988982156 
2.470000000000788, -1.431890789411658 
2.480000000000809, -1.432280256212249 
2.49000000000083, -1.4324111470135317 
2.5000000000008513, -1.4322449066874385 
2.5100000000008724, -1.4317510455512474 
2.5200000000008935, -1.4309037663491948 
2.5300000000009146, -1.4296829811437426 
2.5400000000009357, -1.4280803170099892 
2.550000000000957, -1.4261136794521307 
2.560000000000978, -1.4238564018803463 
2.570000000000999, -1.4214824535549646 
2.58000000000102, -1.4192972851040553 
2.5900000000010412, -1.4176631375366235 
2.6000000000010624, -1.416774661873141 
2.6100000000010835, -1.416497654551278 
2.6200000000011046, -1.4165006546127894 
2.6300000000011257, -1.4164918328987732 
2.6400000000011468, -1.416293509417265 
2.650000000001168, -1.415776285060999 
2.660000000001189, -1.4147592959777837 
2.67000000000121, -1.4129003311861783 
2.680000000001231, -1.409556819116624 
2.6900000000012523, -1.4036583534732525 
2.7000000000012734, -1.3938980853743044 
2.7100000000012945, -1.3800488061076885 
2.7200000000013156, -1.365611254049512 
2.7300000000013367, -1.357717624075041 
2.740000000001358, -1.3599351677720053 
2.750000000001379, -1.3679289837553443 
2.7600000000014, -1.375772554388445 
2.770000000001421, -1.381105790821672 
2.780000000001442, -1.3841359624885665 
2.7900000000014633, -1.3856550527945783 
2.8000000000014844, -1.3862740857172766 
2.8100000000015055, -1.3863458000492441 
2.8200000000015266, -1.3860496013240517 
2.8300000000015477, -1.3854839096713292 
2.840000000001569, -1.3847666481138476 
2.85000000000159, -1.3841661447442122 
2.860000000001611, -1.3841878612550307 
2.870000000001632, -1.385388225746928 
2.8800000000016532, -1.3879053558168397 
2.8900000000016743, -1.3912721384446234 
2.9000000000016954, -1.3947911668430364 
2.9100000000017165, -1.3979461604013168 
2.9200000000017377, -1.4004946288840856 
2.9300000000017588, -1.4023803812518696 
2.94000000000178, -1.403640383331878 
2.950000000001801, -1.4043508399232436 
2.960000000001822, -1.4046004059877517 
2.970000000001843, -1.4044764891791153 
2.9800000000018643, -1.4040601366328114 
2.9900000000018854, -1.4034296525276833 
3.0000000000019065, -1.4026699562854366 
3.0100000000019276, -1.4018777600137957 
3.0200000000019487, -1.4011533558260614 
3.03000000000197, -1.4005834347306623 
3.040000000001991, -1.4002228053954178 
3.050000000002012, -1.4000712385752043 
3.060000000002033, -1.4000585306839555 
3.070000000002054, -1.4000661980026927 
3.0800000000020753, -1.3999690337862585 
3.0900000000020964, -1.3996515100786469 
3.1000000000021175, -1.3989899399000467 
3.1100000000021386, -1.3978214012474948 
3.1200000000021597, -1.3959191593436373 
3.130000000002181, -1.3929893810813276 
3.140000000002202, -1.3887077283677167 
3.150000000002223, -1.3828257256948961 
3.160000000002244, -1.3753901191398294 
3.1700000000022652, -1.3670751718591725 
3.1800000000022863, -1.3593684061428848 
3.1900000000023074, -1.3539961220783547 
3.2000000000023285, -1.3516195259423731 
3.2100000000023496, -1.3513836714229888 
3.2200000000023707, -1.3519719841160296 
3.230000000002392, -1.3525615241315572 
3.240000000002413, -1.3528641409346773 
3.250000000002434, -1.3528305883915341 
3.260000000002455, -1.352446634092539 
3.2700000000024763, -1.3516426328736613 
3.2800000000024974, -1.3502530577740621 
3.2900000000025185, -1.3480227759320986 
3.3000000000025396, -1.3447862162280817 
3.3100000000025607, -1.3411212122919363 
3.3200000000025818, -1.3394738008255214 
3.330000000002603, -1.3438979812645193 
3.340000000002624, -1.3560920596397414 
3.350000000002645, -1.3723076836283359 
3.360000000002666, -1.3870176773550735 
3.3700000000026873, -1.3975190928403292 
3.3800000000027084, -1.4039780413770844 
3.3900000000027295, -1.4075789176188824 
3.4000000000027506, -1.4094138332793278 
3.4100000000027717, -1.410211148746895 
3.420000000002793, -1.4103953105439648 
3.430000000002814, -1.4102036193987075 
3.440000000002835, -1.4097865388834463 
3.450000000002856, -1.409288900679957 
3.460000000002877, -1.4089018687185644 
3.4700000000028983, -1.4088382283599297 
3.4800000000029194, -1.4092171040251125 
3.4900000000029405, -1.4099786513078385 
3.5000000000029616, -1.4109403468370227 
3.5100000000029827, -1.411912118329553 
3.520000000003004, -1.4127545355384705 
3.530000000003025, -1.4133803706878294 
3.540000000003046, -1.413739302030872 
3.550000000003067, -1.413803352225488 
3.5600000000030882, -1.4135568272333139 
3.5700000000031094, -1.412991215966124 
3.5800000000031305, -1.4121043100332016 
3.5900000000031516, -1.410903334147833 
3.6000000000031727, -1.4094133901258983 
3.6100000000031938, -1.4076932375846216 
3.620000000003215, -1.4058588691946952 
3.630000000003236, -1.4041047487647085 
3.640000000003257, -1.4026816835359552 
3.650000000003278, -1.401781195022612 
3.6600000000032993, -1.401392273307745 
3.6700000000033204, -1.40130788347401 
3.6800000000033415, -1.4012783137052087 
3.6900000000033626, -1.4011174377027564 
3.7000000000033837, -1.400688162023918 
3.710000000003405, -1.3998279745459121 
3.720000000003426, -1.3982558652014112 
3.730000000003447, -1.3954557992736476 
3.740000000003468, -1.3905437963096468 
3.750000000003489, -1.3822471472445934 
3.7600000000035103, -1.369423977455686 
3.7700000000035314, -1.3527212323086604 
3.7800000000035525, -1.3364798124109132 
3.7900000000035736, -1.3268279250280988 
3.8000000000035947, -1.3255976117455903 
3.810000000003616, -1.3290861242318415 
3.820000000003637, -1.3331548139209608 
3.830000000003658, -1.3360875065900286 
3.840000000003679, -1.3377904417341069 
3.8500000000037002, -1.3386080605367574 
3.8600000000037213, -1.338841407350786 
3.8700000000037424, -1.3386639378469094 
3.8800000000037635, -1.3381491288154612 
3.8900000000037847, -1.3373252538190195 
3.9000000000038058, -1.3362769888833568 
3.910000000003827, -1.3353456519521987 
3.920000000003848, -1.3353587144406562 
3.930000000003869, -1.3374646342175907 
3.94000000000389, -1.3422323496581345 
3.9500000000039113, -1.348922339733406 
3.9600000000039324, -1.3560326335708437 
3.9700000000039535, -1.3623344605342533 
3.9800000000039746, -1.3672660029144297 
3.9900000000039957, -1.3707719828891498 
4.000000000004016, -1.3730476019370275 
4.010000000003993, -1.3743652705532288 
4.02000000000397, -1.3749833879349649 
4.030000000003946, -1.3751091400005928 
4.040000000003923, -1.374896105713453 
4.0500000000039, -1.3744631207772438 
4.0600000000038765, -1.373921549050976 
4.070000000003853, -1.3733928143023855 
4.08000000000383, -1.372995510257358 
4.090000000003807, -1.3728060312616146 
4.100000000003783, -1.3728327364860808 
4.11000000000376, -1.373026268493282 
4.120000000003737, -1.3733033015272837 
4.130000000003713, -1.3735661552420695 
4.14000000000369, -1.3737200014172573 
4.150000000003667, -1.3736827565542753 
4.1600000000036434, -1.3733830037073467 
4.17000000000362, -1.3727528255418622 
4.180000000003597, -1.371724555802299 
4.1900000000035735, -1.370234285274689 
4.20000000000355, -1.3682309248871676 
4.210000000003527, -1.3656918613565387 
4.220000000003504, -1.3626525097953115 
4.23000000000348, -1.3592592828017829 
4.240000000003457, -1.355834383481331 
4.250000000003434, -1.3528730061325738 
4.26000000000341, -1.3508461948106079 
4.270000000003387, -1.3498767740582207 
4.280000000003364, -1.3496599584586533 
4.2900000000033405, -1.3497457008421003 
4.300000000003317, -1.3498080065894003 
4.310000000003294, -1.349677283618603 
4.320000000003271, -1.3492480275948002 
4.330000000003247, -1.3483800854389536 
4.340000000003224, -1.3468065900401112 
4.350000000003201, -1.3440236796957588 
4.360000000003177, -1.339175106027898 
4.370000000003154, -1.3311116925054192 
4.380000000003131, -1.3191677007200104 
4.390000000003107, -1.3051494190905237 
4.400000000003084, -1.2946057820817551 
4.410000000003061, -1.2928546142533999 
4.4200000000030375, -1.2989102785778557 
4.430000000003014, -1.3072811520108663 
4.440000000002991, -1.3140419856559573 
4.450000000002968, -1.3183389294204428 
4.460000000002944, -1.3207243219346876 
4.470000000002921, -1.3218952646468387 
4.480000000002898, -1.322330333711703 
4.490000000002874, -1.322296320739455 
4.500000000002851, -1.3219242314342023 
4.510000000002828, -1.321283743587495 
4.520000000002804, -1.3204739226836957 
4.530000000002781, -1.3197618920083172 
4.540000000002758, -1.319716141272994 
4.5500000000027345, -1.3210872017212463 
4.560000000002711, -1.3242722535142346 
4.570000000002688, -1.3288774407898614 
4.580000000002665, -1.3339893369609723 
4.590000000002641, -1.338772916632883 
4.600000000002618, -1.3427564385078083 
4.610000000002595, -1.3457872937376876 
4.620000000002571, -1.347901902617722 
4.630000000002548, -1.3492266859839697 
4.640000000002525, -1.349917723944124 
4.6500000000025015, -1.350125232740377 
4.660000000002478, -1.3499769327560793 
4.670000000002455, -1.3495787316807843 
4.6800000000024315, -1.3490283176006674 
4.690000000002408, -1.348430349599122 
4.700000000002385, -1.3478958095430396 
4.710000000002362, -1.3475174462859782 
4.720000000002338, -1.347340918059635 
4.730000000002315, -1.3473570711576885 
4.740000000002292, -1.347511448710828 
4.750000000002268, -1.3477182466608053 
4.760000000002245, -1.3478793722222275 
4.770000000002222, -1.3479027608952694 
4.7800000000021985, -1.3477078986711015 
4.790000000002175, -1.3472198112058416 
4.800000000002152, -1.3463626399004027 
4.810000000002129, -1.3450602776451785 
4.820000000002105, -1.3432444814641038 
4.830000000002082, -1.3408685653101688 
4.840000000002059, -1.3379289067857925 
4.850000000002035, -1.3345029260868466 
4.860000000002012, -1.3308087083875084 
4.870000000001989, -1.3272549856272795 
4.880000000001965, -1.3243771389662355 
4.890000000001942, -1.3225713089249171 
4.900000000001919, -1.3218121880336728 
4.9100000000018955, -1.3217067641547737 
4.920000000001872, -1.3218157070293335 
4.930000000001849, -1.3218562394060371 
