t, s[1].omega / s[0].omega 
0, -0.5799977341648441 
0.009999999999999995, -0.5797835174281343 
0.019999999999999934, -0.5795861213847144 
0.029999999999999874, -0.5793860184960149 
0.04000000000000012, -0.5791599414270124 
0.050000000000000405, -0.57888927048063 
0.06000000000000069, -0.5785649045253889 
0.07000000000000098, -0.5781879392083357 
0.08000000000000126, -0.5777682752579063 
0.09000000000000155, -0.5773239509412609 
0.10000000000000184, -0.5768831861086097 
0.11000000000000212, -0.576490306518797 
0.12000000000000241, -0.5762165291708892 
0.130000000000002, -0.5761767847544021 
0.1400000000000009, -0.5765536104377894 
0.1499999999999998, -0.5776273549375048 
0.1599999999999987, -0.5798058158024737 
0.1699999999999976, -0.5836311442611968 
0.1799999999999965, -0.5897132908789772 
0.1899999999999954, -0.5985118774793171 
0.1999999999999943, -0.6099362912644327 
0.2099999999999932, -0.622973161629756 
0.2199999999999921, -0.6358362747948549 
0.229999999999991, -0.6468187261853205 
0.2399999999999899, -0.655117907949022 
0.2499999999999888, -0.6608742040561542 
0.2599999999999877, -0.6646700230042334 
0.2699999999999866, -0.6671041850049992 
0.2799999999999855, -0.6686310173432763 
0.2899999999999844, -0.6695545322002804 
0.2999999999999833, -0.6700660848019613 
0.3099999999999822, -0.670279876996711 
0.3199999999999811, -0.6702566693899933 
0.32999999999998, -0.6700168530297841 
0.3399999999999789, -0.6695456319518726 
0.3499999999999778, -0.6687930482990769 
0.35999999999997667, -0.667672745139315 
0.36999999999997557, -0.6660668597067022 
0.37999999999997447, -0.6638489599708999 
0.38999999999997337, -0.6609348535533213 
0.39999999999997227, -0.6573501567842056 
0.40999999999997117, -0.653269793431491 
0.41999999999997006, -0.6489833379718786 
0.42999999999996896, -0.6447990929005268 
0.43999999999996786, -0.6409547691246644 
0.44999999999996676, -0.6375837977597347 
0.45999999999996566, -0.6347308714608175 
0.46999999999996456, -0.6323851632913031 
0.47999999999996346, -0.6305088468088653 
0.48999999999996235, -0.6290544160868415 
0.49999999999996125, -0.6279728658761223 
0.5099999999999602, -0.6272167176663335 
0.519999999999959, -0.6267409948328971 
0.529999999999958, -0.6265038550141022 
0.5399999999999568, -0.6264674973283079 
0.5499999999999557, -0.6265993325377798 
0.5599999999999546, -0.6268731661400275 
0.5699999999999535, -0.6272701285970166 
0.5799999999999524, -0.6277790689540156 
0.5899999999999513, -0.6283959151532804 
0.5999999999999502, -0.6291211067581377 
0.6099999999999491, -0.6299540290185718 
0.619999999999948, -0.630884194768909 
0.6299999999999469, -0.6318813285177599 
0.6399999999999458, -0.632889812014757 
0.6499999999999447, -0.6338341080114125 
0.6599999999999436, -0.6346367654363567 
0.6699999999999425, -0.6352405933340717 
0.6799999999999414, -0.6356215089870643 
0.6899999999999403, -0.6357857640141752 
0.6999999999999392, -0.6357570052629405 
0.7099999999999381, -0.6355627678468914 
0.719999999999937, -0.6352260213053464 
0.7299999999999359, -0.6347624648988486 
0.7399999999999348, -0.6341824073902399 
0.7499999999999337, -0.6334967226338978 
0.7599999999999326, -0.6327278853033583 
0.7699999999999315, -0.6319281607196677 
0.7799999999999304, -0.6312058100985375 
0.7899999999999293, -0.6307525735825379 
0.7999999999999282, -0.6308454730948452 
0.8099999999999271, -0.6317662110220381 
0.819999999999926, -0.6335914941279817 
0.8299999999999249, -0.6359644934610567 
0.8399999999999238, -0.6381910623398762 
0.8499999999999227, -0.6397739372862787 
0.8599999999999216, -0.6407778481129907 
0.8699999999999205, -0.6415637603115957 
0.8799999999999194, -0.6423693803168434 
0.8899999999999183, -0.643214697692733 
0.8999999999999172, -0.6440200140480666 
0.9099999999999161, -0.6447095529238098 
0.919999999999915, -0.6452442643262473 
0.9299999999999139, -0.6456153136086996 
0.9399999999999128, -0.6458284815552049 
0.9499999999999117, -0.645891449970691 
0.9599999999999106, -0.6458057127268584 
0.9699999999999095, -0.6455619193103177 
0.9799999999999084, -0.6451378252648274 
0.9899999999999073, -0.6444995576981948 
0.9999999999999062, -0.6436084666297592 
1.0099999999999052, -0.6424356776770624 
1.019999999999904, -0.6409821080902602 
1.029999999999903, -0.6392937308994648 
1.039999999999902, -0.6374586935429971 
1.0499999999999008, -0.6355836233683662 
1.0599999999998997, -0.6337633629499252 
1.0699999999998986, -0.632062147955484 
1.0799999999998975, -0.6305122026174664 
1.0899999999998964, -0.629123519851082 
1.0999999999998953, -0.6278959311086527 
1.1099999999998942, -0.6268282112084432 
1.119999999999893, -0.6259230206234144 
1.129999999999892, -0.6251885778129396 
1.1399999999998909, -0.6246383752965502 
1.1499999999998898, -0.6242899719955891 
1.1599999999998887, -0.6241635613190095 
1.1699999999998876, -0.6242808131348474 
1.1799999999998865, -0.6246643327662498 
1.1899999999998854, -0.6253378320483405 
1.1999999999998843, -0.6263266724032783 
1.2099999999998832, -0.6276577714782816 
1.219999999999882, -0.6293569727526622 
1.229999999999881, -0.6314410965889118 
1.2399999999998799, -0.6339019348118511 
1.2499999999998788, -0.636682513062994 
1.2599999999998777, -0.6396543919972121 
1.2699999999998766, -0.6426160576877414 
1.2799999999998755, -0.6453320842192934 
1.2899999999998744, -0.6476049714761309 
1.2999999999998733, -0.6493352267125114 
1.3099999999998722, -0.6505293983815441 
1.319999999999871, -0.6512618790375799 
1.32999999999987, -0.6516267410075397 
1.3399999999998689, -0.651705336116189 
1.3499999999998678, -0.6515525360600917 
1.3599999999998666, -0.6511935738038037 
1.3699999999998655, -0.6506235482880327 
1.3799999999998644, -0.6498046541548168 
1.3899999999998633, -0.6486580303204199 
1.3999999999998622, -0.6470472955505625 
1.4099999999998611, -0.644750440503833 
1.41999999999986, -0.6414194944578571 
1.429999999999859, -0.636544878958653 
1.4399999999998578, -0.629494890070226 
1.4499999999998567, -0.6197745840553475 
1.4599999999998556, -0.6075584793094454 
1.4699999999998545, -0.5940857228498381 
1.4799999999998534, -0.581251628809061 
1.4899999999998523, -0.5705942290691408 
1.4999999999998512, -0.5626884556184104 
1.5099999999998501, -0.5573075873438529 
1.519999999999849, -0.5538777034980361 
1.529999999999848, -0.5518070430167252 
1.5399999999998468, -0.5506213662968757 
1.5499999999998457, -0.5499835947910918 
1.5599999999998446, -0.5496696230041954 
1.5699999999998435, -0.5495362939530385 
1.5799999999998424, -0.549494248471032 
1.5899999999998413, -0.5494881955611476 
1.5999999999998402, -0.549483824889651 
1.6099999999998391, -0.5494599892183525 
1.619999999999838, -0.5494049799710023 
1.629999999999837, -0.549315794859323 
1.6399999999998358, -0.549198843890544 
1.6499999999998347, -0.5490697742418508 
1.6599999999998336, -0.5489500507511964 
1.6699999999998325, -0.5488596618967808 
1.6799999999998314, -0.5488082829429644 
1.6899999999998303, -0.5487892123254492 
1.6999999999998292, -0.5487797064985176 
1.709999999999828, -0.5487481360301848 
1.719999999999827, -0.5486644061159792 
1.729999999999826, -0.5485081958715965 
1.7399999999998248, -0.5482716461894168 
1.7499999999998237, -0.5479572806986898 
1.7599999999998226, -0.5475744485241785 
1.7699999999998215, -0.5471372948613822 
1.7799999999998204, -0.5466659003397099 
1.7899999999998193, -0.546191471202542 
1.7999999999998182, -0.5457666447228688 
1.809999999999817, -0.5454825422757488 
1.819999999999816, -0.5454940161687403 
1.8299999999998149, -0.5460511010391806 
1.8399999999998138, -0.5475225384276513 
1.8499999999998127, -0.5503685372526343 
1.8599999999998116, -0.554980383368966 
1.8699999999998105, -0.5613270859097896 
1.8799999999998094, -0.5685945023743803 
1.8899999999998083, -0.5753637262501643 
1.8999999999998072, -0.580513909426166 
1.909999999999806, -0.583902443547035 
1.919999999999805, -0.5860588296891291 
1.9299999999998039, -0.5875350085500979 
1.9399999999998028, -0.5886403274438378 
1.9499999999998017, -0.5894983960641341 
1.9599999999998006, -0.590153717657779 
1.9699999999997995, -0.5906290218563498 
1.9799999999997984, -0.5909428294642298 
1.9899999999997973, -0.5911106819367941 
1.9999999999997962, -0.5911423968220904 
2.0099999999998173, -0.5910394722956852 
2.0199999999998384, -0.5907936723569178 
2.0299999999998595, -0.5903874876269493 
2.0399999999998806, -0.5897978213300787 
2.0499999999999017, -0.5890045048604529 
2.059999999999923, -0.5880034004705137 
2.069999999999944, -0.586819114150604 
2.079999999999965, -0.5855081538740505 
2.089999999999986, -0.5841467169545 
2.100000000000007, -0.5828086169058266 
2.1100000000000283, -0.5815466946938526 
2.1200000000000494, -0.5803867593999487 
2.1300000000000705, -0.5793330590844856 
2.1400000000000916, -0.5783787390688803 
2.1500000000001127, -0.5775155086212381 
2.160000000000134, -0.5767400290393704 
2.170000000000155, -0.5760572302919716 
2.180000000000176, -0.5754818887489022 
2.190000000000197, -0.5750397098879494 
2.2000000000002182, -0.5747686117262603 
2.2100000000002393, -0.5747204379638786 
2.2200000000002604, -0.5749630991788844 
2.2300000000002815, -0.5755830327301804 
2.2400000000003026, -0.5766876279030216 
2.2500000000003237, -0.5784064905046874 
2.260000000000345, -0.580888576738893 
2.270000000000366, -0.5842888042037998 
2.280000000000387, -0.5887333241686603 
2.290000000000408, -0.5942518850345453 
2.3000000000004293, -0.6006814167142573 
2.3100000000004504, -0.607590709316626 
2.3200000000004715, -0.614324838749591 
2.3300000000004926, -0.6202204774020605 
2.3400000000005137, -0.6248679238303052 
2.3500000000005348, -0.6282106433570929 
2.360000000000556, -0.6304410105002864 
2.370000000000577, -0.631832816363897 
2.380000000000598, -0.6326307319120166 
2.390000000000619, -0.6330121612803493 
2.4000000000006403, -0.6330883689802225 
2.4100000000006614, -0.6329162455189035 
2.4200000000006825, -0.6325072654005411 
2.4300000000007036, -0.631829209256532 
2.4400000000007247, -0.6307995862428873 
2.450000000000746, -0.6292715707078294 
2.460000000000767, -0.6270182225073806 
2.470000000000788, -0.6237339151576682 
2.480000000000809, -0.6190926318460386 
2.49000000000083, -0.6129032940316683 
2.5000000000008513, -0.6053225093436019 
2.5100000000008724, -0.5969449689290166 
2.5200000000008935, -0.5886133793324317 
2.5300000000009146, -0.581069513285076 
2.5400000000009357, -0.5747302377320952 
2.550000000000957, -0.5696900693684321 
2.560000000000978, -0.5658420851474343 
2.570000000000999, -0.5629963238706789 
2.58000000000102, -0.560952087486925 
2.5900000000010412, -0.5595303141403505 
2.6000000000010624, -0.5585832011921478 
2.6100000000010835, -0.5579937414666829 
2.6200000000011046, -0.5576718372751805 
2.6300000000011257, -0.557549849738628 
2.6400000000011468, -0.557578609730461 
2.650000000001168, -0.5577242048916706 
2.660000000001189, -0.557965614797985 
2.67000000000121, -0.5582930920252103 
2.680000000001231, -0.5587068472239937 
2.6900000000012523, -0.5592150442184832 
2.7000000000012734, -0.5598296177989276 
2.7100000000012945, -0.5605586303651896 
2.7200000000013156, -0.5613954865307157 
2.7300000000013367, -0.5623084390000445 
2.740000000001358, -0.5632370290512599 
2.750000000001379, -0.564101710273948 
2.7600000000014, -0.5648254596279532 
2.770000000001421, -0.5653557942405224 
2.780000000001442, -0.5656739515108212 
2.7900000000014633, -0.5657884346517104 
2.8000000000014844, -0.5657208061708429 
2.8100000000015055, -0.5654926683131999 
2.8200000000015266, -0.5651175137343863 
2.8300000000015477, -0.5645966594020525 
2.840000000001569, -0.5639169868959384 
2.85000000000159, -0.5630482621455992 
2.860000000001611, -0.561937596440101 
2.870000000001632, -0.5604968001522268 
2.8800000000016532, -0.5585740539202977 
2.8900000000016743, -0.5558969971511639 
2.9000000000016954, -0.5519885825054784 
2.9100000000017165, -0.5461399134909702 
2.9200000000017377, -0.53767928703769 
2.9300000000017588, -0.5266758985330975 
2.94000000000178, -0.5144584220441086 
2.950000000001801, -0.5030165303679517 
2.960000000001822, -0.4937812333341779 
2.970000000001843, -0.48711875598633014 
2.9800000000018643, -0.482672811511175 
2.9900000000018854, -0.4798608483877529 
3.0000000000019065, -0.4781528964978534 
3.0100000000019276, -0.4771538439797687 
3.0200000000019487, -0.47659552466624094 
3.03000000000197, -0.4763046495482099 
3.040000000001991, -0.47617226997069856 
3.050000000002012, -0.4761310939019057 
3.060000000002033, -0.4761403635188328 
3.070000000002054, -0.4761765677213434 
3.0800000000020753, -0.4762283981833349 
3.0900000000020964, -0.4762946480251998 
3.1000000000021175, -0.4763836867876095 
3.1100000000021386, -0.4765127174844772 
3.1200000000021597, -0.47670474773748683 
3.130000000002181, -0.4769818793202555 
3.140000000002202, -0.4773554345239683 
3.150000000002223, -0.4778159650825291 
3.160000000002244, -0.47832819356735923 
3.1700000000022652, -0.47883572560289733 
3.1800000000022863, -0.47927590037989454 
3.1900000000023074, -0.4795977772756449 
3.2000000000023285, -0.4797730723417885 
3.2100000000023496, -0.47979538413015976 
3.2200000000023707, -0.47967135320573123 
3.230000000002392, -0.4794102666624524 
3.240000000002413, -0.4790158700876906 
3.250000000002434, -0.4784804508100925 
3.260000000002455, -0.4777791246327646 
3.2700000000024763, -0.4768611475776927 
3.2800000000024974, -0.4756335389834261 
3.2900000000025185, -0.4739295418729618 
3.3000000000025396, -0.4714526988779375 
3.3100000000025607, -0.46769991441270486 
3.3200000000025818, -0.4619300879138925 
3.330000000002603, -0.45337640297558257 
3.340000000002624, -0.4418843438733525 
3.350000000002645, -0.4285552217752248 
3.360000000002666, -0.41541240456023826 
3.3700000000026873, -0.4041829775990743 
3.3800000000027084, -0.39554656825723145 
3.3900000000027295, -0.38933115583607497 
3.4000000000027506, -0.38502061037760826 
3.4100000000027717, -0.38208772062630575 
3.420000000002793, -0.38011459541856496 
3.430000000002814, -0.3788036356402214 
3.440000000002835, -0.3779537140064889 
3.450000000002856, -0.37743314948202233 
3.460000000002877, -0.3771585748468716 
3.4700000000028983, -0.3770805704535961 
3.4800000000029194, -0.3771748018504087 
3.4900000000029405, -0.37743725913630805 
3.5000000000029616, -0.37788246025362826 
3.5100000000029827, -0.37854356461535377 
3.520000000003004, -0.37947297231411137 
3.530000000003025, -0.3807409441779261 
3.540000000003046, -0.38242793827043003 
3.550000000003067, -0.38460423667887367 
3.5600000000030882, -0.38729104038971457 
3.5700000000031094, -0.390408026316517 
3.5800000000031305, -0.3937385010291079 
3.5900000000031516, -0.39696255504990163 
3.6000000000031727, -0.39976969612273383 
3.6100000000031938, -0.4019763867289775 
3.620000000003215, -0.4035586226631853 
3.630000000003236, -0.4045989918755032 
3.640000000003257, -0.40521378961494225 
3.650000000003278, -0.4055059574413108 
3.6600000000032993, -0.40554730254889904 
3.6700000000033204, -0.40537645544479906 
3.6800000000033415, -0.4050014029476269 
3.6900000000033626, -0.4044017820512048 
3.7000000000033837, -0.40353106216968443 
3.710000000003405, -0.4023227757876452 
3.720000000003426, -0.4007083205949874 
3.730000000003447, -0.39865240917301015 
3.740000000003468, -0.396198064835669 
3.750000000003489, -0.3934895233595224 
3.7600000000035103, -0.390740195132938 
3.7700000000035314, -0.3881571838704113 
3.7800000000035525, -0.3858766561211555 
3.7900000000035736, -0.3839474333472691 
3.8000000000035947, -0.3823532916690974 
3.810000000003616, -0.38104558516720904 
3.820000000003637, -0.3799684963837463 
3.830000000003658, -0.37907332086186357 
3.840000000003679, -0.378324587229613 
3.8500000000037002, -0.3777017919335126 
3.8600000000037213, -0.377199745369616 
3.8700000000037424, -0.3768295971423138 
3.8800000000037635, -0.3766220056467595 
3.8900000000037847, -0.3766337648661466 
3.9000000000038058, -0.3769594590427522 
3.910000000003827, -0.3777501199770946 
3.920000000003848, -0.37924055086078107 
3.930000000003869, -0.381783335187573 
3.94000000000389, -0.3858736997809384 
3.9500000000039113, -0.3921124997325487 
3.9600000000039324, -0.400991902868682 
3.9700000000039535, -0.41238850858822546 
3.9800000000039746, -0.42498533497127405 
3.9900000000039957, -0.43648475703871126 
4.000000000004016, -0.4450355744567121 
4.010000000003993, -0.4503795146061796 
4.02000000000397, -0.4534025596301527 
4.030000000003946, -0.4551007644715826 
4.040000000003923, -0.45611668055011056 
4.0500000000039, -0.4567734232253133 
4.0600000000038765, -0.4572173968401122 
4.070000000003853, -0.4575149658762404 
4.08000000000383, -0.4576983400637301 
4.090000000003807, -0.45778406003521166 
4.100000000003783, -0.4577799276470452 
4.11000000000376, -0.4576879083743533 
4.120000000003737, -0.4575063494381458 
4.130000000003713, -0.4572331642539907 
4.14000000000369, -0.45687063966905156 
4.150000000003667, -0.4564310780363335 
4.1600000000036434, -0.45594052658176265 
4.17000000000362, -0.4554369899910206 
4.180000000003597, -0.4549618273183419 
4.1900000000035735, -0.4545476116076747 
4.20000000000355, -0.4542084043920281 
4.210000000003527, -0.45393683196626017 
4.220000000003504, -0.45370861425369746 
4.23000000000348, -0.45349195922799773 
4.240000000003457, -0.45325745235886716 
4.250000000003434, -0.45298443689551704 
4.26000000000341, -0.45266246703417445 
4.270000000003387, -0.4522893201421768 
4.280000000003364, -0.4518681907712991 
4.2900000000033405, -0.45140605452592897 
4.300000000003317, -0.4509141185139104 
4.310000000003294, -0.4504106215335564 
4.320000000003271, -0.4499258252027227 
4.330000000003247, -0.44950774927145576 
4.340000000003224, -0.44922262704951094 
4.350000000003201, -0.44913167956164307 
4.360000000003177, -0.44920269020756953 
4.370000000003154, -0.4491054968727434 
4.380000000003131, -0.4479581582187063 
4.390000000003107, -0.44445442215691633 
4.400000000003084, -0.43787285021260747 
4.410000000003061, -0.4291582088725936 
4.4200000000030375, -0.4203772232571345 
4.430000000003014, -0.41313191380895037 
4.440000000002991, -0.4078983899979917 
4.450000000002968, -0.4044163772830551 
4.460000000002944, -0.4022119404710832 
4.470000000002921, -0.40086124394347034 
4.480000000002898, -0.40005685599564467 
4.490000000002874, -0.39959536931531886 
4.500000000002851, -0.39934826991480754 
4.510000000002828, -0.3992366922241224 
4.520000000002804, -0.39921385038441304 
4.530000000002781, -0.39925407378178546 
4.540000000002758, -0.39934666334477253 
4.5500000000027345, -0.39949305150359843 
4.560000000002711, -0.3997059169962908 
4.570000000002688, -0.40000871058486276 
4.580000000002665, -0.40043365826989274 
4.590000000002641, -0.4010161800556478 
4.600000000002618, -0.4017842762683747 
4.610000000002595, -0.40274325852683895 
4.620000000002571, -0.40385996353177944 
4.630000000002548, -0.40505585273860173 
4.640000000002525, -0.40621970883952596 
4.6500000000025015, -0.4072399054464804 
4.660000000002478, -0.4080384138691078 
4.670000000002455, -0.40858507354260193 
4.6800000000024315, -0.4088879677165707 
4.690000000002408, -0.4089726684960831 
4.700000000002385, -0.4088635606179024 
4.710000000002362, -0.4085716284841799 
4.720000000002338, -0.408086501173734 
4.730000000002315, -0.40736874476094503 
4.740000000002292, -0.40633920819601477 
4.750000000002268, -0.4048648145498038 
4.760000000002245, -0.4027469522998205 
4.770000000002222, -0.3997337620471097 
4.7800000000021985, -0.39559613487976925 
4.790000000002175, -0.39028996844164665 
4.800000000002152, -0.38411964262029363 
4.810000000002129, -0.3777093541709006 
4.820000000002105, -0.3717296662322961 
4.830000000002082, -0.36661545585615735 
4.840000000002059, -0.36249475414350063 
4.850000000002035, -0.3592877324856426 
4.860000000002012, -0.35683174497240644 
4.870000000001989, -0.3549602712141393 
4.880000000001965, -0.35353582946170153 
4.890000000001942, -0.35245716938294713 
4.900000000001919, -0.35165634965795817 
