t, s[1].omega / s[0].omega 
0, -0.8399727958058157 
0.009999999999999995, -0.8371894957736087 
0.019999999999999934, -0.8343734067667199 
0.029999999999999874, -0.8316452707410804 
0.04000000000000012, -0.8291007203897411 
0.050000000000000405, -0.8268134672439033 
0.06000000000000069, -0.8248397571955591 
0.07000000000000098, -0.8232188264041491 
0.08000000000000126, -0.821969145012552 
0.09000000000000155, -0.8210836331426833 
0.10000000000000184, -0.8205280671467309 
0.11000000000000212, -0.8202453814548912 
0.12000000000000241, -0.8201652537451233 
0.130000000000002, -0.8202153906662983 
0.1400000000000009, -0.8203304621752217 
0.1499999999999998, -0.820456733255835 
0.1599999999999987, -0.8205531416126369 
0.1699999999999976, -0.820590893396879 
0.1799999999999965, -0.8205530337850693 
0.1899999999999954, -0.8204337057413067 
0.1999999999999943, -0.8202356214619169 
0.2099999999999932, -0.8199651669988114 
0.2199999999999921, -0.8196270729695607 
0.229999999999991, -0.8192219672426413 
0.2399999999999899, -0.818748431686726 
0.2499999999999888, -0.8182079534868665 
0.2599999999999877, -0.817609661341149 
0.2699999999999866, -0.8169730624208613 
0.2799999999999855, -0.8163291117419968 
0.2899999999999844, -0.8157205338399374 
0.2999999999999833, -0.8152012569029259 
0.3099999999999822, -0.8148336350526357 
0.3199999999999811, -0.8146822481519191 
0.32999999999998, -0.8148047729195481 
0.3399999999999789, -0.815242602854459 
0.3499999999999778, -0.816014714887792 
0.35999999999997667, -0.8171167996312454 
0.36999999999997557, -0.8185248495535673 
0.37999999999997447, -0.8202001219847445 
0.38999999999997337, -0.8220918453765828 
0.39999999999997227, -0.8241353879043014 
0.40999999999997117, -0.8262467569248036 
0.41999999999997006, -0.8283187995941708 
0.42999999999996896, -0.830227745400645 
0.43999999999996786, -0.831855262391851 
0.44999999999996676, -0.8331186555417167 
0.45999999999996566, -0.8339906556459884 
0.46999999999996456, -0.8344958443080269 
0.47999999999996346, -0.8346892280239565 
0.48999999999996235, -0.8346330762432428 
0.49999999999996125, -0.8343834356108972 
0.5099999999999602, -0.8339886792583503 
0.519999999999959, -0.8334984089472595 
0.529999999999958, -0.832981727834045 
0.5399999999999568, -0.8325550782945262 
0.5499999999999557, -0.8324175936980787 
0.5599999999999546, -0.832883830052818 
0.5699999999999535, -0.8343913822032265 
0.5799999999999524, -0.8374533154383956 
0.5899999999999513, -0.8425358731495087 
0.5999999999999502, -0.8498746304572323 
0.6099999999999491, -0.8592851368609222 
0.619999999999948, -0.8700619409999513 
0.6299999999999469, -0.881073442075642 
0.6399999999999458, -0.8910946225007663 
0.6499999999999447, -0.8992390085963118 
0.6599999999999436, -0.9052089372581105 
0.6699999999999425, -0.9092160262580384 
0.6799999999999414, -0.9117110550977483 
0.6899999999999403, -0.9131490603981678 
0.6999999999999392, -0.9138810033363658 
0.7099999999999381, -0.914139245782442 
0.719999999999937, -0.9140603139406978 
0.7299999999999359, -0.9137122093281604 
0.7399999999999348, -0.9131165667287057 
0.7499999999999337, -0.9122686865721494 
0.7599999999999326, -0.9111665932612126 
0.7699999999999315, -0.9098688273499986 
0.7799999999999304, -0.9086067211490094 
0.7899999999999293, -0.9079599680492677 
0.7999999999999282, -0.9090229035716082 
0.8099999999999271, -0.9133311648613356 
0.819999999999926, -0.9222445996791168 
0.8299999999999249, -0.935854865901803 
0.8399999999999238, -0.9523005468758978 
0.8499999999999227, -0.9685092150416061 
0.8599999999999216, -0.9819331074608924 
0.8699999999999205, -0.9916182325640225 
0.8799999999999194, -0.9979371426902326 
0.8899999999999183, -1.0017785332751827 
0.8999999999999172, -1.0039843006763762 
0.9099999999999161, -1.0051606571657652 
0.919999999999915, -1.0056877053992828 
0.9299999999999139, -1.0057813876908983 
0.9399999999999128, -1.0055480276042372 
0.9499999999999117, -1.0050196262519229 
0.9599999999999106, -1.0041755660838025 
0.9699999999999095, -1.0029644247075709 
0.9799999999999084, -1.0013512857368732 
0.9899999999999073, -0.9994343349723411 
0.9999999999999062, -0.9976772927021533 
1.0099999999999052, -0.997213562792391 
1.019999999999904, -0.9999089661809231 
1.029999999999903, -1.007637589298891 
1.039999999999902, -1.020757248603889 
1.0499999999999008, -1.0371388081188821 
1.0599999999998997, -1.0532265920128618 
1.0699999999998986, -1.0662622754716877 
1.0799999999998975, -1.075394886969741 
1.0899999999998964, -1.0811673472683097 
1.0999999999998953, -1.0845600486246596 
1.1099999999998942, -1.0864289192277365 
1.119999999999893, -1.0873586154973032 
1.129999999999892, -1.0877005960754993 
1.1399999999998909, -1.0876467862153294 
1.1499999999998898, -1.0872888868097648 
1.1599999999998887, -1.0866610070859588 
1.1699999999998876, -1.0857818444854375 
1.1799999999998865, -1.0847245215502224 
1.1899999999998854, -1.0837475456282184 
1.1999999999998843, -1.0834822623791551 
1.2099999999998832, -1.0850311922340246 
1.219999999999882, -1.0896681065163247 
1.229999999999881, -1.0980355508144801 
1.2399999999998799, -1.1094279349446639 
1.2499999999998788, -1.1219665923721895 
1.2599999999998777, -1.1335813848488947 
1.2699999999998766, -1.1429213006218535 
1.2799999999998755, -1.1496117105752206 
1.2899999999998744, -1.1539708437871323 
1.2999999999998733, -1.156585096142352 
1.3099999999998722, -1.1580144053739478 
1.319999999999871, -1.158676445505645 
1.32999999999987, -1.158843112251857 
1.3399999999998689, -1.1586792293982793 
1.3499999999998678, -1.1582890400606662 
1.3599999999998666, -1.1577645802438368 
1.3699999999998655, -1.1572396521568267 
1.3799999999998644, -1.1569393655543658 
1.3899999999998633, -1.1571801896620275 
1.3999999999998622, -1.1582663173195527 
1.4099999999998611, -1.1603184441339807 
1.41999999999986, -1.163185588447781 
1.429999999999859, -1.1665254932482907 
1.4399999999998578, -1.169960551971391 
1.4499999999998567, -1.1731835929648091 
1.4599999999998556, -1.175987287392403 
1.4699999999998545, -1.1782548881471355 
1.4799999999998534, -1.1799447493780897 
1.4899999999998523, -1.1810764977483468 
1.4999999999998512, -1.1817142533434326 
1.5099999999998501, -1.1819453439839471 
1.519999999999849, -1.1818607912653496 
1.529999999999848, -1.181545538560685 
1.5399999999998468, -1.1810811983741296 
1.5499999999998457, -1.180556923175925 
1.5599999999998446, -1.1800771434298656 
1.5699999999998435, -1.179751979724241 
1.5799999999998424, -1.1796669802095483 
1.5899999999998413, -1.1798517449188437 
1.5999999999998402, -1.180273063765014 
1.6099999999998391, -1.1808542180072004 
1.619999999999838, -1.1815019114948724 
1.629999999999837, -1.1821270326604563 
1.6399999999998358, -1.1826562516853794 
1.6499999999998347, -1.1830356518483962 
1.6599999999998336, -1.1832291626401341 
1.6699999999998325, -1.1832151471783408 
1.6799999999998314, -1.1829834156336942 
1.6899999999998303, -1.1825335660012386 
1.6999999999998292, -1.1818749027765811 
1.709999999999828, -1.181027906974222 
1.719999999999827, -1.1800270026038746 
1.729999999999826, -1.1789238474532413 
1.7399999999998248, -1.1777890844006584 
1.7499999999998237, -1.176709276752482 
1.7599999999998226, -1.1757762840919843 
1.7699999999998215, -1.175068088581853 
1.7799999999998204, -1.1746234277165233 
1.7899999999998193, -1.174421626131884 
1.7999999999998182, -1.174385363690115 
1.809999999999817, -1.1744085501435468 
1.819999999999816, -1.1743871633559393 
1.8299999999998149, -1.174232016742644 
1.8399999999998138, -1.1738636642272717 
1.8499999999998127, -1.173202462421348 
1.8599999999998116, -1.1721652972861538 
1.8699999999998105, -1.170673710940279 
1.8799999999998094, -1.1686709151756816 
1.8899999999998083, -1.1661400298322957 
1.8999999999998072, -1.163117280613553 
1.909999999999806, -1.1597013506624267 
1.919999999999805, -1.1560641909330562 
1.9299999999998039, -1.1524602419008958 
1.9399999999998028, -1.149211607963298 
1.9499999999998017, -1.1466357570405736 
1.9599999999998006, -1.1449184256914045 
1.9699999999997995, -1.144017067864926 
1.9799999999997984, -1.1436949438907251 
1.9899999999997973, -1.143659324366921 
1.9999999999997962, -1.143676699531413 
2.0099999999998173, -1.1435985978417305 
2.0199999999998384, -1.1433274682576378 
2.0299999999998595, -1.1427683650782403 
2.0399999999998806, -1.141784883534127 
2.0499999999999017, -1.140160435561444 
2.059999999999923, -1.1375695735541198 
2.069999999999944, -1.1335828165704904 
2.079999999999965, -1.127749039161359 
2.089999999999986, -1.119790892109655 
2.100000000000007, -1.109878324328986 
2.1100000000000283, -1.0988354236251268 
2.1200000000000494, -1.088076056060854 
2.1300000000000705, -1.0791490448716778 
2.1400000000000916, -1.073055072577462 
2.1500000000001127, -1.069815497207754 
2.160000000000134, -1.0686626537752932 
2.170000000000155, -1.0686253627271982 
2.180000000000176, -1.0689744727939459 
2.190000000000197, -1.0693174157928194 
2.2000000000002182, -1.0694924027605661 
2.2100000000002393, -1.0694413403019134 
2.2200000000002604, -1.0691248531419866 
2.2300000000002815, -1.0684711169412264 
2.2400000000003026, -1.067334959602145 
2.2500000000003237, -1.0654496541709528 
2.260000000000345, -1.0623674148924493 
2.270000000000366, -1.057414746122316 
2.280000000000387, -1.0497498276715216 
2.290000000000408, -1.0386719340729282 
2.3000000000004293, -1.02424609253127 
2.3100000000004504, -1.00789913919363 
2.3200000000004715, -0.9922439918574574 
2.3300000000004926, -0.9798633754466574 
2.3400000000005137, -0.9719737381336246 
2.3500000000005348, -0.9681281277670925 
2.360000000000556, -0.9669690009800658 
2.370000000000577, -0.9671428581762852 
2.380000000000598, -0.9677473929990594 
2.390000000000619, -0.9683308852058625 
2.4000000000006403, -0.9687225177401816 
2.4100000000006614, -0.9688784822529641 
2.4200000000006825, -0.9687894154156096 
2.4300000000007036, -0.9684322463275447 
2.4400000000007247, -0.9677411549668294 
2.450000000000746, -0.9665800249703771 
2.460000000000767, -0.9647079554255255 
2.470000000000788, -0.9617421961770282 
2.480000000000809, -0.9571481943304667 
2.49000000000083, -0.9503245853178663 
2.5000000000008513, -0.9408591204331648 
2.5100000000008724, -0.928916357407424 
2.5200000000008935, -0.9154886069096373 
2.5300000000009146, -0.9021924235020741 
2.5400000000009357, -0.8906497354949618 
2.550000000000957, -0.8818800347509261 
2.560000000000978, -0.8760743185415277 
2.570000000000999, -0.8727727191159662 
2.58000000000102, -0.8712262963175876 
2.5900000000010412, -0.8707122897769111 
2.6000000000010624, -0.8706936370086984 
2.6100000000010835, -0.8708381939021346 
2.6200000000011046, -0.8709671353174213 
2.6300000000011257, -0.8709908813659529 
2.6400000000011468, -0.870858723308697 
2.650000000001168, -0.8705255922266886 
2.660000000001189, -0.8699313694811238 
2.67000000000121, -0.868989318239805 
2.680000000001231, -0.8675854958209586 
2.6900000000012523, -0.8655962450747001 
2.7000000000012734, -0.8629291307170955 
2.7100000000012945, -0.8595766967805847 
2.7200000000013156, -0.8556506813256475 
2.7300000000013367, -0.851366888719691 
2.740000000001358, -0.8469881510803138 
2.750000000001379, -0.8427640025664305 
2.7600000000014, -0.8388960719519097 
2.770000000001421, -0.8355289536043319 
2.780000000001442, -0.8327515884352087 
2.7900000000014633, -0.8305983649522727 
2.8000000000014844, -0.8290492862969563 
2.8100000000015055, -0.8280346348656107 
2.8200000000015266, -0.8274484515646545 
2.8300000000015477, -0.8271690563822771 
2.840000000001569, -0.827079523604595 
2.85000000000159, -0.8270810975317886 
2.860000000001611, -0.8270972219099221 
2.870000000001632, -0.8270707477621217 
2.8800000000016532, -0.8269589534235072 
2.8900000000016743, -0.826730342559955 
2.9000000000016954, -0.826364990715893 
2.9100000000017165, -0.8258572799329418 
2.9200000000017377, -0.8252173644824208 
2.9300000000017588, -0.824467923282293 
2.94000000000178, -0.8236365684525151 
2.950000000001801, -0.8227483651658776 
2.960000000001822, -0.8218229039844941 
2.970000000001843, -0.8208766002581032 
2.9800000000018643, -0.8199275514177413 
2.9900000000018854, -0.8189998646909054 
3.0000000000019065, -0.8181258063874504 
3.0100000000019276, -0.8173453300484164 
3.0200000000019487, -0.8167029030007088 
3.03000000000197, -0.8162418459127622 
3.040000000001991, -0.8159972533696284 
3.050000000002012, -0.8159895673283926 
3.060000000002033, -0.816221074833676 
3.070000000002054, -0.8166765709598647 
3.0800000000020753, -0.8173277148350809 
3.0900000000020964, -0.8181391869254101 
3.1000000000021175, -0.8190742470476113 
3.1100000000021386, -0.8200976691030926 
3.1200000000021597, -0.8211749538893596 
3.130000000002181, -0.8222681189542873 
3.140000000002202, -0.8233304368334672 
3.150000000002223, -0.824304661350584 
3.160000000002244, -0.8251291747641817 
3.1700000000022652, -0.8257517300696998 
3.1800000000022863, -0.826143458088259 
3.1900000000023074, -0.8263041452917472 
3.2000000000023285, -0.8262566737283826 
3.2100000000023496, -0.8260366973673172 
3.2200000000023707, -0.8256853235265773 
3.230000000002392, -0.8252489587074411 
3.240000000002413, -0.8247867433477772 
3.250000000002434, -0.8243839169122031 
3.260000000002455, -0.8241674835538142 
3.2700000000024763, -0.8243173827303648 
3.2800000000024974, -0.8250634555471048 
3.2900000000025185, -0.8266599377560899 
3.3000000000025396, -0.8293375762991078 
3.3100000000025607, -0.8332443113307957 
3.3200000000025818, -0.8383896547404894 
3.330000000002603, -0.8446035114838782 
3.340000000002624, -0.8515182935288829 
3.350000000002645, -0.8585938396189015 
3.360000000002666, -0.8652133392951052 
3.3700000000026873, -0.870846856447411 
3.3800000000027084, -0.8752058882875813 
3.3900000000027295, -0.8782863505299531 
3.4000000000027506, -0.88028303107981 
3.4100000000027717, -0.881458506662954 
3.420000000002793, -0.8820492591296887 
3.430000000002814, -0.8822288694210323 
3.440000000002835, -0.8821078391965065 
3.450000000002856, -0.8817473859716882 
3.460000000002877, -0.8811765966667211 
3.4700000000028983, -0.8804133371487797 
3.4800000000029194, -0.8794973995431729 
3.4900000000029405, -0.8785505142716532 
3.5000000000029616, -0.8778774771411836 
3.5100000000029827, -0.8780997864740561 
3.520000000003004, -0.8802459721485659 
3.530000000003025, -0.885623935480511 
3.540000000003046, -0.8952889892707713 
3.550000000003067, -0.9091999312979935 
3.5600000000030882, -0.9256921231882158 
3.5700000000031094, -0.9420200100556299 
3.5800000000031305, -0.955767739168871 
3.5900000000031516, -0.9658849605998121 
3.6000000000031727, -0.9726062510182845 
3.6100000000031938, -0.9767547626877178 
3.620000000003215, -0.97917163228813 
3.630000000003236, -0.9804875681161777 
3.640000000003257, -0.9811088465096176 
3.650000000003278, -0.9812722892924223 
3.6600000000032993, -0.9811002336310228 
3.6700000000033204, -0.9806379754769761 
3.6800000000033415, -0.9798765976306372 
3.6900000000033626, -0.9787720624310949 
3.7000000000033837, -0.9772803165436945 
3.710000000003405, -0.9754432979603456 
3.720000000003426, -0.9735711212192042 
3.730000000003447, -0.9725195518836023 
3.740000000003468, -0.9738719785570005 
3.750000000003489, -0.9795618730090914 
3.7600000000035103, -0.990632032902154 
3.7700000000035314, -1.0059133290452693 
3.7800000000035525, -1.022249737311607 
3.7900000000035736, -1.0364489327545825 
3.8000000000035947, -1.0469540730298788 
3.810000000003616, -1.053870632059152 
3.820000000003637, -1.058070946432888 
3.830000000003658, -1.0604675243938817 
3.840000000003679, -1.061736191471812 
3.8500000000037002, -1.0623035409294521 
3.8600000000037213, -1.062412538756055 
3.8700000000037424, -1.0621856415442474 
3.8800000000037635, -1.0616685769432839 
3.8900000000037847, -1.0608627334353011 
3.9000000000038058, -1.0597662944087085 
3.910000000003827, -1.0584580622102897 
3.920000000003848, -1.057265301699329 
3.930000000003869, -1.0570057326022408 
3.94000000000389, -1.0591051423742308 
3.9500000000039113, -1.065174352196614 
3.9600000000039324, -1.0759082554961794 
3.9700000000039535, -1.090135809546076 
3.9800000000039746, -1.1051893669516617 
3.9900000000039957, -1.118423157911704 
4.000000000004016, -1.1284419147445548 
4.010000000003993, -1.1351953245673978 
4.02000000000397, -1.1393607749325643 
4.030000000003946, -1.1417437685719225 
4.040000000003923, -1.1429873282680572 
4.0500000000039, -1.1435188361173636 
4.0600000000038765, -1.1435938819495965 
4.070000000003853, -1.1433564621136234 
4.08000000000383, -1.1428926444592922 
4.090000000003807, -1.1422837069009222 
4.100000000003783, -1.1416720962916262 
4.11000000000376, -1.14133610012916 
4.120000000003737, -1.1417165037956614 
4.130000000003713, -1.1432963203034947 
4.14000000000369, -1.1463335423023624 
4.150000000003667, -1.1506602734662068 
4.1600000000036434, -1.1557511855689844 
4.17000000000362, -1.1609741848605846 
4.180000000003597, -1.1658002805050414 
4.1900000000035735, -1.1698861921884456 
4.20000000000355, -1.1730735591678325 
4.210000000003527, -1.1753564599417246 
4.220000000003504, -1.1768351524067646 
4.23000000000348, -1.1776626532015155 
4.240000000003457, -1.1779973736998859 
4.250000000003434, -1.1779751477180844 
4.26000000000341, -1.177704099953168 
4.270000000003387, -1.1772772228055466 
4.280000000003364, -1.176793907617515 
4.2900000000033405, -1.1763770768195678 
4.300000000003317, -1.1761666295938045 
4.310000000003294, -1.1762789503312547 
4.320000000003271, -1.1767561538452764 
4.330000000003247, -1.1775494872258294 
4.340000000003224, -1.1785489229512076 
4.350000000003201, -1.1796281692625281 
4.360000000003177, -1.1806756490576504 
4.370000000003154, -1.1816063693503067 
4.380000000003131, -1.1823617780485487 
4.390000000003107, -1.1829047147163114 
4.400000000003084, -1.1832140957671817 
4.410000000003061, -1.1832816819776937 
4.4200000000030375, -1.1831111558673697 
4.430000000003014, -1.1827183530103533 
4.440000000002991, -1.1821316624540548 
4.450000000002968, -1.181392860973114 
4.460000000002944, -1.1805587152115058 
4.470000000002921, -1.1797012692202946 
4.480000000002898, -1.1789024863342248 
4.490000000002874, -1.1782412016986668 
4.500000000002851, -1.177775821242308 
4.510000000002828, -1.177528294410398 
4.520000000002804, -1.1774746338195614 
4.530000000002781, -1.1775488389035242 
4.540000000002758, -1.177661880936658 
4.5500000000027345, -1.177724227782955 
4.560000000002711, -1.1776579608152957 
4.570000000002688, -1.1773968223467173 
4.580000000002665, -1.1768825028654009 
4.590000000002641, -1.1760647790692589 
4.600000000002618, -1.1749069284685703 
4.610000000002595, -1.173392772788756 
4.620000000002571, -1.1715314264732186 
4.630000000002548, -1.1693598958850433 
4.640000000002525, -1.1669472863480972 
4.6500000000025015, -1.1644031459168367 
4.660000000002478, -1.1618860463707534 
4.670000000002455, -1.1595987093309499 
4.6800000000024315, -1.1577494129801535 
4.690000000002408, -1.1564753287618523 
4.700000000002385, -1.155771263266559 
4.710000000002362, -1.1554917602887091 
4.720000000002338, -1.1554309321157414 
4.730000000002315, -1.1554057991717068 
4.740000000002292, -1.155285221007037 
4.750000000002268, -1.1549711120329553 
4.760000000002245, -1.154362777209655 
4.770000000002222, -1.1533229834210794 
4.7800000000021985, -1.1516534586452205 
4.790000000002175, -1.1490901930231483 
4.800000000002152, -1.145337153362552 
4.810000000002129, -1.1401543016300073 
4.820000000002105, -1.1334901306354452 
4.830000000002082, -1.1256132333646514 
4.840000000002059, -1.1171780594449572 
4.850000000002035, -1.1091543711067697 
4.860000000002012, -1.1025609542477681 
4.870000000001989, -1.0980544862181147 
4.880000000001965, -1.0956375241341962 
4.890000000001942, -1.0947585053397542 
4.900000000001919, -1.0947060978982373 
4.9100000000018955, -1.0949333580116132 
4.920000000001872, -1.0951360135873027 
4.930000000001849, -1.0951781141161256 
