t, s[1].omega / s[0].omega 
0, -0.7699976645650455 
0.009999999999999995, -0.7697446533808983 
0.019999999999999934, -0.7694471743383197 
0.029999999999999874, -0.7690914360812817 
0.04000000000000012, -0.7686648317873154 
0.050000000000000405, -0.7681646154428816 
0.06000000000000069, -0.7676025919827149 
0.07000000000000098, -0.7670063897282976 
0.08000000000000126, -0.7664200180229501 
0.09000000000000155, -0.7659052500753986 
0.10000000000000184, -0.7655428191614483 
0.11000000000000212, -0.7654307162058367 
0.12000000000000241, -0.765677248921717 
0.130000000000002, -0.7663890434861128 
0.1400000000000009, -0.7676573979187615 
0.1499999999999998, -0.769547758928095 
0.1599999999999987, -0.7720949591734014 
0.1699999999999976, -0.775302268183468 
0.1799999999999965, -0.7791381619633765 
0.1899999999999954, -0.7835238093095584 
0.1999999999999943, -0.7883092122488929 
0.2099999999999932, -0.7932492731290219 
0.2199999999999921, -0.7980091499840977 
0.229999999999991, -0.8022292448490109 
0.2399999999999899, -0.8056367220481991 
0.2499999999999888, -0.8081307284062916 
0.2599999999999877, -0.8097778883822955 
0.2699999999999866, -0.81073652291429 
0.2799999999999855, -0.811176137135093 
0.2899999999999844, -0.8112321755799808 
0.2999999999999833, -0.8109947878421002 
0.3099999999999822, -0.8105163701052998 
0.3199999999999811, -0.8098288103823655 
0.32999999999998, -0.8089723351428286 
0.3399999999999789, -0.808048457096926 
0.3499999999999778, -0.8073186607791463 
0.35999999999997667, -0.8073707732443275 
0.36999999999997557, -0.8093435098746461 
0.37999999999997447, -0.8150983523377848 
0.38999999999997337, -0.8270434534315374 
0.39999999999997227, -0.847184291369793 
0.40999999999997117, -0.8753564842307924 
0.41999999999997006, -0.9078932231727915 
0.42999999999996896, -0.9388363276622655 
0.43999999999996786, -0.9634163839025675 
0.44999999999996676, -0.9802770919984599 
0.45999999999996566, -0.9906960237285964 
0.46999999999996456, -0.9967175871872545 
0.47999999999996346, -1.0000424200294362 
0.48999999999996235, -1.0017841811463932 
0.49999999999996125, -1.0025899657617234 
0.5099999999999602, -1.0028068364988567 
0.519999999999959, -1.0025999735857218 
0.529999999999958, -1.0020201408477125 
0.5399999999999568, -1.0010401483317497 
0.5499999999999557, -0.9995866974180787 
0.5599999999999546, -0.9976120798143174 
0.5699999999999535, -0.9952898366284402 
0.5799999999999524, -0.9934470995898858 
0.5899999999999513, -0.9942048201725024 
0.5999999999999502, -1.0012287801299578 
0.6099999999999491, -1.0183075900320016 
0.619999999999948, -1.045923887449153 
0.6299999999999469, -1.0789615688410612 
0.6399999999999458, -1.1095374240177613 
0.6499999999999447, -1.1324842865399662 
0.6599999999999436, -1.1472440716873957 
0.6699999999999425, -1.1558183558475972 
0.6799999999999414, -1.1604855344059584 
0.6899999999999403, -1.1628891550530878 
0.6999999999999392, -1.1640112164877414 
0.7099999999999381, -1.1643839632762343 
0.719999999999937, -1.1642768722134462 
0.7299999999999359, -1.1638193060303674 
0.7399999999999348, -1.1630893456276366 
0.7499999999999337, -1.1622160951023983 
0.7599999999999326, -1.1615358400308389 
0.7699999999999315, -1.1617628042698347 
0.7799999999999304, -1.1639429101320782 
0.7899999999999293, -1.1689250987359958 
0.7999999999999282, -1.1766513935838343 
0.8099999999999271, -1.1860648282341288 
0.819999999999926, -1.195739514731578 
0.8299999999999249, -1.2045192718354953 
0.8399999999999238, -1.2117458286918044 
0.8499999999999227, -1.217205822258363 
0.8599999999999216, -1.2210000421455232 
0.8699999999999205, -1.2234085542821727 
0.8799999999999194, -1.2247684258791165 
0.8899999999999183, -1.2253855148774373 
0.8999999999999172, -1.2254954694770048 
0.9099999999999161, -1.2252677724660113 
0.919999999999915, -1.2248360596589278 
0.9299999999999139, -1.2243382997536223 
0.9399999999999128, -1.2239446402392917 
0.9499999999999117, -1.223840208163181 
0.9599999999999106, -1.2241536428666693 
0.9699999999999095, -1.2248898404439594 
0.9799999999999084, -1.2259381861310223 
0.9899999999999073, -1.2271400743135417 
0.9999999999999062, -1.2283477103702511 
1.0099999999999052, -1.2294474261801562 
1.019999999999904, -1.2303610271406948 
1.029999999999903, -1.2310394957126758 
1.039999999999902, -1.2314550069974857 
1.0499999999999008, -1.2315941795311214 
1.0599999999998997, -1.2314542748034836 
1.0699999999998986, -1.2310425775511191 
1.0799999999998975, -1.2303779969429067 
1.0899999999998964, -1.229493881940177 
1.0999999999998953, -1.2284415915689975 
1.1099999999998942, -1.2272933803472361 
1.119999999999893, -1.2261411083151796 
1.129999999999892, -1.2250883325382043 
1.1399999999998909, -1.2242359096293192 
1.1499999999998898, -1.2236581518327183 
1.1599999999998887, -1.2233695194856034 
1.1699999999998876, -1.2233049083829786 
1.1799999999998865, -1.2233405794624717 
1.1899999999998854, -1.2233396580481894 
1.1999999999998843, -1.22318013739698 
1.2099999999998832, -1.2227515550992973 
1.219999999999882, -1.2219378183482315 
1.229999999999881, -1.2206071221326442 
1.2399999999998799, -1.2186200014952222 
1.2499999999998788, -1.21585478587657 
1.2599999999998777, -1.2122393278450985 
1.2699999999998766, -1.20777778202731 
1.2799999999998755, -1.2025755133077303 
1.2899999999998744, -1.1968771053197969 
1.2999999999998733, -1.19111515809028 
1.3099999999998722, -1.1859093615077492 
1.319999999999871, -1.1819052746753518 
1.32999999999987, -1.1794500623157298 
1.3399999999998689, -1.178376953226913 
1.3499999999998678, -1.1781627486909358 
1.3599999999998666, -1.1782780470034844 
1.3699999999998655, -1.1783792540789737 
1.3799999999998644, -1.1782867512202713 
1.3899999999998633, -1.1778849984652537 
1.3999999999998622, -1.1770284119012147 
1.4099999999998611, -1.1754550785137785 
1.41999999999986, -1.1726838360734635 
1.429999999999859, -1.1678866903188492 
1.4399999999998578, -1.1597955065773067 
1.4499999999998567, -1.1468420871586913 
1.4599999999998556, -1.1278538662789113 
1.4699999999998545, -1.1033640933909072 
1.4799999999998534, -1.0766357952793126 
1.4899999999998523, -1.052791946956304 
1.4999999999998512, -1.0359456573339756 
1.5099999999998501, -1.026914181748855 
1.519999999999849, -1.0236774886811706 
1.529999999999848, -1.0234847500600321 
1.5399999999998468, -1.024347952104258 
1.5499999999998457, -1.0252804857263738 
1.5599999999998446, -1.0259364117031906 
1.5699999999998435, -1.0262469188644139 
1.5799999999998424, -1.02621463043768 
1.5899999999998413, -1.0258196373512376 
1.5999999999998402, -1.0249688340691188 
1.6099999999998391, -1.023442980183924 
1.619999999999838, -1.020812626800764 
1.629999999999837, -1.0163086560307968 
1.6399999999998358, -1.0086792146371937 
1.6499999999998347, -0.9961982976600259 
1.6599999999998336, -0.9771971496428333 
1.6699999999998325, -0.951397037803798 
1.6799999999998314, -0.9213087471015721 
1.6899999999998303, -0.8918566386168312 
1.6999999999998292, -0.8677883645878959 
1.709999999999828, -0.8512774470512383 
1.719999999999827, -0.8417406275685069 
1.729999999999826, -0.8371911474363831 
1.7399999999998248, -0.8355662819590185 
1.7499999999998237, -0.8353573142373613 
1.7599999999998226, -0.8356739705949083 
1.7699999999998215, -0.836071642065509 
1.7799999999998204, -0.8363584359233256 
1.7899999999998193, -0.8364586962701439 
1.7999999999998182, -0.8363335628664723 
1.809999999999817, -0.8359376176665176 
1.819999999999816, -0.835193616507051 
1.8299999999998149, -0.833977155990944 
1.8399999999998138, -0.832114954673942 
1.8499999999998127, -0.8294117983661774 
1.8599999999998116, -0.8257206781399766 
1.8699999999998105, -0.8210395569150816 
1.8799999999998094, -0.8155693371412452 
1.8899999999998083, -0.8096716250489167 
1.8999999999998072, -0.8037502712039373 
1.909999999999806, -0.7981448455105818 
1.919999999999805, -0.7930892681756659 
1.9299999999998039, -0.788721860431641 
1.9399999999998028, -0.7851101504727549 
1.9499999999998017, -0.7822682582819446 
1.9599999999998006, -0.7801638678228555 
1.9699999999997995, -0.7787217640341304 
1.9799999999997984, -0.777831706417208 
1.9899999999997973, -0.7773634058397827 
1.9999999999997962, -0.7771850766656346 
2.0099999999998173, -0.7771790753599946 
2.0199999999998384, -0.7772501423397684 
2.0299999999998595, -0.7773262646749476 
2.0399999999998806, -0.777355561463089 
2.0499999999999017, -0.7773032135568951 
2.059999999999923, -0.7771506546460873 
2.069999999999944, -0.776896094738694 
2.079999999999965, -0.776552849557852 
2.089999999999986, -0.7761425812373803 
2.100000000000007, -0.7756849809518063 
2.1100000000000283, -0.7751896057330762 
2.1200000000000494, -0.7746548776862687 
2.1300000000000705, -0.774074263549931 
2.1400000000000916, -0.7734452044145439 
2.1500000000001127, -0.7727760853750318 
2.160000000000134, -0.7720896599563356 
2.170000000000155, -0.7714241792290949 
2.180000000000176, -0.7708336265201028 
2.190000000000197, -0.770386759134546 
2.2000000000002182, -0.770163334447109 
2.2100000000002393, -0.7702463911593691 
2.2200000000002604, -0.7707116462372583 
2.2300000000002815, -0.7716173539247984 
2.2400000000003026, -0.7729983385474625 
2.2500000000003237, -0.7748656988377804 
2.260000000000345, -0.7772102230876944 
2.270000000000366, -0.7800048406390913 
2.280000000000387, -0.7832007098016394 
2.290000000000408, -0.7867136780898074 
2.3000000000004293, -0.7904044072216376 
2.3100000000004504, -0.7940669042433414 
2.3200000000004715, -0.7974488495886037 
2.3300000000004926, -0.8003141046319993 
2.3400000000005137, -0.8025180951703949 
2.3500000000005348, -0.8040422338706366 
2.360000000000556, -0.8049663578362729 
2.370000000000577, -0.8054107105704912 
2.380000000000598, -0.8054887803709316 
2.390000000000619, -0.8052864085860628 
2.4000000000006403, -0.8048619787527576 
2.4100000000006614, -0.8042601569430257 
2.4200000000006825, -0.803538721942662 
2.4300000000007036, -0.8028164654949551 
2.4400000000007247, -0.8023559399718143 
2.450000000000746, -0.8026913028117825 
2.460000000000767, -0.8047842764891691 
2.470000000000788, -0.8101232533989646 
2.480000000000809, -0.820577507061871 
2.49000000000083, -0.8377599303857993 
2.5000000000008513, -0.8618485569830762 
2.5100000000008724, -0.8904974142356948 
2.5200000000008935, -0.9191721028373705 
2.5300000000009146, -0.9433912179934156 
2.5400000000009357, -0.9610005509072982 
2.550000000000957, -0.9723979850912385 
2.560000000000978, -0.979204639938391 
2.570000000000999, -0.9830532205346767 
2.58000000000102, -0.9851201316581338 
2.5900000000010412, -0.9861282818118475 
2.6000000000010624, -0.9864821418775638 
2.6100000000010835, -0.9863872777550211 
2.6200000000011046, -0.9859261676866478 
2.6300000000011257, -0.9851018819376096 
2.6400000000011468, -0.9838721164960154 
2.650000000001168, -0.9822094548664986 
2.660000000001189, -0.9802525077742692 
2.67000000000121, -0.9786395137476944 
2.680000000001231, -0.9790383015609228 
2.6900000000012523, -0.9845036979280917 
2.7000000000012734, -0.9986837355768202 
2.7100000000012945, -1.023174970576739 
2.7200000000013156, -1.0547747147426298 
2.7300000000013367, -1.0864293691728764 
2.740000000001358, -1.1119708502001715 
2.750000000001379, -1.1293778080368564 
2.7600000000014, -1.1399192366394533 
2.770000000001421, -1.1458322255414224 
2.780000000001442, -1.1489695496114898 
2.7900000000014633, -1.1505192208569228 
2.8000000000014844, -1.1511533777181868 
2.8100000000015055, -1.1512245036841093 
2.8200000000015266, -1.1509057983497504 
2.8300000000015477, -1.1502850009994874 
2.840000000001569, -1.1494514769090505 
2.85000000000159, -1.1486222641342596 
2.860000000001611, -1.1483188066827914 
2.870000000001632, -1.1494666930418136 
2.8800000000016532, -1.1531217593515062 
2.8900000000016743, -1.159767739145186 
2.9000000000016954, -1.16881992072134 
2.9100000000017165, -1.1789262578118644 
2.9200000000017377, -1.1886898384727123 
2.9300000000017588, -1.1971374038040206 
2.94000000000178, -1.2038042298596108 
2.950000000001801, -1.2086365319008556 
2.960000000001822, -1.2118506466531727 
2.970000000001843, -1.2137897284075188 
2.9800000000018643, -1.2148041167622994 
2.9900000000018854, -1.2151815595562179 
3.0000000000019065, -1.2151307844251327 
3.0100000000019276, -1.2148019224382118 
3.0200000000019487, -1.2143255623079316 
3.03000000000197, -1.2138538205864753 
3.040000000001991, -1.213576213206638 
3.050000000002012, -1.2136778413726046 
3.060000000002033, -1.2142529258529422 
3.070000000002054, -1.2152547343448294 
3.0800000000020753, -1.2165340582703421 
3.0900000000020964, -1.21791747170014 
3.1000000000021175, -1.219258708143227 
3.1100000000021386, -1.2204526818718144 
3.1200000000021597, -1.2214311321924411 
3.130000000002181, -1.2221533514059266 
3.140000000002202, -1.222597387615679 
3.150000000002223, -1.2227542515881689 
3.160000000002244, -1.2226259277837952 
3.1700000000022652, -1.2222261466742927 
3.1800000000022863, -1.221582180873136 
3.1900000000023074, -1.2207370406062035 
3.2000000000023285, -1.21975214222855 
3.2100000000023496, -1.2187083139683734 
3.2200000000023707, -1.2177007425828228 
3.230000000002392, -1.2168266309706859 
3.240000000002413, -1.216168521829371 
3.250000000002434, -1.2157729640163053 
3.260000000002455, -1.215626789242562 
3.2700000000024763, -1.2156505450897437 
3.2800000000024974, -1.2157240908990175 
3.2900000000025185, -1.2157238605294605 
3.3000000000025396, -1.215540788067301 
3.3100000000025607, -1.215075124820526 
3.3200000000025818, -1.2142253653543988 
3.330000000002603, -1.2128868897611738 
3.340000000002624, -1.2109647130449352 
3.350000000002645, -1.2083937353511562 
3.360000000002666, -1.2051558036570833 
3.3700000000026873, -1.201290688149172 
3.3800000000027084, -1.1969107352317976 
3.3900000000027295, -1.1922306695931775 
3.4000000000027506, -1.1876034789809506 
3.4100000000027717, -1.1835099007875463 
3.420000000002793, -1.1804230709727004 
3.430000000002814, -1.178565652941095 
3.440000000002835, -1.1777704392471326 
3.450000000002856, -1.1776166937032708 
3.460000000002877, -1.1776897261581092 
3.4700000000028983, -1.1777147682285602 
3.4800000000029194, -1.1775339519494135 
3.4900000000029405, -1.177024659418333 
3.5000000000029616, -1.1760181124661189 
3.5100000000029827, -1.1742199327872085 
3.520000000003004, -1.171121086754352 
3.530000000003025, -1.1659149170246987 
3.540000000003046, -1.1575048061260904 
3.550000000003067, -1.1447717300024836 
3.5600000000030882, -1.127240482718022 
3.5700000000031094, -1.1059536661269134 
3.5800000000031305, -1.0838353503075937 
3.5900000000031516, -1.0647538017426248 
3.6000000000031727, -1.051527983651049 
3.6100000000031938, -1.044508155218438 
3.620000000003215, -1.0420115779104175 
3.630000000003236, -1.0418728701256403 
3.640000000003257, -1.0425402845366682 
3.650000000003278, -1.0432410982814377 
3.6600000000032993, -1.0436976353246084 
3.6700000000033204, -1.0438428928156271 
3.6800000000033415, -1.0436563105405539 
3.6900000000033626, -1.0430821171315077 
3.7000000000033837, -1.041974516414624 
3.710000000003405, -1.040030290782473 
3.720000000003426, -1.036684044680001 
3.730000000003447, -1.0309671312046642 
3.740000000003468, -1.021412759962575 
3.750000000003489, -1.0062665448435446 
3.7600000000035103, -0.9843847385470369 
3.7700000000035314, -0.9567197583472321 
3.7800000000035525, -0.9270464041427926 
3.7900000000035736, -0.9004518437055328 
3.8000000000035947, -0.8805634181322498 
3.810000000003616, -0.8681250502736428 
3.820000000003637, -0.8616884481050393 
3.830000000003658, -0.8590949215221902 
3.840000000003679, -0.8585101306987541 
3.8500000000037002, -0.8587524900034372 
3.8600000000037213, -0.8591977713686616 
3.8700000000037424, -0.859567706535915 
3.8800000000037635, -0.859755190355677 
3.8900000000037847, -0.8597165398470976 
3.9000000000038058, -0.8594127119664927 
3.910000000003827, -0.8587759839258459 
3.920000000003848, -0.8576875159666407 
3.930000000003869, -0.8559635971597487 
3.94000000000389, -0.8533631610545924 
3.9500000000039113, -0.84964103301833 
3.9600000000039324, -0.8446583760991148 
3.9700000000039535, -0.8385043005372795 
3.9800000000039746, -0.8315295008017671 
3.9900000000039957, -0.8242441690752548 
4.000000000004016, -0.8171565544542542 
4.010000000003993, -0.8106626987743706 
4.02000000000397, -0.8050189175890532 
4.030000000003946, -0.8003600999406938 
4.040000000003923, -0.796723707492313 
4.0500000000039, -0.7940654716075496 
4.0600000000038765, -0.7922722461647558 
4.070000000003853, -0.7911812389581401 
4.08000000000383, -0.7906075869453845 
4.090000000003807, -0.7903732505722382 
4.100000000003783, -0.7903276109572458 
4.11000000000376, -0.7903550526020734 
4.120000000003737, -0.7903717674465083 
4.130000000003713, -0.7903178294881773 
4.14000000000369, -0.7901504490521457 
4.150000000003667, -0.7898418842011707 
4.1600000000036434, -0.7893818821450324 
4.17000000000362, -0.7887805537865417 
4.180000000003597, -0.788065903930071 
4.1900000000035735, -0.7872739268011727 
4.20000000000355, -0.7864360613945973 
4.210000000003527, -0.7855717074103665 
4.220000000003504, -0.7846894560928129 
4.23000000000348, -0.7837945111230737 
4.240000000003457, -0.7828970917679711 
4.250000000003434, -0.7820181929671056 
4.26000000000341, -0.781191926366162 
4.270000000003387, -0.7804649896186672 
4.280000000003364, -0.7798934616954246 
4.2900000000033405, -0.779536745785044 
4.300000000003317, -0.779449255059404 
4.310000000003294, -0.7796719368434125 
4.320000000003271, -0.7802265232843861 
4.330000000003247, -0.7811145247802564 
4.340000000003224, -0.7823208829357714 
4.350000000003201, -0.7838201314281383 
4.360000000003177, -0.7855817576973952 
4.370000000003154, -0.7875713476216755 
4.380000000003131, -0.7897450616577192 
4.390000000003107, -0.792037708884813 
4.400000000003084, -0.7943500400015382 
4.410000000003061, -0.796547241038853 
4.4200000000030375, -0.7984804626681619 
4.430000000003014, -0.8000281167890437 
4.440000000002991, -0.8011322563538554 
4.450000000002968, -0.8018046798258187 
4.460000000002944, -0.8021032845227193 
4.470000000002921, -0.8021006425387132 
4.480000000002898, -0.8018636982929402 
4.490000000002874, -0.8014498601786764 
4.500000000002851, -0.8009177335783905 
4.510000000002828, -0.8003518617491391 
4.520000000002804, -0.7999040749768721 
4.530000000002781, -0.799853442977678 
4.540000000002758, -0.8006771056515785 
4.5500000000027345, -0.803102639711914 
4.560000000002711, -0.8080856851919004 
4.570000000002688, -0.8166445103628523 
4.580000000002665, -0.8295109761948097 
4.590000000002641, -0.8466446031610332 
4.600000000002618, -0.8668177422930468 
4.610000000002595, -0.8876569747485542 
4.620000000002571, -0.9064292081327474 
4.630000000002548, -0.9212193657948079 
4.640000000002525, -0.9315722221622424 
4.6500000000025015, -0.9381705538399616 
4.660000000002478, -0.9420896948787989 
4.670000000002455, -0.944277136261551 
4.6800000000024315, -0.9453904964059241 
4.690000000002408, -0.9458291723606094 
4.700000000002385, -0.9458117330835247 
4.710000000002362, -0.9454396573357521 
4.720000000002338, -0.9447396870152301 
4.730000000002315, -0.9436972709740242 
4.740000000002292, -0.942306509956024 
4.750000000002268, -0.9406817847549922 
4.760000000002245, -0.9392972039962822 
4.770000000002222, -0.9393875403877985 
4.7800000000021985, -0.9433317614941696 
4.790000000002175, -0.9543992423497698 
4.800000000002152, -0.9750692251981576 
4.810000000002129, -1.004350311286815 
4.820000000002105, -1.036840662439039 
4.830000000002082, -1.0657469090064164 
4.840000000002059, -1.0871118862902045 
4.850000000002035, -1.1008501705827007 
4.860000000002012, -1.1088925195376902 
4.870000000001989, -1.1133189571100708 
4.880000000001965, -1.115626179418679 
4.890000000001942, -1.1167164691903486 
4.900000000001919, -1.1170841259276554 
4.9100000000018955, -1.1169804307448261 
4.920000000001872, -1.1165217618555712 
4.930000000001849, -1.115765527346699 
