t, s[1].omega / s[0].omega 
0, -0.6699977045200007 
0.009999999999999995, -0.6697751972895645 
0.019999999999999934, -0.6695567880394002 
0.029999999999999874, -0.6693179585356186 
0.04000000000000012, -0.6690311618947243 
0.050000000000000405, -0.668677580405236 
0.06000000000000069, -0.6682537280117792 
0.07000000000000098, -0.6677726397704662 
0.08000000000000126, -0.667263375293166 
0.09000000000000155, -0.6667728363426783 
0.10000000000000184, -0.6663718753270544 
0.11000000000000212, -0.6661655747224258 
0.12000000000000241, -0.6663061044958906 
0.130000000000002, -0.6670054987284387 
0.1400000000000009, -0.6685449564756488 
0.1499999999999998, -0.671276840938136 
0.1599999999999987, -0.6756144692682496 
0.1699999999999976, -0.6820004781657462 
0.1799999999999965, -0.6908343673855538 
0.1899999999999954, -0.7023278601802948 
0.1999999999999943, -0.716268959807043 
0.2099999999999932, -0.7317679160796401 
0.2199999999999921, -0.747237613738383 
0.229999999999991, -0.7608821974598674 
0.2399999999999899, -0.7714974110979067 
0.2499999999999888, -0.7788904007220312 
0.2599999999999877, -0.7836130455233405 
0.2699999999999866, -0.7864364590457004 
0.2799999999999855, -0.7880147915697646 
0.2899999999999844, -0.7887942140766309 
0.2999999999999833, -0.7890406950496198 
0.3099999999999822, -0.7888897617414173 
0.3199999999999811, -0.7883815466303968 
0.32999999999998, -0.7874737572222056 
0.3399999999999789, -0.7860318812275355 
0.3499999999999778, -0.7837935470442756 
0.35999999999997667, -0.7802990789456802 
0.36999999999997557, -0.7747775205647456 
0.37999999999997447, -0.7659909459016814 
0.38999999999997337, -0.7521223373196002 
0.39999999999997227, -0.7310578535329995 
0.40999999999997117, -0.7017531019046904 
0.41999999999997006, -0.6665458063996914 
0.42999999999996896, -0.6315147755001049 
0.43999999999996786, -0.6027317631313974 
0.44999999999996676, -0.582575445444532 
0.45999999999996566, -0.570020790940271 
0.46999999999996456, -0.5628281362613674 
0.47999999999996346, -0.5589750159675803 
0.48999999999996235, -0.5570499203851847 
0.49999999999996125, -0.5561775190059346 
0.5099999999999602, -0.555847709959176 
0.519999999999959, -0.5557735890177807 
0.529999999999958, -0.5557966932933985 
0.5399999999999568, -0.5558292358551646 
0.5499999999999557, -0.5558207230538192 
0.5599999999999546, -0.5557400201465295 
0.5699999999999535, -0.5555676615657745 
0.5799999999999524, -0.5552954261922827 
0.5899999999999513, -0.5549302914396571 
0.5999999999999502, -0.5544981289657779 
0.6099999999999491, -0.5540413795150645 
0.619999999999948, -0.5536079513627187 
0.6299999999999469, -0.5532351665440547 
0.6399999999999458, -0.5529368155097482 
0.6499999999999447, -0.5526995760526641 
0.6599999999999436, -0.5524899213799769 
0.6699999999999425, -0.5522677755899408 
0.6799999999999414, -0.5520002381079269 
0.6899999999999403, -0.5516695803660641 
0.6999999999999392, -0.5512744326416488 
0.7099999999999381, -0.550827692249052 
0.719999999999937, -0.550355917062934 
0.7299999999999359, -0.5499037979002065 
0.7399999999999348, -0.5495463941148723 
0.7499999999999337, -0.5494124796143918 
0.7599999999999326, -0.5497244839842228 
0.7699999999999315, -0.5508633842730266 
0.7799999999999304, -0.5534683395950508 
0.7899999999999293, -0.5585731697046421 
0.7999999999999282, -0.5677415375822068 
0.8099999999999271, -0.5830387558445607 
0.819999999999926, -0.606439842247696 
0.8299999999999249, -0.638219367363979 
0.8399999999999238, -0.6750025375613788 
0.8499999999999227, -0.7102658663558181 
0.8599999999999216, -0.7383899648585597 
0.8699999999999205, -0.757793945074969 
0.8799999999999194, -0.7700115788163021 
0.8899999999999183, -0.7773532867162888 
0.8999999999999172, -0.7816722994820592 
0.9099999999999161, -0.7841729051743637 
0.919999999999915, -0.7855715583639751 
0.9299999999999139, -0.7862753996105084 
0.9399999999999128, -0.7865027263856407 
0.9499999999999117, -0.786350387744934 
0.9599999999999106, -0.785823245732997 
0.9699999999999095, -0.7848347643798458 
0.9799999999999084, -0.7831808747943895 
0.9899999999999073, -0.780487137713088 
0.9999999999999062, -0.7761421452494819 
1.0099999999999052, -0.7692789339445463 
1.019999999999904, -0.7589546631180004 
1.029999999999903, -0.7446824551146397 
1.039999999999902, -0.7271141965984237 
1.0499999999999008, -0.7081500429270908 
1.0599999999998997, -0.6900989371768724 
1.0699999999998986, -0.6746384677630854 
1.0799999999998975, -0.6624358907968035 
1.0899999999998964, -0.6533889467115956 
1.0999999999998953, -0.6470166997920133 
1.1099999999998942, -0.6427364217014548 
1.119999999999893, -0.6400022402745986 
1.129999999999892, -0.6383575665122249 
1.1399999999998909, -0.6374455381724308 
1.1499999999998898, -0.637001144891116 
1.1599999999998887, -0.636835930067838 
1.1699999999998876, -0.6368206162332274 
1.1799999999998865, -0.6368688203509841 
1.1899999999998854, -0.636923911463082 
1.1999999999998843, -0.6369502076903415 
1.2099999999998832, -0.6369287809047381 
1.219999999999882, -0.636856738111067 
1.229999999999881, -0.636746967695126 
1.2399999999998799, -0.6366243061693357 
1.2499999999998788, -0.6365159821242532 
1.2599999999998777, -0.6364388387412513 
1.2699999999998766, -0.6363895577539617 
1.2799999999998755, -0.6363436061042911 
1.2899999999998744, -0.636264110537085 
1.2999999999998733, -0.6361160157746146 
1.3099999999998722, -0.635877832754063 
1.319999999999871, -0.6355461211592766 
1.32999999999987, -0.6351340700424803 
1.3399999999998689, -0.634669337534893 
1.3499999999998678, -0.6341958329995636 
1.3599999999998666, -0.633782026857496 
1.3699999999998655, -0.6335370593039631 
1.3799999999998644, -0.6336355311508857 
1.3899999999998633, -0.6343513959539454 
1.3999999999998622, -0.636099704026347 
1.4099999999998611, -0.6394805309126085 
1.41999999999986, -0.6453087636481752 
1.429999999999859, -0.6545892376041569 
1.4399999999998578, -0.6683519068627846 
1.4499999999998567, -0.6872196033716167 
1.4599999999998556, -0.7106719108921818 
1.4699999999998545, -0.7364142910454113 
1.4799999999998534, -0.7608036513410698 
1.4899999999998523, -0.7806298097151388 
1.4999999999998512, -0.7947003092868764 
1.5099999999998501, -0.8037200201148055 
1.519999999999849, -0.8091311202241831 
1.529999999999848, -0.8122382655462379 
1.5399999999998468, -0.8139413239531395 
1.5499999999998457, -0.8147838729738455 
1.5599999999998446, -0.815066600193935 
1.5699999999998435, -0.8149342607445658 
1.5799999999998424, -0.8144230369681633 
1.5899999999998413, -0.8134737610898453 
1.5999999999998402, -0.8119136241642272 
1.6099999999998391, -0.8094007621706145 
1.619999999999838, -0.8053183899762306 
1.629999999999837, -0.7986093829940587 
1.6399999999998358, -0.7875990123762663 
1.6499999999998347, -0.7700546183361358 
1.6599999999998336, -0.7440757311597636 
1.6699999999998325, -0.710176109860455 
1.6799999999998314, -0.672874471351147 
1.6899999999998303, -0.6387603212750912 
1.6999999999998292, -0.6123143077909837 
1.709999999999828, -0.5942565944844083 
1.719999999999827, -0.5829874735164079 
1.729999999999826, -0.576400549768725 
1.7399999999998248, -0.5727585527175114 
1.7499999999998237, -0.5708623365701772 
1.7599999999998226, -0.5699537105837863 
1.7699999999998215, -0.5695762721964168 
1.7799999999998204, -0.5694633703680896 
1.7899999999998193, -0.5694616796943642 
1.7999999999998182, -0.569482860483818 
1.809999999999817, -0.5694745994703603 
1.819999999999816, -0.569404715943846 
1.8299999999998149, -0.5692544485169106 
1.8399999999998138, -0.5690182599176888 
1.8499999999998127, -0.5687069317233208 
1.8599999999998116, -0.5683490387653152 
1.8699999999998105, -0.5679858277994224 
1.8799999999998094, -0.5676585812687368 
1.8899999999998083, -0.5673935537393926 
1.8999999999998072, -0.5671920603342439 
1.909999999999806, -0.5670305666102164 
1.919999999999805, -0.5668705434993815 
1.9299999999998039, -0.5666730756307989 
1.9399999999998028, -0.566411026005854 
1.9499999999998017, -0.5660741483416991 
1.9599999999998006, -0.5656681260085356 
1.9699999999997995, -0.5652122083531836 
1.9799999999997984, -0.5647400612787065 
1.9899999999997973, -0.5643069423384045 
1.9999999999997962, -0.5640058181239243 
2.0099999999998173, -0.5639961779030769 
2.0199999999998384, -0.5645515412692379 
2.0299999999998595, -0.5661338382880384 
2.0399999999998806, -0.5695015614695851 
2.0499999999999017, -0.5758429371789366 
2.059999999999923, -0.5868663276177849 
2.069999999999944, -0.6046290067803162 
2.079999999999965, -0.6306736847745495 
2.089999999999986, -0.6642460622322763 
2.100000000000007, -0.7008804558136799 
2.1100000000000283, -0.7340434276380512 
2.1200000000000494, -0.7592836789564801 
2.1300000000000705, -0.7761382241502834 
2.1400000000000916, -0.7865260482435066 
2.1500000000001127, -0.792672024730709 
2.160000000000134, -0.7962332882269185 
2.170000000000155, -0.7982508735181757 
2.180000000000176, -0.7993304871133667 
2.190000000000197, -0.7998074870808116 
2.2000000000002182, -0.7998514389978397 
2.2100000000002393, -0.7995205993705599 
2.2200000000002604, -0.7987800610583015 
2.2300000000002815, -0.7974895938914377 
2.2400000000003026, -0.7953597508315565 
2.2500000000003237, -0.7918738585374586 
2.260000000000345, -0.7861951769736624 
2.270000000000366, -0.7771557185964371 
2.280000000000387, -0.7635558839457173 
2.290000000000408, -0.7449734626562188 
2.3000000000004293, -0.7226709599699268 
2.3100000000004504, -0.6994839313931803 
2.3200000000004715, -0.6784097776053628 
2.3300000000004926, -0.661259449160637 
2.3400000000005137, -0.6484301117890447 
2.3500000000005348, -0.6394299274102564 
2.360000000000556, -0.6334415275408993 
2.370000000000577, -0.6296508424778502 
2.380000000000598, -0.6273782481883632 
2.390000000000619, -0.6261054962035921 
2.4000000000006403, -0.6254598825686839 
2.4100000000006614, -0.6251850510826552 
2.4200000000006825, -0.6251107947506186 
2.4300000000007036, -0.6251268443076703 
2.4400000000007247, -0.6251625327476313 
2.450000000000746, -0.6251728542719764 
2.460000000000767, -0.6251307565033586 
2.470000000000788, -0.6250247754154112 
2.480000000000809, -0.6248597038996578 
2.49000000000083, -0.6246562070649625 
2.5000000000008513, -0.6244451959090631 
2.5100000000008724, -0.6242562253627622 
2.5200000000008935, -0.6241043886255915 
2.5300000000009146, -0.6239825799525194 
2.5400000000009357, -0.623863592586954 
2.550000000000957, -0.623711152832908 
2.560000000000978, -0.6234939011036377 
2.570000000000999, -0.6231951913231275 
2.58000000000102, -0.6228157731038914 
2.5900000000010412, -0.6223720953995897 
2.6000000000010624, -0.6218953210077822 
2.6100000000010835, -0.621434994595983 
2.6200000000011046, -0.6210694795521614 
2.6300000000011257, -0.6209244370125072 
2.6400000000011468, -0.6212004989524895 
2.650000000001168, -0.622210884519258 
2.660000000001189, -0.6244278065674063 
2.67000000000121, -0.6285308510505431 
2.680000000001231, -0.6354356928680539 
2.6900000000012523, -0.6462474074361936 
2.7000000000012734, -0.6620237753303405 
2.7100000000012945, -0.6832005181532864 
2.7200000000013156, -0.7087254735536208 
2.7300000000013367, -0.7355826824978189 
2.740000000001358, -0.7597783359415838 
2.750000000001379, -0.7784849924927655 
2.7600000000014, -0.7912235583037146 
2.770000000001421, -0.7991605094487644 
2.780000000001442, -0.8038408086616247 
2.7900000000014633, -0.8064967134165902 
2.8000000000014844, -0.8079282551040141 
2.8100000000015055, -0.8086026133179198 
2.8200000000015266, -0.8087702537129535 
2.8300000000015477, -0.8085422679023653 
2.840000000001569, -0.8079276471885686 
2.85000000000159, -0.8068370716342826 
2.860000000001611, -0.8050535836651308 
2.870000000001632, -0.8021614527339924 
2.8800000000016532, -0.7974189635323978 
2.8900000000016743, -0.7895788543877333 
2.9000000000016954, -0.7767630585926414 
2.9100000000017165, -0.7567724804735302 
2.9200000000017377, -0.7284434249862577 
2.9300000000017588, -0.6937584374973671 
2.94000000000178, -0.6581802332103661 
2.950000000001801, -0.6275257093643745 
2.960000000001822, -0.6046579167675802 
2.970000000001843, -0.5893018786727141 
2.9800000000018643, -0.579720753901432 
2.9900000000018854, -0.57406233251058 
3.0000000000019065, -0.5708811721388645 
3.0100000000019276, -0.5691899555923998 
3.0200000000019487, -0.5683589373389081 
3.03000000000197, -0.568002115409843 
3.040000000001991, -0.5678886926801352 
3.050000000002012, -0.567882449746983 
3.060000000002033, -0.5679028273281804 
3.070000000002054, -0.5679013464326583 
3.0800000000020753, -0.5678488075375452 
3.0900000000020964, -0.5677303015927985 
3.1000000000021175, -0.5675454896820675 
3.1100000000021386, -0.5673105880897358 
3.1200000000021597, -0.5670572352352119 
3.130000000002181, -0.5668245914557135 
3.140000000002202, -0.5666456934037016 
3.150000000002223, -0.5665339378259128 
3.160000000002244, -0.5664764536586878 
3.1700000000022652, -0.5664379420794898 
3.1800000000022863, -0.5663734893965517 
3.1900000000023074, -0.5662439661863381 
3.2000000000023285, -0.5660263739147128 
3.2100000000023496, -0.5657159167102089 
3.2200000000023707, -0.5653227552296761 
3.230000000002392, -0.5648689922618745 
3.240000000002413, -0.5643902852710017 
3.250000000002434, -0.5639449054117736 
3.260000000002455, -0.5636332277179406 
3.2700000000024763, -0.5636326755802399 
3.2800000000024974, -0.5642563402534384 
3.2900000000025185, -0.5660462008335067 
3.3000000000025396, -0.5699083615357321 
3.3100000000025607, -0.5772694599252258 
3.3200000000025818, -0.5901346697609292 
3.330000000002603, -0.610704711517313 
3.340000000002624, -0.6400259109775821 
3.350000000002645, -0.6758755030036614 
3.360000000002666, -0.7122712500284794 
3.3700000000026873, -0.7428396614843736 
3.3800000000027084, -0.7647792678887428 
3.3900000000027295, -0.7789560661139484 
3.4000000000027506, -0.7876069934132651 
3.4100000000027717, -0.792744507669331 
3.420000000002793, -0.7957458050760143 
3.430000000002814, -0.7974537094546148 
3.440000000002835, -0.7983570959068895 
3.450000000002856, -0.7987260266007354 
3.460000000002877, -0.7986923742520601 
3.4700000000028983, -0.798289345398324 
3.4800000000029194, -0.7974602759356166 
3.4900000000029405, -0.7960400453679666 
3.5000000000029616, -0.7937078535469372 
3.5100000000029827, -0.7899156031554948 
3.520000000003004, -0.7838305437932321 
3.530000000003025, -0.7744157962801077 
3.540000000003046, -0.7608487484077406 
3.550000000003067, -0.7432766354720973 
3.5600000000030882, -0.7232979082539758 
3.5700000000031094, -0.7034183192729824 
3.5800000000031305, -0.6858359232173272 
3.5900000000031516, -0.6716812903776772 
3.6000000000031727, -0.6610810319981858 
3.6100000000031938, -0.6535882190827594 
3.620000000003215, -0.6485563155795276 
3.630000000003236, -0.6453475428722184 
3.640000000003257, -0.6434193109702775 
3.650000000003278, -0.6423465555422398 
3.6600000000032993, -0.6418152041039946 
3.6700000000033204, -0.6416039900943645 
3.6800000000033415, -0.6415629628018145 
3.6900000000033626, -0.6415931939227425 
3.7000000000033837, -0.6416302424770802 
3.710000000003405, -0.6416327132849787 
3.720000000003426, -0.6415762972898903 
3.730000000003447, -0.641452493573426 
3.740000000003468, -0.6412693648286868 
3.750000000003489, -0.6410499790160897 
3.7600000000035103, -0.6408249719107906 
3.7700000000035314, -0.640620034740666 
3.7800000000035525, -0.6404440092779045 
3.7900000000035736, -0.6402841861048499 
3.8000000000035947, -0.64011161486866 
3.810000000003616, -0.6398935098831927 
3.820000000003637, -0.6396059068959068 
3.830000000003658, -0.6392407430249389 
3.840000000003679, -0.6388067472167961 
3.8500000000037002, -0.6383280708644496 
3.8600000000037213, -0.6378452821457266 
3.8700000000037424, -0.637421562501745 
3.8800000000037635, -0.6371551921302039 
3.8900000000037847, -0.6371984566023524 
3.9000000000038058, -0.6377823662834319 
3.910000000003827, -0.6392453060553691 
3.920000000003848, -0.6420611798797606 
3.930000000003869, -0.6468570798360507 
3.94000000000389, -0.6543978669766554 
3.9500000000039113, -0.6654896530857571 
3.9600000000039324, -0.6807217400186627 
3.9700000000039535, -0.6999849829815141 
3.9800000000039746, -0.7219175133990448 
3.9900000000039957, -0.7438546893848819 
4.000000000004016, -0.762847391550804 
4.010000000003993, -0.7771540564762253 
4.02000000000397, -0.7867676739132472 
4.030000000003946, -0.7927263022356273 
4.040000000003923, -0.7962249724299408 
4.0500000000039, -0.7981831746767676 
4.0600000000038765, -0.7991909374304433 
4.070000000003853, -0.7995887596621296 
4.08000000000383, -0.7995512569603471 
4.090000000003807, -0.799139726327633 
4.100000000003783, -0.7983226150465337 
4.11000000000376, -0.7969664067119391 
4.120000000003737, -0.7947933167631713 
4.130000000003713, -0.7912940595961911 
4.14000000000369, -0.7855814233180174 
4.150000000003667, -0.776201025938577 
4.1600000000036434, -0.7610579861399877 
4.17000000000362, -0.7379524333561661 
4.180000000003597, -0.706340608017787 
4.1900000000035735, -0.6694728907267431 
4.20000000000355, -0.6337459989699292 
4.210000000003527, -0.6046634658688512 
4.220000000003504, -0.584037893680259 
4.23000000000348, -0.5707651881446075 
4.240000000003457, -0.5627784560780306 
4.250000000003434, -0.5582135452531467 
4.26000000000341, -0.5557300734984998 
4.270000000003387, -0.5544591780237897 
4.280000000003364, -0.5538673027266419 
4.2900000000033405, -0.5536367963816166 
4.300000000003317, -0.5535818586335706 
4.310000000003294, -0.5535943694497278 
4.320000000003271, -0.5536107435564267 
4.330000000003247, -0.5535929084865291 
4.340000000003224, -0.553518989069708 
4.350000000003201, -0.5533808257264863 
4.360000000003177, -0.5531854671460429 
4.370000000003154, -0.5529565250404498 
4.380000000003131, -0.5527306783054515 
4.390000000003107, -0.5525471673180388 
4.400000000003084, -0.5524332894915599 
4.410000000003061, -0.5523925055745182 
4.4200000000030375, -0.5524011030448157 
4.430000000003014, -0.5524155922531857 
4.440000000002991, -0.5523877857607364 
4.450000000002968, -0.5522799879847434 
4.460000000002944, -0.5520730232285882 
4.470000000002921, -0.5517657003500895 
4.480000000002898, -0.5513701574884886 
4.490000000002874, -0.550908781015094 
4.500000000002851, -0.5504165675396343 
4.510000000002828, -0.5499515237718142 
4.520000000002804, -0.5496166015689874 
4.530000000002781, -0.5495996003418155 
4.540000000002758, -0.5502416680518226 
4.5500000000027345, -0.5521480149644029 
4.560000000002711, -0.5563463427410629 
4.570000000002688, -0.5644476786481639 
4.580000000002665, -0.578602198006928 
4.590000000002641, -0.6007472501819322 
4.600000000002618, -0.6307022815995462 
4.610000000002595, -0.6643471201337912 
4.620000000002571, -0.6951639347876158 
4.630000000002548, -0.7187703013844591 
4.640000000002525, -0.734817698308018 
4.6500000000025015, -0.745096211256256 
4.660000000002478, -0.7515278820847764 
4.670000000002455, -0.7555097678556356 
4.6800000000024315, -0.7579435307042098 
4.690000000002408, -0.7593883633515588 
4.700000000002385, -0.7601821386272547 
4.710000000002362, -0.7605192737381061 
4.720000000002338, -0.7604962045693552 
4.730000000002315, -0.7601333465542457 
4.740000000002292, -0.7593784625998298 
4.750000000002268, -0.7580940226357923 
4.760000000002245, -0.7560332142563956 
4.770000000002222, -0.7528218041318571 
4.7800000000021985, -0.7479913777503563 
4.790000000002175, -0.7411332403511773 
4.800000000002152, -0.7321820920075687 
4.810000000002129, -0.7216470488945299 
4.820000000002105, -0.7105145031898505 
4.830000000002082, -0.6998392647617748 
4.840000000002059, -0.6903737601640905 
4.850000000002035, -0.6824672761944839 
4.860000000002012, -0.6761627291171425 
4.870000000001989, -0.6713328745091623 
4.880000000001965, -0.6677775322285627 
4.890000000001942, -0.6652760223572627 
4.900000000001919, -0.6636122509934524 
4.9100000000018955, -0.6625874105348208 
4.920000000001872, -0.6620275614564914 
