t, s[1].omega / s[0].omega 
0, -0.6999939439878374 
0.009999999999999995, -0.6993826077745849 
0.019999999999999934, -0.698765556028672 
0.029999999999999874, -0.6981437320415578 
0.04000000000000012, -0.6975135097161519 
0.050000000000000405, -0.6968737420001216 
0.06000000000000069, -0.6962307918692772 
0.07000000000000098, -0.6956010421435717 
0.08000000000000126, -0.6950120802221662 
0.09000000000000155, -0.6945037191743888 
0.10000000000000184, -0.6941290177923272 
0.11000000000000212, -0.6939545808186927 
0.12000000000000241, -0.6940592121347924 
0.130000000000002, -0.6945304806020836 
0.1400000000000009, -0.6954595671440181 
0.1499999999999998, -0.6969352191639839 
0.1599999999999987, -0.6990370606980969 
0.1699999999999976, -0.7018266767866681 
0.1799999999999965, -0.7053325051526745 
0.1899999999999954, -0.7095237471887695 
0.1999999999999943, -0.7142734164001087 
0.2099999999999932, -0.7193258658000363 
0.2199999999999921, -0.7243047964973613 
0.229999999999991, -0.7287953358765435 
0.2399999999999899, -0.7324781297658944 
0.2499999999999888, -0.7352268818419658 
0.2599999999999877, -0.7371014155201911 
0.2699999999999866, -0.7382635799087338 
0.2799999999999855, -0.738890388228532 
0.2899999999999844, -0.7391252337369255 
0.2999999999999833, -0.7390636924491878 
0.3099999999999822, -0.738755907438388 
0.3199999999999811, -0.7382123228329223 
0.32999999999998, -0.7374069205837572 
0.3399999999999789, -0.7362766000887236 
0.3499999999999778, -0.7347175666184903 
0.35999999999997667, -0.7325808968809905 
0.36999999999997557, -0.7296698326107911 
0.37999999999997447, -0.7257398025315462 
0.38999999999997337, -0.7205036196848267 
0.39999999999997227, -0.7136762061596791 
0.40999999999997117, -0.7051726468383154 
0.41999999999997006, -0.6955136147185201 
0.42999999999996896, -0.686020574353486 
0.43999999999996786, -0.6782214859918729 
0.44999999999996676, -0.6729259839884145 
0.45999999999996566, -0.6699806191529475 
0.46999999999996456, -0.6687128573972714 
0.47999999999996346, -0.6684188163915743 
0.48999999999996235, -0.6685839500033361 
0.49999999999996125, -0.6688996552783123 
0.5099999999999602, -0.669205195564767 
0.519999999999959, -0.6694261143629783 
0.529999999999958, -0.6695302031117756 
0.5399999999999568, -0.6695006210359404 
0.5499999999999557, -0.669320736301521 
0.5599999999999546, -0.6689663550739213 
0.5699999999999535, -0.6684036860471814 
0.5799999999999524, -0.6675939236198173 
0.5899999999999513, -0.6665060671747218 
0.5999999999999502, -0.6651361192576102 
0.6099999999999491, -0.6635231794809986 
0.619999999999948, -0.661748863290184 
0.6299999999999469, -0.6599157691480796 
0.6399999999999458, -0.6581177317985812 
0.6499999999999447, -0.6564200710327601 
0.6599999999999436, -0.6548570683456494 
0.6699999999999425, -0.6534412363714202 
0.6799999999999414, -0.6521754282587975 
0.6899999999999403, -0.6510621246556426 
0.6999999999999392, -0.6501083965275802 
0.7099999999999381, -0.6493273296279158 
0.719999999999937, -0.6487372294431941 
0.7299999999999359, -0.6483596955586679 
0.7399999999999348, -0.6482173776706877 
0.7499999999999337, -0.6483320860750295 
0.7599999999999326, -0.648723795282357 
0.7699999999999315, -0.6494107850705623 
0.7799999999999304, -0.6504106469450032 
0.7899999999999293, -0.6517411671333708 
0.7999999999999282, -0.6534192308701845 
0.8099999999999271, -0.6554550579102922 
0.819999999999926, -0.6578389811986628 
0.8299999999999249, -0.6605203636263377 
0.8399999999999238, -0.663385397184898 
0.8499999999999227, -0.6662512203673397 
0.8599999999999216, -0.6688963548974994 
0.8699999999999205, -0.6711254742672048 
0.8799999999999194, -0.6728306410901228 
0.8899999999999183, -0.6740068657956171 
0.8999999999999172, -0.6747201353373768 
0.9099999999999161, -0.675060581919447 
0.919999999999915, -0.675108557882943 
0.9299999999999139, -0.6749192924018599 
0.9399999999999128, -0.6745192714990018 
0.9499999999999117, -0.6739066697821886 
0.9599999999999106, -0.6730513413257468 
0.9699999999999095, -0.6718924611577062 
0.9799999999999084, -0.6703328824785862 
0.9899999999999073, -0.6682283388858131 
0.9999999999999062, -0.6653659787956048 
1.0099999999999052, -0.661422752357756 
1.019999999999904, -0.6559118204675245 
1.029999999999903, -0.6482209987371077 
1.039999999999902, -0.6379895414157353 
1.0499999999999008, -0.6258263106489111 
1.0599999999998997, -0.6135285407336264 
1.0699999999998986, -0.603096850498646 
1.0799999999998975, -0.5955520020947451 
1.0899999999998964, -0.5907752519427543 
1.0999999999998953, -0.5880781701440141 
1.1099999999998942, -0.5867229438154749 
1.119999999999893, -0.5861430653772147 
1.129999999999892, -0.5859672638623895 
1.1399999999998909, -0.5859735391115869 
1.1499999999998898, -0.5860364443833209 
1.1599999999998887, -0.5860868426675162 
1.1699999999998876, -0.5860855229754189 
1.1799999999998865, -0.5860074370670479 
1.1899999999998854, -0.5858334748000547 
1.1999999999998843, -0.5855479889481482 
1.2099999999998832, -0.5851411388368936 
1.219999999999882, -0.5846145817031226 
1.229999999999881, -0.5839869658074657 
1.2399999999998799, -0.5832940422598191 
1.2499999999998788, -0.5825803922344651 
1.2599999999998777, -0.5818858351337091 
1.2699999999998766, -0.5812340247346802 
1.2799999999998755, -0.5806290303284318 
1.2899999999998744, -0.5800601795751983 
1.2999999999998733, -0.5795111702560454 
1.3099999999998722, -0.578968658077668 
1.319999999999871, -0.578427548908697 
1.32999999999987, -0.577893129168755 
1.3399999999998689, -0.5773819982735413 
1.3499999999998678, -0.5769239169274518 
1.3599999999998666, -0.576565940642186 
1.3699999999998655, -0.5763794995874228 
1.3799999999998644, -0.5764707140919533 
1.3899999999998633, -0.5769939884039016 
1.3999999999998622, -0.5781683221247984 
1.4099999999998611, -0.5802939277470789 
1.41999999999986, -0.583761842175053 
1.429999999999859, -0.5890383041120496 
1.4399999999998578, -0.5965871476171417 
1.4499999999998567, -0.6066792904405062 
1.4599999999998556, -0.6190792782396868 
1.4699999999998545, -0.632770341567305 
1.4799999999998534, -0.646087046652413 
1.4899999999998523, -0.6574200885077979 
1.4999999999998512, -0.6659625338008031 
1.5099999999998501, -0.6718217077676206 
1.519999999999849, -0.6755898591034527 
1.529999999999848, -0.6779096676242446 
1.5399999999998468, -0.6792790546201839 
1.5499999999998457, -0.6800284875181082 
1.5599999999998446, -0.6803580023036444 
1.5699999999998435, -0.6803767615962379 
1.5799999999998424, -0.6801291179196401 
1.5899999999998413, -0.6796063017780478 
1.5999999999998402, -0.6787458230505522 
1.6099999999998391, -0.6774209953629325 
1.619999999999838, -0.6754260622400229 
1.629999999999837, -0.6724729600723808 
1.6399999999998358, -0.6682345359004364 
1.6499999999998347, -0.6624753972624353 
1.6599999999998336, -0.6552526493109587 
1.6699999999998325, -0.6470406746930503 
1.6799999999998314, -0.6386118069913683 
1.6899999999998303, -0.6307274716711363 
1.6999999999998292, -0.623889462490421 
1.709999999999828, -0.6182912043906488 
1.719999999999827, -0.6139044406359411 
1.729999999999826, -0.6105879732398865 
1.7399999999998248, -0.6081636139246729 
1.7499999999998237, -0.606455794691538 
1.7599999999998226, -0.6053079456404811 
1.7699999999998215, -0.6045873940360197 
1.7799999999998204, -0.6041854810416234 
1.7899999999998193, -0.6040158689709999 
1.7999999999998182, -0.6040121563776294 
1.809999999999817, -0.6041252792291163 
1.819999999999816, -0.6043210710301417 
1.8299999999998149, -0.604578305005169 
1.8399999999998138, -0.6048872528743143 
1.8499999999998127, -0.6052481604748745 
1.8599999999998116, -0.6056682955725428 
1.8699999999998105, -0.6061560759287633 
1.8799999999998094, -0.606712054441634 
1.8899999999998083, -0.6073192531632384 
1.8999999999998072, -0.6079380861647243 
1.909999999999806, -0.6085111757690951 
1.919999999999805, -0.6089783849902829 
1.9299999999998039, -0.6092945201320898 
1.9399999999998028, -0.6094392465568214 
1.9499999999998017, -0.6094150734100382 
1.9599999999998006, -0.6092380084517658 
1.9699999999997995, -0.60892817756905 
1.9799999999997984, -0.6085047531117931 
1.9899999999997973, -0.6079862204269557 
1.9999999999997962, -0.6073960636292649 
2.0099999999998173, -0.6067749413742386 
2.0199999999998384, -0.606202068429895 
2.0299999999998595, -0.6058292885600173 
2.0399999999998806, -0.6059279227673094 
2.0499999999999017, -0.6069330875516865 
2.059999999999923, -0.6094306535850613 
2.069999999999944, -0.613974199804885 
2.079999999999965, -0.6206439078961007 
2.089999999999986, -0.6285856941910777 
2.100000000000007, -0.6362252970667968 
2.1100000000000283, -0.6423263689065554 
2.1200000000000494, -0.6467004815234775 
2.1300000000000705, -0.6498118069001868 
2.1400000000000916, -0.6521218316244333 
2.1500000000001127, -0.6538812699037475 
2.160000000000134, -0.6552070725494452 
2.170000000000155, -0.656170656433935 
2.180000000000176, -0.6568316473591385 
2.190000000000197, -0.6572413156824379 
2.2000000000002182, -0.6574383914681612 
2.2100000000002393, -0.6574452855127403 
2.2200000000002604, -0.6572656177373791 
2.2300000000002815, -0.6568825212544628 
2.2400000000003026, -0.6562582461533394 
2.2500000000003237, -0.6553377783539958 
2.260000000000345, -0.6540613052373168 
2.270000000000366, -0.6523891312480672 
2.280000000000387, -0.6503335831569416 
2.290000000000408, -0.6479785023924213 
2.3000000000004293, -0.6454658013077491 
2.3100000000004504, -0.6429522871676537 
2.3200000000004715, -0.6405654501461875 
2.3300000000004926, -0.6383832440049116 
2.3400000000005137, -0.6364391539491909 
2.3500000000005348, -0.6347389686491137 
2.360000000000556, -0.6332769425303064 
2.370000000000577, -0.6320461993868537 
2.380000000000598, -0.6310433704771878 
2.390000000000619, -0.6302693421637829 
2.4000000000006403, -0.6297280271329923 
2.4100000000006614, -0.6294245666938029 
2.4200000000006825, -0.6293638885188797 
2.4300000000007036, -0.6295501621016364 
2.4400000000007247, -0.6299873357621217 
2.450000000000746, -0.6306805499288153 
2.460000000000767, -0.6316377788386207 
2.470000000000788, -0.6328705137799691 
2.480000000000809, -0.634391638201791 
2.49000000000083, -0.6362080851580282 
2.5000000000008513, -0.6383063157963128 
2.5100000000008724, -0.6406319243936547 
2.5200000000008935, -0.6430722098943902 
2.5300000000009146, -0.6454588264922945 
2.5400000000009357, -0.6476039669079379 
2.550000000000957, -0.649358501349542 
2.560000000000978, -0.6506547954392528 
2.570000000000999, -0.6515067665011773 
2.58000000000102, -0.6519767850424865 
2.5900000000010412, -0.6521381483270686 
2.6000000000010624, -0.6520508910875643 
2.6100000000010835, -0.6517516725734728 
2.6200000000011046, -0.6512513243567386 
2.6300000000011257, -0.6505342757674298 
2.6400000000011468, -0.6495565087584236 
2.650000000001168, -0.6482400754255069 
2.660000000001189, -0.646461751853123 
2.67000000000121, -0.6440304556774172 
2.680000000001231, -0.6406432856880386 
2.6900000000012523, -0.6358159268528147 
2.7000000000012734, -0.62884668091133 
2.7100000000012945, -0.6190364821564887 
2.7200000000013156, -0.6063942314138558 
2.7300000000013367, -0.5923303718099662 
2.740000000001358, -0.579176611612757 
2.750000000001379, -0.5687320564634255 
2.7600000000014, -0.5614790072156348 
2.770000000001421, -0.556936979856348 
2.780000000001442, -0.5543201361871494 
2.7900000000014633, -0.5529270534624662 
2.8000000000014844, -0.5522533104105621 
2.8100000000015055, -0.5519736554029845 
2.8200000000015266, -0.5518909981354899 
2.8300000000015477, -0.5518900437568157 
2.840000000001569, -0.5519040900866448 
2.85000000000159, -0.5518936979957323 
2.860000000001611, -0.5518341476940698 
2.870000000001632, -0.5517092437774573 
2.8800000000016532, -0.5515099204212162 
2.8900000000016743, -0.5512362487610085 
2.9000000000016954, -0.5509005110270861 
2.9100000000017165, -0.550527765583561 
2.9200000000017377, -0.5501508436026005 
2.9300000000017588, -0.5498001841214273 
2.94000000000178, -0.54949306345754 
2.950000000001801, -0.5492278200093504 
2.960000000001822, -0.5489858840891544 
2.970000000001843, -0.5487401847379676 
2.9800000000018643, -0.5484653844302106 
2.9900000000018854, -0.5481451618160785 
3.0000000000019065, -0.5477745773845071 
3.0100000000019276, -0.5473590547114399 
3.0200000000019487, -0.5469130811568119 
3.03000000000197, -0.5464612545785921 
3.040000000001991, -0.5460433663430313 
3.050000000002012, -0.5457249560473907 
3.060000000002033, -0.5456152701493265 
3.070000000002054, -0.5458952079767643 
3.0800000000020753, -0.5468573152938265 
3.0900000000020964, -0.5489548917713555 
3.1000000000021175, -0.5528401298808323 
3.1100000000021386, -0.5593295110307557 
3.1200000000021597, -0.569170854703836 
3.130000000002181, -0.582494261667533 
3.140000000002202, -0.598155176652672 
3.150000000002223, -0.6137744223885824 
3.160000000002244, -0.6269858073393839 
3.1700000000022652, -0.6367544165631582 
3.1800000000022863, -0.6433910250263565 
3.1900000000023074, -0.6477298636890143 
3.2000000000023285, -0.6505329687255645 
3.2100000000023496, -0.6523324074997182 
3.2200000000023707, -0.653467294482102 
3.230000000002392, -0.6541481352015404 
3.240000000002413, -0.6545029730182689 
3.250000000002434, -0.6546047161170707 
3.260000000002455, -0.6544858640655162 
3.2700000000024763, -0.6541452490369919 
3.2800000000024974, -0.6535500140640285 
3.2900000000025185, -0.652636493860801 
3.3000000000025396, -0.6513161484208081 
3.3100000000025607, -0.6494956452310655 
3.3200000000025818, -0.6471174655232516 
3.330000000002603, -0.6442106028880759 
3.340000000002624, -0.6409167902261516 
3.350000000002645, -0.6374601743845547 
3.360000000002666, -0.6340737271429651 
3.3700000000026873, -0.6309338719458302 
3.3800000000027084, -0.6281380742840255 
3.3900000000027295, -0.6257189776625031 
3.4000000000027506, -0.6236709895883795 
3.4100000000027717, -0.6219725156081256 
3.420000000002793, -0.6205989577544553 
3.430000000002814, -0.6195280760525033 
3.440000000002835, -0.6187408825188211 
3.450000000002856, -0.6182206955845273 
3.460000000002877, -0.6179520208052004 
3.4700000000028983, -0.6179201140953814 
3.4800000000029194, -0.6181114989245893 
3.4900000000029405, -0.6185153034367655 
3.5000000000029616, -0.6191250008467806 
3.5100000000029827, -0.619939883692639 
3.520000000003004, -0.6209652447354785 
3.530000000003025, -0.6222097225662331 
3.540000000003046, -0.6236779032232442 
3.550000000003067, -0.6253569933815031 
3.5600000000030882, -0.6271996512562169 
3.5700000000031094, -0.6291113717249518 
3.5800000000031305, -0.6309560872702928 
3.5900000000031516, -0.6325878368221549 
3.6000000000031727, -0.6338956727331124 
3.6100000000031938, -0.6348328288129222 
3.620000000003215, -0.6354130333556143 
3.630000000003236, -0.6356841208084677 
3.640000000003257, -0.6357000821880521 
3.650000000003278, -0.6355033593276171 
3.6600000000032993, -0.6351173249959945 
3.6700000000033204, -0.634544306522371 
3.6800000000033415, -0.6337651663110584 
3.6900000000033626, -0.6327382266083836 
3.7000000000033837, -0.6313961344642681 
3.710000000003405, -0.62963796227956 
3.720000000003426, -0.6273087475788206 
3.730000000003447, -0.6241499155102725 
3.740000000003468, -0.6197092959935202 
3.750000000003489, -0.6132840894029015 
3.7600000000035103, -0.604174208888695 
3.7700000000035314, -0.5924704531436954 
3.7800000000035525, -0.579686969912271 
3.7900000000035736, -0.5680633262497723 
3.8000000000035947, -0.5591144787050522 
3.810000000003616, -0.5530829210265158 
3.820000000003637, -0.5494142591429854 
3.830000000003658, -0.5473663548518541 
3.840000000003679, -0.5463193305244001 
3.8500000000037002, -0.5458438525993213 
3.8600000000037213, -0.5456701310766321 
3.8700000000037424, -0.5456377937506496 
3.8800000000037635, -0.5456542521359579 
3.8900000000037847, -0.5456661272676057 
3.9000000000038058, -0.5456414717693737 
3.910000000003827, -0.5455597920071131 
3.920000000003848, -0.5454077589673572 
3.930000000003869, -0.5451792473408441 
3.94000000000389, -0.544878158632313 
3.9500000000039113, -0.5445212797898382 
3.9600000000039324, -0.5441374507949164 
3.9700000000039535, -0.5437607228240531 
3.9800000000039746, -0.5434192875076703 
3.9900000000039957, -0.5431255295756873 
4.000000000004016, -0.5428723337159124 
4.010000000003993, -0.5426372588546695 
4.02000000000397, -0.54239207153322 
4.030000000003946, -0.5421126776470324 
4.040000000003923, -0.5417851630299959 
4.0500000000039, -0.5414069610853363 
4.0600000000038765, -0.5409853460664599 
4.070000000003853, -0.5405363877671638 
4.08000000000383, -0.5400867337388873 
4.090000000003807, -0.5396797651662589 
4.100000000003783, -0.5393876652122305 
4.11000000000376, -0.5393316076209017 
4.120000000003737, -0.5397128687445445 
4.130000000003713, -0.5408564403812766 
4.14000000000369, -0.5432611983345299 
4.150000000003667, -0.5476269566959923 
4.1600000000036434, -0.5547760947618844 
4.17000000000362, -0.5653253037244508 
4.180000000003597, -0.5790433873355043 
4.1900000000035735, -0.5943121806867973 
4.20000000000355, -0.6086040505273085 
4.210000000003527, -0.6199855600063506 
4.220000000003504, -0.6280410284755575 
4.23000000000348, -0.633403623585257 
4.240000000003457, -0.6369098956043334 
4.250000000003434, -0.6392017606603607 
4.26000000000341, -0.6406945824733674 
4.270000000003387, -0.6416463214970035 
4.280000000003364, -0.6422170896824537 
4.2900000000033405, -0.6425047222707982 
4.300000000003317, -0.6425640740141055 
4.310000000003294, -0.642416866195913 
4.320000000003271, -0.6420559782922826 
4.330000000003247, -0.6414469995733608 
4.340000000003224, -0.640530754265564 
4.350000000003201, -0.6392327995297291 
4.360000000003177, -0.6374869149370209 
4.370000000003154, -0.6352732197795976 
4.380000000003131, -0.6326543129955399 
4.390000000003107, -0.629779238057808 
4.400000000003084, -0.626841766041389 
4.410000000003061, -0.6240189516708552 
4.4200000000030375, -0.6214303890406983 
4.430000000003014, -0.6191332424727727 
4.440000000002991, -0.6171400160739469 
4.450000000002968, -0.6154405126003728 
4.460000000002944, -0.6140179346487061 
4.470000000002921, -0.6128573875584595 
4.480000000002898, -0.6119487548322649 
4.490000000002874, -0.6112864687650792 
4.500000000002851, -0.6108680954899565 
4.510000000002828, -0.6106929403944501 
4.520000000002804, -0.6107613416998366 
4.530000000002781, -0.6110749217485103 
4.540000000002758, -0.6116377208084518 
4.5500000000027345, -0.6124577804603595 
4.560000000002711, -0.6135482955315681 
4.570000000002688, -0.614926825566528 
4.580000000002665, -0.6166102976784266 
4.590000000002641, -0.6186031937235767 
4.600000000002618, -0.6208779023714548 
4.610000000002595, -0.6233519620258171 
4.620000000002571, -0.6258767510208739 
4.630000000002548, -0.6282572265363812 
4.640000000002525, -0.630306559803367 
4.6500000000025015, -0.6319062401935753 
4.660000000002478, -0.6330303647602712 
4.670000000002455, -0.6337242202654613 
4.6800000000024315, -0.6340629726910928 
4.690000000002408, -0.6341180511163816 
4.700000000002385, -0.6339398095215061 
4.710000000002362, -0.6335515777046969 
4.720000000002338, -0.6329477158792413 
4.730000000002315, -0.6320903386100551 
4.740000000002292, -0.6309010314583711 
4.750000000002268, -0.6292436204871173 
4.760000000002245, -0.6268918536218888 
4.770000000002222, -0.6234739312153799 
4.7800000000021985, -0.6183967622014388 
4.790000000002175, -0.610815654723542 
4.800000000002152, -0.5998635687901418 
4.810000000002129, -0.5853789205306843 
4.820000000002105, -0.5687210389136939 
4.830000000002082, -0.5524646372538184 
4.840000000002059, -0.5388770329445928 
4.850000000002035, -0.5288465206508625 
4.860000000002012, -0.5220775824061963 
4.870000000001989, -0.5177888074523815 
4.880000000001965, -0.5151976381134501 
4.890000000001942, -0.5136978653321103 
4.900000000001919, -0.5128714081662098 
4.9100000000018955, -0.5124468102639139 
4.920000000001872, -0.5122536130966485 
