t, s[1].omega / s[0].omega 
0, -0.30001125857353517 
0.009999999999999995, -0.3012694682121161 
0.019999999999999934, -0.3027381195516307 
0.029999999999999874, -0.30429228733169006 
0.04000000000000012, -0.3057713752029443 
0.050000000000000405, -0.30703275667554114 
0.06000000000000069, -0.3079948152630497 
0.07000000000000098, -0.3086424721202397 
0.08000000000000126, -0.3090027747915297 
0.09000000000000155, -0.3091148488062587 
0.10000000000000184, -0.30900893072541546 
0.11000000000000212, -0.3086953746022728 
0.12000000000000241, -0.3081590924017178 
0.130000000000002, -0.30735609219050675 
0.1400000000000009, -0.3062128660505615 
0.1499999999999998, -0.30463515567278304 
0.1599999999999987, -0.3025378064522552 
0.1699999999999976, -0.299902086272467 
0.1799999999999965, -0.29683746142925643 
0.1899999999999954, -0.2935891052218479 
0.1999999999999943, -0.2904559806488518 
0.2099999999999932, -0.28767375832061426 
0.2199999999999921, -0.2853523806057245 
0.229999999999991, -0.28349025216006973 
0.2399999999999899, -0.282022801716182 
0.2499999999999888, -0.2808653026801456 
0.2599999999999877, -0.2799378137569222 
0.2699999999999866, -0.2791759168144893 
0.2799999999999855, -0.27853343000860775 
0.2899999999999844, -0.27798151228046086 
0.2999999999999833, -0.27750692922824227 
0.3099999999999822, -0.27711128008734254 
0.3199999999999811, -0.27681243316241083 
0.32999999999998, -0.2766491318843994 
0.3399999999999789, -0.27668937804757665 
0.3499999999999778, -0.27704147005839697 
0.35999999999997667, -0.2778593450618224 
0.36999999999997557, -0.27931020169185244 
0.37999999999997447, -0.2814137368502142 
0.38999999999997337, -0.2835908031330063 
0.39999999999997227, -0.2839580856625604 
0.40999999999997117, -0.2794699147866016 
0.41999999999997006, -0.26857994189453427 
0.42999999999996896, -0.2539007339954571 
0.43999999999996786, -0.23992042998123222 
0.44999999999996676, -0.22915038518484643 
0.45999999999996566, -0.22173593634708358 
0.46999999999996456, -0.21687127559168023 
0.47999999999996346, -0.21372120910144102 
0.48999999999996235, -0.21167874508725676 
0.49999999999996125, -0.2103535204930759 
0.5099999999999602, -0.20950744496113574 
0.519999999999959, -0.20900102689536224 
0.529999999999958, -0.20875888657757566 
0.5399999999999568, -0.20875046445848588 
0.5499999999999557, -0.20898149351645984 
0.5599999999999546, -0.20949365021588232 
0.5699999999999535, -0.21037156195277146 
0.5799999999999524, -0.2117574912270992 
0.5899999999999513, -0.2138736967922093 
0.5999999999999502, -0.2170477358908113 
0.6099999999999491, -0.2217191162382311 
0.619999999999948, -0.22836545676572398 
0.6299999999999469, -0.23723868300913575 
0.6399999999999458, -0.24788596273920574 
0.6499999999999447, -0.25886028575615955 
0.6599999999999436, -0.26832163035650114 
0.6699999999999425, -0.27521040285030574 
0.6799999999999414, -0.27963289719352574 
0.6899999999999403, -0.2822781145284793 
0.6999999999999392, -0.28381866913925297 
0.7099999999999381, -0.2847100405720528 
0.719999999999937, -0.2852174512299786 
0.7299999999999359, -0.28548646453579674 
0.7399999999999348, -0.2855955762893096 
0.7499999999999337, -0.28558703251954304 
0.7599999999999326, -0.285484136862606 
0.7699999999999315, -0.2853019939569867 
0.7799999999999304, -0.2850556682836375 
0.7899999999999293, -0.28476710439711134 
0.7999999999999282, -0.28446982638859664 
0.8099999999999271, -0.2842090857568004 
0.819999999999926, -0.2840359992426237 
0.8299999999999249, -0.28399696774592725 
0.8399999999999238, -0.2841216523342688 
0.8499999999999227, -0.2844125554893453 
0.8599999999999216, -0.2848390025488449 
0.8699999999999205, -0.2853395696294869 
0.8799999999999194, -0.28583600869879255 
0.8899999999999183, -0.28625466928133025 
0.8999999999999172, -0.2865440173734112 
0.9099999999999161, -0.2866790750007146 
0.919999999999915, -0.2866535827290019 
0.9299999999999139, -0.28646705252893717 
0.9399999999999128, -0.28611234460850965 
0.9499999999999117, -0.28556482636926345 
0.9599999999999106, -0.2847712294872495 
0.9699999999999095, -0.28363623269535465 
0.9799999999999084, -0.2820084571584051 
0.9899999999999073, -0.2796781586996791 
0.9999999999999062, -0.276417794385185 
1.0099999999999052, -0.27210315421215625 
1.019999999999904, -0.2668877097717892 
1.029999999999903, -0.26126707001931043 
1.039999999999902, -0.2558867227530744 
1.0499999999999008, -0.25123399178847283 
1.0599999999998997, -0.24749351009490955 
1.0699999999998986, -0.24461318112603747 
1.0799999999998975, -0.24243540727651514 
1.0899999999998964, -0.24078924244457894 
1.0999999999998953, -0.23953065649569472 
1.1099999999998942, -0.23855218185918914 
1.119999999999893, -0.23778028375949817 
1.129999999999892, -0.23716982980591267 
1.1399999999998909, -0.2366995864618872 
1.1499999999998898, -0.23637042606751332 
1.1599999999998887, -0.23620731999284553 
1.1699999999998876, -0.23626635140442076 
1.1799999999998865, -0.2366483680624997 
1.1899999999998854, -0.23752031483314653 
1.1999999999998843, -0.23913956212212573 
1.2099999999998832, -0.24185268709174887 
1.219999999999882, -0.24596884329196583 
1.229999999999881, -0.25127979570347936 
1.2399999999998799, -0.25608979299422097 
1.2499999999998788, -0.25681860490510805 
1.2599999999998777, -0.2506287446994756 
1.2699999999998766, -0.23919733382236905 
1.2799999999998755, -0.22711546630419757 
1.2899999999998744, -0.2174228981250561 
1.2999999999998733, -0.21065479768748788 
1.3099999999998722, -0.20620456757986041 
1.319999999999871, -0.20333342977697333 
1.32999999999987, -0.20148470996958986 
1.3399999999998689, -0.2002968116905465 
1.3499999999998678, -0.19954915826178335 
1.3599999999998666, -0.19911329127102845 
1.3699999999998655, -0.19892086878694382 
1.3799999999998644, -0.19894577434494312 
1.3899999999998633, -0.19919639207605216 
1.3999999999998622, -0.199715655754652 
1.4099999999998611, -0.20058806874073998 
1.41999999999986, -0.2019538576560948 
1.429999999999859, -0.20402983108104525 
1.4399999999998578, -0.2071313178434035 
1.4499999999998567, -0.21167227233766145 
1.4599999999998556, -0.21808207355100354 
1.4699999999998545, -0.22654048736610824 
1.4799999999998534, -0.23653767811287968 
1.4899999999998523, -0.24667591979236608 
1.4999999999998512, -0.25530123676832767 
1.5099999999998501, -0.261538378040827 
1.519999999999849, -0.26554220208455054 
1.529999999999848, -0.26794623560238057 
1.5399999999998468, -0.2693510665906381 
1.5499999999998457, -0.2701624120904905 
1.5599999999998446, -0.27061812551082837 
1.5699999999998435, -0.2708499625220725 
1.5799999999998424, -0.2709295884287371 
1.5899999999998413, -0.2708959872937623 
1.5999999999998402, -0.2707713535601015 
1.6099999999998391, -0.27057143382428894 
1.619999999999838, -0.2703136290261535 
1.629999999999837, -0.27002363395868145 
1.6399999999998358, -0.2697392196339258 
1.6499999999998347, -0.2695089194684111 
1.6599999999998336, -0.26938485704128823 
1.6699999999998325, -0.2694116491146539 
1.6799999999998314, -0.26961451912793627 
1.6899999999998303, -0.2699891570175771 
1.6999999999998292, -0.27049632353303776 
1.709999999999828, -0.2710660754730072 
1.719999999999827, -0.27161448113864617 
1.729999999999826, -0.2720668771875219 
1.7399999999998248, -0.2723746259957506 
1.7499999999998237, -0.2725169921343395 
1.7599999999998226, -0.2724910048045484 
1.7699999999998215, -0.272297489676286 
1.7799999999998204, -0.27192858608087367 
1.7899999999998193, -0.2713572471810532 
1.7999999999998182, -0.27052686407178606 
1.809999999999817, -0.2693401060398248 
1.819999999999816, -0.2676512109704013 
1.8299999999998149, -0.26527730055379395 
1.8399999999998138, -0.2620574409977336 
1.8499999999998127, -0.25797452787475866 
1.8599999999998116, -0.25327540681718536 
1.8699999999998105, -0.24844434600898951 
1.8799999999998094, -0.2439906496937358 
1.8899999999998083, -0.2402324591267193 
1.8999999999998072, -0.23724700536016555 
1.909999999999806, -0.23495294172726439 
1.919999999999805, -0.2332095439956432 
1.9299999999998039, -0.23187724285332023 
1.9399999999998028, -0.2308418066252052 
1.9499999999998017, -0.23001905737051 
1.9599999999998006, -0.22935210997077635 
1.9699999999997995, -0.22880700747155083 
1.9799999999997984, -0.22836934855255855 
1.9899999999997973, -0.2280431830741474 
1.9999999999997962, -0.2278530142772568 
2.0099999999998173, -0.2278495708122731 
2.0199999999998384, -0.22811924697842687 
2.0299999999998595, -0.22879322642753327 
2.0399999999998806, -0.2300377654033897 
2.0499999999999017, -0.23196422290664365 
2.059999999999923, -0.23431181411569782 
2.069999999999944, -0.23575577689980975 
2.079999999999965, -0.233382408973854 
2.089999999999986, -0.22434333146511215 
2.100000000000007, -0.20964437028688615 
2.1100000000000283, -0.19403859893077074 
2.1200000000000494, -0.1813370490992888 
2.1300000000000705, -0.17240509273279325 
2.1400000000000916, -0.16651520834369232 
2.1500000000001127, -0.16269933305707948 
2.160000000000134, -0.16021799506201276 
2.170000000000155, -0.15859168678517993 
2.180000000000176, -0.1575290589201367 
2.190000000000197, -0.15686034553673667 
2.2000000000002182, -0.1564939720752518 
2.2100000000002393, -0.1563924929436506 
2.2200000000002604, -0.1565624102807383 
2.2300000000002815, -0.15705493020190997 
2.2400000000003026, -0.15797754409615736 
2.2500000000003237, -0.15951888993267027 
2.260000000000345, -0.16199078481154355 
2.270000000000366, -0.1658869778898138 
2.280000000000387, -0.17193159192566188 
2.290000000000408, -0.18100298016191257 
2.3000000000004293, -0.19365841143640605 
2.3100000000004504, -0.2090676303029666 
2.3200000000004715, -0.22430488838879228 
2.3300000000004926, -0.23597011880263294 
2.3400000000005137, -0.24292077032457904 
2.3500000000005348, -0.24632527880980123 
2.360000000000556, -0.24780395359689975 
2.370000000000577, -0.24841757227629852 
2.380000000000598, -0.2486779961974967 
2.390000000000619, -0.2487972974815348 
2.4000000000006403, -0.24885707943638566 
2.4100000000006614, -0.2488883514717449 
2.4200000000006825, -0.24890432525934117 
2.4300000000007036, -0.24891353031531885 
2.4400000000007247, -0.248925793683859 
2.450000000000746, -0.24895613741768502 
2.460000000000767, -0.24902828792520365 
2.470000000000788, -0.24917777480288344 
2.480000000000809, -0.24945355726222482 
2.49000000000083, -0.24991659072522002 
2.5000000000008513, -0.2506334932775623 
2.5100000000008724, -0.251662941620464 
2.5200000000008935, -0.2530324214798655 
2.5300000000009146, -0.2547077848001138 
2.5400000000009357, -0.25657157476060405 
2.550000000000957, -0.2584374322929797 
2.560000000000978, -0.2601099415046509 
2.570000000000999, -0.261454163119648 
2.58000000000102, -0.26242458923060114 
2.5900000000010412, -0.2630445393675481 
2.6000000000010624, -0.2633664712541063 
2.6100000000010835, -0.2634409447302313 
2.6200000000011046, -0.26330097173101696 
2.6300000000011257, -0.2629567856791607 
2.6400000000011468, -0.26239563874835636 
2.650000000001168, -0.26158513018608154 
2.660000000001189, -0.2604827546911513 
2.67000000000121, -0.2590564181103079 
2.680000000001231, -0.2573160891325871 
2.6900000000012523, -0.25534222285302666 
2.7000000000012734, -0.253283822644964 
2.7100000000012945, -0.25131406215122026 
2.7200000000013156, -0.249570578566881 
2.7300000000013367, -0.24812152233543458 
2.740000000001358, -0.24696915769528266 
2.750000000001379, -0.24607323868657827 
2.7600000000014, -0.24537481600902616 
2.770000000001421, -0.24481295727136784 
2.780000000001442, -0.2443344308192071 
2.7900000000014633, -0.2438979026105582 
2.8000000000014844, -0.24347398110861013 
2.8100000000015055, -0.24304252727512726 
2.8200000000015266, -0.24258856981955174 
2.8300000000015477, -0.24209736735907028 
2.840000000001569, -0.24154760662023236 
2.85000000000159, -0.2408991061208067 
2.860000000001611, -0.24006639419553338 
2.870000000001632, -0.23886038084636851 
2.8800000000016532, -0.2368711936100804 
2.8900000000016743, -0.23329341919234503 
2.9000000000016954, -0.22687552134646172 
2.9100000000017165, -0.2165220408198147 
2.9200000000017377, -0.20271330195559623 
2.9300000000017588, -0.18801678631611432 
2.94000000000178, -0.1752410970410485 
2.950000000001801, -0.16560160996997722 
2.960000000001822, -0.15886854370183068 
2.970000000001843, -0.15430138801711157 
2.9800000000018643, -0.15120630752723813 
2.9900000000018854, -0.14908276036874138 
3.0000000000019065, -0.1476045048512884 
3.0100000000019276, -0.14656932989715904 
3.0200000000019487, -0.1458581201358153 
3.03000000000197, -0.14540892112220405 
3.040000000001991, -0.14520360078075994 
3.050000000002012, -0.14526479902223538 
3.060000000002033, -0.14566287530584798 
3.070000000002054, -0.1465350041701418 
3.0800000000020753, -0.14812069417564905 
3.0900000000020964, -0.15081639606719324 
3.1000000000021175, -0.15523191082534415 
3.1100000000021386, -0.1621473069019008 
3.1200000000021597, -0.17204853973883577 
3.130000000002181, -0.18377734648552502 
3.140000000002202, -0.19316014510338744 
3.150000000002223, -0.1953772106612526 
3.160000000002244, -0.19044473629838427 
3.1700000000022652, -0.18274332814407002 
3.1800000000022863, -0.1758362241235617 
3.1900000000023074, -0.17080579506964202 
3.2000000000023285, -0.16743975119517285 
3.2100000000023496, -0.165253061747348 
3.2200000000023707, -0.16384453813806066 
3.230000000002392, -0.16294635096848206 
3.240000000002413, -0.16239495135443052 
3.250000000002434, -0.16209769515151426 
3.260000000002455, -0.16201027683423735 
3.2700000000024763, -0.16212482283537283 
3.2800000000024974, -0.16246646839612994 
3.2900000000025185, -0.16309722798268245 
3.3000000000025396, -0.16412725801285608 
3.3100000000025607, -0.16573425748278953 
3.3200000000025818, -0.16818994873821705 
3.330000000002603, -0.17188284542332002 
3.340000000002624, -0.17729692032856928 
3.350000000002645, -0.18484953430542977 
3.360000000002666, -0.19448054718211827 
3.3700000000026873, -0.20516501308097462 
3.3800000000027084, -0.21507132201007595 
3.3900000000027295, -0.22268889623768123 
3.4000000000027506, -0.2277066253342494 
3.4100000000027717, -0.23070094932409865 
3.420000000002793, -0.23240923417978507 
3.430000000002814, -0.23337261773844378 
3.440000000002835, -0.23391236463615822 
3.450000000002856, -0.23420353020024573 
3.460000000002877, -0.23433939311314314 
3.4700000000028983, -0.234370439001414 
3.4800000000029194, -0.2343258307392492 
3.4900000000029405, -0.2342258091490609 
3.5000000000029616, -0.2340900586200927 
3.5100000000029827, -0.23394413503737593 
3.520000000003004, -0.23382386013384976 
3.530000000003025, -0.2337763216834797 
3.540000000003046, -0.23385628722188806 
3.550000000003067, -0.2341180672640842 
3.5600000000030882, -0.23460358305024434 
3.5700000000031094, -0.23532727400961811 
3.5800000000031305, -0.23626040313271673 
3.5900000000031516, -0.23732337390798083 
3.6000000000031727, -0.23839834306110297 
3.6100000000031938, -0.23936368434053815 
3.620000000003215, -0.24013116192046993 
3.630000000003236, -0.24066188729947635 
3.640000000003257, -0.24095654633027533 
3.650000000003278, -0.2410338765316847 
3.6600000000032993, -0.2409114209791472 
3.6700000000033204, -0.24059322314818815 
3.6800000000033415, -0.2400629415370974 
3.6900000000033626, -0.23928043115837333 
3.7000000000033837, -0.23818302238122055 
3.710000000003405, -0.23669754194575932 
3.720000000003426, -0.23477170174421716 
3.730000000003447, -0.23242422058766143 
3.740000000003468, -0.22978567688984977 
3.750000000003489, -0.22708296804890643 
3.7600000000035103, -0.2245578017830226 
3.7700000000035314, -0.22237828107375943 
3.7800000000035525, -0.220605956183542 
3.7900000000035736, -0.21921838782853215 
3.8000000000035947, -0.21814944237894723 
3.810000000003616, -0.21732079359973655 
3.820000000003637, -0.21665955054602137 
3.830000000003658, -0.2161059805800863 
3.840000000003679, -0.21561537388797655 
3.8500000000037002, -0.2151564946206034 
3.8600000000037213, -0.21470821350016508 
3.8700000000037424, -0.21425534046555605 
3.8800000000037635, -0.21378372093107112 
3.8900000000037847, -0.21327299164456748 
3.9000000000038058, -0.2126822398292781 
3.910000000003827, -0.21191727592104526 
3.920000000003848, -0.2107563145069386 
3.930000000003869, -0.20870184683929463 
3.94000000000389, -0.20478007599777553 
3.9500000000039113, -0.19757818854484535 
3.9600000000039324, -0.18617076942577426 
3.9700000000039535, -0.17170044324428518 
3.9800000000039746, -0.1572288128095029 
3.9900000000039957, -0.14532276600080934 
4.000000000004016, -0.13667851109694765 
4.010000000003993, -0.13077284315741625 
4.02000000000397, -0.12680772820292113 
4.030000000003946, -0.12412822052326371 
4.040000000003923, -0.122287742755817 
4.0500000000039, -0.12100381799405753 
4.0600000000038765, -0.12010521608591791 
4.070000000003853, -0.11949428469781145 
4.08000000000383, -0.11912479599663602 
4.090000000003807, -0.11899191144830705 
4.100000000003783, -0.11913223580994856 
4.11000000000376, -0.11963421311302365 
4.120000000003737, -0.12066118648592725 
4.130000000003713, -0.12248922730578257 
4.14000000000369, -0.1255502964178931 
4.150000000003667, -0.13041719438575877 
4.1600000000036434, -0.137501597912356 
4.17000000000362, -0.14600873086567406 
4.180000000003597, -0.152379693403044 
4.1900000000035735, -0.15147976571090085 
4.20000000000355, -0.1424992635891162 
4.210000000003527, -0.13043968936771105 
4.220000000003504, -0.12000877314834417 
4.23000000000348, -0.11259032601288359 
4.240000000003457, -0.10771344207884485 
4.250000000003434, -0.1045741424229429 
4.26000000000341, -0.10254814018080147 
4.270000000003387, -0.10123465010715997 
4.280000000003364, -0.10039503076931104 
4.2900000000033405, -0.09989555848441525 
4.300000000003317, -0.09967142479757292 
4.310000000003294, -0.0997086147292641 
4.320000000003271, -0.10003940466265002 
4.330000000003247, -0.10075013754270545 
4.340000000003224, -0.10200337188774897 
4.350000000003201, -0.10407973772425476 
4.360000000003177, -0.10744492602604401 
4.370000000003154, -0.11283029690156929 
4.380000000003131, -0.12123699220412495 
4.390000000003107, -0.13356200763144663 
4.400000000003084, -0.14939155615794783 
4.410000000003061, -0.16559744100956256 
4.4200000000030375, -0.17769874723946308 
4.430000000003014, -0.18391938295056157 
4.440000000002991, -0.18591810997374245 
4.450000000002968, -0.18600137710119619 
4.460000000002944, -0.18552780313748848 
4.470000000002921, -0.18502572224439692 
4.480000000002898, -0.18463572090767655 
4.490000000002874, -0.18436714574710292 
4.500000000002851, -0.18419905222117344 
4.510000000002828, -0.1841122072624878 
4.520000000002804, -0.1840973690276641 
4.530000000002781, -0.1841572294008821 
4.540000000002758, -0.18430786447748482 
4.5500000000027345, -0.1845814525558832 
4.560000000002711, -0.18503057079533905 
4.570000000002688, -0.18573363211757524 
4.580000000002665, -0.1868000065620018 
4.590000000002641, -0.1883708423147068 
4.600000000002618, -0.19060574188902096 
4.610000000002595, -0.19363691116801923 
4.620000000002571, -0.19747432299822204 
4.630000000002548, -0.2018899172871035 
4.640000000002525, -0.20639583918713456 
4.6500000000025015, -0.21042474888652857 
4.660000000002478, -0.21360288265480568 
4.670000000002455, -0.21586354670158384 
4.6800000000024315, -0.21734931318571968 
4.690000000002408, -0.2182617251507208 
4.700000000002385, -0.2187735570058383 
4.710000000002362, -0.21900540973806418 
4.720000000002338, -0.21903202958983664 
4.730000000002315, -0.21889553269171286 
4.740000000002292, -0.2186177831118695 
4.750000000002268, -0.2182114087649778 
4.760000000002245, -0.21769059971999477 
4.770000000002222, -0.2170813821878415 
4.7800000000021985, -0.21642819540762748 
4.790000000002175, -0.21579227713761523 
4.800000000002152, -0.21524067711643405 
4.810000000002129, -0.21483083223699756 
4.820000000002105, -0.21459786230661004 
4.830000000002082, -0.21454789121481976 
