t, s[1].omega / s[0].omega 
0, -1.4199955510108715 
0.009999999999999995, -1.4193241743442295 
0.019999999999999934, -1.4182044465978283 
0.029999999999999874, -1.416636600377747 
0.04000000000000012, -1.4146214431648274 
0.050000000000000405, -1.4121612605306433 
0.06000000000000069, -1.4092610052235086 
0.07000000000000098, -1.4059297191232294 
0.08000000000000126, -1.4021822204123329 
0.09000000000000155, -1.398041383487735 
0.10000000000000184, -1.3935418909483026 
0.11000000000000212, -1.3887368605014534 
0.12000000000000241, -1.3837084355832079 
0.130000000000002, -1.3785812155461865 
0.1400000000000009, -1.3735329668331338 
0.1499999999999998, -1.3687922193698157 
0.1599999999999987, -1.3646117513436966 
0.1699999999999976, -1.3612158668534786 
0.1799999999999965, -1.358737166970716 
0.1899999999999954, -1.357173013775916 
0.1999999999999943, -1.3563865603523855 
0.2099999999999932, -1.356151222802814 
0.2199999999999921, -1.3562121795012279 
0.229999999999991, -1.3563347129180356 
0.2399999999999899, -1.3563247017449456 
0.2499999999999888, -1.3560237955859256 
0.2599999999999877, -1.3552891859119858 
0.2699999999999866, -1.3539662321521644 
0.2799999999999855, -1.3518572859595364 
0.2899999999999844, -1.3486858845505387 
0.2999999999999833, -1.3440532654325197 
0.3099999999999822, -1.3373839831705516 
0.3199999999999811, -1.3278598119912197 
0.32999999999998, -1.3143478455509656 
0.3399999999999789, -1.2953427584830604 
0.3499999999999778, -1.2689673173943699 
0.35999999999997667, -1.2331066714154955 
0.36999999999997557, -1.1857712107014766 
0.37999999999997447, -1.1257415247476519 
0.38999999999997337, -1.0533862505659357 
0.39999999999997227, -0.971278106745952 
0.40999999999997117, -0.8840897410514733 
0.41999999999997006, -0.7975493348362858 
0.42999999999996896, -0.7169022516243357 
0.43999999999996786, -0.6457137910616985 
0.44999999999996676, -0.5855226356674025 
0.45999999999996566, -0.5362189796000588 
0.46999999999996456, -0.4967021521501446 
0.47999999999996346, -0.4654641200331464 
0.48999999999996235, -0.4409677858824567 
0.49999999999996125, -0.42183695485865386 
0.5099999999999602, -0.40692229775055566 
0.519999999999959, -0.3953014301591071 
0.529999999999958, -0.3862509169726338 
0.5399999999999568, -0.3792106049081705 
0.5499999999999557, -0.37374965326033277 
0.5599999999999546, -0.36953768706058876 
0.5699999999999535, -0.36632167494542717 
0.5799999999999524, -0.36390798249527423 
0.5899999999999513, -0.3621487062766052 
0.5999999999999502, -0.3609313971886624 
0.6099999999999491, -0.36017141177785733 
0.619999999999948, -0.3598062874888256 
0.6299999999999469, -0.35979168268328005 
0.6399999999999458, -0.3600985421363215 
0.6499999999999447, -0.3607112422860907 
0.6599999999999436, -0.361626540280154 
0.6699999999999425, -0.3628532000280836 
0.6799999999999414, -0.36441219971316335 
0.6899999999999403, -0.3663374402182259 
0.6999999999999392, -0.3686768727661229 
0.7099999999999381, -0.3714939437996285 
0.719999999999937, -0.37486920684178826 
0.7299999999999359, -0.3789018557513278 
0.7399999999999348, -0.3837107582260493 
0.7499999999999337, -0.38943426579876345 
0.7599999999999326, -0.39622760042055394 
0.7699999999999315, -0.40425596460405594 
0.7799999999999304, -0.41368082457088384 
0.7899999999999293, -0.4246364975924009 
0.7999999999999282, -0.43719511397610494 
0.8099999999999271, -0.45132149023571766 
0.819999999999926, -0.4668263210620977 
0.8299999999999249, -0.48333497463385866 
0.8399999999999238, -0.5002943859026818 
0.8499999999999227, -0.517033571289616 
0.8599999999999216, -0.5328707888568954 
0.8699999999999205, -0.5472332781032707 
0.8799999999999194, -0.5597448326553067 
0.8899999999999183, -0.570252977671293 
0.8999999999999172, -0.5787986117430595 
0.9099999999999161, -0.5855535444860852 
0.919999999999915, -0.5907543415437945 
0.9299999999999139, -0.5946502974851298 
0.9399999999999128, -0.5974707201387263 
0.9499999999999117, -0.5994087218359591 
0.9599999999999106, -0.6006159736097254 
0.9699999999999095, -0.6012032689390514 
0.9799999999999084, -0.6012431967889904 
0.9899999999999073, -0.6007726013735786 
0.9999999999999062, -0.5997934227162335 
1.0099999999999052, -0.5982709507194277 
1.019999999999904, -0.5961285765328223 
1.029999999999903, -0.593237871935291 
1.039999999999902, -0.5894023261926409 
1.0499999999999008, -0.584332392666274 
1.0599999999998997, -0.5776088625829353 
1.0699999999998986, -0.5686316632201178 
1.0799999999998975, -0.5565537632175266 
1.0899999999998964, -0.5402090584234488 
1.0999999999998953, -0.5180665591711973 
1.1099999999998942, -0.48829001937050087 
1.119999999999893, -0.4490466521294748 
1.129999999999892, -0.3992241808716872 
1.1399999999998909, -0.33951075271263303 
1.1499999999998898, -0.27324856228501176 
1.1599999999998887, -0.20604816455420302 
1.1699999999998876, -0.14385965154656125 
1.1799999999998865, -0.09078192421026497 
1.1899999999998854, -0.048206640304652486 
1.1999999999998843, -0.015432883876012868 
1.2099999999998832, 0.008886683732797994 
1.219999999999882, 0.026442439142430656 
1.229999999999881, 0.03932490303128028 
1.2399999999998799, 0.0487814001531527 
1.2499999999998788, 0.05573630417851265 
1.2599999999998777, 0.06085910828654993 
1.2699999999998766, 0.06463147288664166 
1.2799999999998755, 0.06740101703979307 
1.2899999999998744, 0.06942091112362624 
1.2999999999998733, 0.07087784633440694 
1.3099999999998722, 0.07191143737951303 
1.319999999999871, 0.07262764372820232 
1.32999999999987, 0.07310816093573615 
1.3399999999998689, 0.07341718691902728 
1.3499999999998678, 0.07360656331056045 
1.3599999999998666, 0.07372002551055817 
1.3699999999998655, 0.07379715404215159 
1.3799999999998644, 0.07387759900024822 
1.3899999999998633, 0.07400625776825949 
1.3999999999998622, 0.07424035152753329 
1.4099999999998611, 0.07465981561457487 
1.41999999999986, 0.0753831438313833 
1.429999999999859, 0.0765917959987557 
1.4399999999998578, 0.07856720993087661 
1.4499999999998567, 0.08174426598864533 
1.4599999999998556, 0.0867806968775143 
1.4699999999998545, 0.09462673737966178 
1.4799999999998534, 0.1065430581905527 
1.4899999999998523, 0.12395533679683657 
1.4999999999998512, 0.14799585891855033 
1.5099999999998501, 0.17870910963616798 
1.519999999999849, 0.21432052877378224 
1.529999999999848, 0.2513575810625484 
1.5399999999998468, 0.2859348775039538 
1.5499999999998457, 0.31530269289885166 
1.5599999999998446, 0.3384789705606526 
1.5699999999998435, 0.35585120578511503 
1.5799999999998424, 0.36844000138040467 
1.5899999999998413, 0.3773550845971855 
1.5999999999998402, 0.38354293964531855 
1.6099999999998391, 0.3877250554168451 
1.619999999999838, 0.39042012306950613 
1.629999999999837, 0.3919896552749394 
1.6399999999998358, 0.3926821742373155 
1.6499999999998347, 0.3926690121109106 
1.6599999999998336, 0.392071648283069 
1.6699999999998325, 0.3909822889941693 
1.6799999999998314, 0.3894792169890499 
1.6899999999998303, 0.38763771413584347 
1.6999999999998292, 0.3855367298113845 
1.709999999999828, 0.3832612575064981 
1.719999999999827, 0.380900696566311 
1.729999999999826, 0.3785441582029395 
1.7399999999998248, 0.37627433576117497 
1.7499999999998237, 0.37416178008265255 
1.7599999999998226, 0.37226102527813953 
1.7699999999998215, 0.37060918053626246 
1.7799999999998204, 0.369226737061572 
1.7899999999998193, 0.36811977883509 
1.7999999999998182, 0.3672826484724755 
1.809999999999817, 0.36670031200277076 
1.819999999999816, 0.3663500107537961 
1.8299999999998149, 0.36620213195034074 
1.8399999999998138, 0.3662204849970319 
1.8499999999998127, 0.3663623028788444 
1.8599999999998116, 0.3665782888702191 
1.8699999999998105, 0.36681290293592494 
1.8799999999998094, 0.36700485357759616 
1.8899999999998083, 0.3670874784525737 
1.8999999999998072, 0.36698842576150853 
1.909999999999806, 0.36662783788867476 
1.919999999999805, 0.36591408545821286 
1.9299999999998039, 0.3647359263459036 
1.9399999999998028, 0.36294963024878024 
1.9499999999998017, 0.36035895043609356 
1.9599999999998006, 0.3566847109790932 
1.9699999999997995, 0.3515192484274465 
1.9799999999997984, 0.34425960479087 
1.9899999999997973, 0.33401453572682255 
1.9999999999997962, 0.31949096577295116 
2.0099999999998173, 0.29890209553468866 
2.0199999999998384, 0.2700297962105176 
2.0299999999998595, 0.23072178876662353 
2.0399999999998806, 0.1801422619757644 
2.0499999999999017, 0.12052666941240728 
2.059999999999923, 0.05787065348003002 
2.069999999999944, -0.00017392762474142186 
2.079999999999965, -0.04717393998585329 
2.089999999999986, -0.08228866369882858 
2.100000000000007, -0.10687686437406796 
2.1100000000000283, -0.12346823158987491 
2.1200000000000494, -0.13449522389099344 
2.1300000000000705, -0.14182574223512295 
2.1400000000000916, -0.146747304738277 
2.1500000000001127, -0.15010063580440103 
2.160000000000134, -0.15242145557535544 
2.170000000000155, -0.1540488043082878 
2.180000000000176, -0.15519812421152462 
2.190000000000197, -0.15600786878267078 
2.2000000000002182, -0.15656854073936216 
2.2100000000002393, -0.15694071992139827 
2.2200000000002604, -0.15716639370521346 
2.2300000000002815, -0.1572762838239847 
2.2400000000003026, -0.15729481195988995 
2.2500000000003237, -0.15724368815430628 
2.260000000000345, -0.1571446934263148 
2.270000000000366, -0.1570219626703727 
2.280000000000387, -0.15690390009425684 
2.290000000000408, -0.15682475228666762 
2.3000000000004293, -0.15682581725670713 
2.3100000000004504, -0.15695627997419795 
2.3200000000004715, -0.15727372467148631 
2.3300000000004926, -0.15784444987721719 
2.3400000000005137, -0.1587437526157888 
2.3500000000005348, -0.16005629552644396 
2.360000000000556, -0.1618764787937905 
2.370000000000577, -0.16430838727109576 
2.380000000000598, -0.16746438488585064 
2.390000000000619, -0.17146084814143503 
2.4000000000006403, -0.17640904139233976 
2.4100000000006614, -0.1823991196127741 
2.4200000000006825, -0.18947635580294725 
2.4300000000007036, -0.1976116747472021 
2.4400000000007247, -0.20667351774080278 
2.450000000000746, -0.2164131396676368 
2.460000000000767, -0.22647639492589025 
2.470000000000788, -0.23644761883639046 
2.480000000000809, -0.24591637668137878 
2.49000000000083, -0.254544600915336 
2.5000000000008513, -0.2621105249856717 
2.5100000000008724, -0.2685182309774888 
2.5200000000008935, -0.27377791706432675 
2.5300000000009146, -0.27797137204561023 
2.5400000000009357, -0.28121675709536714 
2.550000000000957, -0.2836409239063965 
2.560000000000978, -0.28536146011350805 
2.570000000000999, -0.2864770283529917 
2.58000000000102, -0.28706335106665176 
2.5900000000010412, -0.28717238937784134 
2.6000000000010624, -0.28683297271092634 
2.6100000000010835, -0.2860518723609472 
2.6200000000011046, -0.2848149216686082 
2.6300000000011257, -0.28308828045661577 
2.6400000000011468, -0.2808203839295161 
2.650000000001168, -0.2779455414106383 
2.660000000001189, -0.27439050236083673 
2.67000000000121, -0.27008537581002945 
2.680000000001231, -0.26497968661956756 
2.6900000000012523, -0.25906264645244076 
2.7000000000012734, -0.2523838627998415 
2.7100000000012945, -0.24506768021463834 
2.7200000000013156, -0.23731333982323444 
2.7300000000013367, -0.22937638409938746 
2.740000000001358, -0.22153404167426366 
2.750000000001379, -0.21404483143655048 
2.7600000000014, -0.20711521769666574 
2.770000000001421, -0.20088206331056987 
2.780000000001442, -0.19541206224971736 
2.7900000000014633, -0.1907132318630485 
2.8000000000014844, -0.1867515031838162 
2.8100000000015055, -0.18346679411047925 
2.8200000000015266, -0.18078558819477014 
2.8300000000015477, -0.17862933485586102 
2.840000000001569, -0.17691933297327575 
2.85000000000159, -0.17557925231016902 
2.860000000001611, -0.1745364004922831 
2.870000000001632, -0.1737225354726462 
2.8800000000016532, -0.17307464011925924 
2.8900000000016743, -0.17253573438968747 
2.9000000000016954, -0.17205557433461335 
2.9100000000017165, -0.17159100482809528 
2.9200000000017377, -0.1711057748255699 
2.9300000000017588, -0.17056973230909794 
2.94000000000178, -0.16995742228633684 
2.950000000001801, -0.16924616413507257 
2.960000000001822, -0.16841366308962943 
2.970000000001843, -0.16743511682569875 
2.9800000000018643, -0.16627961987588802 
2.9900000000018854, -0.16490544286383985 
3.0000000000019065, -0.16325344517368487 
3.0100000000019276, -0.1612374179968356 
3.0200000000019487, -0.15872948064530026 
3.03000000000197, -0.15553771520884288 
3.040000000001991, -0.1513721102799748 
3.050000000002012, -0.14579416274234436 
3.060000000002033, -0.1381470493927249 
3.070000000002054, -0.12747201611343656 
3.0800000000020753, -0.11244246369462883 
3.0900000000020964, -0.09140274768688161 
3.1000000000021175, -0.06267639357857582 
3.1100000000021386, -0.02531584061357181 
3.1200000000021597, 0.019467508587106577 
3.130000000002181, 0.06822078830922125 
3.140000000002202, 0.11641452977138639 
3.150000000002223, 0.15939503480263092 
3.160000000002244, 0.19456922571167168 
3.1700000000022652, 0.22160006677755203 
3.1800000000022863, 0.2415417559537843 
3.1900000000023074, 0.25590455409966995 
3.2000000000023285, 0.2661082785053945 
3.2100000000023496, 0.2732870539991052 
3.2200000000023707, 0.27827887839534193 
3.230000000002392, 0.28168049787337235 
3.240000000002413, 0.28391127549247686 
3.250000000002434, 0.2852668442772738 
3.260000000002455, 0.2859592242867365 
3.2700000000024763, 0.28614525623511267 
3.2800000000024974, 0.28594611963886174 
3.2900000000025185, 0.28546030631631564 
3.3000000000025396, 0.2847718349629566 
3.3100000000025607, 0.2839550569987453 
3.3200000000025818, 0.2830771441653943 
3.330000000002603, 0.2821991835798104 
3.340000000002624, 0.2813766453464752 
3.350000000002645, 0.2806597803331261 
3.360000000002666, 0.28009425305979424 
3.3700000000026873, 0.2797220536840883 
3.3800000000027084, 0.27958250488600606 
3.3900000000027295, 0.2797130078003028 
3.4000000000027506, 0.28014906252707605 
3.4100000000027717, 0.2809230614135944 
3.420000000002793, 0.28206142113716215 
3.430000000002814, 0.28357986188944934 
3.440000000002835, 0.2854771363822121 
3.450000000002856, 0.287728263098962 
3.460000000002877, 0.2902791413287268 
3.4700000000028983, 0.29304488000120005 
3.4800000000029194, 0.2959137110475198 
3.4900000000029405, 0.29875674342071556 
3.5000000000029616, 0.30144154526001693 
3.5100000000029827, 0.3038457829351118 
3.520000000003004, 0.3058669624399843 
3.530000000003025, 0.30742581529388685 
3.540000000003046, 0.3084630996584967 
3.550000000003067, 0.3089313290191203 
3.5600000000030882, 0.30878356279984576 
3.5700000000031094, 0.30796106515576327 
3.5800000000031305, 0.30638097190426694 
3.5900000000031516, 0.3039247317919526 
3.6000000000031727, 0.3004284915751514 
3.6100000000031938, 0.2956781520215188 
3.620000000003215, 0.2894147638885267 
3.630000000003236, 0.28135983528477065 
3.640000000003257, 0.27127258340126165 
3.650000000003278, 0.25904614337183984 
3.6600000000032993, 0.24482883838502215 
3.6700000000033204, 0.22911960458304248 
3.6800000000033415, 0.21275962541619356 
3.6900000000033626, 0.19677284846490756 
3.7000000000033837, 0.1821055758043293 
3.710000000003405, 0.1693987672376044 
3.720000000003426, 0.15890300083326758 
3.730000000003447, 0.150539886412029 
3.740000000003468, 0.14403405131137575 
3.750000000003489, 0.13903831251861934 
3.7600000000035103, 0.13521588375220553 
3.7700000000035314, 0.13227928039548967 
3.7800000000035525, 0.1300001387497845 
3.7900000000035736, 0.12820418839395822 
3.8000000000035947, 0.1267607788889364 
3.810000000003616, 0.12557181189509942 
3.820000000003637, 0.12456202757576429 
3.830000000003658, 0.12367110364485669 
3.840000000003679, 0.12284739612399223 
3.8500000000037002, 0.12204295332180826 
3.8600000000037213, 0.1212094128484596 
3.8700000000037424, 0.12029441182166317 
3.8800000000037635, 0.11923813782038148 
3.8900000000037847, 0.11796959299980674 
3.9000000000038058, 0.11640202443911866 
3.910000000003827, 0.11442678738498359 
3.920000000003848, 0.11190465543682697 
3.930000000003869, 0.1086532792486567 
3.94000000000389, 0.1044291566382904 
3.9500000000039113, 0.09890224425472056 
3.9600000000039324, 0.09162162215888105 
3.9700000000039535, 0.081972479341931 
3.9800000000039746, 0.069130499153399 
3.9900000000039957, 0.05203388419837094 
4.000000000004016, 0.029421133807418537 
4.010000000003993, 0.00002197311076173088 
4.02000000000397, -0.03616870046027386 
4.030000000003946, -0.07968531720063086 
4.040000000003923, -0.12847076618448497 
4.0500000000039, -0.1787609940850976 
4.0600000000038765, -0.2262004963868516 
4.070000000003853, -0.2673984558009649 
4.08000000000383, -0.3008209598426316 
4.090000000003807, -0.32662323785552666 
4.100000000003783, -0.34591998607323976 
4.11000000000376, -0.360104115201048 
4.120000000003737, -0.3704557554700282 
4.130000000003713, -0.37800041528639283 
4.14000000000369, -0.38350275684476687 
4.150000000003667, -0.38751145551066973 
4.1600000000036434, -0.3904122995186282 
4.17000000000362, -0.39247347549351275 
4.180000000003597, -0.3938796459050034 
4.1900000000035735, -0.39475608998043965 
4.20000000000355, -0.39518529627354987 
4.210000000003527, -0.39521824270875083 
4.220000000003504, -0.3948821460306882 
4.23000000000348, -0.39418605018365555 
4.240000000003457, -0.39312533471458655 
4.250000000003434, -0.39168603863330487 
4.26000000000341, -0.3898497424078859 
4.270000000003387, -0.3875995297538328 
4.280000000003364, -0.3849271506708793 
4.2900000000033405, -0.38184086355503755 
4.300000000003317, -0.378372626745167 
4.310000000003294, -0.3745826456690458 
4.320000000003271, -0.3705592420481839 
4.330000000003247, -0.36641296335009477 
4.340000000003224, -0.3622656431529518 
4.350000000003201, -0.3582369555718628 
4.360000000003177, -0.3544318668703348 
4.370000000003154, -0.3509317982163513 
4.380000000003131, -0.34779069735931323 
4.390000000003107, -0.3450355202328132 
4.400000000003084, -0.34266961055201606 
4.410000000003061, -0.3406773242100006 
4.4200000000030375, -0.3390286956954185 
4.430000000003014, -0.3376835713658918 
4.440000000002991, -0.33659513490870663 
4.450000000002968, -0.3357129973422765 
4.460000000002944, -0.3349860317726258 
4.470000000002921, -0.33436499611340165 
4.480000000002898, -0.33380482525522875 
4.490000000002874, -0.33326638639142764 
4.500000000002851, -0.33271751914324244 
4.510000000002828, -0.33213330232826516 
4.520000000002804, -0.33149563749877275 
4.530000000002781, -0.3307923518258128 
4.540000000002758, -0.33001606665266986 
4.5500000000027345, -0.3291630567736347 
4.560000000002711, -0.3282322646931318 
4.570000000002688, -0.3272245612203197 
4.580000000002665, -0.32614227450933014 
4.590000000002641, -0.3249889425083861 
4.600000000002618, -0.3237691571420454 
4.610000000002595, -0.3224882131850303 
4.620000000002571, -0.32115095162225804 
4.630000000002548, -0.31975849529838063 
4.640000000002525, -0.3183000994447637 
4.6500000000025015, -0.31673422658151473 
4.660000000002478, -0.3149464730132856 
4.670000000002455, -0.31265876958275085 
4.6800000000024315, -0.309238485450389 
4.690000000002408, -0.3033099029663712 
4.700000000002385, -0.29200413834370836 
4.710000000002362, -0.2696526152271895 
4.720000000002338, -0.22601364253601497 
4.730000000002315, -0.14562219174767693 
4.740000000002292, -0.013831853160740617 
4.750000000002268, 0.16304826781393592 
4.760000000002245, 0.3452486842400098 
4.770000000002222, 0.4877137046012387 
4.7800000000021985, 0.5791798953762922 
4.790000000002175, 0.6327127108192905 
4.800000000002152, 0.6634379305286552 
4.810000000002129, 0.6813234622844407 
4.820000000002105, 0.6919679492408777 
4.830000000002082, 0.6984014695720733 
4.840000000002059, 0.702279504607671 
4.850000000002035, 0.7045308737439572 
4.860000000002012, 0.7056938285570681 
4.870000000001989, 0.7060916728906599 
4.880000000001965, 0.7059272702826657 
4.890000000001942, 0.7053359441783791 
4.900000000001919, 0.7044162758611971 
