t, s[1].omega / s[0].omega 
0, -1.080054710878277 
0.009999999999999995, -1.0849673292127833 
0.019999999999999934, -1.0886996477796598 
0.029999999999999874, -1.0912948904942512 
0.04000000000000012, -1.0929332990272187 
0.050000000000000405, -1.093840818469975 
0.06000000000000069, -1.094222795743979 
0.07000000000000098, -1.0942365536087362 
0.08000000000000126, -1.093994244359635 
0.09000000000000155, -1.0935830293041187 
0.10000000000000184, -1.0930949615376073 
0.11000000000000212, -1.09266037507542 
0.12000000000000241, -1.092468755236201 
0.130000000000002, -1.0927481202022373 
0.1400000000000009, -1.0936882272817896 
0.1499999999999998, -1.0953483619634206 
0.1599999999999987, -1.0976246336274642 
0.1699999999999976, -1.1003000268668837 
0.1799999999999965, -1.1031261314966188 
0.1899999999999954, -1.1058808391434545 
0.1999999999999943, -1.1083897815355628 
0.2099999999999932, -1.1105280815710314 
0.2199999999999921, -1.1122193016411392 
0.229999999999991, -1.1134363434307646 
0.2399999999999899, -1.114198968949654 
0.2499999999999888, -1.114562440323195 
0.2599999999999877, -1.1145998877139138 
0.2699999999999866, -1.1143873379525862 
0.2799999999999855, -1.1139986269703372 
0.2899999999999844, -1.1135109740661413 
0.2999999999999833, -1.1130153678440156 
0.3099999999999822, -1.1126203000935702 
0.3199999999999811, -1.1124368802187221 
0.32999999999998, -1.1125460124918767 
0.3399999999999789, -1.112968476524804 
0.3499999999999778, -1.1136608019420533 
0.35999999999997667, -1.1145368799631528 
0.36999999999997557, -1.115496834901294 
0.37999999999997447, -1.1164483324271977 
0.38999999999997337, -1.1173168541470935 
0.39999999999997227, -1.1180474745014328 
0.40999999999997117, -1.118602069420765 
0.41999999999997006, -1.1189556144050024 
0.42999999999996896, -1.1190940693661924 
0.43999999999996786, -1.119014518154277 
0.44999999999996676, -1.1187264142240334 
0.45999999999996566, -1.1182523533704514 
0.46999999999996456, -1.1176281944282098 
0.47999999999996346, -1.1169035479250926 
0.48999999999996235, -1.1161422907935408 
0.49999999999996125, -1.1154197390378713 
0.5099999999999602, -1.1148126705105381 
0.519999999999959, -1.114383219383815 
0.529999999999958, -1.1141633597065657 
0.5399999999999568, -1.1141466107600755 
0.5499999999999557, -1.1142896265354425 
0.5599999999999546, -1.1145233755899613 
0.5699999999999535, -1.1147698977216407 
0.5799999999999524, -1.1149569894799456 
0.5899999999999513, -1.115025516959362 
0.5999999999999502, -1.1149305533453533 
0.6099999999999491, -1.114640680069399 
0.619999999999948, -1.114137838863958 
0.6299999999999469, -1.1134171945564362 
0.6399999999999458, -1.112486070321833 
0.6499999999999447, -1.1113627084982682 
0.6599999999999436, -1.1100766020235224 
0.6699999999999425, -1.1086711014404473 
0.6799999999999414, -1.1072069993977958 
0.6899999999999403, -1.105764143499137 
0.6999999999999392, -1.1044373119087436 
0.7099999999999381, -1.103322836679834 
0.719999999999937, -1.1024949563475928 
0.7299999999999359, -1.1019784211187997 
0.7399999999999348, -1.1017339493432503 
0.7499999999999337, -1.1016706661703337 
0.7599999999999326, -1.1016781835144573 
0.7699999999999315, -1.1016546006313819 
0.7799999999999304, -1.1015155809478863 
0.7899999999999293, -1.101188437467801 
0.7999999999999282, -1.1006033256013792 
0.8099999999999271, -1.0996910825781934 
0.819999999999926, -1.0983912180219533 
0.8299999999999249, -1.0966668456277255 
0.8399999999999238, -1.0945182875406407 
0.8499999999999227, -1.091988435882296 
0.8599999999999216, -1.0891607367281426 
0.8699999999999205, -1.0861564497617722 
0.8799999999999194, -1.08313474263418 
0.8899999999999183, -1.0802896518310876 
0.8999999999999172, -1.0778296974355732 
0.9099999999999161, -1.0759290897575549 
0.919999999999915, -1.0746633541143178 
0.9299999999999139, -1.0739732544158174 
0.9399999999999128, -1.0736936504875045 
0.9499999999999117, -1.0736274874561984 
0.9599999999999106, -1.0736076021211374 
0.9699999999999095, -1.073514503239106 
0.9799999999999084, -1.0732604138100013 
0.9899999999999073, -1.0727625472341242 
0.9999999999999062, -1.0719202137304205 
1.0099999999999052, -1.0706031112916312 
1.019999999999904, -1.0686578277963357 
1.029999999999903, -1.0659389759881885 
1.039999999999902, -1.0623612947788157 
1.0499999999999008, -1.057951919982361 
1.0599999999998997, -1.052876992869469 
1.0699999999998986, -1.0474342163155697 
1.0799999999998975, -1.0420206913834895 
1.0899999999998964, -1.037079389799453 
1.0999999999998953, -1.0330133188606818 
1.1099999999998942, -1.030072104269491 
1.119999999999893, -1.0282652404513515 
1.129999999999892, -1.0273750069209624 
1.1399999999998909, -1.0270721023050284 
1.1499999999998898, -1.027048013017943 
1.1599999999998887, -1.0270831658803257 
1.1699999999998876, -1.0270440171853654 
1.1799999999998865, -1.0268466351661152 
1.1899999999998854, -1.026417686296271 
1.1999999999998843, -1.0256635418480644 
1.2099999999998832, -1.0244488600915507 
1.219999999999882, -1.0225887558179714 
1.229999999999881, -1.019866483811084 
1.2399999999998799, -1.0160896166066058 
1.2499999999998788, -1.011178458968221 
1.2599999999998777, -1.0052468390846752 
1.2699999999998766, -0.9986254465657861 
1.2799999999998755, -0.9918131668581953 
1.2899999999998744, -0.9853812830291933 
1.2999999999998733, -0.9798573244166189 
1.3099999999998722, -0.9756049175973593 
1.319999999999871, -0.9727323374228309 
1.32999999999987, -0.9710826149429485 
1.3399999999998689, -0.970325226200387 
1.3499999999998678, -0.9700952767087452 
1.3599999999998666, -0.9700970465788297 
1.3699999999998655, -0.9701352752973451 
1.3799999999998644, -0.9700943801785096 
1.3899999999998633, -0.9699008157657316 
1.3999999999998622, -0.9694892653268248 
1.4099999999998611, -0.9687782642183345 
1.41999999999986, -0.9676561701775785 
1.429999999999859, -0.9659816301749306 
1.4399999999998578, -0.9636068245377645 
1.4499999999998567, -0.9604269008137125 
1.4599999999998556, -0.9564394547197177 
1.4699999999998545, -0.9517789245494335 
1.4799999999998534, -0.9467014325886964 
1.4899999999998523, -0.9415322951667487 
1.4999999999998512, -0.9366082645286287 
1.5099999999998501, -0.9322315478912128 
1.519999999999849, -0.9286313380440177 
1.529999999999848, -0.9259278943506176 
1.5399999999998468, -0.9241099980091738 
1.5499999999998457, -0.9230453423907712 
1.5599999999998446, -0.9225282797314603 
1.5699999999998435, -0.9223424650588095 
1.5799999999998424, -0.9223070298631534 
1.5899999999998413, -0.9222918121326578 
1.5999999999998402, -0.9222084875485657 
1.6099999999998391, -0.9219922183169672 
1.619999999999838, -0.9215848754942224 
1.629999999999837, -0.9209256575020713 
1.6399999999998358, -0.9199522908172677 
1.6499999999998347, -0.9186138356489651 
1.6599999999998336, -0.9168907311526994 
1.6699999999998325, -0.9148105104328421 
1.6799999999998314, -0.9124473783276128 
1.6899999999998303, -0.9099053578458353 
1.6999999999998292, -0.907297123879176 
1.709999999999828, -0.9047304949802945 
1.719999999999827, -0.9023046216671604 
1.729999999999826, -0.9001100192426342 
1.7399999999998248, -0.8982257395193207 
1.7499999999998237, -0.8967107582760319 
1.7599999999998226, -0.8955918242710315 
1.7699999999998215, -0.8948542310142305 
1.7799999999998204, -0.8944424728227324 
1.7899999999998193, -0.8942727669569338 
1.7999999999998182, -0.8942519429179422 
1.809999999999817, -0.8942937506346741 
1.819999999999816, -0.8943270020686969 
1.8299999999998149, -0.8942961497629589 
1.8399999999998138, -0.8941586991675876 
1.8499999999998127, -0.8938837609279927 
1.8599999999998116, -0.8934533761779642 
1.8699999999998105, -0.8928648504616673 
1.8799999999998094, -0.8921305141371487 
1.8899999999998083, -0.8912730890481836 
1.8999999999998072, -0.8903189433372903 
1.909999999999806, -0.8892935888426733 
1.919999999999805, -0.8882216970420587 
1.9299999999998039, -0.8871303850015717 
1.9399999999998028, -0.8860529042765182 
1.9499999999998017, -0.8850303929969456 
1.9599999999998006, -0.8841104193001188 
1.9699999999997995, -0.8833419189479599 
1.9799999999997984, -0.8827672327775881 
1.9899999999997973, -0.8824133810417228 
1.9999999999997962, -0.8822856315676608 
2.0099999999998173, -0.8823659470949906 
2.0199999999998384, -0.8826170441940906 
2.0299999999998595, -0.8829904704458406 
2.0399999999998806, -0.883435619994508 
2.0499999999999017, -0.8839068290357774 
2.059999999999923, -0.8843671815421204 
2.069999999999944, -0.8847890473304479 
2.079999999999965, -0.885151947469119 
2.089999999999986, -0.8854387296410986 
2.100000000000007, -0.8856319756325577 
2.1100000000000283, -0.8857132467461104 
2.1200000000000494, -0.8856664723180872 
2.1300000000000705, -0.8854836838925243 
2.1400000000000916, -0.8851694222607586 
2.1500000000001127, -0.8847417992136976 
2.160000000000134, -0.8842315174455706 
2.170000000000155, -0.8836814776560882 
2.180000000000176, -0.8831479245068137 
2.190000000000197, -0.8827012148783417 
2.2000000000002182, -0.8824225225553599 
2.2100000000002393, -0.8823938243790526 
2.2200000000002604, -0.8826826107918706 
2.2300000000002815, -0.8833273183926765 
2.2400000000003026, -0.8843302156988537 
2.2500000000003237, -0.8856601351872155 
2.260000000000345, -0.8872617441694454 
2.270000000000366, -0.8890653783897788 
2.280000000000387, -0.8909927362893557 
2.290000000000408, -0.8929573221030551 
2.3000000000004293, -0.8948628121306855 
2.3100000000004504, -0.8966058090576068 
2.3200000000004715, -0.8980885535666907 
2.3300000000004926, -0.8992395471727234 
2.3400000000005137, -0.9000304357076688 
2.3500000000005348, -0.9004773059295272 
2.360000000000556, -0.9006264277222549 
2.370000000000577, -0.9005355572861824 
2.380000000000598, -0.9002618445065469 
2.390000000000619, -0.8998606527486865 
2.4000000000006403, -0.8993945360110001 
2.4100000000006614, -0.8989496855003735 
2.4200000000006825, -0.8986549488452711 
2.4300000000007036, -0.8986937168095552 
2.4400000000007247, -0.899294580298253 
2.450000000000746, -0.9006911323768085 
2.460000000000767, -0.903059043480259 
2.470000000000788, -0.9064572169111431 
2.480000000000809, -0.9107987646808293 
2.49000000000083, -0.9158565053525939 
2.5000000000008513, -0.9212910330929048 
2.5100000000008724, -0.9266939219462653 
2.5200000000008935, -0.9316518326316026 
2.5300000000009146, -0.9358318119303528 
2.5400000000009357, -0.9390578413392285 
2.550000000000957, -0.9413317453710685 
2.560000000000978, -0.9427851194019237 
2.570000000000999, -0.9436002983969798 
2.58000000000102, -0.9439478077075657 
2.5900000000010412, -0.9439582992909328 
2.6000000000010624, -0.9437213684865859 
2.6100000000010835, -0.9432990033936421 
2.6200000000011046, -0.9427482126481218 
2.6300000000011257, -0.9421545022791509 
2.6400000000011468, -0.9416792187020885 
2.650000000001168, -0.9416136787671116 
2.660000000001189, -0.9424083675047374 
2.67000000000121, -0.9446217600121483 
2.680000000001231, -0.9487527133728619 
2.6900000000012523, -0.9550044651587744 
2.7000000000012734, -0.9631103161505397 
2.7100000000012945, -0.9723347274323967 
2.7200000000013156, -0.9816634829755536 
2.7300000000013367, -0.9901056005791125 
2.740000000001358, -0.996980146301936 
2.750000000001379, -1.0020547493037166 
2.7600000000014, -1.0054813141354007 
2.770000000001421, -1.0076085576730072 
2.780000000001442, -1.0088059583924696 
2.7900000000014633, -1.0093703134170706 
2.8000000000014844, -1.0095053211343297 
2.8100000000015055, -1.0093373817086402 
2.8200000000015266, -1.0089424719055595 
2.8300000000015477, -1.0083772932654558 
2.840000000001569, -1.0077200435880316 
2.85000000000159, -1.0071292831814909 
2.860000000001611, -1.0069163388231985 
2.870000000001632, -1.0075884980883016 
2.8800000000016532, -1.0097781826229775 
2.8900000000016743, -1.0140063622055207 
2.9000000000016954, -1.0203793521969273 
2.9100000000017165, -1.0284376236575001 
2.9200000000017377, -1.0372777655065006 
2.9300000000017588, -1.0458594968103836 
2.94000000000178, -1.0533229704000713 
2.950000000001801, -1.0591888142571158 
2.960000000001822, -1.0633871703369888 
2.970000000001843, -1.066139690066957 
2.9800000000018643, -1.067786647727137 
2.9900000000018854, -1.0686531601907119 
3.0000000000019065, -1.0689886513800742 
3.0100000000019276, -1.068961473217882 
3.0200000000019487, -1.0686796397574427 
3.03000000000197, -1.0682214822455904 
3.040000000001991, -1.0676738032023307 
3.050000000002012, -1.0671788282063188 
3.060000000002033, -1.0669783446701246 
3.070000000002054, -1.0674153613090174 
3.0800000000020753, -1.0688448323679363 
3.0900000000020964, -1.0714694561538989 
3.1000000000021175, -1.0752156900711354 
3.1100000000021386, -1.0797523002433438 
3.1200000000021597, -1.084620115666166 
3.130000000002181, -1.089366497370412 
3.140000000002202, -1.0936265081974061 
3.150000000002223, -1.0971588786866446 
3.160000000002244, -1.099857415634541 
3.1700000000022652, -1.1017404342026764 
3.1800000000022863, -1.1029150057787143 
3.1900000000023074, -1.1035270734024902 
3.2000000000023285, -1.1037189463879378 
3.2100000000023496, -1.1036081830292355 
3.2200000000023707, -1.1032881420558176 
3.230000000002392, -1.102843784979576 
3.240000000002413, -1.102375114461413 
3.250000000002434, -1.1020166257312343 
3.260000000002455, -1.1019334832448389 
3.2700000000024763, -1.1022794283344572 
3.2800000000024974, -1.1031331410008334 
3.2900000000025185, -1.104461482416546 
3.3000000000025396, -1.1061389733624132 
3.3100000000025607, -1.1080009720300557 
3.3200000000025818, -1.1098899836294431 
3.330000000002603, -1.1116774086585495 
3.340000000002624, -1.113266372953856 
3.350000000002645, -1.1145875606029776 
3.360000000002666, -1.1155963713125552 
3.3700000000026873, -1.1162735616038086 
3.3800000000027084, -1.11662620169063 
3.3900000000027295, -1.1166846521358529 
3.4000000000027506, -1.1164953229431078 
3.4100000000027717, -1.1161137560744636 
3.420000000002793, -1.1156028157032414 
3.430000000002814, -1.1150361581260295 
3.440000000002835, -1.1145009690968872 
3.450000000002856, -1.1140908408174306 
3.460000000002877, -1.1138852586573096 
3.4700000000028983, -1.1139255057240123 
3.4800000000029194, -1.1142032450134267 
3.4900000000029405, -1.1146676465456475 
3.5000000000029616, -1.1152432997283115 
3.5100000000029827, -1.1158489081758232 
3.520000000003004, -1.1164111943664292 
3.530000000003025, -1.1168720842103457 
3.540000000003046, -1.1171899782512071 
3.550000000003067, -1.1173376770565957 
3.5600000000030882, -1.117299445590063 
3.5700000000031094, -1.1170687676097815 
3.5800000000031305, -1.1166476066054196 
3.5900000000031516, -1.1160472675387223 
3.6000000000031727, -1.115290285731851 
3.6100000000031938, -1.1144126707718462 
3.620000000003215, -1.1134657683081532 
3.630000000003236, -1.1125159599275518 
3.640000000003257, -1.1116393899480723 
3.650000000003278, -1.1109103011829384 
3.6600000000032993, -1.1103850609447594 
3.6700000000033204, -1.1100865141281635 
3.6800000000033415, -1.1099946974043573 
3.6900000000033626, -1.1100502720044938 
3.7000000000033837, -1.1101712560102708 
3.710000000003405, -1.1102734803842575 
3.720000000003426, -1.1102833239683791 
3.730000000003447, -1.1101402857416365 
3.740000000003468, -1.1097951937670467 
3.750000000003489, -1.1092101744176988 
3.7600000000035103, -1.1083617942595043 
3.7700000000035314, -1.1072445504118356 
3.7800000000035525, -1.1058716564922475 
3.7900000000035736, -1.1042734152797244 
3.8000000000035947, -1.102496275982754 
3.810000000003616, -1.1006048507111603 
3.820000000003637, -1.0986857788623414 
3.830000000003658, -1.0968489322362427 
3.840000000003679, -1.0952192429983634 
3.8500000000037002, -1.0939129807791508 
3.8600000000037213, -1.0930003969889237 
3.8700000000037424, -1.092473464341601 
3.8800000000037635, -1.0922453457946777 
3.8900000000037847, -1.0921860715808054 
3.9000000000038058, -1.0921665399045586 
3.910000000003827, -1.0920813882744693 
3.920000000003848, -1.0918463750363963 
3.930000000003869, -1.0913836699058308 
3.94000000000389, -1.0906090824760362 
3.9500000000039113, -1.0894299776315661 
3.9600000000039324, -1.0877577393085929 
3.9700000000039535, -1.0855320203523746 
3.9800000000039746, -1.082745939696728 
3.9900000000039957, -1.0794598490910985 
4.000000000004016, -1.0758009498434489 
4.010000000003993, -1.0719565187738596 
4.02000000000397, -1.0681661294349671 
4.030000000003946, -1.0647044914636354 
4.040000000003923, -1.061837011089065 
4.0500000000039, -1.0597438831955028 
4.0600000000038765, -1.0584482789226812 
4.070000000003853, -1.057808367315611 
4.08000000000383, -1.0575896302193208 
4.090000000003807, -1.0575610448211636 
4.100000000003783, -1.0575497934930256 
4.11000000000376, -1.0574419337574084 
4.120000000003737, -1.057154677248317 
4.130000000003713, -1.0566047251917652 
4.14000000000369, -1.05568332481798 
4.150000000003667, -1.054242876237237 
4.1600000000036434, -1.0521027895217312 
4.17000000000362, -1.0490846119117 
4.180000000003597, -1.0450763540022694 
4.1900000000035735, -1.0401026669486042 
4.20000000000355, -1.0343640853570706 
4.210000000003527, -1.0282263812007955 
4.220000000003504, -1.0221691825378825 
4.23000000000348, -1.0167057076320452 
4.240000000003457, -1.012273720099095 
4.250000000003434, -1.0091140842415487 
4.26000000000341, -1.007197299446908 
4.270000000003387, -1.006261392501601 
4.280000000003364, -1.0059451942960904 
4.2900000000033405, -1.0059232990702127 
4.300000000003317, -1.005969044038967 
4.310000000003294, -1.0059469277411464 
4.320000000003271, -1.0057741987398912 
4.330000000003247, -1.0053816069377859 
4.340000000003224, -1.0046830825523432 
4.350000000003201, -1.003555050393898 
4.360000000003177, -1.0018285459914231 
4.370000000003154, -0.999304601286711 
4.380000000003131, -0.9958047883720076 
4.390000000003107, -0.9912515922659461 
4.400000000003084, -0.9857418042227473 
4.410000000003061, -0.9795659613496419 
4.4200000000030375, -0.9731613415857957 
4.430000000003014, -0.9670269712435662 
4.440000000002991, -0.9616307877074572 
4.450000000002968, -0.957319567223031 
4.460000000002944, -0.9542440769212807 
4.470000000002921, -0.9523321494986122 
4.480000000002898, -0.9513370993650838 
4.490000000002874, -0.9509417148631638 
4.500000000002851, -0.9508578269255645 
4.510000000002828, -0.9508756377746481 
4.520000000002804, -0.950862099832535 
4.530000000002781, -0.9507337527015561 
4.540000000002758, -0.9504263967834324 
4.5500000000027345, -0.9498715766479409 
4.560000000002711, -0.9489828665257007 
4.570000000002688, -0.9476550087977792 
4.580000000002665, -0.9457807877474252 
4.590000000002641, -0.9432863915474314 
4.600000000002618, -0.9401722740714126 
4.610000000002595, -0.9365345144432162 
4.620000000002571, -0.9325510236758714 
4.630000000002548, -0.928443632178276 
4.640000000002525, -0.924440712501909 
4.6500000000025015, -0.9207530774580981 
4.660000000002478, -0.917558033033011 
4.670000000002455, -0.9149816491077807 
4.6800000000024315, -0.9130780572628827 
4.690000000002408, -0.9118165738775879 
4.700000000002385, -0.911090252701339 
4.710000000002362, -0.9107475276157194 
4.720000000002338, -0.9106319990515417 
4.730000000002315, -0.9106111270693866 
4.740000000002292, -0.9105853736485449 
4.750000000002268, -0.9104822868696216 
4.760000000002245, -0.910245082634869 
4.770000000002222, -0.9098236404352843 
4.7800000000021985, -0.9091724893411814 
4.790000000002175, -0.9082570163685988 
4.800000000002152, -0.9070647142410276 
4.810000000002129, -0.9056137614390751 
4.820000000002105, -0.9039515407741678 
4.830000000002082, -0.9021432013405517 
4.840000000002059, -0.900258197401892 
4.850000000002035, -0.8983626129319326 
4.860000000002012, -0.896518616226278 
4.870000000001989, -0.894787055317982 
4.880000000001965, -0.89322835076669 
4.890000000001942, -0.8918988768133541 
4.900000000001919, -0.890842808605466 
4.9100000000018955, -0.8900820588398988 
4.920000000001872, -0.8896088056817766 
4.930000000001849, -0.8893849849584484 
