t, s[1].omega / s[0].omega 
0, -0.7499976722610896 
0.009999999999999995, -0.7497439040236709 
0.019999999999999934, -0.7494455513042592 
0.029999999999999874, -0.7490958299536067 
0.04000000000000012, -0.7486893556377388 
0.050000000000000405, -0.7482270559028908 
0.06000000000000069, -0.7477188067053746 
0.07000000000000098, -0.74718418268979 
0.08000000000000126, -0.746652941057571 
0.09000000000000155, -0.7461663112548568 
0.10000000000000184, -0.745778809215628 
0.11000000000000212, -0.7455591954037799 
0.12000000000000241, -0.7455888937227446 
0.130000000000002, -0.7459568577733591 
0.1400000000000009, -0.7467512610826257 
0.1499999999999998, -0.7480496372235893 
0.1599999999999987, -0.7499091045275306 
0.1699999999999976, -0.7523567060414339 
0.1799999999999965, -0.7553777505122325 
0.1899999999999954, -0.758899771682131 
0.1999999999999943, -0.7627742652398958 
0.2099999999999932, -0.7667686322126157 
0.2199999999999921, -0.7705896843359008 
0.229999999999991, -0.7739500035611531 
0.2399999999999899, -0.7766519029948082 
0.2499999999999888, -0.7786352971949385 
0.2599999999999877, -0.7799601938001974 
0.2699999999999866, -0.7807481797174288 
0.2799999999999855, -0.7811267588341646 
0.2899999999999844, -0.7811984952511065 
0.2999999999999833, -0.7810321386030611 
0.3099999999999822, -0.7806650904988259 
0.3199999999999811, -0.7801097756441148 
0.32999999999998, -0.7793617979904267 
0.3399999999999789, -0.7784121541124968 
0.3499999999999778, -0.777269411352097 
0.35999999999997667, -0.77600011532594 
0.36999999999997557, -0.7747922270759363 
0.37999999999997447, -0.7740262427947366 
0.38999999999997337, -0.7742919572653347 
0.39999999999997227, -0.7762422706741321 
0.40999999999997117, -0.7802376063045269 
0.41999999999997006, -0.7859907035306413 
0.42999999999996896, -0.792600898907461 
0.43999999999996786, -0.7990235267259339 
0.44999999999996676, -0.8045291749594579 
0.45999999999996566, -0.8088299532189177 
0.46999999999996456, -0.8119620476972855 
0.47999999999996346, -0.814118619546913 
0.48999999999996235, -0.8155276130367037 
0.49999999999996125, -0.8163882294257695 
0.5099999999999602, -0.8168491204124082 
0.519999999999959, -0.8170075249571763 
0.529999999999958, -0.8169146826729422 
0.5399999999999568, -0.8165795672898577 
0.5499999999999557, -0.8159671352711374 
0.5599999999999546, -0.814989374979465 
0.5699999999999535, -0.8134895825518674 
0.5799999999999524, -0.8112258736116906 
0.5899999999999513, -0.8078729916552968 
0.5999999999999502, -0.8030798894061265 
0.6099999999999491, -0.7966190323454447 
0.619999999999948, -0.7885946850258537 
0.6299999999999469, -0.7795595395847295 
0.6399999999999458, -0.7703879612747022 
0.6499999999999447, -0.7619609161017904 
0.6599999999999436, -0.7548893656926141 
0.6699999999999425, -0.7494218382233337 
0.6799999999999414, -0.7455059617475842 
0.6899999999999403, -0.742907206036745 
0.6999999999999392, -0.7413186181873103 
0.7099999999999381, -0.7404377184435316 
0.719999999999937, -0.7400090203436555 
0.7299999999999359, -0.7398388593662142 
0.7399999999999348, -0.7397918667177223 
0.7499999999999337, -0.7397782710049452 
0.7599999999999326, -0.7397390839419156 
0.7699999999999315, -0.739633421769108 
0.7799999999999304, -0.7394300118822772 
0.7899999999999293, -0.7391037191797492 
0.7999999999999282, -0.7386370621934504 
0.8099999999999271, -0.7380251383564238 
0.819999999999926, -0.7372800965214453 
0.8299999999999249, -0.7364304366666985 
0.8399999999999238, -0.7355135045245567 
0.8499999999999227, -0.7345649928920194 
0.8599999999999216, -0.7336116504071869 
0.8699999999999205, -0.7326704408635958 
0.8799999999999194, -0.7317527222952213 
0.8899999999999183, -0.7308698619854921 
0.8999999999999172, -0.7300375779216892 
0.9099999999999161, -0.7292781429731112 
0.919999999999915, -0.7286206722686475 
0.9299999999999139, -0.7280998313307597 
0.9399999999999128, -0.7277531520548084 
0.9499999999999117, -0.727617292061292 
0.9599999999999106, -0.7277240100262257 
0.9699999999999095, -0.728096942046186 
0.9799999999999084, -0.7287500574062623 
0.9899999999999073, -0.7296878964219402 
0.9999999999999062, -0.7309066544508054 
1.0099999999999052, -0.7323943037708835 
1.019999999999904, -0.7341276468054814 
1.029999999999903, -0.736065012932497 
1.039999999999902, -0.738136042043039 
1.0499999999999008, -0.7402348014407659 
1.0599999999998997, -0.7422264203166649 
1.0699999999998986, -0.7439734853729192 
1.0799999999998975, -0.745373322995801 
1.0899999999998964, -0.7463836767442842 
1.0999999999998953, -0.7470209409051239 
1.1099999999998942, -0.7473369388272089 
1.119999999999893, -0.7473924202788449 
1.129999999999892, -0.7472397529509416 
1.1399999999998909, -0.7469166625528187 
1.1499999999998898, -0.7464479395408415 
1.1599999999998887, -0.7458527825466131 
1.1699999999998876, -0.7451583981311926 
1.1799999999998865, -0.7444234534915644 
1.1899999999998854, -0.7437765681318104 
1.1999999999998843, -0.7434722200153029 
1.2099999999998832, -0.7439527696208426 
1.219999999999882, -0.7458728946676355 
1.229999999999881, -0.7499971598362176 
1.2399999999998799, -0.7568775358920907 
1.2499999999998788, -0.7663717598835038 
1.2599999999998777, -0.7773790710623995 
1.2699999999998766, -0.7882229099081199 
1.2799999999998755, -0.7974882624898618 
1.2899999999998744, -0.8045607492693969 
1.2999999999998733, -0.8095362536800321 
1.3099999999998722, -0.8128428794423124 
1.319999999999871, -0.8149464270909009 
1.32999999999987, -0.8162233767142913 
1.3399999999998689, -0.8169383621693858 
1.3499999999998678, -0.8172609788694993 
1.3599999999998666, -0.8172884701318898 
1.3699999999998655, -0.8170621757718781 
1.3799999999998644, -0.8165745837418182 
1.3899999999998633, -0.8157662784604088 
1.3999999999998622, -0.8145124078138914 
1.4099999999998611, -0.8125998376154288 
1.41999999999986, -0.8097034779105782 
1.429999999999859, -0.8053893991991256 
1.4399999999998578, -0.799200825006799 
1.4499999999998567, -0.7908811402535844 
1.4599999999998556, -0.7806768929855042 
1.4699999999998545, -0.7694739759412206 
1.4799999999998534, -0.7585399159118369 
1.4899999999998523, -0.7490117237721462 
1.4999999999998512, -0.7415224331563691 
1.5099999999998501, -0.7361590496476285 
1.519999999999849, -0.7326396249407232 
1.529999999999848, -0.7305267556996163 
1.5399999999998468, -0.7293808538192053 
1.5499999999998457, -0.7288381464736224 
1.5599999999998446, -0.7286326366910997 
1.5699999999998435, -0.7285864942708494 
1.5799999999998424, -0.7285879474153194 
1.5899999999998413, -0.7285682081244593 
1.5999999999998402, -0.7284827335810183 
1.6099999999998391, -0.7282983838824811 
1.619999999999838, -0.7279865881973451 
1.629999999999837, -0.727522446326802 
1.6399999999998358, -0.7268892930294901 
1.6499999999998347, -0.7260863626723326 
1.6599999999998336, -0.7251343549949749 
1.6699999999998325, -0.7240733208615435 
1.6799999999998314, -0.7229521505525331 
1.6899999999998303, -0.721815614230366 
1.6999999999998292, -0.7206964205976278 
1.709999999999828, -0.719615070489146 
1.719999999999827, -0.7185849663231859 
1.729999999999826, -0.7176185768838803 
1.7399999999998248, -0.7167318997590775 
1.7499999999998237, -0.7159464711140457 
1.7599999999998226, -0.7152892376171701 
1.7699999999998215, -0.7147907873417154 
1.7799999999998204, -0.7144824130847268 
1.7899999999998193, -0.7143926460200125 
1.7999999999998182, -0.7145441426760583 
1.809999999999817, -0.7149518046519716 
1.819999999999816, -0.7156225664934718 
1.8299999999998149, -0.7165565030879748 
1.8399999999998138, -0.7177480679718745 
1.8499999999998127, -0.719185664527396 
1.8599999999998116, -0.7208476770363894 
1.8699999999998105, -0.7226941146765106 
1.8799999999998094, -0.7246559811280359 
1.8899999999998083, -0.7266292921572857 
1.8999999999998072, -0.7284837841434744 
1.909999999999806, -0.7300907588462409 
1.919999999999805, -0.7313588568004239 
1.9299999999998039, -0.7322555274855781 
1.9399999999998028, -0.7328017245153662 
1.9499999999998017, -0.7330483617676021 
1.9599999999998006, -0.7330519222061679 
1.9699999999997995, -0.7328595215933897 
1.9799999999997984, -0.7325041010690472 
1.9899999999997973, -0.7320066967305413 
1.9999999999997962, -0.7313839178019745 
2.0099999999998173, -0.7306616376961478 
2.0199999999998384, -0.7298986617943619 
2.0299999999998595, -0.7292254065155983 
2.0399999999998806, -0.7288991158391722 
2.0499999999999017, -0.7293618731458218 
2.059999999999923, -0.731252813589047 
2.069999999999944, -0.735281312392521 
2.079999999999965, -0.7418815598330818 
2.089999999999986, -0.7507610314356006 
2.100000000000007, -0.7607602712519739 
2.1100000000000283, -0.7703499082836552 
2.1200000000000494, -0.7783947546974548 
2.1300000000000705, -0.7844956401276909 
2.1400000000000916, -0.7888060209517488 
2.1500000000001127, -0.791703454858002 
2.160000000000134, -0.7935735794454648 
2.170000000000155, -0.7947251889057465 
2.180000000000176, -0.7953772118234997 
2.190000000000197, -0.7956716109193723 
2.2000000000002182, -0.795689921052807 
2.2100000000002393, -0.7954649882103139 
2.2200000000002604, -0.7949852830518747 
2.2300000000002815, -0.7941910071486658 
2.2400000000003026, -0.7929620969753424 
2.2500000000003237, -0.7911010660534743 
2.260000000000345, -0.7883223115228584 
2.270000000000366, -0.7842765477368167 
2.280000000000387, -0.7786529750939771 
2.290000000000408, -0.771371187702739 
2.3000000000004293, -0.7627670168443628 
2.3100000000004504, -0.7535903783015626 
2.3200000000004715, -0.7447528783558937 
2.3300000000004926, -0.7370029762796352 
2.3400000000005137, -0.7307465787503422 
2.3500000000005348, -0.7260555586393108 
2.360000000000556, -0.7227741385645637 
2.370000000000577, -0.720634594926153 
2.380000000000598, -0.7193438226313076 
2.390000000000619, -0.7186355739119207 
2.4000000000006403, -0.7182946714836989 
2.4100000000006614, -0.7181615837848502 
2.4200000000006825, -0.7181253712936759 
2.4300000000007036, -0.7181116878852013 
2.4400000000007247, -0.7180705652149155 
2.450000000000746, -0.7179667536481096 
2.460000000000767, -0.7177739856455242 
2.470000000000788, -0.7174735877794595 
2.480000000000809, -0.7170567407494775 
2.49000000000083, -0.7165279297794005 
2.5000000000008513, -0.7159057118439248 
2.5100000000008724, -0.7152180614223591 
2.5200000000008935, -0.7144936652067321 
2.5300000000009146, -0.7137541164871264 
2.5400000000009357, -0.7130113078605749 
2.550000000000957, -0.7122703756138766 
2.560000000000978, -0.7115353044132681 
2.570000000000999, -0.710814015394118 
2.58000000000102, -0.710121519412944 
2.5900000000010412, -0.7094813896166522 
2.6000000000010624, -0.708926248056309 
2.6100000000010835, -0.708497491023022 
2.6200000000011046, -0.7082439645087171 
2.6300000000011257, -0.7082192852601691 
2.6400000000011468, -0.708477984071811 
2.650000000001168, -0.7090712307402516 
2.660000000001189, -0.7100430564734166 
2.67000000000121, -0.7114273859904777 
2.680000000001231, -0.7132449264960348 
2.6900000000012523, -0.7154975931594241 
2.7000000000012734, -0.7181577026967898 
2.7100000000012945, -0.721151273733711 
2.7200000000013156, -0.7243412043408737 
2.7300000000013367, -0.7275255290790723 
2.740000000001358, -0.7304684587033334 
2.750000000001379, -0.7329631990812433 
2.7600000000014, -0.7348929539712883 
2.770000000001421, -0.7362492487461517 
2.780000000001442, -0.7371018886705525 
2.7900000000014633, -0.737550667498007 
2.8000000000014844, -0.737688411494633 
2.8100000000015055, -0.7375837067804194 
2.8200000000015266, -0.7372774443481639 
2.8300000000015477, -0.736785484964796 
2.840000000001569, -0.7361032441553522 
2.85000000000159, -0.7352117612366939 
2.860000000001611, -0.7340877486164179 
2.870000000001632, -0.7327222118403974 
2.8800000000016532, -0.7311518677314004 
2.8900000000016743, -0.7294995521078169 
2.9000000000016954, -0.7279975531892929 
2.9100000000017165, -0.7269414971092911 
2.9200000000017377, -0.7265495520204165 
2.9300000000017588, -0.7268335285397789 
2.94000000000178, -0.7276545047069221 
2.950000000001801, -0.7288865155010817 
2.960000000001822, -0.7304324728693334 
2.970000000001843, -0.7321357323834821 
2.9800000000018643, -0.7337902746485547 
2.9900000000018854, -0.7352274579571045 
3.0000000000019065, -0.7363639911177164 
3.0100000000019276, -0.7371902347629431 
3.0200000000019487, -0.7377358653219049 
3.03000000000197, -0.7380405687425571 
3.040000000001991, -0.7381364602303137 
3.050000000002012, -0.7380390298804594 
3.060000000002033, -0.7377419933058154 
3.070000000002054, -0.7372130850806139 
3.0800000000020753, -0.736390390831722 
3.0900000000020964, -0.7351822888677406 
3.1000000000021175, -0.7334783772747722 
3.1100000000021386, -0.7311805036754083 
3.1200000000021597, -0.7282539162765823 
3.130000000002181, -0.7247752488819635 
3.140000000002202, -0.7209379631118188 
3.150000000002223, -0.7169999228790154 
3.160000000002244, -0.7132067024672517 
3.1700000000022652, -0.7097389729965812 
3.1800000000022863, -0.7067010626330612 
3.1900000000023074, -0.7041358981270911 
3.2000000000023285, -0.7020458136373108 
3.2100000000023496, -0.7004083515012794 
3.2200000000023707, -0.6991854619790595 
3.230000000002392, -0.6983285759954263 
3.240000000002413, -0.6977823242857453 
3.250000000002434, -0.6974884205439612 
3.260000000002455, -0.6973898349935259 
3.2700000000024763, -0.6974345803137038 
3.2800000000024974, -0.6975783989487778 
3.2900000000025185, -0.6977861203049082 
3.3000000000025396, -0.6980319598503361 
3.3100000000025607, -0.6982991334341869 
3.3200000000025818, -0.698578732791762 
3.330000000002603, -0.6988671986674481 
3.340000000002624, -0.6991617368052576 
3.350000000002645, -0.6994543080053237 
3.360000000002666, -0.699726865812172 
3.3700000000026873, -0.6999513807819062 
3.3800000000027084, -0.7000960820786545 
3.3900000000027295, -0.7001350348291243 
3.4000000000027506, -0.7000554863774051 
3.4100000000027717, -0.6998594166660679 
3.420000000002793, -0.6995604400292319 
3.430000000002814, -0.6991800274657367 
3.440000000002835, -0.6987464901469026 
3.450000000002856, -0.6982983257583067 
3.460000000002877, -0.6978922627603865 
3.4700000000028983, -0.6976157428612171 
3.4800000000029194, -0.6976028215571066 
3.4900000000029405, -0.6980507719784862 
3.5000000000029616, -0.6992317068973257 
3.5100000000029827, -0.7014893285195224 
3.520000000003004, -0.7052058485429467 
3.530000000003025, -0.7107200987914808 
3.540000000003046, -0.7181830924389804 
3.550000000003067, -0.7273721401703266 
3.5600000000030882, -0.7375652501397629 
3.5700000000031094, -0.7476454391330759 
3.5800000000031305, -0.75649513837693 
3.5900000000031516, -0.7634402720657888 
3.6000000000031727, -0.7683970756010347 
3.6100000000031938, -0.7716821336872534 
3.620000000003215, -0.773733893419634 
3.630000000003236, -0.7749379871265354 
3.640000000003257, -0.7755723495390223 
3.650000000003278, -0.7758143878425361 
3.6600000000032993, -0.7757641233159969 
3.6700000000033204, -0.7754631866925938 
3.6800000000033415, -0.7749040817474937 
3.6900000000033626, -0.7740288260724583 
3.7000000000033837, -0.7727165251169276 
3.710000000003405, -0.7707595714996255 
3.720000000003426, -0.7678320607905981 
3.730000000003447, -0.7634688877229869 
3.740000000003468, -0.7571082350154476 
3.750000000003489, -0.7482882289159561 
3.7600000000035103, -0.7370357778822203 
3.7700000000035314, -0.7242252691726538 
3.7800000000035525, -0.7114504079289369 
3.7900000000035736, -0.7003166635414133 
3.8000000000035947, -0.6917461895402118 
3.810000000003616, -0.685830822090858 
3.820000000003637, -0.6821275468853389 
3.830000000003658, -0.6800202372900298 
3.840000000003679, -0.678945632336948 
3.8500000000037002, -0.6784775786472459 
3.8600000000037213, -0.6783287239292689 
3.8700000000037424, -0.6783200565297827 
3.8800000000037635, -0.678345704094017 
3.8900000000037847, -0.6783438494106182 
3.9000000000038058, -0.6782761098789993 
3.910000000003827, -0.6781145223300447 
3.920000000003848, -0.6778348471227671 
3.930000000003869, -0.6774154937866517 
3.94000000000389, -0.676841567279333 
3.9500000000039113, -0.6761121846572753 
3.9600000000039324, -0.6752465214129403 
3.9700000000039535, -0.6742829282581962 
3.9800000000039746, -0.6732692743642478 
3.9900000000039957, -0.6722494720958718 
4.000000000004016, -0.6712540356847387 
4.010000000003993, -0.6702987409265966 
4.02000000000397, -0.6693896734459964 
4.030000000003946, -0.6685303090104082 
4.040000000003923, -0.667727267570325 
4.0500000000039, -0.6669936713363511 
4.0600000000038765, -0.666350576334952 
4.070000000003853, -0.6658272375988041 
4.08000000000383, -0.6654605934603164 
4.090000000003807, -0.6652940193550032 
4.100000000003783, -0.6653754028322382 
4.11000000000376, -0.6657548220416013 
4.120000000003737, -0.6664822625004244 
4.130000000003713, -0.667605573377791 
4.14000000000369, -0.66916808545439 
4.150000000003667, -0.6712040720375259 
4.1600000000036434, -0.6737289963622916 
4.17000000000362, -0.676721485899114 
4.180000000003597, -0.6800976683324291 
4.1900000000035735, -0.6836884218631882 
4.20000000000355, -0.6872427224695676 
4.210000000003527, -0.6904784053098113 
4.220000000003504, -0.6931680129689142 
4.23000000000348, -0.6952062311237014 
4.240000000003457, -0.6966137829785578 
4.250000000003434, -0.6974884132116009 
4.26000000000341, -0.6979473341371689 
4.270000000003387, -0.6980904874605528 
4.280000000003364, -0.6979864849194312 
4.2900000000033405, -0.6976710806823861 
4.300000000003317, -0.6971490674673675 
4.310000000003294, -0.6963946603114011 
4.320000000003271, -0.6953482397913815 
4.330000000003247, -0.6939084498720447 
4.340000000003224, -0.6919188822879756 
4.350000000003201, -0.6891491942271755 
4.360000000003177, -0.685275571906163 
4.370000000003154, -0.6798871066893265 
4.380000000003131, -0.6725956244317001 
4.390000000003107, -0.6633475734086776 
4.400000000003084, -0.6528252836782134 
4.410000000003061, -0.6424384527662796 
4.4200000000030375, -0.6336380426124233 
4.430000000003014, -0.6271765556092154 
4.440000000002991, -0.6229927437946096 
4.450000000002968, -0.6205748535403807 
4.460000000002944, -0.6193346176381278 
4.470000000002921, -0.6187945042923804 
4.480000000002898, -0.6186270915567538 
4.490000000002874, -0.6186295641113555 
4.500000000002851, -0.6186842781804069 
4.510000000002828, -0.6187252169016244 
4.520000000002804, -0.618714465253534 
4.530000000002781, -0.6186273916449434 
4.540000000002758, -0.6184444053035862 
4.5500000000027345, -0.6181479084446877 
4.560000000002711, -0.617723848051017 
4.570000000002688, -0.6171670401178544 
4.580000000002665, -0.616487643669476 
4.590000000002641, -0.6157139896153419 
4.600000000002618, -0.6148876411438607 
4.610000000002595, -0.6140516610069975 
4.620000000002571, -0.613238522797477 
4.630000000002548, -0.6124642437972191 
4.640000000002525, -0.6117304463506265 
4.6500000000025015, -0.6110313110572805 
4.660000000002478, -0.6103610713428682 
4.670000000002455, -0.6097193190730034 
4.6800000000024315, -0.6091138079046121 
4.690000000002408, -0.6085619277966032 
4.700000000002385, -0.6080921665667709 
4.710000000002362, -0.607746272633015 
4.720000000002338, -0.6075821891653427 
4.730000000002315, -0.6076774396224344 
4.740000000002292, -0.6081324605813649 
4.750000000002268, -0.60907317866359 
4.760000000002245, -0.6106515360541124 
4.770000000002222, -0.6130411021311285 
4.7800000000021985, -0.6164217654062295 
4.790000000002175, -0.6209431749110346 
4.800000000002152, -0.6266553427185915 
4.810000000002129, -0.6334087624409711 
4.820000000002105, -0.6407700994531639 
4.830000000002082, -0.6480523550705432 
4.840000000002059, -0.6545254635408284 
4.850000000002035, -0.6597010892191089 
4.860000000002012, -0.6634691158404865 
4.870000000001989, -0.6660096933739953 
4.880000000001965, -0.6676139051655754 
4.890000000001942, -0.6685536877601402 
4.900000000001919, -0.6690316664093958 
4.9100000000018955, -0.6691787621221235 
4.920000000001872, -0.6690668369810728 
