t, s[1].omega / s[0].omega 
0, -0.3599977920046685 
0.009999999999999995, -0.359832165444013 
0.019999999999999934, -0.3597633633250987 
0.029999999999999874, -0.35975793809322393 
0.04000000000000012, -0.3597711564872893 
0.050000000000000405, -0.3597591959977531 
0.06000000000000069, -0.35968856203049276 
0.07000000000000098, -0.35953906218171244 
0.08000000000000126, -0.3593007000339498 
0.09000000000000155, -0.35896747689677705 
0.10000000000000184, -0.35853063687660536 
0.11000000000000212, -0.3579717989675558 
0.12000000000000241, -0.3572543007630254 
0.130000000000002, -0.35630910112074077 
0.1400000000000009, -0.3550092655673434 
0.1499999999999998, -0.353125575633104 
0.1599999999999987, -0.35026374256555304 
0.1699999999999976, -0.3458264736960841 
0.1799999999999965, -0.3391439205342835 
0.1899999999999954, -0.32994800203351604 
0.1999999999999943, -0.31896266520741323 
0.2099999999999932, -0.3078018782478043 
0.2199999999999921, -0.29800483199892536 
0.229999999999991, -0.2902803499983784 
0.2399999999999899, -0.28457314312739157 
0.2499999999999888, -0.28048701226403544 
0.2599999999999877, -0.2775908784494181 
0.2699999999999866, -0.2755373031129055 
0.2799999999999855, -0.2740788305508105 
0.2899999999999844, -0.2730505534081657 
0.2999999999999833, -0.2723487390161422 
0.3099999999999822, -0.271914484608251 
0.3199999999999811, -0.2717237556101532 
0.32999999999998, -0.2717833014559289 
0.3399999999999789, -0.27213206412002766 
0.3499999999999778, -0.2728483711067521 
0.35999999999997667, -0.2740638381520475 
0.36999999999997557, -0.2759847010354973 
0.37999999999997447, -0.27891799672062695 
0.38999999999997337, -0.28328774633457793 
0.39999999999997227, -0.2895945396832494 
0.40999999999997117, -0.2982213060971685 
0.41999999999997006, -0.3090014888023954 
0.42999999999996896, -0.32076689084422866 
0.43999999999996786, -0.33158077354885823 
0.44999999999996676, -0.3398940391155979 
0.45999999999996566, -0.34540822258377457 
0.46999999999996456, -0.3487457909761568 
0.47999999999996346, -0.35069631531755296 
0.48999999999996235, -0.351838737800476 
0.49999999999996125, -0.3525157849818004 
0.5099999999999602, -0.352913602460791 
0.519999999999959, -0.3531310086844809 
0.529999999999958, -0.35322048578542714 
0.5399999999999568, -0.353209726191373 
0.5499999999999557, -0.35311308001934105 
0.5599999999999546, -0.35293868543132345 
0.5699999999999535, -0.35269435470314814 
0.5799999999999524, -0.3523933018154264 
0.5899999999999513, -0.3520588743567586 
0.5999999999999502, -0.3517258978054175 
0.6099999999999491, -0.3514364248028663 
0.619999999999948, -0.35123025926307927 
0.6299999999999469, -0.3511336713196918 
0.6399999999999458, -0.35115060854238855 
0.6499999999999447, -0.35125960596747985 
0.6599999999999436, -0.351418151822495 
0.6699999999999425, -0.35157400163379326 
0.6799999999999414, -0.35167911313553857 
0.6899999999999403, -0.3516995317177507 
0.6999999999999392, -0.3516171670545243 
0.7099999999999381, -0.3514246941668788 
0.719999999999937, -0.35111754454644867 
0.7299999999999359, -0.3506857716136539 
0.7399999999999348, -0.3501058782123717 
0.7499999999999337, -0.34933044093906696 
0.7599999999999326, -0.3482717606785061 
0.7699999999999315, -0.3467749428414251 
0.7799999999999304, -0.3445789936227858 
0.7899999999999293, -0.34128289853569116 
0.7999999999999282, -0.33638412493326747 
0.8099999999999271, -0.32951075952515346 
0.819999999999926, -0.3208481602811686 
0.8299999999999249, -0.3113596625592349 
0.8399999999999238, -0.30235456033508445 
0.8499999999999227, -0.29476583272859724 
0.8599999999999216, -0.2888708276441721 
0.8699999999999205, -0.2844970560218961 
0.8799999999999194, -0.2813152689191719 
0.8899999999999183, -0.2790094882910344 
0.8999999999999172, -0.2773337222486825 
0.9099999999999161, -0.2761146330742304 
0.919999999999915, -0.2752380314347481 
0.9299999999999139, -0.2746348061871312 
0.9399999999999128, -0.2742709751799327 
0.9499999999999117, -0.2741427166572501 
0.9599999999999106, -0.27427646378722087 
0.9699999999999095, -0.27473450207549444 
0.9799999999999084, -0.2756272356591466 
0.9899999999999073, -0.2771338177926027 
0.9999999999999062, -0.2795317626457787 
1.0099999999999052, -0.28322919741535973 
1.019999999999904, -0.28877008649589014 
1.029999999999903, -0.29672860047424576 
1.039999999999902, -0.307349502769568 
1.0499999999999008, -0.319924653412497 
1.0599999999998997, -0.3324971320685955 
1.0699999999998986, -0.3428006061526462 
1.0799999999998975, -0.3497969170095208 
1.0899999999998964, -0.3539423103398556 
1.0999999999998953, -0.35624591497824454 
1.1099999999998942, -0.3575272432224176 
1.119999999999893, -0.35826741334988493 
1.129999999999892, -0.35871166357244716 
1.1399999999998909, -0.3589795159114902 
1.1499999999998898, -0.35912976376318895 
1.1599999999998887, -0.3591921876817943 
1.1699999999998876, -0.35918224541412713 
1.1799999999998865, -0.3591083945850619 
1.1899999999998854, -0.35897684142401315 
1.1999999999998843, -0.3587958776212218 
1.2099999999998832, -0.35858025352866507 
1.219999999999882, -0.35835447655670094 
1.229999999999881, -0.35815284738968856 
1.2399999999998799, -0.3580145252810052 
1.2499999999998788, -0.3579741701891028 
1.2599999999998777, -0.35805109146233305 
1.2699999999998766, -0.358240709483156 
1.2799999999998755, -0.3585119098674021 
1.2899999999998744, -0.35881292416733224 
1.2999999999998733, -0.3590850954233019 
1.3099999999998722, -0.35927856182707046 
1.319999999999871, -0.35936174729515286 
1.32999999999987, -0.3593210141932654 
1.3399999999998689, -0.35915326951148346 
1.3499999999998678, -0.35885648463109193 
1.3599999999998666, -0.35842085730878764 
1.3699999999998655, -0.35782018207560495 
1.3799999999998644, -0.3570008587241788 
1.3899999999998633, -0.3558648469611808 
1.3999999999998622, -0.3542432354698305 
1.4099999999998611, -0.3518631763818459 
1.41999999999986, -0.3483338863957695 
1.429999999999859, -0.343224868897926 
1.4399999999998578, -0.33632620520718903 
1.4499999999998567, -0.32800369157917186 
1.4599999999998556, -0.3192449745300851 
1.4699999999998545, -0.31116889896575584 
1.4799999999998534, -0.30446583215953593 
1.4899999999998523, -0.299276942363347 
1.4999999999998512, -0.29540977257747614 
1.5099999999998501, -0.292571324063433 
1.519999999999849, -0.2904922278838065 
1.529999999999848, -0.2889652847036897 
1.5399999999998468, -0.2878451340804571 
1.5499999999998457, -0.28703681789164326 
1.5599999999998446, -0.2864845408347557 
1.5699999999998435, -0.2861641006026865 
1.5799999999998424, -0.28607975319059287 
1.5899999999998413, -0.28626579681299547 
1.5999999999998402, -0.28679354207337904 
1.6099999999998391, -0.28778498514360984 
1.619999999999838, -0.28943478707526027 
1.629999999999837, -0.29204035927434147 
1.6399999999998358, -0.29603097446849813 
1.6499999999998347, -0.30195963925471203 
1.6599999999998336, -0.3103646293762781 
1.6699999999998325, -0.3213656378592296 
1.6799999999998314, -0.3340575580730277 
1.6899999999998303, -0.34638567400361786 
1.6999999999998292, -0.35624491798993213 
1.709999999999828, -0.3628594599723301 
1.719999999999827, -0.36679601376471577 
1.729999999999826, -0.3690245738727425 
1.7399999999998248, -0.37029525153601306 
1.7499999999998237, -0.3710449088524611 
1.7599999999998226, -0.37149932861965074 
1.7699999999998215, -0.371771509788966 
1.7799999999998204, -0.3719187043416632 
1.7899999999998193, -0.37197049059813597 
1.7999999999998182, -0.37194211583430514 
1.809999999999817, -0.37184148516684684 
1.819999999999816, -0.37167404106127544 
1.8299999999998149, -0.3714474765123822 
1.8399999999998138, -0.37117653767600844 
1.8499999999998127, -0.3708864972310184 
1.8599999999998116, -0.3706128118102646 
1.8699999999998105, -0.3703953187144861 
1.8799999999998094, -0.3702681209852393 
1.8899999999998083, -0.3702488564459883 
1.8999999999998072, -0.37033146306425835 
1.909999999999806, -0.370485496851917 
1.919999999999805, -0.3706633407393961 
1.9299999999998039, -0.37081336705297346 
1.9399999999998028, -0.37089314649213767 
1.9499999999998017, -0.3708763062385779 
1.9599999999998006, -0.37075109710179227 
1.9699999999997995, -0.3705136197594038 
1.9799999999997984, -0.3701596846906148 
1.9899999999997973, -0.36967710865958653 
1.9999999999997962, -0.36903759635258926 
2.0099999999998173, -0.3681853730647625 
2.0199999999998384, -0.3670180968703436 
2.0299999999998595, -0.3653545888709358 
2.0399999999998806, -0.36288817209644986 
2.0499999999999017, -0.3591489450633353 
2.059999999999923, -0.35356349238586626 
2.069999999999944, -0.3457574028816383 
2.079999999999965, -0.3360570574894296 
2.089999999999986, -0.32565674062894984 
2.100000000000007, -0.3160140087004536 
2.1100000000000283, -0.3080549925308419 
2.1200000000000494, -0.30197281448088076 
2.1300000000000705, -0.29751625151016725 
2.1400000000000916, -0.2943072183159884 
2.1500000000001127, -0.29200439696559943 
2.160000000000134, -0.290349637998434 
2.170000000000155, -0.28916392110595784 
2.180000000000176, -0.2883303835321388 
2.190000000000197, -0.2877785907877406 
2.2000000000002182, -0.2874737640399697 
2.2100000000002393, -0.28741128063045834 
2.2200000000002604, -0.2876161891261329 
2.2300000000002815, -0.28814785651749253 
2.2400000000003026, -0.2891104465593574 
2.2500000000003237, -0.29067013829897576 
2.260000000000345, -0.29307849897108706 
2.270000000000366, -0.29669458873867105 
2.280000000000387, -0.3019783395933987 
2.290000000000408, -0.30938686531792714 
2.3000000000004293, -0.3190731913429531 
2.3100000000004504, -0.33041349839945805 
2.3200000000004715, -0.34182274618670405 
2.3300000000004926, -0.35146978941481316 
2.3400000000005137, -0.35841038710753886 
2.3500000000005348, -0.36285141314163327 
2.360000000000556, -0.36552433307809074 
2.370000000000577, -0.3671076170476837 
2.380000000000598, -0.36805058272708757 
2.390000000000619, -0.3686117009663033 
2.4000000000006403, -0.36893218376088566 
2.4100000000006614, -0.36908820656659214 
2.4200000000006825, -0.3691203714691299 
2.4300000000007036, -0.36904939984878893 
2.4400000000007247, -0.368885146138333 
2.450000000000746, -0.3686331848968626 
2.460000000000767, -0.3683011331182672 
2.470000000000788, -0.36790490980390145 
2.480000000000809, -0.36747301150345024 
2.49000000000083, -0.3670457129051064 
2.5000000000008513, -0.36666766258415684 
2.5100000000008724, -0.3663762059011594 
2.5200000000008935, -0.36619047529639015 
2.5300000000009146, -0.36610559330896936 
2.5400000000009357, -0.36609391987537543 
2.550000000000957, -0.3661130567569214 
2.560000000000978, -0.3661178374195199 
2.570000000000999, -0.3660711985127397 
2.58000000000102, -0.3659493089097682 
2.5900000000010412, -0.3657400533772404 
2.6000000000010624, -0.36543742807811463 
2.6100000000010835, -0.3650348438414379 
2.6200000000011046, -0.36451851025012955 
2.6300000000011257, -0.3638598828164045 
2.6400000000011468, -0.36300420708732734 
2.650000000001168, -0.36184996941868464 
2.660000000001189, -0.360211641575975 
2.67000000000121, -0.35776025650519233 
2.680000000001231, -0.3539619022788774 
2.6900000000012523, -0.3481170123912752 
2.7000000000012734, -0.3397023381942208 
2.7100000000012945, -0.32901577444368196 
2.7200000000013156, -0.31744988700549087 
2.7300000000013367, -0.3067545106451537 
2.740000000001358, -0.2980232549020946 
2.750000000001379, -0.29145181015139354 
2.7600000000014, -0.2867157673234449 
2.770000000001421, -0.28336107453359294 
2.780000000001442, -0.28099178114419776 
2.7900000000014633, -0.2793157199183208 
2.8000000000014844, -0.27813395836516414 
2.8100000000015055, -0.27731823335228656 
2.8200000000015266, -0.2767915856238637 
2.8300000000015477, -0.27651544729136807 
2.840000000001569, -0.2764829248480656 
2.85000000000159, -0.2767176161426969 
2.860000000001611, -0.2772778271977799 
2.870000000001632, -0.2782667128512374 
2.8800000000016532, -0.2798490664841305 
2.8900000000016743, -0.2822738569641604 
2.9000000000016954, -0.28589443477035514 
2.9100000000017165, -0.2911577919366514 
2.9200000000017377, -0.29849390319106905 
2.9300000000017588, -0.30801017104568673 
2.94000000000178, -0.3190376206811016 
2.950000000001801, -0.33000272741239856 
2.960000000001822, -0.3391738587442227 
2.970000000001843, -0.3457220298052256 
2.9800000000018643, -0.3498970960567395 
2.9900000000018854, -0.3524077163263812 
3.0000000000019065, -0.3538936394474537 
3.0100000000019276, -0.3547755772896978 
3.0200000000019487, -0.35529568258873584 
3.03000000000197, -0.35558663114493305 
3.040000000001991, -0.35572013169352534 
3.050000000002012, -0.3557344165943365 
3.060000000002033, -0.35564911183931003 
3.070000000002054, -0.35547405108719954 
3.0800000000020753, -0.35521595240318765 
3.0900000000020964, -0.3548848104133519 
3.1000000000021175, -0.35449983340180397 
3.1100000000021386, -0.3540927465977964 
3.1200000000021597, -0.3537056092281708 
3.130000000002181, -0.3533823894002143 
3.140000000002202, -0.35315724684214544 
3.150000000002223, -0.353044383826786 
3.160000000002244, -0.3530332197494884 
3.1700000000022652, -0.3530905956466024 
3.1800000000022863, -0.3531697862913403 
3.1900000000023074, -0.3532232876093075 
3.2000000000023285, -0.35321374419647966 
3.2100000000023496, -0.35311828786461674 
3.2200000000023707, -0.3529258767629529 
3.230000000002392, -0.3526306984192832 
3.240000000002413, -0.35222470227539915 
3.250000000002434, -0.3516901387360616 
3.260000000002455, -0.3509906599494329 
3.2700000000024763, -0.35005763050190236 
3.2800000000024974, -0.34876653079241693 
3.2900000000025185, -0.346898038118239 
3.3000000000025396, -0.34408735136351687 
3.3100000000025607, -0.33980401813201233 
3.3200000000025818, -0.3334845316554765 
3.330000000002603, -0.3249463020271512 
3.340000000002624, -0.31486448180039606 
3.350000000002645, -0.3046545402238764 
3.360000000002666, -0.29565673191637004 
3.3700000000026873, -0.2885020718373556 
3.3800000000027084, -0.28315931913314807 
3.3900000000027295, -0.2792900310465853 
3.4000000000027506, -0.2765149928426791 
3.4100000000027717, -0.2745229824118137 
3.420000000002793, -0.27308943618016507 
3.430000000002814, -0.2720634384739854 
3.440000000002835, -0.2713498700781383 
3.450000000002856, -0.2708953962968809 
3.460000000002877, -0.2706800156733278 
3.4700000000028983, -0.270714064696817 
3.4800000000029194, -0.2710406327245306 
3.4900000000029405, -0.2717440076163918 
3.5000000000029616, -0.27296547362118856 
3.5100000000029827, -0.2749276705250954 
3.520000000003004, -0.2779652630423481 
3.530000000003025, -0.2825459820537459 
3.540000000003046, -0.2892291303950165 
3.550000000003067, -0.2984467534301815 
3.5600000000030882, -0.3100030133375558 
3.5700000000031094, -0.3225485383189153 
3.5800000000031305, -0.3338837670931649 
3.5900000000031516, -0.3423438169310269 
3.6000000000031727, -0.34774191632969953 
3.6100000000031938, -0.35087790839758765 
3.620000000003215, -0.35264866926056654 
3.630000000003236, -0.353665155830343 
3.640000000003257, -0.3542663385028172 
3.650000000003278, -0.3546257692137491 
3.6600000000032993, -0.3548311502146772 
3.6700000000033204, -0.3549275315797015 
3.6800000000033415, -0.3549384270666035 
3.6900000000033626, -0.35487628682873273 
3.7000000000033837, -0.3547486415529023 
3.710000000003405, -0.3545630327215551 
3.720000000003426, -0.35433186223277313 
3.730000000003447, -0.35407658937066044 
3.740000000003468, -0.35382926804174714 
3.750000000003489, -0.35362927922541537 
3.7600000000035103, -0.3535150179081717 
3.7700000000035314, -0.35351301120565254 
3.7800000000035525, -0.3536283011790805 
3.7900000000035736, -0.35383968668284055 
3.8000000000035947, -0.3541026334769007 
3.810000000003616, -0.35436047793513986 
3.820000000003637, -0.35455989135840993 
3.830000000003658, -0.3546628867597407 
3.840000000003679, -0.35464983449936077 
3.8500000000037002, -0.35451422516803477 
3.8600000000037213, -0.3542537623970597 
3.8700000000037424, -0.35386139994604426 
3.8800000000037635, -0.3533168782282213 
3.8900000000037847, -0.3525768155228365 
3.9000000000038058, -0.35155994153751247 
3.910000000003827, -0.350123662736661 
3.920000000003848, -0.3480314590959127 
3.930000000003869, -0.34492661522793083 
3.94000000000389, -0.34036904420219427 
3.9500000000039113, -0.33403361031151696 
3.9600000000039324, -0.32607054378762357 
3.9700000000039535, -0.31730517607405495 
3.9800000000039746, -0.30889606854404106 
3.9900000000039957, -0.3017131298423709 
4.000000000004016, -0.2960570417681639 
4.010000000003993, -0.2918086245653734 
4.02000000000397, -0.2886845711314863 
4.030000000003946, -0.2863987183332589 
4.040000000003923, -0.2847220722227815 
4.0500000000039, -0.28349035171299464 
4.0600000000038765, -0.28259394846180935 
4.070000000003853, -0.28196585032230814 
4.08000000000383, -0.2815727080566531 
4.090000000003807, -0.28141030203677764 
4.100000000003783, -0.2815037141900243 
4.11000000000376, -0.2819127397966125 
4.120000000003737, -0.28274373238922246 
4.130000000003713, -0.28416962624300257 
4.14000000000369, -0.2864590515232197 
4.150000000003667, -0.29000937279217787 
4.1600000000036434, -0.29535737108130783 
4.17000000000362, -0.30309027102822955 
4.180000000003597, -0.313515888567824 
4.1900000000035735, -0.32604842329834505 
4.20000000000355, -0.3388266117898513 
4.210000000003527, -0.34951830839884307 
4.220000000003504, -0.35690297433926776 
4.23000000000348, -0.3613219781381186 
4.240000000003457, -0.36378445013304417 
4.250000000003434, -0.3651525477664518 
4.26000000000341, -0.36594226587908174 
4.270000000003387, -0.36641784684603873 
4.280000000003364, -0.36670766789478726 
4.2900000000033405, -0.36687449616370227 
4.300000000003317, -0.3669499411709882 
4.310000000003294, -0.3669502656538685 
4.320000000003271, -0.3668840472637846 
4.330000000003247, -0.3667569231265738 
4.340000000003224, -0.36657583185712705 
4.350000000003201, -0.36635343497945827 
4.360000000003177, -0.3661118276139844 
4.370000000003154, -0.3658833864963417 
4.380000000003131, -0.36570674096551975 
4.390000000003107, -0.36561795706348804 
4.400000000003084, -0.36563967450603563 
4.410000000003061, -0.36577211892964223 
4.4200000000030375, -0.36598960385244783 
4.430000000003014, -0.3662451015162726 
4.440000000002991, -0.366482647815234 
4.450000000002968, -0.3666525091754459 
4.460000000002944, -0.36672141851709295 
4.470000000002921, -0.3666736221840651 
4.480000000002898, -0.3665046336292672 
4.490000000002874, -0.36621234537394 
4.500000000002851, -0.3657884918082742 
4.510000000002828, -0.3652104248036775 
4.520000000002804, -0.3644308831707094 
4.530000000002781, -0.3633619725796379 
4.540000000002758, -0.3618489395200792 
4.5500000000027345, -0.35963262359085924 
4.560000000002711, -0.35631739326855605 
4.570000000002688, -0.35140970204102984 
4.580000000002665, -0.3445432764321331 
4.590000000002641, -0.33589260428083884 
4.600000000002618, -0.32639388178901885 
4.610000000002595, -0.317337816977866 
4.620000000002571, -0.30966473166982966 
4.630000000002548, -0.3036736163086471 
4.640000000002525, -0.2992101197081166 
4.6500000000025015, -0.29595379117336923 
4.660000000002478, -0.2935905177118846 
4.670000000002455, -0.2918728234653539 
4.6800000000024315, -0.2906247828920043 
4.690000000002408, -0.28972948928825837 
4.700000000002385, -0.2891152249316077 
4.710000000002362, -0.2887453700275675 
4.720000000002338, -0.2886130376739483 
4.730000000002315, -0.2887404831188249 
4.740000000002292, -0.28918355870873796 
4.750000000002268, -0.29004206887652983 
4.760000000002245, -0.291477282694541 
4.770000000002222, -0.29373692552905895 
4.7800000000021985, -0.29718237825313765 
4.790000000002175, -0.30229464265626504 
4.800000000002152, -0.3095938861045576 
4.810000000002129, -0.3193584299407556 
4.820000000002105, -0.3311112157457066 
4.830000000002082, -0.3432820456336188 
4.840000000002059, -0.35381328794993677 
4.850000000002035, -0.3614692302785866 
4.860000000002012, -0.36634763753411514 
