t, s[1].omega / s[0].omega 
0, -0.5799977351448117 
0.009999999999999995, -0.5797932573677429 
0.019999999999999934, -0.5796218237282071 
0.029999999999999874, -0.5794564606420891 
0.04000000000000012, -0.579264688579755 
0.050000000000000405, -0.5790200670175026 
0.06000000000000069, -0.5787090653041005 
0.07000000000000098, -0.5783320744335028 
0.08000000000000126, -0.5779014578953372 
0.09000000000000155, -0.5774406598737157 
0.10000000000000184, -0.5769873042440716 
0.11000000000000212, -0.5766021506329012 
0.12000000000000241, -0.5763857710507709 
0.130000000000002, -0.5765056068041339 
0.1400000000000009, -0.5772367688500734 
0.1499999999999998, -0.5790187906426525 
0.1599999999999987, -0.5825231135803774 
0.1699999999999976, -0.5887019327486571 
0.1799999999999965, -0.5987309934349901 
0.1899999999999954, -0.613669767052747 
0.1999999999999943, -0.6336728832227883 
0.2099999999999932, -0.657047001070357 
0.2199999999999921, -0.6802984774161066 
0.229999999999991, -0.6999145356265809 
0.2399999999999899, -0.7142918951173302 
0.2499999999999888, -0.7238395539239179 
0.2599999999999877, -0.7298274023058358 
0.2699999999999866, -0.7334728886408242 
0.2799999999999855, -0.735646426689864 
0.2899999999999844, -0.7368978829677676 
0.2999999999999833, -0.7375539282532814 
0.3099999999999822, -0.7377978404785908 
0.3199999999999811, -0.7377187469836085 
0.32999999999998, -0.7373360186381974 
0.3399999999999789, -0.7366048886251314 
0.3499999999999778, -0.7354067972069224 
0.35999999999997667, -0.7335281740382072 
0.36999999999997557, -0.7306396617837984 
0.37999999999997447, -0.726310125280198 
0.38999999999997337, -0.7201172728753942 
0.39999999999997227, -0.7118916842040545 
0.40999999999997117, -0.7019802522027894 
0.41999999999997006, -0.6912612047912087 
0.42999999999996896, -0.6808072710606791 
0.43999999999996786, -0.6714684757838657 
0.44999999999996676, -0.6636832955522382 
0.45999999999996566, -0.6575335003700904 
0.46999999999996456, -0.652887305445896 
0.47999999999996346, -0.6495197101655754 
0.48999999999996235, -0.6471839050734675 
0.49999999999996125, -0.6456463758089668 
0.5099999999999602, -0.6447022286617798 
0.519999999999959, -0.6441808613329527 
0.529999999999958, -0.643946530353907 
0.5399999999999568, -0.6438957182609544 
0.5499999999999557, -0.6439525432197853 
0.5599999999999546, -0.6440635171493827 
0.5699999999999535, -0.6441929580209478 
0.5799999999999524, -0.6443199595267998 
0.5899999999999513, -0.6444368847414781 
0.5999999999999502, -0.6445480060671306 
0.6099999999999491, -0.6446659498819978 
0.619999999999948, -0.6448043477202577 
0.6299999999999469, -0.6449679533658805 
0.6399999999999458, -0.6451446710147974 
0.6499999999999447, -0.645304651181658 
0.6599999999999436, -0.6454083885597697 
0.6699999999999425, -0.6454199955896487 
0.6799999999999414, -0.6453181125998263 
0.6899999999999403, -0.6450993085868064 
0.6999999999999392, -0.6447751054571087 
0.7099999999999381, -0.6443677498605105 
0.719999999999937, -0.6439093942128677 
0.7299999999999359, -0.6434471843464322 
0.7399999999999348, -0.6430555432959328 
0.7499999999999337, -0.6428569485694269 
0.7599999999999326, -0.6430526399677241 
0.7699999999999315, -0.6439635644046644 
0.7799999999999304, -0.6460775624983779 
0.7899999999999293, -0.650087863129632 
0.7999999999999282, -0.6568843490015005 
0.8099999999999271, -0.6674185375451962 
0.819999999999926, -0.6823299764323056 
0.8299999999999249, -0.7013091439032474 
0.8399999999999238, -0.7225502676768647 
0.8499999999999227, -0.7430724871746427 
0.8599999999999216, -0.7601448478205058 
0.8699999999999205, -0.7726012922193707 
0.8799999999999194, -0.7808396716152248 
0.8899999999999183, -0.7859490125754256 
0.8999999999999172, -0.788988503551588 
0.9099999999999161, -0.7907270249362617 
0.919999999999915, -0.7916509051822727 
0.9299999999999139, -0.7920432323419971 
0.9399999999999128, -0.7920529272521036 
0.9499999999999117, -0.7917365618713025 
0.9599999999999106, -0.7910750155131553 
0.9699999999999095, -0.7899678250657203 
0.9799999999999084, -0.7882042040165583 
0.9899999999999073, -0.7854073381818416 
0.9999999999999062, -0.7809565732231751 
1.0099999999999052, -0.7739315179791012 
1.019999999999904, -0.7632176656012712 
1.029999999999903, -0.7480004685659304 
1.039999999999902, -0.7286423362888806 
1.0499999999999008, -0.7072037169433338 
1.0599999999998997, -0.6866903660119041 
1.0699999999998986, -0.669511363716805 
1.0799999999998975, -0.6566189457029498 
1.0899999999998964, -0.6477461218361176 
1.0999999999998953, -0.6420564040647527 
1.1099999999998942, -0.6386340813430499 
1.119999999999893, -0.6367096416743906 
1.129999999999892, -0.6357145412392927 
1.1399999999998909, -0.6352605111900755 
1.1499999999998898, -0.635096527070059 
1.1599999999998887, -0.6350663824751889 
1.1699999999998876, -0.6350746365928976 
1.1799999999998865, -0.6350622286134116 
1.1899999999998854, -0.6349908103732453 
1.1999999999998843, -0.6348345039559123 
1.2099999999998832, -0.6345778969661346 
1.219999999999882, -0.634218479563283 
1.229999999999881, -0.6337699711147762 
1.2399999999998799, -0.6332615774498976 
1.2499999999998788, -0.632730099876436 
1.2599999999998777, -0.6322072962663343 
1.2699999999998766, -0.6317092908920829 
1.2799999999998755, -0.6312337669827467 
1.2899999999998744, -0.6307655672929151 
1.2999999999998733, -0.6302866714941828 
1.3099999999998722, -0.629785232222229 
1.319999999999871, -0.6292606212091529 
1.32999999999987, -0.6287250246206233 
1.3399999999998689, -0.628204218639522 
1.3499999999998678, -0.6277399604930991 
1.3599999999998666, -0.6273951437061415 
1.3699999999998655, -0.6272617061515771 
1.3799999999998644, -0.6274705571880381 
1.3899999999998633, -0.6282023050646257 
1.3999999999998622, -0.6296970091571252 
1.4099999999998611, -0.6322599785067584 
1.41999999999986, -0.6362574705830313 
1.429999999999859, -0.6420888991197572 
1.4399999999998578, -0.6501101142279632 
1.4499999999998567, -0.6604745022276697 
1.4599999999998556, -0.6728896273841333 
1.4699999999998545, -0.6864082565558569 
1.4799999999998534, -0.6995284475970364 
1.4899999999998523, -0.7107595448677669 
1.4999999999998512, -0.7192870027461191 
1.5099999999998501, -0.7251479038402733 
1.519999999999849, -0.7288874474483069 
1.529999999999848, -0.7311405250709433 
1.5399999999998468, -0.7324144782341955 
1.5499999999998457, -0.7330483549746356 
1.5599999999998446, -0.7332433292226114 
1.5699999999998435, -0.7331007570007133 
1.5799999999998424, -0.7326464387805497 
1.5899999999998413, -0.731837011241741 
1.5999999999998402, -0.7305471981598124 
1.6099999999998391, -0.7285344664285864 
1.619999999999838, -0.7253770361792884 
1.629999999999837, -0.7203939173049086 
1.6399999999998358, -0.7126080582809059 
1.6499999999998347, -0.700926828096191 
1.6599999999998336, -0.6847680606176358 
1.6699999999998325, -0.6649618683559992 
1.6799999999998314, -0.6439592990336169 
1.6899999999998303, -0.6246765846435294 
1.6999999999998292, -0.6090189669623541 
1.709999999999828, -0.5974442398290265 
1.719999999999827, -0.5894548786690507 
1.729999999999826, -0.5842193204962152 
1.7399999999998248, -0.5809371585437413 
1.7499999999998237, -0.5789702322018377 
1.7599999999998226, -0.5778544508376728 
1.7699999999998215, -0.5772697271076404 
1.7799999999998204, -0.5770028298052824 
1.7899999999998193, -0.5769151353430682 
1.7999999999998182, -0.576917973884659 
1.809999999999817, -0.5769552058641363 
1.819999999999816, -0.5769919755616785 
1.8299999999998149, -0.5770085901881882 
1.8399999999998138, -0.5769983334112239 
1.8499999999998127, -0.5769673038106843 
1.8599999999998116, -0.5769333445981538 
1.8699999999998105, -0.5769211014564217 
1.8799999999998094, -0.5769524766000051 
1.8899999999998083, -0.5770354375164218 
1.8999999999998072, -0.5771565926541408 
1.909999999999806, -0.5772822183278703 
1.919999999999805, -0.5773684153729917 
1.9299999999998039, -0.577375505956075 
1.9399999999998028, -0.5772788814405361 
1.9499999999998017, -0.5770716821374648 
1.9599999999998006, -0.576761025803054 
1.9699999999997995, -0.5763629814027166 
1.9799999999997984, -0.5759006726007596 
1.9899999999997973, -0.5754078582869874 
1.9999999999997962, -0.5749396576620114 
2.0099999999998173, -0.5745931111935818 
2.0199999999998384, -0.5745422203111108 
2.0299999999998595, -0.5750935661794293 
2.0399999999998806, -0.5767658768994134 
2.0499999999999017, -0.5803796407622163 
2.059999999999923, -0.5870884490421658 
2.069999999999944, -0.5981710182172124 
2.079999999999965, -0.6143194481770056 
2.089999999999986, -0.6345108412420313 
2.100000000000007, -0.6556155918864279 
2.1100000000000283, -0.6740112023482175 
2.1200000000000494, -0.6878289199536857 
2.1300000000000705, -0.6972824858776222 
2.1400000000000916, -0.7034762707820092 
2.1500000000001127, -0.7074707015694923 
2.160000000000134, -0.7100228248626048 
2.170000000000155, -0.711625801510993 
2.180000000000176, -0.7125920389198324 
2.190000000000197, -0.7131147739775322 
2.2000000000002182, -0.7133063852868692 
2.2100000000002393, -0.7132201611123512 
2.2200000000002604, -0.7128602106301453 
2.2300000000002815, -0.712182378704872 
2.2400000000003026, -0.7110892294549982 
2.2500000000003237, -0.7094258648149745 
2.260000000000345, -0.7069917865720406 
2.270000000000366, -0.7035922091466088 
2.280000000000387, -0.6991397197677225 
2.290000000000408, -0.6937629864721563 
2.3000000000004293, -0.6878256883820497 
2.3100000000004504, -0.6818087884355625 
2.3200000000004715, -0.676140547475827 
2.3300000000004926, -0.671095580051645 
2.3400000000005137, -0.6667928231608747 
2.3500000000005348, -0.6632442156694661 
2.360000000000556, -0.6604049165789976 
2.370000000000577, -0.658205878238114 
2.380000000000598, -0.6565698348573401 
2.390000000000619, -0.6554176489032544 
2.4000000000006403, -0.6546709202726098 
2.4100000000006614, -0.6542540922073397 
2.4200000000006825, -0.654097031596393 
2.4300000000007036, -0.654137766304201 
2.4400000000007247, -0.6543247177249442 
2.450000000000746, -0.6546180569675583 
2.460000000000767, -0.6549902398172789 
2.470000000000788, -0.6554258515964134 
2.480000000000809, -0.6559203870757558 
2.49000000000083, -0.6564768037506911 
2.5000000000008513, -0.6570985567356533 
2.5100000000008724, -0.6577793745811551 
2.5200000000008935, -0.6584932083285838 
2.5300000000009146, -0.659190628812595 
2.5400000000009357, -0.659806999034928 
2.550000000000957, -0.6602808171203629 
2.560000000000978, -0.6605720008838938 
2.570000000000999, -0.6606691757174274 
2.58000000000102, -0.6605842581981411 
2.5900000000010412, -0.6603415987975974 
2.6000000000010624, -0.6599698192695171 
2.6100000000010835, -0.6595004327587619 
2.6200000000011046, -0.6589744435173863 
2.6300000000011257, -0.6584582499267181 
2.6400000000011468, -0.6580720866707697 
2.650000000001168, -0.6580361198597137 
2.660000000001189, -0.658738747903708 
2.67000000000121, -0.6608237234580138 
2.680000000001231, -0.6652670456003354 
2.6900000000012523, -0.6733555359982131 
2.7000000000012734, -0.6863890926637949 
2.7100000000012945, -0.7049203954222107 
2.7200000000013156, -0.7277341363061536 
2.7300000000013367, -0.7515950106584526 
2.740000000001358, -0.7727152380489339 
2.750000000001379, -0.78884244490561 
2.7600000000014, -0.7998598445330132 
2.770000000001421, -0.8068619463038932 
2.780000000001442, -0.8111245135065965 
2.7900000000014633, -0.8136418945185462 
2.8000000000014844, -0.8150704241507665 
2.8100000000015055, -0.8158078505445028 
2.8200000000015266, -0.8160793164635697 
2.8300000000015477, -0.815996115507321 
2.840000000001569, -0.8155864864341027 
2.85000000000159, -0.8148029293626811 
2.860000000001611, -0.8135075854751415 
2.870000000001632, -0.8114336490762195 
2.8800000000016532, -0.8081224000724676 
2.8900000000016743, -0.8028552492064606 
2.9000000000016954, -0.7946609853791987 
2.9100000000017165, -0.7825733734085502 
2.9200000000017377, -0.7662804719959323 
2.9300000000017588, -0.7468546968666353 
2.94000000000178, -0.7267108402213598 
2.950000000001801, -0.7084906500777579 
2.960000000001822, -0.6938669919635069 
2.970000000001843, -0.6832299945164207 
2.9800000000018643, -0.6760983200195735 
2.9900000000018854, -0.6716511809303519 
3.0000000000019065, -0.6690727131987948 
3.0100000000019276, -0.6676993193912237 
3.0200000000019487, -0.6670488892965821 
3.03000000000197, -0.666797171590534 
3.040000000001991, -0.6667381293759325 
3.050000000002012, -0.6667455679429346 
3.060000000002033, -0.666742571168754 
3.070000000002054, -0.6666800597099999 
3.0800000000020753, -0.6665238243062284 
3.0900000000020964, -0.6662490914673463 
3.1000000000021175, -0.6658415345458233 
3.1100000000021386, -0.6653022959152481 
3.1200000000021597, -0.6646520773636525 
3.130000000002181, -0.6639285097717624 
3.140000000002202, -0.6631751229556404 
3.150000000002223, -0.6624272209520945 
3.160000000002244, -0.6617028482907202 
3.1700000000022652, -0.6610030546304669 
3.1800000000022863, -0.6603194514170057 
3.1900000000023074, -0.6596438198611904 
3.2000000000023285, -0.6589754437952997 
3.2100000000023496, -0.6583249522787628 
3.2200000000023707, -0.6577159941900587 
3.230000000002392, -0.657186588625559 
3.240000000002413, -0.6567910386628172 
3.250000000002434, -0.6566021202656834 
3.260000000002455, -0.6567126254611355 
3.2700000000024763, -0.6572353892060947 
3.2800000000024974, -0.6583014342098561 
3.2900000000025185, -0.6600562917870894 
3.3000000000025396, -0.6626540825791906 
3.3100000000025607, -0.6662467418382932 
3.3200000000025818, -0.6709616533465891 
3.330000000002603, -0.6768567867676175 
3.340000000002624, -0.6838452166793535 
3.350000000002645, -0.6916048141525636 
3.360000000002666, -0.6995404823704379 
3.3700000000026873, -0.7068970978394996 
3.3800000000027084, -0.7130275079675302 
3.3900000000027295, -0.7176345794493805 
3.4000000000027506, -0.7207949154673966 
3.4100000000027717, -0.7227955265859016 
3.420000000002793, -0.7239554549335734 
3.430000000002814, -0.7245304259820571 
3.440000000002835, -0.7246905588038385 
3.450000000002856, -0.724529702933667 
3.460000000002877, -0.7240786151590628 
3.4700000000028983, -0.7233102831724489 
3.4800000000029194, -0.7221328381646995 
3.4900000000029405, -0.7203661162231205 
3.5000000000029616, -0.7176956250413166 
3.5100000000029827, -0.7135966870018049 
3.520000000003004, -0.7072348534603795 
3.530000000003025, -0.697414980396281 
3.540000000003046, -0.6828211673189821 
3.550000000003067, -0.6629060369799555 
3.5600000000030882, -0.639162947450512 
3.5700000000031094, -0.6151872526421972 
3.5800000000031305, -0.5946640329581107 
3.5900000000031516, -0.5793706279300822 
3.6000000000031727, -0.5690979210206086 
3.6100000000031938, -0.5626963584099824 
3.620000000003215, -0.5589322847069627 
3.630000000003236, -0.5568346853162589 
3.640000000003257, -0.5557365573355209 
3.650000000003278, -0.5552113711573614 
3.6600000000032993, -0.5549974387105043 
3.6700000000033204, -0.5549380585287063 
3.6800000000033415, -0.5549403098684109 
3.6900000000033626, -0.5549486913585283 
3.7000000000033837, -0.554929413407985 
3.710000000003405, -0.5548623127475992 
3.720000000003426, -0.5547383302436997 
3.730000000003447, -0.5545605200718373 
3.740000000003468, -0.5543455661538703 
3.750000000003489, -0.5541219594747318 
3.7600000000035103, -0.5539224005903696 
3.7700000000035314, -0.5537719937016883 
3.7800000000035525, -0.5536774858984383 
3.7900000000035736, -0.5536231115108313 
3.8000000000035947, -0.5535755344273253 
3.810000000003616, -0.553495713008237 
3.820000000003637, -0.5533516072497419 
3.830000000003658, -0.5531256242222822 
3.840000000003679, -0.5528151052003454 
3.8500000000037002, -0.5524289331542135 
3.8600000000037213, -0.5519847468267756 
3.8700000000037424, -0.5515099738394103 
3.8800000000037635, -0.5510486332876903 
3.8900000000037847, -0.5506760081170641 
3.9000000000038058, -0.5505247156743157 
3.910000000003827, -0.5508275561857426 
3.920000000003848, -0.5519827314464699 
3.930000000003869, -0.5546394104116416 
3.94000000000389, -0.5597698111141513 
3.9500000000039113, -0.5686092787313313 
3.9600000000039324, -0.5822155131409356 
3.9700000000039535, -0.6004606948386455 
3.9800000000039746, -0.6210663617214384 
3.9900000000039957, -0.6402923693862876 
4.000000000004016, -0.6553673019421081 
4.010000000003993, -0.6658546441778872 
4.02000000000397, -0.6727594346307262 
4.030000000003946, -0.6772507119678417 
4.040000000003923, -0.680174898491529 
4.0500000000039, -0.6820693564279552 
4.0600000000038765, -0.6832699553816723 
4.070000000003853, -0.683987930729559 
4.08000000000383, -0.6843534385735873 
4.090000000003807, -0.6844394485334462 
4.100000000003783, -0.6842740975178226 
4.11000000000376, -0.6838453483002649 
4.120000000003737, -0.6831006326077969 
4.130000000003713, -0.6819457883079748 
4.14000000000369, -0.680252208356168 
4.150000000003667, -0.6778863295403862 
4.1600000000036434, -0.6747709476942517 
4.17000000000362, -0.6709593564836733 
4.180000000003597, -0.6666658116813495 
4.1900000000035735, -0.6622085277509119 
4.20000000000355, -0.6578987156903157 
4.210000000003527, -0.6539564051327212 
4.220000000003504, -0.6504924907084157 
4.23000000000348, -0.6475361502370877 
4.240000000003457, -0.6450717973249186 
4.250000000003434, -0.6430660878970023 
4.26000000000341, -0.6414818936626834 
4.270000000003387, -0.6402830710188211 
4.280000000003364, -0.639434642377647 
4.2900000000033405, -0.6389017209697467 
4.300000000003317, -0.6386490186332533 
4.310000000003294, -0.6386415957475798 
4.320000000003271, -0.6388467233662055 
4.330000000003247, -0.6392363265675818 
4.340000000003224, -0.6397893837196131 
4.350000000003201, -0.640493652560703 
4.360000000003177, -0.6413459009851882 
4.370000000003154, -0.6423493504090091 
4.380000000003131, -0.6435067234579852 
4.390000000003107, -0.6448081545469561 
4.400000000003084, -0.6462163676504542 
4.410000000003061, -0.647656685314455 
4.4200000000030375, -0.6490226627476396 
4.430000000003014, -0.6502020302732284 
4.440000000002991, -0.6511112530557529 
4.450000000002968, -0.6517164295909084 
4.460000000002944, -0.6520290770434073 
4.470000000002921, -0.6520856705914553 
4.480000000002898, -0.6519269306942632 
4.490000000002874, -0.6515856337347345 
4.500000000002851, -0.6510834399455525 
4.510000000002828, -0.6504346984529024 
4.520000000002804, -0.6496569879956325 
4.530000000002781, -0.6487915721190421 
4.540000000002758, -0.6479403891879391 
4.5500000000027345, -0.6473270076951227 
4.560000000002711, -0.6473786369997899 
4.570000000002688, -0.6487849299932619 
4.580000000002665, -0.652397632880833 
4.590000000002641, -0.6587654060821732 
4.600000000002618, -0.6673756041577802 
4.610000000002595, -0.6764708784124439 
4.620000000002571, -0.6842376018617438 
4.630000000002548, -0.6901007758616365 
4.640000000002525, -0.694479523652055 
4.6500000000025015, -0.6978687701149403 
4.660000000002478, -0.7005109418657732 
4.670000000002455, -0.7025120478610549 
4.6800000000024315, -0.7039597303890334 
4.690000000002408, -0.704949373858596 
4.700000000002385, -0.7055713415477213 
4.710000000002362, -0.7058968063429979 
4.720000000002338, -0.705970373604349 
4.730000000002315, -0.705806793047784 
4.740000000002292, -0.7053882559049726 
4.750000000002268, -0.7046610600230219 
4.760000000002245, -0.7035341423775175 
4.770000000002222, -0.7018873246012536 
4.7800000000021985, -0.6996015148125067 
4.790000000002175, -0.6966166345189946 
4.800000000002152, -0.6929955624944977 
4.810000000002129, -0.6889430455323379 
4.820000000002105, -0.6847482540931248 
4.830000000002082, -0.6806876296353785 
4.840000000002059, -0.676956297959971 
4.850000000002035, -0.6736560452142187 
4.860000000002012, -0.6708195993218337 
4.870000000001989, -0.668441486022844 
4.880000000001965, -0.6664999631913182 
4.890000000001942, -0.6649678683611988 
4.900000000001919, -0.6638158238861441 
4.9100000000018955, -0.6630119127187332 
4.920000000001872, -0.6625208350600034 
