t, s[1].omega / s[0].omega 
0, -0.5599977450295393 
0.009999999999999995, -0.5598336192314732 
0.019999999999999934, -0.5597710708788786 
0.029999999999999874, -0.5597577610831792 
0.04000000000000012, -0.5597278079643376 
0.050000000000000405, -0.5596240674671185 
0.06000000000000069, -0.5594132498933726 
0.07000000000000098, -0.5590890490416471 
0.08000000000000126, -0.5586679247160232 
0.09000000000000155, -0.5581863479195975 
0.10000000000000184, -0.5577067396917729 
0.11000000000000212, -0.5573376733983995 
0.12000000000000241, -0.5572759374293542 
0.130000000000002, -0.5578846630079434 
0.1400000000000009, -0.5598335511495544 
0.1499999999999998, -0.5643448687124815 
0.1599999999999987, -0.5736053987330947 
0.1699999999999976, -0.5913729946713516 
0.1799999999999965, -0.6235393066700159 
0.1899999999999954, -0.6774558700482898 
0.1999999999999943, -0.7572771156802264 
0.2099999999999932, -0.8549344996939903 
0.2199999999999921, -0.9484315725438132 
0.229999999999991, -1.018123828145117 
0.2399999999999899, -1.0606382042613685 
0.2499999999999888, -1.0834930001099248 
0.2599999999999877, -1.0950301422158177 
0.2699999999999866, -1.1006961501472405 
0.2799999999999855, -1.1033964676458405 
0.2899999999999844, -1.1045532315025288 
0.2999999999999833, -1.1048296021053687 
0.3099999999999822, -1.104508845503355 
0.3199999999999811, -1.1036818768522292 
0.32999999999998, -1.1023732636948156 
0.3399999999999789, -1.1007392742063717 
0.3499999999999778, -1.0995191742183477 
0.35999999999997667, -1.1008173689763827 
0.36999999999997557, -1.1085412579227425 
0.37999999999997447, -1.1267468793306321 
0.38999999999997337, -1.1557837400744249 
0.39999999999997227, -1.1906134118687997 
0.40999999999997117, -1.2241599920708468 
0.41999999999997006, -1.251545559637418 
0.42999999999996896, -1.271250468084159 
0.43999999999996786, -1.2840600169942098 
0.44999999999996676, -1.291702263369089 
0.45999999999996566, -1.295917354510603 
0.46999999999996456, -1.2980332817711553 
0.47999999999996346, -1.2989090796651668 
0.48999999999996235, -1.2990489244664982 
0.49999999999996125, -1.298751184515681 
0.5099999999999602, -1.2982452403005669 
0.519999999999959, -1.2978001986902024 
0.529999999999958, -1.297747155775738 
0.5399999999999568, -1.2983449438246764 
0.5499999999999557, -1.2995980969773844 
0.5599999999999546, -1.301269295482578 
0.5699999999999535, -1.3030657891150608 
0.5799999999999524, -1.304769807648583 
0.5899999999999513, -1.3062493922463256 
0.5999999999999502, -1.3074290895522942 
0.6099999999999491, -1.308268433256879 
0.619999999999948, -1.3087489787603153 
0.6299999999999469, -1.3088648394417821 
0.6399999999999458, -1.3086168931253994 
0.6499999999999447, -1.3080118113973405 
0.6599999999999436, -1.3070654708811582 
0.6699999999999425, -1.3058090299234777 
0.6799999999999414, -1.304295605299943 
0.6899999999999403, -1.3026052757581472 
0.6999999999999392, -1.3008496749093919 
0.7099999999999381, -1.2991826060835099 
0.719999999999937, -1.297801656967026 
0.7299999999999359, -1.2968854628827557 
0.7399999999999348, -1.2964669370949016 
0.7499999999999337, -1.2963816227608504 
0.7599999999999326, -1.2963678570040431 
0.7699999999999315, -1.2961827093557043 
0.7799999999999304, -1.2956129407949821 
0.7899999999999293, -1.2944063527475147 
0.7999999999999282, -1.2921841564524335 
0.8099999999999271, -1.2883721120265927 
0.819999999999926, -1.282191740899229 
0.8299999999999249, -1.2727607845536535 
0.8399999999999238, -1.259318979762447 
0.8499999999999227, -1.241563455352097 
0.8599999999999216, -1.2201265157144814 
0.8699999999999205, -1.1971684050809641 
0.8799999999999194, -1.176465253360594 
0.8899999999999183, -1.1618275539883562 
0.8999999999999172, -1.1544392518651905 
0.9099999999999161, -1.1523296619420476 
0.919999999999915, -1.1526356710221226 
0.9299999999999139, -1.153482389311465 
0.9399999999999128, -1.1541055791197397 
0.9499999999999117, -1.1542956210877733 
0.9599999999999106, -1.1539806045091106 
0.9699999999999095, -1.1530132037763126 
0.9799999999999084, -1.1510117594112335 
0.9899999999999073, -1.1471076406117386 
0.9999999999999062, -1.1394332468333217 
1.0099999999999052, -1.1241682851482404 
1.019999999999904, -1.094302847288794 
1.029999999999903, -1.0399504432811038 
1.039999999999902, -0.9548171601110715 
1.0499999999999008, -0.8485474454379378 
1.0599999999998997, -0.7467547187676613 
1.0699999999998986, -0.6701692116207467 
1.0799999999998975, -0.6218761303660532 
1.0899999999998964, -0.594611966259187 
1.0999999999998953, -0.580233904549857 
1.1099999999998942, -0.5730348154972388 
1.119999999999893, -0.569633167022046 
1.129999999999892, -0.568164458804808 
1.1399999999998909, -0.5676355036399728 
1.1499999999998898, -0.5675272461305448 
1.1599999999998887, -0.5675707871668384 
1.1699999999998876, -0.5676254271577185 
1.1799999999998865, -0.5676138420486285 
1.1899999999998854, -0.567489550017378 
1.1999999999998843, -0.5672240557308056 
1.2099999999998832, -0.566807117748116 
1.219999999999882, -0.5662541287968228 
1.229999999999881, -0.5656114057466974 
1.2399999999998799, -0.5649494447695984 
1.2499999999998788, -0.5643421891444588 
1.2599999999998777, -0.5638421579155092 
1.2699999999998766, -0.5634643586932765 
1.2799999999998755, -0.5631850161368592 
1.2899999999998744, -0.5629537643936879 
1.2999999999998733, -0.5627136035419108 
1.3099999999998722, -0.562419998625123 
1.319999999999871, -0.5620515966570112 
1.32999999999987, -0.5616117409484278 
1.3399999999998689, -0.5611266275806962 
1.3499999999998678, -0.5606474904279877 
1.3599999999998666, -0.5602624779032659 
1.3699999999998655, -0.560123120201083 
1.3799999999998644, -0.560492324554754 
1.3899999999998633, -0.5618256428206739 
1.3999999999998622, -0.564904707629589 
1.4099999999998611, -0.5710489586512304 
1.41999999999986, -0.5824260495453372 
1.429999999999859, -0.6024102365682034 
1.4399999999998578, -0.6356505421727925 
1.4499999999998567, -0.6867993867599791 
1.4599999999998556, -0.7563536021628516 
1.4699999999998545, -0.8352029515620885 
1.4799999999998534, -0.906618890921459 
1.4899999999998523, -0.9584320565300886 
1.4999999999998512, -0.9900228877191786 
1.5099999999998501, -1.007302005337847 
1.519999999999849, -1.0162492715271108 
1.529999999999848, -1.0207543742637497 
1.5399999999998468, -1.02293250391878 
1.5499999999998457, -1.0238440169864593 
1.5599999999998446, -1.0239895050837764 
1.5699999999998435, -1.0235724503304735 
1.5799999999998424, -1.0226265357979833 
1.5899999999998413, -1.0210925781806286 
1.5999999999998402, -1.0189426660465875 
1.6099999999998391, -1.0165347956748094 
1.619999999999838, -1.015511223975245 
1.629999999999837, -1.0203670987667697 
1.6399999999998358, -1.0393883399353856 
1.6499999999998347, -1.0811798852860304 
1.6599999999998336, -1.1450768412181724 
1.6699999999998325, -1.2158160321798248 
1.6799999999998314, -1.2748257702382793 
1.6899999999998303, -1.3144065835100858 
1.6999999999998292, -1.3373167608799919 
1.709999999999828, -1.3494168647803841 
1.719999999999827, -1.3554419499210435 
1.729999999999826, -1.3582688808365009 
1.7399999999998248, -1.3594263450925808 
1.7499999999998237, -1.3596767844046693 
1.7599999999998226, -1.3594074256862068 
1.7699999999998215, -1.35887841335501 
1.7799999999998204, -1.3583977369268907 
1.7899999999998193, -1.3583829068706381 
1.7999999999998182, -1.359184143693943 
1.809999999999817, -1.3607961558160067 
1.819999999999816, -1.3628688953050037 
1.8299999999998149, -1.3650033914273332 
1.8399999999998138, -1.3669398236371273 
1.8499999999998127, -1.3685492821278933 
1.8599999999998116, -1.369774382252222 
1.8699999999998105, -1.3705927123708221 
1.8799999999998094, -1.3709993074910352 
1.8899999999998083, -1.3709971405529142 
1.8999999999998072, -1.370592909902053 
1.909999999999806, -1.3697975797928807 
1.919999999999805, -1.3686306583152448 
1.9299999999998039, -1.3671270107057065 
1.9399999999998028, -1.3653448542034294 
1.9499999999998017, -1.3633763599930893 
1.9599999999998006, -1.3613709835098973 
1.9699999999997995, -1.3595655781715208 
1.9799999999997984, -1.3582431434293238 
1.9899999999997973, -1.3575531985410012 
1.9999999999997962, -1.3573622539639334 
2.0099999999998173, -1.3573516350385773 
2.0199999999998384, -1.3572126299406393 
2.0299999999998595, -1.3566941521477391 
2.0399999999998806, -1.3555057926391583 
2.0499999999999017, -1.3531572691801623 
2.059999999999923, -1.348749518368838 
2.069999999999944, -1.3407250069587697 
2.079999999999965, -1.3266968147861449 
2.089999999999986, -1.3037041172238344 
2.100000000000007, -1.2694871601887467 
2.1100000000000283, -1.22521181255999 
2.1200000000000494, -1.1782201282770983 
2.1300000000000705, -1.1399800189218097 
2.1400000000000916, -1.117706946666876 
2.1500000000001127, -1.1094360423906307 
2.160000000000134, -1.1086178759698895 
2.170000000000155, -1.1101386405983575 
2.180000000000176, -1.111716613863383 
2.190000000000197, -1.1127354786037347 
2.2000000000002182, -1.1131559487241103 
2.2100000000002393, -1.1130202124157271 
2.2200000000002604, -1.1122723437868127 
2.2300000000002815, -1.1106508440523055 
2.2400000000003026, -1.10751133281081 
2.2500000000003237, -1.1014452383629654 
2.260000000000345, -1.0895114731055848 
2.270000000000366, -1.0659871618636678 
2.280000000000387, -1.0214591856328181 
2.290000000000408, -0.9457224925411017 
2.3000000000004293, -0.8386323784867071 
2.3100000000004504, -0.7203400889546829 
2.3200000000004715, -0.6199006757624536 
2.3300000000004926, -0.551483349747088 
2.3400000000005137, -0.5110860097363144 
2.3500000000005348, -0.4889254304628949 
2.360000000000556, -0.4771625608695039 
2.370000000000577, -0.47102818356393544 
2.380000000000598, -0.4678912089909205 
2.390000000000619, -0.46634301581293547 
2.4000000000006403, -0.4656317471529718 
2.4100000000006614, -0.4653533084050948 
2.4200000000006825, -0.4652882634385267 
2.4300000000007036, -0.4653162465116676 
2.4400000000007247, -0.4653715000163799 
2.450000000000746, -0.4654211045563705 
2.460000000000767, -0.46545642896677597 
2.470000000000788, -0.4654918270071149 
2.480000000000809, -0.46556492000364524 
2.49000000000083, -0.4657326736859343 
2.5000000000008513, -0.46605972089094827 
2.5100000000008724, -0.4665996930739582 
2.5200000000008935, -0.46737333787335683 
2.5300000000009146, -0.4683488944150641 
2.5400000000009357, -0.46943448997507337 
2.550000000000957, -0.47049517389025847 
2.560000000000978, -0.47139482984610137 
2.570000000000999, -0.47203913636095507 
2.58000000000102, -0.47239116066315334 
2.5900000000010412, -0.4724560961989964 
2.6000000000010624, -0.4722535741341386 
2.6100000000010835, -0.471793762637103 
2.6200000000011046, -0.47106020426430073 
2.6300000000011257, -0.46999282798754355 
2.6400000000011468, -0.46845812837631673 
2.650000000001168, -0.4661796360906137 
2.660000000001189, -0.4625596321596124 
2.67000000000121, -0.4562089715884309 
2.680000000001231, -0.4437918003344727 
2.6900000000012523, -0.41802231974262194 
2.7000000000012734, -0.368216611516517 
2.7100000000012945, -0.2934299583301285 
2.7200000000013156, -0.21659493266652402 
2.7300000000013367, -0.16096344442240312 
2.740000000001358, -0.1280250830280692 
2.750000000001379, -0.10968203527637792 
2.7600000000014, -0.09932753214581347 
2.770000000001421, -0.09324239364785125 
2.780000000001442, -0.08950818130311965 
2.7900000000014633, -0.08713695987897749 
2.8000000000014844, -0.08561098237976748 
2.8100000000015055, -0.08466028566043247 
2.8200000000015266, -0.08415852652867065 
2.8300000000015477, -0.08407931485666496 
2.840000000001569, -0.08449026855784095 
2.85000000000159, -0.08558306389949925 
2.860000000001611, -0.08775840672800334 
2.870000000001632, -0.09181985718203169 
2.8800000000016532, -0.099401606733073 
2.8900000000016743, -0.11386832294989124 
2.9000000000016954, -0.14179089786431523 
2.9100000000017165, -0.1925975316726302 
2.9200000000017377, -0.2641658931120879 
2.9300000000017588, -0.3110562132567854 
2.94000000000178, -0.2802735560224009 
2.950000000001801, -0.2034418958627159 
2.960000000001822, -0.14040767806623033 
2.970000000001843, -0.10419136715596819 
2.9800000000018643, -0.0852699335479723 
2.9900000000018854, -0.0752670253486925 
3.0000000000019065, -0.06974665881618237 
3.0100000000019276, -0.06657107249597399 
3.0200000000019487, -0.06470546410062694 
3.03000000000197, -0.06363884580857504 
3.040000000001991, -0.06312350204558585 
3.050000000002012, -0.06306072378595508 
3.060000000002033, -0.0634573402372596 
3.070000000002054, -0.06442525272944362 
3.0800000000020753, -0.06622252668898543 
3.0900000000020964, -0.06935940579563968 
3.1000000000021175, -0.07483424008724254 
3.1100000000021386, -0.08464736689927702 
3.1200000000021597, -0.10286287937454493 
3.130000000002181, -0.13728163182563727 
3.140000000002202, -0.19903670676749496 
3.150000000002223, -0.2896648246548511 
3.160000000002244, -0.3808429809311046 
3.1700000000022652, -0.44058566016140954 
3.1800000000022863, -0.4696947109953641 
3.1900000000023074, -0.4826634216301655 
3.2000000000023285, -0.4888446740127934 
3.2100000000023496, -0.492173268102068 
3.2200000000023707, -0.4941477774521673 
3.230000000002392, -0.4953716237072222 
3.240000000002413, -0.49611777505654037 
3.250000000002434, -0.49652146071478515 
3.260000000002455, -0.49664850905425634 
3.2700000000024763, -0.49652222082435155 
3.2800000000024974, -0.49613697073977514 
3.2900000000025185, -0.4954708054374664 
3.3000000000025396, -0.49450445896347467 
3.3100000000025607, -0.49324838548518296 
3.3200000000025818, -0.49176732027210257 
3.330000000002603, -0.4901814662630236 
3.340000000002624, -0.48863389808619306 
3.350000000002645, -0.48724303313916817 
3.360000000002666, -0.48607139644370523 
3.3700000000026873, -0.48512280062284213 
3.3800000000027084, -0.48435858583768654 
3.3900000000027295, -0.4837200229440014 
3.4000000000027506, -0.4831490747609248 
3.4100000000027717, -0.48260308505466226 
3.420000000002793, -0.4820616855569465 
3.430000000002814, -0.4815281879056867 
3.440000000002835, -0.4810306211828007 
3.450000000002856, -0.480627918232436 
3.460000000002877, -0.48042640439043877 
3.4700000000028983, -0.48061327008647386 
3.4800000000029194, -0.4815188306733017 
3.4900000000029405, -0.48372988003494816 
3.5000000000029616, -0.48829493541369945 
3.5100000000029827, -0.4970883224676035 
3.520000000003004, -0.5134076035911594 
3.530000000003025, -0.5427247551911748 
3.540000000003046, -0.592725912445474 
3.550000000003067, -0.6698574582516037 
3.5600000000030882, -0.7698567924877996 
3.5700000000031094, -0.8716949112231369 
3.5800000000031305, -0.9517170905412661 
3.5900000000031516, -1.0024099079131865 
3.6000000000031727, -1.0303212944020324 
3.6100000000031938, -1.0446323023411024 
3.620000000003215, -1.0517652794643804 
3.630000000003236, -1.0552555485457797 
3.640000000003257, -1.0568651926232548 
3.650000000003278, -1.0574312485722883 
3.6600000000032993, -1.057323192549894 
3.6700000000033204, -1.0566593675613407 
3.6800000000033415, -1.0554077624097153 
3.6900000000033626, -1.0534686626322363 
3.7000000000033837, -1.0508832198434903 
3.710000000003405, -1.0484610741275593 
3.720000000003426, -1.0492042848832241 
3.730000000003447, -1.0600715743623934 
3.740000000003468, -1.0908730879193669 
3.750000000003489, -1.1460302159215026 
3.7600000000035103, -1.2150285804186014 
3.7700000000035314, -1.2782071751957058 
3.7800000000035525, -1.3234508697659735 
3.7900000000035736, -1.350797302964938 
3.8000000000035947, -1.3656514413633016 
3.810000000003616, -1.3731967236633817 
3.820000000003637, -1.3768208912211353 
3.830000000003658, -1.378396930549318 
3.840000000003679, -1.3788780189944712 
3.8500000000037002, -1.378741889843841 
3.8600000000037213, -1.3782725071472144 
3.8700000000037424, -1.3777515966585685 
3.8800000000037635, -1.3775539690139111 
3.8900000000037847, -1.378035579370129 
3.9000000000038058, -1.3792660526136686 
3.910000000003827, -1.3809745374813676 
3.920000000003848, -1.3827978978531752 
3.930000000003869, -1.3844805377720684 
3.94000000000389, -1.3858852101778405 
3.9500000000039113, -1.386941361016189 
3.9600000000039324, -1.3876127957556863 
3.9700000000039535, -1.3878827738743813 
3.9800000000039746, -1.3877447749928067 
3.9900000000039957, -1.3871967006167596 
4.000000000004016, -1.386239026909914 
4.010000000003993, -1.3848772429254392 
4.02000000000397, -1.3831284792729606 
4.030000000003946, -1.3810323293715907 
4.040000000003923, -1.3786704720099168 
4.0500000000039, -1.3762085514294837 
4.0600000000038765, -1.3739472473355978 
4.070000000003853, -1.3722703468773785 
4.08000000000383, -1.3713937361711257 
4.090000000003807, -1.3711568670242242 
4.100000000003783, -1.3711652425975196 
4.11000000000376, -1.371057950114844 
4.120000000003737, -1.3705662192486874 
4.130000000003713, -1.3693882866742437 
4.14000000000369, -1.3669842070215146 
4.150000000003667, -1.3622716958160397 
4.1600000000036434, -1.3531516753143438 
4.17000000000362, -1.3359292201613198 
4.180000000003597, -1.3052508821908808 
4.1900000000035735, -1.2562855041259202 
4.20000000000355, -1.1908383442599113 
4.210000000003527, -1.12277810351059 
4.220000000003504, -1.0707502193570897 
4.23000000000348, -1.0425496816928315 
4.240000000003457, -1.0325973881186226 
4.250000000003434, -1.031615264484183 
4.26000000000341, -1.0333947279034255 
4.270000000003387, -1.0353012285376417 
4.280000000003364, -1.0366175129387685 
4.2900000000033405, -1.0372977660241365 
4.300000000003317, -1.0374201547607311 
4.310000000003294, -1.0369986669223894 
4.320000000003271, -1.0359015802764224 
4.330000000003247, -1.0337490082000582 
4.340000000003224, -1.0296999796156128 
4.350000000003201, -1.0220205127517392 
4.360000000003177, -1.007338686111189 
4.370000000003154, -0.9798493581282459 
4.380000000003131, -0.9320653412544507 
4.390000000003107, -0.8602640317561656 
4.400000000003084, -0.7730580262572938 
4.410000000003061, -0.689836891242079 
4.4200000000030375, -0.625650294227226 
4.430000000003014, -0.5830207839623063 
4.440000000002991, -0.5571002611899804 
4.450000000002968, -0.5420895505043996 
4.460000000002944, -0.5336604242069622 
4.470000000002921, -0.5290585667504171 
4.480000000002898, -0.5266379658361082 
4.490000000002874, -0.5254391885686671 
4.500000000002851, -0.5249086158059413 
4.510000000002828, -0.5247280857334606 
4.520000000002804, -0.5247147659592747 
4.530000000002781, -0.524763319907353 
4.540000000002758, -0.5248137132784343 
4.5500000000027345, -0.5248352522511928 
4.560000000002711, -0.5248211003176622 
4.570000000002688, -0.5247881502533274 
4.580000000002665, -0.5247760716739386 
4.590000000002641, -0.5248396831034129 
4.600000000002618, -0.5250329433710371 
4.610000000002595, -0.5253885442813222 
4.620000000002571, -0.5258999862591728 
4.630000000002548, -0.526513580937465 
4.640000000002525, -0.5271375989778394 
4.6500000000025015, -0.5276695922792477 
4.660000000002478, -0.5280289719169702 
4.670000000002455, -0.5281751531136064 
4.6800000000024315, -0.5281038587011826 
4.690000000002408, -0.5278312818172883 
4.700000000002385, -0.5273797454705261 
4.710000000002362, -0.5267722027726935 
4.720000000002338, -0.5260380122370628 
4.730000000002315, -0.5252336666301048 
4.740000000002292, -0.5244891513377878 
4.750000000002268, -0.5241028147287599 
4.760000000002245, -0.5247204606597163 
4.770000000002222, -0.5276100935895751 
4.7800000000021985, -0.5348039997627068 
4.790000000002175, -0.5479163680421357 
4.800000000002152, -0.5628068275249029 
4.810000000002129, -0.5614100035153489 
4.820000000002105, -0.520896978050039 
4.830000000002082, -0.4480633811018536 
4.840000000002059, -0.37794238861113383 
4.850000000002035, -0.3306786294565788 
4.860000000002012, -0.30382045271957964 
4.870000000001989, -0.2893701697510572 
4.880000000001965, -0.2816008246232847 
4.890000000001942, -0.27735397024506964 
4.900000000001919, -0.27499899568553776 
4.9100000000018955, -0.2736958038724403 
