t, s[1].omega / s[0].omega 
0, -1.1499708945502434 
0.009999999999999995, -1.1469284554862411 
0.019999999999999934, -1.1436262800659809 
0.029999999999999874, -1.1400666517532094 
0.04000000000000012, -1.1362520298497136 
0.050000000000000405, -1.1321850464226413 
0.06000000000000069, -1.1278685031364044 
0.07000000000000098, -1.1233053679851286 
0.08000000000000126, -1.1184987719211723 
0.09000000000000155, -1.113452005374967 
0.10000000000000184, -1.1081685146611502 
0.11000000000000212, -1.1026518982658602 
0.12000000000000241, -1.0969059030100028 
0.130000000000002, -1.0909344200833544 
0.1400000000000009, -1.0847414809445493 
0.1499999999999998, -1.0783312530822118 
0.1599999999999987, -1.0717080356329167 
0.1699999999999976, -1.0648762548520718 
0.1799999999999965, -1.0578404594344029 
0.1899999999999954, -1.0506053156813742 
0.1999999999999943, -1.0431756025136312 
0.2099999999999932, -1.0355562063273716 
0.2199999999999921, -1.0277521156944947 
0.229999999999991, -1.0197684159073348 
0.2399999999999899, -1.0116102833698781 
0.2499999999999888, -1.0032829798384408 
0.2599999999999877, -0.9947918465159592 
0.2699999999999866, -0.9861422980052407 
0.2799999999999855, -0.9773398161277265 
0.2899999999999844, -0.9683899436155586 
0.2999999999999833, -0.959298277685963 
0.3099999999999822, -0.9500704635081795 
0.3199999999999811, -0.9407121875743579 
0.32999999999998, -0.9312291709869718 
0.3399999999999789, -0.9216271626764284 
0.3499999999999778, -0.9119119325635431 
0.35999999999997667, -0.9020892646825298 
0.36999999999997557, -0.8921649502810118 
0.37999999999997447, -0.8821447809143127 
0.38999999999997337, -0.8720345415519732 
0.39999999999997227, -0.8618400037149425 
0.40999999999997117, -0.851566918662327 
0.41999999999997006, -0.841221010646882 
0.42999999999996896, -0.8308079702585421 
0.43999999999996786, -0.8203334478753406 
0.44999999999996676, -0.8098030472409156 
0.45999999999996566, -0.7992223191875603 
0.46999999999996456, -0.7885967555233506 
0.47999999999996346, -0.7779317831013697 
0.48999999999996235, -0.7672327580883684 
0.49999999999996125, -0.7565049604494419 
0.5099999999999602, -0.7457535886643587 
0.519999999999959, -0.7349837546902128 
0.529999999999958, -0.7242004791839282 
0.5399999999999568, -0.7134086869969732 
0.5499999999999557, -0.7026132029533508 
0.5599999999999546, -0.6918187479206201 
0.5699999999999535, -0.6810299351822889 
0.5799999999999524, -0.6702512671185096 
0.5899999999999513, -0.6594871322005539 
0.5999999999999502, -0.6487418023030519 
0.6099999999999491, -0.6380194303365524 
0.619999999999948, -0.6273240482014495 
0.6299999999999469, -0.6166595650629193 
0.6399999999999458, -0.6060297659450836 
0.6499999999999447, -0.5954383106412583 
0.6599999999999436, -0.5848887329358264 
0.6699999999999425, -0.5743844401320296 
0.6799999999999414, -0.5639287128787731 
0.6899999999999403, -0.5535247052884452 
0.6999999999999392, -0.5431754453366963 
0.7099999999999381, -0.5328838355341975 
0.719999999999937, -0.5226526538595143 
0.7299999999999359, -0.5124845549414765 
0.7399999999999348, -0.5023820714787238 
0.7499999999999337, -0.4923476158835332 
0.7599999999999326, -0.48238348213650983 
0.7699999999999315, -0.47249184783832837 
0.7799999999999304, -0.4626747764443638 
0.7899999999999293, -0.4529342196678144 
0.7999999999999282, -0.44327202003674865 
0.8099999999999271, -0.43368991359040515 
0.819999999999926, -0.4241895327000567 
0.8299999999999249, -0.414772408999784 
0.8399999999999238, -0.4054399764125905 
0.8499999999999227, -0.3961935742574525 
0.8599999999999216, -0.3870344504230741 
0.8699999999999205, -0.3779637645943488 
0.8799999999999194, -0.3689825915178033 
0.8899999999999183, -0.3600919242925639 
0.8999999999999172, -0.35129267767371175 
0.9099999999999161, -0.3425856913751921 
0.919999999999915, -0.33397173335978464 
0.9299999999999139, -0.32545150310393556 
0.9399999999999128, -0.31702563482558876 
0.9499999999999117, -0.30869470066343563 
0.9599999999999106, -0.3004592137962852 
0.9699999999999095, -0.29231963149150464 
0.9799999999999084, -0.28427635807169865 
0.9899999999999073, -0.27632974778896896 
0.9999999999999062, -0.2684801075962317 
1.0099999999999052, -0.26072769980515037 
1.019999999999904, -0.2530727446202642 
1.029999999999903, -0.24551542253885258 
1.039999999999902, -0.23805587660596883 
1.0499999999999008, -0.23069421451389105 
1.0599999999998997, -0.22343051053496654 
1.0699999999998986, -0.21626480727647587 
1.0799999999998975, -0.20919711724568346 
1.0899999999998964, -0.2022274242126846 
1.0999999999998953, -0.19535568435798586 
1.1099999999998942, -0.18858182719096708 
1.119999999999893, -0.18190575622443853 
1.129999999999892, -0.1753273493894437 
1.1399999999998909, -0.16884645917323574 
1.1499999999998898, -0.1624629124619563 
1.1599999999998887, -0.15617651006797886 
1.1699999999998876, -0.1499870259201024 
1.1799999999998865, -0.14389420589278834 
1.1899999999998854, -0.13789776624841413 
1.1999999999998843, -0.13199739166402594 
1.2099999999998832, -0.12619273281130527 
1.219999999999882, -0.12048340345538316 
1.229999999999881, -0.1148689770347115 
1.2399999999998799, -0.10934898268039571 
1.2499999999998788, -0.10392290062917442 
1.2599999999998777, -0.09859015697954725 
1.2699999999998766, -0.09335011773535597 
1.2799999999998755, -0.08820208207536252 
1.2899999999998744, -0.0831452747809699 
1.2999999999998733, -0.07817883774713756 
1.3099999999998722, -0.07330182049366052 
1.319999999999871, -0.06851316958523036 
1.32999999999987, -0.06381171685896596 
1.3399999999998689, -0.0591961663472828 
1.3499999999998678, -0.05466507977192877 
1.3599999999998666, -0.05021686047160173 
1.3699999999998655, -0.04584973561061679 
1.3799999999998644, -0.041561736499413436 
1.3899999999998633, -0.03735067683907497 
1.3999999999998622, -0.033214128681224586 
1.4099999999998611, -0.029149395871390274 
1.41999999999986, -0.025153484717877272 
1.429999999999859, -0.021223071598993212 
1.4399999999998578, -0.017354467188728896 
1.4499999999998567, -0.013543576944245267 
1.4599999999998556, -0.009785857457222834 
1.4699999999998545, -0.00607626822469759 
1.4799999999998534, -0.0024092183427517756 
1.4899999999998523, 6.801534617557409e-7 
1.4999999999998512, -0.0000031241833633794483 
1.5099999999998501, 0.000007157213630001234 
1.519999999999849, -0.0000012341502948187474 
1.529999999999848, -0.0000023450974972593017 
1.5399999999998468, 0.000011040465158404907 
1.5499999999998457, 0.000008091248668010778 
1.5599999999998446, -0.0000024857120773721336 
1.5699999999998435, 0.000008257147431846468 
1.5799999999998424, 0.000012085588266375308 
1.5899999999998413, 0.0000011912647546290393 
1.5999999999998402, 0.000007674121961013354 
1.6099999999998391, 0.0000067683464056683706 
1.619999999999838, 0.000013856945171027733 
1.629999999999837, 0.000007097087049864359 
1.6399999999998358, 0.000005080471640654589 
1.6499999999998347, 0.000008862458735281938 
1.6599999999998336, 0.0000021403633087033763 
1.6699999999998325, 0.00001926663530017073 
1.6799999999998314, 1.2487315211713593e-7 
1.6899999999998303, 0.000022896743255313716 
1.6999999999998292, 0.000003954296182630475 
1.709999999999828, 0.000008175052997030374 
1.719999999999827, 0.00018143332786631978 
1.729999999999826, 0.0007512028073046028 
1.7399999999998248, 0.001765723030598288 
1.7499999999998237, 0.0032787186724429853 
1.7599999999998226, 0.005350091113940857 
1.7699999999998215, 0.008046703735883374 
1.7799999999998204, 0.011443274074142388 
1.7899999999998193, 0.015623387663812735 
1.7999999999998182, 0.02068065019433803 
1.809999999999817, 0.026719996449466526 
1.819999999999816, 0.03385917632217214 
1.8299999999998149, 0.04223043982689695 
1.8399999999998138, 0.05198244424666115 
1.8499999999998127, 0.06328240699553532 
1.8599999999998116, 0.07631852691679865 
1.8699999999998105, 0.0913026937930948 
1.8799999999998094, 0.10847349968476046 
1.8899999999998083, 0.12809955471554227 
1.8999999999998072, 0.15048309180223193 
1.909999999999806, 0.17596381639147343 
1.919999999999805, 0.20492291416927763 
1.9299999999998039, 0.23778706612690226 
1.9399999999998028, 0.27503222875310906 
1.9499999999998017, 0.3171868081046481 
1.9599999999998006, 0.3648336792079881 
1.9699999999997995, 0.41861026548540803 
1.9799999999997984, 0.47920558803627916 
1.9899999999997973, 0.5473528211985648 
1.9999999999997962, 0.6238154666917891 
2.0099999999998173, 0.7093648360680983 
2.0199999999998384, 0.8047462199657871 
2.0299999999998595, 0.9106311176033532 
2.0399999999998806, 1.0275535027383476 
2.0499999999999017, 1.1558297135833497 
2.059999999999923, 1.2954645939089091 
2.069999999999944, 1.4460512156154408 
2.079999999999965, 1.6066775717181472 
2.089999999999986, 1.7758597578308901 
2.100000000000007, 1.951524859076004 
2.1100000000000283, 2.131064740841341 
2.1200000000000494, 2.3114716158802353 
2.1300000000000705, 2.4895479766853987 
2.1400000000000916, 2.6621621170128402 
2.1500000000001127, 2.8265044260520096 
2.160000000000134, 2.9802967287023967 
2.170000000000155, 3.1219194209638506 
2.180000000000176, 3.2504438396357074 
2.190000000000197, 3.3655806320213713 
2.2000000000002182, 3.4675704686893583 
2.2100000000002393, 3.557048022199645 
2.2200000000002604, 3.6349056820064685 
2.2300000000002815, 3.7021745108397384 
2.2400000000003026, 3.7599306904168532 
2.2500000000003237, 3.80922861330059 
2.260000000000345, 3.8510575317108713 
2.270000000000366, 3.886316852406969 
2.280000000000387, 3.915804957304204 
2.290000000000408, 3.9402170700717556 
2.3000000000004293, 3.96014863859599 
2.3100000000004504, 3.976101648825461 
2.3200000000004715, 3.988492083183287 
2.3300000000004926, 3.997657345308115 
2.3400000000005137, 4.00386290323556 
2.3500000000005348, 4.0073076862000585 
2.360000000000556, 4.008127939893978 
2.370000000000577, 4.006399330385144 
2.380000000000598, 4.002137109862852 
2.390000000000619, 3.9952941326548514 
2.4000000000006403, 3.9857564460238666 
2.4100000000006614, 3.9733360806286075 
2.4200000000006825, 3.957760530030317 
2.4300000000007036, 3.9386582347436376 
2.4400000000007247, 3.9155391711936365 
2.450000000000746, 3.8877693895110497 
2.460000000000767, 3.854538055003221 
2.470000000000788, 3.8148152543556777 
2.480000000000809, 3.767298595650303 
2.49000000000083, 3.7103465993425693 
2.5000000000008513, 3.641897309836613 
2.5100000000008724, 3.55937192751126 
2.5200000000008935, 3.459566360191299 
2.5300000000009146, 3.338539633542555 
2.5400000000009357, 3.1915187029379974 
2.550000000000957, 3.012856009756606 
2.560000000000978, 2.796099491707182 
2.570000000000999, 2.5342609944396743 
2.58000000000102, 2.220386007564017 
2.5900000000010412, 1.8485112043200613 
2.6000000000010624, 1.4150144437177081 
2.6100000000010835, 0.9201966655306131 
2.6200000000011046, 0.3697201293130315 
2.6300000000011257, -0.22247142696975483 
2.6400000000011468, -0.8374739749301723 
2.650000000001168, -1.4577234040163454 
2.660000000001189, -2.0609649429551884 
2.67000000000121, -2.6271417565468305 
2.680000000001231, -3.141099730914828 
2.6900000000012523, -3.594002365111974 
2.7000000000012734, -3.9832344218355065 
2.7100000000012945, -4.311152258612434 
2.7200000000013156, -4.583336136980268 
2.7300000000013367, -4.8069317722195155 
2.740000000001358, -4.989402012168413 
2.750000000001379, -5.137752764377556 
2.7600000000014, -5.2581498889066 
2.770000000001421, -5.355800000860793 
2.780000000001442, -5.434982435672918 
2.7900000000014633, -5.499152750735451 
2.8000000000014844, -5.551069369473505 
2.8100000000015055, -5.592917608421836 
2.8200000000015266, -5.626419476916319 
2.8300000000015477, -5.6529255522658195 
2.840000000001569, -5.673489190257567 
2.85000000000159, -5.688925013301897 
2.860000000001611, -5.699854098499383 
2.870000000001632, -5.706738188822512 
2.8800000000016532, -5.70990490946917 
2.8900000000016743, -5.709565557264789 
2.9000000000016954, -5.7058266200155705 
2.9100000000017165, -5.698695802772736 
2.9200000000017377, -5.688082993316769 
2.9300000000017588, -5.673796284171902 
2.94000000000178, -5.6555328753805405 
2.950000000001801, -5.632864406675952 
2.960000000001822, -5.605216013917307 
2.970000000001843, -5.571838193520964 
2.9800000000018643, -5.53177044005987 
2.9900000000018854, -5.483795695872171 
3.0000000000019065, -5.426385099026831 
3.0100000000019276, -5.357633646457708 
3.0200000000019487, -5.275189692244585 
3.03000000000197, -5.176185380447712 
3.040000000001991, -5.057182022022905 
3.050000000002012, -4.914154748124395 
3.060000000002033, -4.742554158850666 
3.070000000002054, -4.537496083749097 
3.0800000000020753, -4.294135905891914 
3.0900000000020964, -4.00826680664034 
3.1000000000021175, -3.6771251036472177 
3.1100000000021386, -3.3002860816662607 
3.1200000000021597, -2.880420427708104 
3.130000000002181, -2.423627441741297 
3.140000000002202, -1.9391429420273296 
3.150000000002223, -1.4384361746301677 
3.160000000002244, -0.9339437891001184 
3.1700000000022652, -0.43778912679755416 
3.1800000000022863, 0.03876941310844426 
3.1900000000023074, 0.48211643186306813 
3.2000000000023285, 0.8912460749798053 
3.2100000000023496, 1.2622115816034059 
3.2200000000023707, 1.5933024400118123 
3.230000000002392, 1.8847382028759723 
3.240000000002413, 2.1382544083221977 
3.250000000002434, 2.3566448120394594 
3.260000000002455, 2.54332369705049 
3.2700000000024763, 2.701955963926503 
3.2800000000024974, 2.8361786135804845 
3.2900000000025185, 2.9494150384814914 
3.3000000000025396, 3.0447690163774603 
3.3100000000025607, 3.1249791446535817 
3.3200000000025818, 3.192414405508479 
3.330000000002603, 3.2490947324539365 
3.340000000002624, 3.296724628830247 
3.350000000002645, 3.336731789089169 
3.360000000002666, 3.3703057682386137 
3.3700000000026873, 3.3984339581903753 
3.3800000000027084, 3.4219335912203293 
3.3900000000027295, 3.4414793878471674 
3.4000000000027506, 3.457626974025256 
3.4100000000027717, 3.4708324481803516 
3.420000000002793, 3.48146858055477 
3.430000000002814, 3.489838141314412 
3.440000000002835, 3.4961848217040425 
3.450000000002856, 3.500702159614018 
3.460000000002877, 3.5035408219588207 
3.4700000000028983, 3.504814539312569 
3.4800000000029194, 3.504604937335339 
3.4900000000029405, 3.5029654663741603 
3.5000000000029616, 3.499924595678299 
3.5100000000029827, 3.4954884117268605 
3.520000000003004, 3.489642740740658 
3.530000000003025, 3.482354902967227 
3.540000000003046, 3.4735752002248135 
3.550000000003067, 3.463238237936473 
3.5600000000030882, 3.4512641879427957 
3.5700000000031094, 3.4375601081170184 
3.5800000000031305, 3.4220214483364484 
3.5900000000031516, 3.4045338883393783 
3.6000000000031727, 3.384975669322533 
3.6100000000031938, 3.3632205946493468 
3.620000000003215, 3.3391418811964915 
3.630000000003236, 3.312617035516684 
3.640000000003257, 3.2835339004302266 
3.650000000003278, 3.251797959130414 
3.6600000000032993, 3.217340886885809 
3.6700000000033204, 3.1801301989080653 
3.6800000000033415, 3.1401796566241553 
3.6900000000033626, 3.09755987280306 
3.7000000000033837, 3.052408321392161 
3.710000000003405, 3.0049377481721358 
3.720000000003426, 2.955441843809256 
3.730000000003447, 2.9042970366311227 
3.740000000003468, 2.851959434289425 
3.750000000003489, 2.7989563106242294 
3.7600000000035103, 2.7458720739540396 
3.7700000000035314, 2.6933292954885615 
3.7800000000035525, 2.641966012847456 
3.7900000000035736, 2.5924110309227566 
3.8000000000035947, 2.5452592168288093 
3.810000000003616, 2.501048773042965 
3.820000000003637, 2.4602421833660686 
3.830000000003658, 2.423212029747669 
3.840000000003679, 2.3902322803469054 
3.8500000000037002, 2.361475061670483 
3.8600000000037213, 2.3370124392701945 
3.8700000000037424, 2.31682239346609 
3.8800000000037635, 2.3007980003630366 
3.8900000000037847, 2.28875879452985 
3.9000000000038058, 2.2804633611247436 
3.910000000003827, 2.275622340574431 
3.920000000003848, 2.273911191679971 
3.930000000003869, 2.2749822224452814 
3.94000000000389, 2.2784755457471357 
3.9500000000039113, 2.2840287418273033 
3.9600000000039324, 2.2912851103303473 
3.9700000000039535, 2.299900473567599 
3.9800000000039746, 2.309548553530337 
3.9900000000039957, 2.319924991521829 
4.000000000004016, 2.3307501140079383 
4.010000000003993, 2.341770573386705 
4.02000000000397, 2.352760009107745 
4.030000000003946, 2.3635188837632337 
4.040000000003923, 2.373873651119505 
4.0500000000039, 2.3836754093354102 
4.0600000000038765, 2.3927981837729893 
4.070000000003853, 2.4011369709801937 
4.08000000000383, 2.4086056598561942 
4.090000000003807, 2.41513492894514 
4.100000000003783, 2.420670201392068 
4.11000000000376, 2.425169722299258 
4.120000000003737, 2.4286028077715645 
4.130000000003713, 2.4309483013108086 
4.14000000000369, 2.432193261646458 
4.150000000003667, 2.4323318965958323 
4.1600000000036434, 2.4313647499877855 
4.17000000000362, 2.4292981427921982 
4.180000000003597, 2.4261438650276146 
4.1900000000035735, 2.4219191113840934 
4.20000000000355, 2.4166466504010176 
4.210000000003527, 2.410355214100027 
4.220000000003504, 2.4030800918484148 
4.23000000000348, 2.394863908631095 
4.240000000003457, 2.385757563624592 
4.250000000003434, 2.375821299867335 
4.26000000000341, 2.3651258698813806 
4.270000000003387, 2.353753755409693 
4.280000000003364, 2.3418003921980053 
4.2900000000033405, 2.3293753432972215 
4.300000000003317, 2.316603357124501 
4.310000000003294, 2.3036252400141395 
4.320000000003271, 2.2905984677752635 
4.330000000003247, 2.2776974574149587 
4.340000000003224, 2.265113419197427 
4.350000000003201, 2.253053711015577 
4.360000000003177, 2.2417406219580727 
4.370000000003154, 2.2314095201551707 
4.380000000003131, 2.2223063115976736 
4.390000000003107, 2.2146841717587056 
4.400000000003084, 2.2087995307158885 
4.410000000003061, 2.204907315469838 
4.4200000000030375, 2.203255480930783 
4.430000000003014, 2.204078894466652 
4.440000000002991, 2.207592678900794 
4.450000000002968, 2.2139851660659358 
4.460000000002944, 2.2234106673128484 
4.470000000002921, 2.2359823271136627 
4.480000000002898, 2.251765387277018 
4.490000000002874, 2.2707712457324702 
4.500000000002851, 2.292952735863465 
4.510000000002828, 2.318201068155692 
4.520000000002804, 2.3463448528810655 
4.530000000002781, 2.3771515498594162 
4.540000000002758, 2.4103315633719866 
4.5500000000027345, 2.445545019899551 
4.560000000002711, 2.482411047219938 
4.570000000002688, 2.520519140158727 
4.580000000002665, 2.5594419835778965 
4.590000000002641, 2.598748941738406 
4.600000000002618, 2.6380193441301887 
4.610000000002595, 2.676854717477496 
4.620000000002571, 2.7148892306743484 
4.630000000002548, 2.7517978149869085 
4.640000000002525, 2.7873016637952825 
4.6500000000025015, 2.8211710665529552 
4.660000000002478, 2.853225755303569 
4.670000000002455, 2.8833331131819264 
4.6800000000024315, 2.911404699855169 
4.690000000002408, 2.9373915885999744 
4.700000000002385, 2.96127899333911 
4.710000000002362, 2.9830806068669546 
4.720000000002338, 3.002832990609192 
4.730000000002315, 3.020590266852183 
4.740000000002292, 3.0364192781815214 
4.750000000002268, 3.050395303505614 
4.760000000002245, 3.0625983593298542 
4.770000000002222, 3.073110069738028 
4.7800000000021985, 3.0820110576801096 
4.790000000002175, 3.089378791401552 
4.800000000002152, 3.095285810504047 
4.810000000002129, 3.0997982535723767 
4.820000000002105, 3.1029746112163217 
4.830000000002082, 3.104864632860273 
4.840000000002059, 3.1055083211953503 
4.850000000002035, 3.104934953802506 
4.860000000002012, 3.103162076285012 
4.870000000001989, 3.1001944147762095 
4.880000000001965, 3.096022657543015 
4.890000000001942, 3.0906220553310852 
4.900000000001919, 3.0839507879126384 
4.9100000000018955, 3.075948039873017 
4.920000000001872, 3.066531721924164 
4.930000000001849, 3.0555957649343397 
4.940000000001826, 3.0430069024763498 
4.950000000001802, 3.028600844233976 
4.960000000001779, 3.0121777275345463 
4.970000000001756, 2.993496718475706 
