t, s[1].omega / s[0].omega 
0, -1.9399968183391163 
0.009999999999999995, -1.939403960182375 
0.019999999999999934, -1.938230695700773 
0.029999999999999874, -1.9363745307403608 
0.04000000000000012, -1.9337180467700243 
0.050000000000000405, -1.9303605877315735 
0.06000000000000069, -1.927116164275824 
0.07000000000000098, -1.9253401055186417 
0.08000000000000126, -1.9252182269765072 
0.09000000000000155, -1.925637054128675 
0.10000000000000184, -1.9258252566255603 
0.11000000000000212, -1.9255966919525176 
0.12000000000000241, -1.9249104706472804 
0.130000000000002, -1.9237367247360138 
0.1400000000000009, -1.9223922117282108 
0.1499999999999998, -1.9222345134761138 
0.1599999999999987, -1.9247412028449618 
0.1699999999999976, -1.928917176659549 
0.1799999999999965, -1.9326878602884843 
0.1899999999999954, -1.9352583586939047 
0.1999999999999943, -1.9367340622252744 
0.2099999999999932, -1.9373794439589225 
0.2199999999999921, -1.9373864064777941 
0.229999999999991, -1.9368531687935011 
0.2399999999999899, -1.9358024907131497 
0.2499999999999888, -1.9342090404401613 
0.2599999999999877, -1.932065204255916 
0.2699999999999866, -1.929577674028461 
0.2799999999999855, -1.927442148500544 
0.2899999999999844, -1.926447872727111 
0.2999999999999833, -1.9264347261777193 
0.3099999999999822, -1.92662362252593 
0.3199999999999811, -1.9265520258002848 
0.32999999999998, -1.9260645876261862 
0.3399999999999789, -1.9250302384094127 
0.3499999999999778, -1.9233366480449416 
0.35999999999997667, -1.921543492575746 
0.36999999999997557, -1.9219844992629056 
0.37999999999997447, -1.9265221084935926 
0.38999999999997337, -1.9327714531603963 
0.39999999999997227, -1.9377890851989619 
0.40999999999997117, -1.9409443940485933 
0.41999999999997006, -1.9426524359636779 
0.42999999999996896, -1.9433713908407302 
0.43999999999996786, -1.9433988063329388 
0.44999999999996676, -1.9428956541944935 
0.45999999999996566, -1.941935508445043 
0.46999999999996456, -1.9405530983162724 
0.47999999999996346, -1.9388173977796896 
0.48999999999996235, -1.9369892640166733 
0.49999999999996125, -1.9356259502195705 
0.5099999999999602, -1.935112742149882 
0.519999999999959, -1.9351294112373332 
0.529999999999958, -1.9351307649611136 
0.5399999999999568, -1.9348190927175462 
0.5499999999999557, -1.9340142261251354 
0.5599999999999546, -1.9324545379098328 
0.5699999999999535, -1.9299476726580955 
0.5799999999999524, -1.9276618830179202 
0.5899999999999513, -1.9295604464395342 
0.5999999999999502, -1.9370881729845066 
0.6099999999999491, -1.9454558858339037 
0.619999999999948, -1.9513182578653754 
0.6299999999999469, -1.9546684865207098 
0.6399999999999458, -1.9563329775158191 
0.6499999999999447, -1.9569461678434403 
0.6599999999999436, -1.956875697008058 
0.6699999999999425, -1.9563145926754817 
0.6799999999999414, -1.9553650329827021 
0.6899999999999403, -1.954103828305397 
0.6999999999999392, -1.952659161716395 
0.7099999999999381, -1.9513329357984301 
0.719999999999937, -1.9505400123889693 
0.7299999999999359, -1.9503354223482465 
0.7399999999999348, -1.9503207699639176 
0.7499999999999337, -1.950118785051932 
0.7599999999999326, -1.9495015123509425 
0.7699999999999315, -1.948191138769305 
0.7799999999999304, -1.9457327219047609 
0.7899999999999293, -1.942084960179573 
0.7999999999999282, -1.940228024075486 
0.8099999999999271, -1.9458004283066164 
0.819999999999926, -1.9566001567732756 
0.8299999999999249, -1.9656584564630482 
0.8399999999999238, -1.971073781931557 
0.8499999999999227, -1.9738475645943674 
0.8599999999999216, -1.9750548222645736 
0.8699999999999205, -1.9753409637897312 
0.8799999999999194, -1.9750434414299078 
0.8899999999999183, -1.9743364200143703 
0.8999999999999172, -1.97332919617426 
0.9099999999999161, -1.9721315429501876 
0.919999999999915, -1.9709353244973535 
0.9299999999999139, -1.9700669590869513 
0.9399999999999128, -1.9697188679377464 
0.9499999999999117, -1.969656945240661 
0.9599999999999106, -1.9695031066421176 
0.9699999999999095, -1.9689944131085544 
0.9799999999999084, -1.9678556563679344 
0.9899999999999073, -1.9655866566522633 
0.9999999999999062, -1.9616364187876894 
1.0099999999999052, -1.9575860408584873 
1.019999999999904, -1.9601543043937677 
1.029999999999903, -1.9713422761533308 
1.039999999999902, -1.9826953489377135 
1.0499999999999008, -1.9898062034063233 
1.0599999999998997, -1.9934640692478431 
1.0699999999998986, -1.9951025743004256 
1.0799999999998975, -1.9956144701180456 
1.0899999999998964, -1.9954590207264786 
1.0999999999998953, -1.9948656579831332 
1.1099999999998942, -1.9939685338423672 
1.119999999999893, -1.9928825374883583 
1.129999999999892, -1.9917684907933288 
1.1399999999998909, -1.9909036706095047 
1.1499999999998898, -1.9905066046636808 
1.1599999999998887, -1.990417043540289 
1.1699999999998876, -1.9902727659301724 
1.1799999999998865, -1.9897965963654134 
1.1899999999998854, -1.9887092817150633 
1.1999999999998843, -1.9864982988157038 
1.2099999999998832, -1.982477776240436 
1.219999999999882, -1.9777828761160214 
1.229999999999881, -1.9792635321438485 
1.2399999999998799, -1.990398535418184 
1.2499999999998788, -2.0024041772395345 
1.2599999999998777, -2.009963535837763 
1.2699999999998766, -2.0138112541616002 
1.2799999999998755, -2.0155164551102684 
1.2899999999998744, -2.016049208097774 
1.2999999999998733, -2.0158995415196785 
1.3099999999998722, -2.015307833864901 
1.319999999999871, -2.014412467409879 
1.32999999999987, -2.013330363137662 
1.3399999999998689, -2.012225568024475 
1.3499999999998678, -2.011381527152625 
1.3599999999998666, -2.0110087231124156 
1.3699999999998655, -2.0109251067623095 
1.3799999999998644, -2.0107630454653505 
1.3899999999998633, -2.0102469745826186 
1.3999999999998622, -2.009083722281203 
1.4099999999998611, -2.006734096331286 
1.41999999999986, -2.0025984864362707 
1.429999999999859, -1.9984830723302323 
1.4399999999998578, -2.0016666802109806 
1.4499999999998567, -2.013294540003483 
1.4599999999998556, -2.0242364958540944 
1.4699999999998545, -2.0307540335907466 
1.4799999999998534, -2.033982567477059 
1.4899999999998523, -2.0353529219431428 
1.4999999999998512, -2.035693519552237 
1.5099999999998501, -2.0354143951652053 
1.519999999999849, -2.0347162834084185 
1.529999999999848, -2.033719129698196 
1.5399999999998468, -2.0325385583657214 
1.5499999999998457, -2.031380378851859 
1.5599999999998446, -2.0305877442039915 
1.5699999999998435, -2.0303116139674984 
1.5799999999998424, -2.0302548587444034 
1.5899999999998413, -2.0300370921167614 
1.5999999999998402, -2.029399089757788 
1.6099999999998391, -2.028020142240007 
1.619999999999838, -2.025358609015781 
1.629999999999837, -2.021364085644253 
1.6399999999998358, -2.019730629644844 
1.6499999999998347, -2.0264870572070888 
1.6599999999998336, -2.037520539632113 
1.6699999999998325, -2.0457420159561623 
1.6799999999998314, -2.050266025868746 
1.6899999999998303, -2.0524111491077517 
1.6999999999998292, -2.0532081858854543 
1.709999999999828, -2.053210365598825 
1.719999999999827, -2.0526855162185647 
1.729999999999826, -2.0517648454120456 
1.7399999999998248, -2.0505373963129907 
1.7499999999998237, -2.0491449980868737 
1.7599999999998226, -2.047927947394485 
1.7699999999998215, -2.047298483117167 
1.7799999999998204, -2.0471902617770055 
1.7899999999998193, -2.0471396645185806 
1.7999999999998182, -2.0468012605696346 
1.809999999999817, -2.0459412510068473 
1.819999999999816, -2.044216830536886 
1.8299999999998149, -2.0413407981842413 
1.8399999999998138, -2.038854974719645 
1.8499999999998127, -2.041738691904951 
1.8599999999998116, -2.050282825984085 
1.8699999999998105, -2.0582869493651597 
1.8799999999998094, -2.0632176912375924 
1.8899999999998083, -2.065749865779744 
1.8999999999998072, -2.0668241587351 
1.909999999999806, -2.0670109609396086 
1.919999999999805, -2.0665960826484224 
1.9299999999998039, -2.0657060384425634 
1.9399999999998028, -2.06439730211073 
1.9499999999998017, -2.062753144996486 
1.9599999999998006, -2.061081315798631 
1.9699999999997995, -2.0599878563280205 
1.9799999999997984, -2.0597152215168597 
1.9899999999997973, -2.0597686105313295 
1.9999999999997962, -2.059641395682351 
2.0099999999998173, -2.0590960796711886 
2.0199999999998384, -2.057923944051677 
2.0299999999998595, -2.055918723235811 
2.0399999999998806, -2.0538221513092827 
2.0499999999999017, -2.0548648370934286 
2.059999999999923, -2.0606103545578938 
2.069999999999944, -2.067085955115566 
2.079999999999965, -2.0715151862932806 
2.089999999999986, -2.073952844714243 
2.100000000000007, -2.075058992131824 
2.1100000000000283, -2.0752977099484164 
2.1200000000000494, -2.074908390764444 
2.1300000000000705, -2.0739815760601874 
2.1400000000000916, -2.072522815570777 
2.1500000000001127, -2.070542219358378 
2.160000000000134, -2.0683017100993535 
2.170000000000155, -2.066596036213992 
2.180000000000176, -2.0660588321044013 
2.190000000000197, -2.066199977454107 
2.2000000000002182, -2.0662691910073323 
2.2100000000002393, -2.0659590455646546 
2.2200000000002604, -2.0651434365525363 
2.2300000000002815, -2.063718321150689 
2.2400000000003026, -2.0621133473949027 
2.2500000000003237, -2.0623397070475535 
2.260000000000345, -2.0659253430678324 
2.270000000000366, -2.070637757235685 
2.280000000000387, -2.074181266131018 
2.290000000000408, -2.076254684161533 
2.3000000000004293, -2.0772300779377177 
2.3100000000004504, -2.0774232602948275 
2.3200000000004715, -2.076994314382679 
2.3300000000004926, -2.0759746045099634 
2.3400000000005137, -2.074298313752704 
2.3500000000005348, -2.0718744347425555 
2.360000000000556, -2.0688826076756914 
2.370000000000577, -2.066315878918443 
2.380000000000598, -2.065356944237235 
2.390000000000619, -2.0655897626368147 
2.4000000000006403, -2.0658923608293254 
2.4100000000006614, -2.065807341386846 
2.4200000000006825, -2.065259688259996 
2.4300000000007036, -2.0642265293655027 
2.4400000000007247, -2.062977730603813 
2.450000000000746, -2.0627557376195047 
2.460000000000767, -2.064829998463823 
2.470000000000788, -2.068098444923156 
2.480000000000809, -2.0708202845153547 
2.49000000000083, -2.0725147459171462 
2.5000000000008513, -2.0733333839848904 
2.5100000000008724, -2.0734624698271853 
2.5200000000008935, -2.072985340354772 
2.5300000000009146, -2.071870460020319 
2.5400000000009357, -2.069970569447956 
2.550000000000957, -2.067063415857808 
2.560000000000978, -2.063164404638134 
2.570000000000999, -2.05938029248549 
2.58000000000102, -2.057663005111692 
2.5900000000010412, -2.057938574526393 
2.6000000000010624, -2.0585507206646203 
2.6100000000010835, -2.058735261194421 
2.6200000000011046, -2.058433253228204 
2.6300000000011257, -2.0576907311663826 
2.6400000000011468, -2.0566821382235903 
2.650000000001168, -2.056156945829636 
2.660000000001189, -2.0571636401450633 
2.67000000000121, -2.0593675130927496 
2.680000000001231, -2.0614862001777916 
2.6900000000012523, -2.0629191160010834 
2.7000000000012734, -2.0636509111627546 
2.7100000000012945, -2.0637716570395437 
2.7200000000013156, -2.063309276214239 
2.7300000000013367, -2.062186520828221 
2.740000000001358, -2.06019066054112 
2.750000000001379, -2.0569672465720785 
2.7600000000014, -2.0522616762454104 
2.770000000001421, -2.0469624687192174 
2.780000000001442, -2.0438034282309383 
2.7900000000014633, -2.043804147570979 
2.8000000000014844, -2.0447971571432433 
2.8100000000015055, -2.0453584616422953 
2.8200000000015266, -2.045341001265204 
2.8300000000015477, -2.044859284392057 
2.840000000001569, -2.0440478327080753 
2.85000000000159, -2.043328229614933 
2.860000000001611, -2.043533593131504 
2.870000000001632, -2.044903599564017 
2.8800000000016532, -2.0466010481627523 
2.8900000000016743, -2.0479154960271133 
2.9000000000016954, -2.048671800277231 
2.9100000000017165, -2.048885005278381 
2.9200000000017377, -2.0485541070830218 
2.9300000000017588, -2.0475913656107325 
2.94000000000178, -2.0457712315302805 
2.950000000001801, -2.042678838601333 
2.960000000001822, -2.037791352891327 
2.970000000001843, -2.031289295379914 
2.9800000000018643, -2.0258072648762626 
2.9900000000018854, -2.0244412979341253 
3.0000000000019065, -2.0256308779659986 
3.0100000000019276, -2.026734201771314 
3.0200000000019487, -2.02712467687719 
3.03000000000197, -2.0269468094712737 
3.040000000001991, -2.026361761747075 
3.050000000002012, -2.0255927905866775 
3.060000000002033, -2.025196835501018 
3.070000000002054, -2.0257782309160364 
3.0800000000020753, -2.0270906407899405 
3.0900000000020964, -2.0283911856353285 
3.1000000000021175, -2.029290631771377 
3.1100000000021386, -2.029711792527959 
3.1200000000021597, -2.029639479739799 
3.130000000002181, -2.0290106332389835 
3.140000000002202, -2.027653216641222 
3.150000000002223, -2.0252185273030965 
3.160000000002244, -2.0211334556548968 
3.1700000000022652, -2.014871606323868 
3.1800000000022863, -2.007421943440922 
3.1900000000023074, -2.002730598487197 
3.2000000000023285, -2.0027260129365505 
3.2100000000023496, -2.0043201648252387 
3.2200000000023707, -2.0053459886227247 
3.230000000002392, -2.005616051260719 
3.240000000002413, -2.005351430100548 
3.250000000002434, -2.004724969254275 
3.260000000002455, -2.004012932168437 
3.2700000000024763, -2.003798993101472 
3.2800000000024974, -2.0045118041767434 
3.2900000000025185, -2.005758734003707 
3.3000000000025396, -2.0069009008548666 
3.3100000000025607, -2.007653090378521 
3.3200000000025818, -2.007954340363929 
3.330000000002603, -2.0077733507037747 
3.340000000002624, -2.00702327347862 
3.350000000002645, -2.005501413438993 
3.360000000002666, -2.0028198185193036 
3.3700000000026873, -1.9983743088890662 
3.3800000000027084, -1.9917145769027802 
3.3900000000027295, -1.9841796297709138 
3.4000000000027506, -1.9798900062907472 
3.4100000000027717, -1.980180908677657 
3.420000000002793, -1.9817901691663327 
3.430000000002814, -1.9827721984655855 
3.440000000002835, -1.9830132139067167 
3.450000000002856, -1.9827325412469947 
3.460000000002877, -1.9820967374312701 
3.4700000000028983, -1.9813811427292989 
3.4800000000029194, -1.9811731070213607 
3.4900000000029405, -1.981914907988489 
3.5000000000029616, -1.9832222844258003 
3.5100000000029827, -1.9844382609007973 
3.520000000003004, -1.9852593755514547 
3.530000000003025, -1.985622791975662 
3.540000000003046, -1.9855062638092444 
3.550000000003067, -1.9848416200226637 
3.5600000000030882, -1.9834620558111904 
3.5700000000031094, -1.9810468273202033 
3.5800000000031305, -1.9770938985604185 
3.5900000000031516, -1.9711767194897316 
3.6000000000031727, -1.9641721273499588 
3.6100000000031938, -1.9594729650668572 
3.620000000003215, -1.9590515974073583 
3.630000000003236, -1.960414097122626 
3.640000000003257, -1.9614103156865887 
3.650000000003278, -1.961710568775554 
3.6600000000032993, -1.9614801120481302 
3.6700000000033204, -1.9608618367592228 
3.6800000000033415, -1.9600739970034038 
3.6900000000033626, -1.9596828452132429 
3.7000000000033837, -1.9603337038826822 
3.710000000003405, -1.9618249696556316 
3.720000000003426, -1.9633673728311176 
3.730000000003447, -1.9644988527466485 
3.740000000003468, -1.9651225015736178 
3.750000000003489, -1.9652437659160076 
3.7600000000035103, -1.9648458561219546 
3.7700000000035314, -1.9638411381452276 
3.7800000000035525, -1.9620353867004732 
3.7900000000035736, -1.959103024634374 
3.8000000000035947, -1.9546798708429496 
3.810000000003616, -1.9489639356040278 
3.820000000003637, -1.9439048899616693 
3.830000000003658, -1.9420456582389474 
3.840000000003679, -1.942698811878207 
3.8500000000037002, -1.9436511234353298 
3.8600000000037213, -1.944067729243459 
3.8700000000037424, -1.9439510664546962 
3.8800000000037635, -1.9434007052830704 
3.8900000000037847, -1.9425356320566904 
3.9000000000038058, -1.941785948729779 
3.910000000003827, -1.9420423231144728 
3.920000000003848, -1.9436697531794167 
3.930000000003869, -1.9458207084897805 
3.94000000000389, -1.9476154901861307 
3.9500000000039113, -1.9487823616291315 
3.9600000000039324, -1.9493446164454717 
3.9700000000039535, -1.9493586806516636 
3.9800000000039746, -1.9488319452071636 
3.9900000000039957, -1.9476979321376067 
4.000000000004016, -1.9458031623450958 
4.010000000003993, -1.9429248282324267 
4.02000000000397, -1.938957931739159 
4.030000000003946, -1.9345431151897396 
4.040000000003923, -1.931499771087958 
4.0500000000039, -1.930889987540919 
4.0600000000038765, -1.931487960665184 
4.070000000003853, -1.9319834458953562 
4.08000000000383, -1.932021546060669 
4.090000000003807, -1.9316061010236116 
4.100000000003783, -1.9307593763047861 
4.11000000000376, -1.9296498909777 
4.120000000003737, -1.9290751837443527 
4.130000000003713, -1.9302735528677393 
4.14000000000369, -1.933107180948279 
4.150000000003667, -1.936086482837073 
4.1600000000036434, -1.9383001015825947 
4.17000000000362, -1.9396448481337334 
4.180000000003597, -1.9402630189592986 
4.1900000000035735, -1.9402804323172202 
4.20000000000355, -1.9397526451084133 
4.210000000003527, -1.93866238844765 
4.220000000003504, -1.9369288663154816 
4.23000000000348, -1.934454887878336 
4.240000000003457, -1.9313292533804467 
4.250000000003434, -1.928271702620926 
4.26000000000341, -1.926526601068547 
4.270000000003387, -1.9263381834751023 
4.280000000003364, -1.9267032514750724 
4.2900000000033405, -1.9268673969779015 
4.300000000003317, -1.9266267250956102 
4.310000000003294, -1.9259237825219049 
4.320000000003271, -1.9247062163868793 
4.330000000003247, -1.9232604652528913 
4.340000000003224, -1.922990685548816 
4.350000000003201, -1.925583711210074 
4.360000000003177, -1.9300783678777087 
4.370000000003154, -1.9341787515476487 
4.380000000003131, -1.9369757687450324 
4.390000000003107, -1.9385866228437567 
4.400000000003084, -1.9393127997767774 
4.410000000003061, -1.9393751200477722 
4.4200000000030375, -1.9388918680760518 
4.430000000003014, -1.9379015130661632 
4.440000000002991, -1.936393183124908 
4.450000000002968, -1.9343692738689868 
4.460000000002944, -1.9320231969465145 
4.470000000002921, -1.9299932390158738 
4.480000000002898, -1.9290197856878823 
4.490000000002874, -1.9289779361223907 
4.500000000002851, -1.9291388017028157 
4.510000000002828, -1.929049047917691 
4.520000000002804, -1.9285441159652272 
4.530000000002781, -1.9274771205088328 
4.540000000002758, -1.9257072223275422 
4.5500000000027345, -1.9237720713810258 
4.560000000002711, -1.9241280354319024 
4.570000000002688, -1.928881597327241 
4.580000000002665, -1.935529691554533 
4.590000000002641, -1.9408611621550727 
4.600000000002618, -1.944193436982145 
4.610000000002595, -1.9459893071921055 
4.620000000002571, -1.9467514066031861 
4.630000000002548, -1.9468038350659402 
4.640000000002525, -1.946322621167176 
4.6500000000025015, -1.945391280724607 
4.660000000002478, -1.944052915884324 
4.670000000002455, -1.9423820359909285 
4.6800000000024315, -1.9406333632894537 
4.690000000002408, -1.939336677308902 
4.700000000002385, -1.9388488398810833 
4.710000000002362, -1.9388569107199616 
4.720000000002338, -1.938838530661321 
4.730000000002315, -1.9385032121063646 
4.740000000002292, -1.9376623367573274 
4.750000000002268, -1.936033578963599 
4.760000000002245, -1.9334037789993488 
4.770000000002222, -1.9310116822314716 
4.7800000000021985, -1.933063149717298 
4.790000000002175, -1.940972763848134 
4.800000000002152, -1.9496165265584224 
4.810000000002129, -1.955586041100291 
4.820000000002105, -1.9589571893556361 
4.830000000002082, -1.9606126254968426 
4.840000000002059, -1.9612104028014739 
4.850000000002035, -1.9611266219845516 
4.860000000002012, -1.9605575624154354 
4.870000000001989, -1.9596082839479727 
4.880000000001965, -1.9583598689578838 
4.890000000001942, -1.9569464336376456 
4.900000000001919, -1.9556731741523214 
4.9100000000018955, -1.954936203281136 
4.920000000001872, -1.9547564516336386 
4.930000000001849, -1.9547322203101274 
4.940000000001826, -1.9545019040327998 
4.950000000001802, -1.9538386987770355 
