t, s[1].omega / s[0].omega 
0, -0.9999974130688042 
0.009999999999999995, -0.9996788769834861 
0.019999999999999934, -0.9994742098657524 
0.029999999999999874, -0.9991880704284151 
0.04000000000000012, -0.9989363548103993 
0.050000000000000405, -0.9987012273564242 
0.06000000000000069, -0.9983986024880674 
0.07000000000000098, -0.998201987337584 
0.08000000000000126, -0.9978862757824025 
0.09000000000000155, -0.9976891481076579 
0.10000000000000184, -0.9974048952350385 
0.11000000000000212, -0.9971644422421196 
0.12000000000000241, -0.9969332571626459 
0.130000000000002, -0.9966411813123723 
0.1400000000000009, -0.996452300386426 
0.1499999999999998, -0.9961449448497296 
0.1599999999999987, -0.9959599414553003 
0.1699999999999976, -0.9956844336815991 
0.1799999999999965, -0.9954588132821279 
0.1899999999999954, -0.9952391350398044 
0.1999999999999943, -0.9949611238467265 
0.2099999999999932, -0.9947871461915564 
0.2199999999999921, -0.9944923422564945 
0.229999999999991, -0.994325268288137 
0.2399999999999899, -0.994064378097985 
0.2499999999999888, -0.9938576506468279 
0.2599999999999877, -0.9936571557701266 
0.2699999999999866, -0.9933960316699599 
0.2799999999999855, -0.993245527322904 
0.2899999999999844, -0.9929660327679467 
0.2999999999999833, -0.9928246189112814 
0.3099999999999822, -0.9925832999080291 
0.3199999999999811, -0.9924005786792243 
0.32999999999998, -0.9922274976993039 
0.3399999999999789, -0.9919856643236844 
0.3499999999999778, -0.9918695213021179 
0.35999999999997667, -0.9916068073832941 
0.36999999999997557, -0.9915018227969682 
0.37999999999997447, -0.9912845682728701 
0.38999999999997337, -0.9911328207169492 
0.39999999999997227, -0.9909969410125767 
0.40999999999997117, -0.9907767621710057 
0.41999999999997006, -0.9907098624244047 
0.42999999999996896, -0.9904643883688042 
0.43999999999996786, -0.9904114363343274 
0.44999999999996676, -0.9902230361998876 
0.45999999999996566, -0.990112227559204 
0.46999999999996456, -0.9900265247305506 
0.47999999999996346, -0.989830722562084 
0.48999999999996235, -0.9898346607374467 
0.49999999999996125, -0.989606113243478 
0.5099999999999602, -0.989628423136405 
0.519999999999959, -0.9894748271999334 
0.529999999999958, -0.989419534894506 
0.5399999999999568, -0.9894023881597628 
0.5499999999999557, -0.9892343782441919 
0.5599999999999546, -0.9893413566532424 
0.5699999999999535, -0.9891287209053387 
0.5799999999999524, -0.9892610517967056 
0.5899999999999513, -0.9891499647080234 
0.5999999999999502, -0.9891714476691276 
0.6099999999999491, -0.9892489411569072 
0.619999999999948, -0.9891130081946741 
0.6299999999999469, -0.9893701282316967 
0.6399999999999458, -0.9891715069664863 
0.6499999999999447, -0.9894641714836253 
0.6599999999999436, -0.9894045104221431 
0.6699999999999425, -0.989532526047491 
0.6799999999999414, -0.9897387587113262 
0.6899999999999403, -0.9896399920318015 
0.6999999999999392, -0.9901099306117627 
0.7099999999999381, -0.9899221289845361 
0.719999999999937, -0.9904405261705883 
0.7299999999999359, -0.9904389613058 
0.7399999999999348, -0.9907106399083248 
0.7499999999999337, -0.9910802144167518 
0.7599999999999326, -0.9910243355613371 
0.7699999999999315, -0.9917710812491858 
0.7799999999999304, -0.9915892584349082 
0.7899999999999293, -0.9923968979147848 
0.7999999999999282, -0.992449476808289 
0.8099999999999271, -0.9928991533673519 
0.819999999999926, -0.9934423540599987 
0.8299999999999249, -0.9934359431393581 
0.8399999999999238, -0.9944789443460393 
0.8499999999999227, -0.9942972743153571 
0.8599999999999216, -0.9954075825217472 
0.8699999999999205, -0.9954890088149448 
0.8799999999999194, -0.9961229020436645 
0.8899999999999183, -0.9967857541580418 
0.8999999999999172, -0.9968363114042484 
0.9099999999999161, -0.9980826189101791 
0.919999999999915, -0.9978973802613277 
0.9299999999999139, -0.9992116736603011 
0.9399999999999128, -0.9992756681380194 
0.9499999999999117, -1.000041083280546 
0.9599999999999106, -1.0006941977231316 
0.9699999999999095, -1.0008050274197071 
0.9799999999999084, -1.0020395267763353 
0.9899999999999073, -1.0018539744151487 
0.9999999999999062, -1.0031645104193894 
1.0099999999999052, -1.0031664304982073 
1.019999999999904, -1.0039521734710264 
1.029999999999903, -1.0044572814326158 
1.039999999999902, -1.0046142221432524 
1.0499999999999008, -1.0056150827988202 
1.0599999999998997, -1.0054400362218239 
1.0699999999998986, -1.0065384187888564 
1.0799999999998975, -1.006461084861368 
1.0899999999998964, -1.0071500364018304 
1.0999999999998953, -1.0074446860190382 
1.1099999999998942, -1.0076117092763386 
1.119999999999893, -1.0082817235482762 
1.129999999999892, -1.0081263894423065 
1.1399999999998909, -1.0089114258006489 
1.1499999999998898, -1.0087666977627454 
1.1599999999998887, -1.009291604821878 
1.1699999999998876, -1.0093943693202696 
1.1799999999998865, -1.0095324393870537 
1.1899999999998854, -1.009901857012326 
1.1999999999998843, -1.0097638883489717 
1.2099999999998832, -1.010247856805472 
1.219999999999882, -1.0100596084100377 
1.229999999999881, -1.0104098243892208 
1.2399999999998799, -1.0103713650486017 
1.2499999999998788, -1.010457741975457 
1.2599999999998777, -1.0106055415443045 
1.2699999999998766, -1.0104735315440412 
1.2799999999998755, -1.0107229147725685 
1.2899999999998744, -1.0105114399223916 
1.2999999999998733, -1.0107086569565238 
1.3099999999998722, -1.0105762126253806 
1.319999999999871, -1.010605482847389 
1.32999999999987, -1.010603564646523 
1.3399999999998689, -1.010466278931489 
1.3499999999998678, -1.0105505595727124 
1.3599999999998666, -1.0103268757887667 
1.3699999999998655, -1.0104032169416766 
1.3799999999998644, -1.0102105413760163 
1.3899999999998633, -1.010186793928813 
1.3999999999998622, -1.0100852891265908 
1.4099999999998611, -1.009936387504915 
1.41999999999986, -1.0099080220201813 
1.429999999999859, -1.0096760025099625 
1.4399999999998578, -1.0096620867742985 
1.4499999999998567, -1.0094306597338034 
1.4599999999998556, -1.009361491468049 
1.4699999999998545, -1.0091922501522994 
1.4799999999998534, -1.0090298980934467 
1.4899999999998523, -1.0089236073240182 
1.4999999999998512, -1.0086842086304868 
1.5099999999998501, -1.0086043576836883 
1.519999999999849, -1.0083470084824062 
1.529999999999848, -1.008240782935217 
1.5399999999998468, -1.0080237858069114 
1.5499999999998457, -1.007848853396827 
1.5599999999998446, -1.007686727324762 
1.5699999999998435, -1.0074407557556067 
1.5799999999998424, -1.0073125173986424 
1.5899999999998413, -1.0070369420911904 
1.5999999999998402, -1.0069016071526122 
1.6099999999998391, -1.0066498898821643 
1.619999999999838, -1.0064646085676883 
1.629999999999837, -1.00626110552709 
1.6399999999998358, -1.006010196784143 
1.6499999999998347, -1.005845894342579 
1.6599999999998336, -1.0055573938892868 
1.6699999999998325, -1.0053999533853595 
1.6799999999998314, -1.0051228082403887 
1.6899999999998303, -1.0049300584430076 
1.6999999999998292, -1.0046955521199565 
1.709999999999828, -1.0044421831727999 
1.719999999999827, -1.0042509205186358 
1.729999999999826, -1.0039540980355819 
1.7399999999998248, -1.0037805789490983 
1.7499999999998237, -1.0034855332963197 
1.7599999999998226, -1.003288497996184 
1.7699999999998215, -1.0030314868932713 
1.7799999999998204, -1.00277867619683 
1.7899999999998193, -1.002568016805554 
1.7999999999998182, -1.002267503244977 
1.809999999999817, -1.002083305714403 
1.819999999999816, -1.0017772052029081 
1.8299999999998149, -1.0015792307567941 
1.8399999999998138, -1.001307530703318 
1.8499999999998127, -1.0010585390974498 
1.8599999999998116, -1.0008355949705174 
1.8699999999998105, -1.0005361029009912 
1.8799999999998094, -1.0003465041309976 
1.8899999999998083, -1.000035880376302 
1.8999999999998072, -0.9998405111564735 
1.909999999999806, -0.9995616884554621 
1.919999999999805, -0.9993198393070585 
1.9299999999998039, -0.9990917785611978 
1.9399999999998028, -0.998797841658858 
1.9499999999998017, -0.9986084371135312 
1.9599999999998006, -0.9982993665509265 
1.9699999999997995, -0.9981105386159064 
1.9799999999997984, -0.9978318266682853 
1.9899999999997973, -0.9976004906726582 
1.9999999999997962, -0.9973746231100505 
2.0099999999998173, -0.9970903130277339 
2.0199999999998384, -0.9969073158778441 
2.0299999999998595, -0.9966050502208853 
2.0399999999998806, -0.9964274144007741 
2.0499999999999017, -0.9961553976812321 
2.059999999999923, -0.9959381576172075 
2.069999999999944, -0.9957218463113833 
2.079999999999965, -0.9954506390560698 
2.089999999999986, -0.995281125060332 
2.100000000000007, -0.9949897639836969 
2.1100000000000283, -0.9948291363683444 
2.1200000000000494, -0.9945694900074914 
2.1300000000000705, -0.9943704850338755 
2.1400000000000916, -0.9941711560020967 
2.1500000000001127, -0.9939160026685757 
2.160000000000134, -0.993768301373468 
2.170000000000155, -0.9934906650806574 
2.180000000000176, -0.9933546787735741 
2.190000000000197, -0.9931121662883395 
2.2000000000002182, -0.9929366234194954 
2.2100000000002393, -0.9927620979344617 
2.2200000000002604, -0.992525673724615 
2.2300000000002815, -0.9924101485179154 
2.2400000000003026, -0.9921478609920825 
2.2500000000003237, -0.9920469829737116 
2.260000000000345, -0.9918257728279224 
2.270000000000366, -0.9916807708293303 
2.280000000000387, -0.9915400566052708 
2.290000000000408, -0.9913251274507173 
2.3000000000004293, -0.9912555870709517 
2.3100000000004504, -0.9910092752957451 
2.3200000000004715, -0.9909584272779087 
2.3300000000004926, -0.9907626588110904 
2.3400000000005137, -0.990658220914498 
2.3500000000005348, -0.9905628088511174 
2.360000000000556, -0.9903726527004152 
2.370000000000577, -0.9903686135956322 
2.380000000000598, -0.9901380909679544 
2.390000000000619, -0.9901591353723165 
2.4000000000006403, -0.989993563361469 
2.4100000000006614, -0.9899441955448132 
2.4200000000006825, -0.9899097841184887 
2.4300000000007036, -0.9897486044814218 
2.4400000000007247, -0.9898384671281883 
2.450000000000746, -0.9896227870922529 
2.460000000000767, -0.9897479486877312 
2.470000000000788, -0.9896183476621879 
2.480000000000809, -0.9896450088250281 
2.49000000000083, -0.9896931988819403 
2.5000000000008513, -0.989566443352353 
2.5100000000008724, -0.989790897358002 
2.5200000000008935, -0.9895882236270764 
2.5300000000009146, -0.9898635706061795 
2.5400000000009357, -0.9897762393516188 
2.550000000000957, -0.9899081191028873 
2.560000000000978, -0.990066446642537 
2.570000000000999, -0.989980898219766 
2.58000000000102, -0.9903934033611278 
2.5900000000010412, -0.9902007727838252 
2.6000000000010624, -0.9906859294687752 
2.6100000000010835, -0.9906450705590049 
2.6200000000011046, -0.9909187993577458 
2.6300000000011257, -0.9912148422416241 
2.6400000000011468, -0.9911783721371366 
2.650000000001168, -0.9918341110324413 
2.660000000001189, -0.9916474343969439 
2.67000000000121, -0.9924017473391872 
2.680000000001231, -0.9924034810277851 
2.6900000000012523, -0.9928542579008753 
2.7000000000012734, -0.9932970477702835 
2.7100000000012945, -0.9933180342540702 
2.7200000000013156, -0.9942383147055026 
2.7300000000013367, -0.9940533739394316 
2.740000000001358, -0.9950958972054026 
2.750000000001379, -0.9951207418899268 
2.7600000000014, -0.995759192801945 
2.770000000001421, -0.9963088025631667 
2.780000000001442, -0.9963945951184229 
2.7900000000014633, -0.9975109723941473 
2.8000000000014844, -0.9973262322650224 
2.8100000000015055, -0.9985799867533659 
2.8200000000015266, -0.9985926874774353 
2.8300000000015477, -0.9993743639850646 
2.840000000001569, -0.9999293831455266 
2.85000000000159, -1.0000806369743185 
2.860000000001611, -1.0012165976049001 
2.870000000001632, -1.001036853358701 
2.8800000000016532, -1.002319623984819 
2.8900000000016743, -1.0022846049536565 
2.9000000000016954, -1.0031049527592732 
2.9100000000017165, -1.003547389366691 
2.9200000000017377, -1.0037470007182885 
2.9300000000017588, -1.0047009784594014 
2.94000000000178, -1.0045368897331752 
2.950000000001801, -1.0056462442904952 
2.960000000001822, -1.0055476338592162 
2.970000000001843, -1.0062870775381207 
2.9800000000018643, -1.0065521867675626 
2.9900000000018854, -1.0067624396174846 
3.0000000000019065, -1.0074258776778857 
3.0100000000019276, -1.0072852922726299 
3.0200000000019487, -1.008104770789004 
3.03000000000197, -1.0079504764700475 
3.040000000001991, -1.0085314647880304 
3.050000000002012, -1.0086240775713566 
3.060000000002033, -1.0088041539410908 
3.070000000002054, -1.0091851392527358 
3.0800000000020753, -1.0090642785531347 
3.0900000000020964, -1.009587833719434 
3.1000000000021175, -1.0093974579333451 
3.1100000000021386, -1.0097996453290965 
3.1200000000021597, -1.0097594854684857 
3.130000000002181, -1.009884484720369 
3.140000000002202, -1.010047549092128 
3.150000000002223, -1.0099337801923014 
3.160000000002244, -1.0102178289750439 
3.1700000000022652, -1.0100089174210383 
3.1800000000022863, -1.0102493879088053 
3.1900000000023074, -1.0101185104930164 
3.2000000000023285, -1.010181601872653 
3.2100000000023496, -1.0101932649948773 
3.2200000000023707, -1.010074312432728 
3.230000000002392, -1.0101858274720346 
3.240000000002413, -1.0099678352195212 
3.250000000002434, -1.0100782438259435 
3.260000000002455, -1.0098886909689015 
3.2700000000024763, -1.009893630860605 
3.2800000000024974, -1.0098032058288917 
3.2900000000025185, -1.009672000609543 
3.3000000000025396, -1.00966440917097 
3.3100000000025607, -1.0094402350351395 
3.3200000000025818, -1.0094526520841038 
3.330000000002603, -1.009225577569653 
3.340000000002624, -1.0091803384424634 
3.350000000002645, -1.0090203276779843 
3.360000000002666, -1.008874636405128 
3.3700000000026873, -1.0087844622216782 
3.3800000000027084, -1.0085543760978721 
3.3900000000027295, -1.0084950163899296 
3.4000000000027506, -1.008243273935355 
3.4100000000027717, -1.008156901516651 
3.420000000002793, -1.0079481419744132 
3.430000000002814, -1.0077886586962184 
3.440000000002835, -1.007639592547822 
3.450000000002856, -1.0074038791115385 
3.460000000002877, -1.007291969826399 
3.4700000000028983, -1.0070232347213566 
3.4800000000029194, -1.0069044248352483 
3.4900000000029405, -1.0066606054839797 
3.5000000000029616, -1.0064895035027666 
3.5100000000029827, -1.00629714474671 
3.520000000003004, -1.0060570160006508 
3.530000000003025, -1.0059061495082138 
3.540000000003046, -1.005625549026789 
3.550000000003067, -1.0054819931845107 
3.5600000000030882, -1.0052127479060982 
3.5700000000031094, -1.0050329124035653 
3.5800000000031305, -1.0048083148168667 
3.5900000000031516, -1.004565886489039 
3.6000000000031727, -1.0043860131028233 
3.6100000000031938, -1.004097831056672 
3.620000000003215, -1.0039361214586615 
3.630000000003236, -1.0036490062079122 
3.640000000003257, -1.0034636679958109 
3.650000000003278, -1.0032156139585933 
3.6600000000032993, -1.0029735993111784 
3.6700000000033204, -1.0027727561588846 
3.6800000000033415, -1.0024812156335647 
3.6900000000033626, -1.0023071689965142 
3.7000000000033837, -1.002008807587941 
3.710000000003405, -1.001821394446919 
3.720000000003426, -1.0015576772139687 
3.730000000003447, -1.0013190997738672 
3.740000000003468, -1.0011045766051523 
3.750000000003489, -1.0008139735910317 
3.7600000000035103, -1.0006331335902996 
3.7700000000035314, -1.000329695873858 
3.7800000000035525, -1.000143854265207 
3.7900000000035736, -0.9998718234129271 
3.8000000000035947, -0.9996398518517977 
3.810000000003616, -0.999418791594308 
3.820000000003637, -0.9991333139164759 
3.830000000003658, -0.9989514103694971 
3.840000000003679, -0.9986485998893585 
3.8500000000037002, -0.9984683699781159 
3.8600000000037213, -0.9981949683820242 
3.8700000000037424, -0.9979729068606672 
3.8800000000037635, -0.9977524823158204 
3.8900000000037847, -0.997475984109601 
3.9000000000038058, -0.9972992577627423 
3.910000000003827, -0.9970020488051331 
3.920000000003848, -0.9968321650478246 
3.930000000003869, -0.9965637073549205 
3.94000000000389, -0.9963551524005423 
3.9500000000039113, -0.9961425381220624 
3.9600000000039324, -0.9958784313877712 
3.9700000000039535, -0.995713888413596 
3.9800000000039746, -0.9954262526283748 
3.9900000000039957, -0.9952725656639381 
4.000000000004016, -0.9950145123378252 
4.010000000003993, -0.9948236784603313 
4.02000000000397, -0.994626061131639 
4.030000000003946, -0.9943773836261028 
4.040000000003923, -0.9942331525040655 
4.0500000000039, -0.9939579281649028 
4.0600000000038765, -0.9938280111447423 
4.070000000003853, -0.993584926860406 
4.08000000000383, -0.9934171524641487 
4.090000000003807, -0.993241986544155 
4.100000000003783, -0.9930116354105972 
4.11000000000376, -0.9928976401128542 
4.120000000003737, -0.9926365738162262 
4.130000000003713, -0.9925406567779704 
4.14000000000369, -0.9923164231830988 
4.150000000003667, -0.992178901659808 
4.1600000000036434, -0.9920345371550763 
4.17000000000362, -0.9918256268063544 
4.180000000003597, -0.9917547845966022 
4.1900000000035735, -0.9915086787927317 
4.20000000000355, -0.9914611179149093 
4.210000000003527, -0.991259351095868 
4.220000000003504, -0.9911621759259662 
4.23000000000348, -0.9910588911009283 
4.240000000003457, -0.9908751905750718 
4.250000000003434, -0.9908653029107287 
4.26000000000341, -0.9906341618781058 
4.270000000003387, -0.9906556577929183 
4.280000000003364, -0.990480182655281 
4.2900000000033405, -0.9904378089912237 
4.300000000003317, -0.9903891504093079 
4.310000000003294, -0.9902355538702773 
4.320000000003271, -0.9903118975801221 
4.330000000003247, -0.990094975671674 
4.340000000003224, -0.9902155662418374 
4.350000000003201, -0.9900706782980337 
4.360000000003177, -0.9901037778374622 
4.370000000003154, -0.9901277838265417 
4.380000000003131, -0.9900107357101159 
4.390000000003107, -0.9902087267622969 
4.400000000003084, -0.9900044426101563 
4.410000000003061, -0.990266462814617 
4.4200000000030375, -0.9901564718566979 
4.430000000003014, -0.9902936031172183 
4.440000000002991, -0.990412587972543 
4.450000000002968, -0.9903402992582664 
4.460000000002944, -0.9907056661627529 
4.470000000002921, -0.9905114816894117 
4.480000000002898, -0.9909692262372276 
4.490000000002874, -0.9908964347199332 
4.500000000002851, -0.9911733936237966 
4.510000000002828, -0.9914090996763818 
4.520000000002804, -0.9913912771583326 
4.530000000002781, -0.9919710742683956 
4.540000000002758, -0.9917836896014018 
4.5500000000027345, -0.9924917077177634 
4.560000000002711, -0.9924520883341692 
4.570000000002688, -0.9929039885847187 
4.580000000002665, -0.9932632879294976 
4.590000000002641, -0.9933099920915848 
4.600000000002618, -0.9941243875638623 
4.610000000002595, -0.9939408963214267 
4.620000000002571, -0.9949203181654035 
4.630000000002548, -0.9948983157061266 
4.640000000002525, -0.9955385211856456 
4.6500000000025015, -0.9959902600022914 
4.660000000002478, -0.9961090805188286 
4.670000000002455, -0.9971058780361918 
4.6800000000024315, -0.9969263548538898 
4.690000000002408, -0.9981158513576376 
4.700000000002385, -0.9980843336110634 
4.710000000002362, -0.9988752128909445 
4.720000000002338, -0.9993389359131141 
4.730000000002315, -0.9995285410891875 
4.740000000002292, -1.0005626496817448 
4.750000000002268, -1.0003929336101722 
4.760000000002245, -1.001633368750625 
4.770000000002222, -1.001564539570981 
4.7800000000021985, -1.00240878185227 
4.790000000002175, -1.0027856374888788 
4.800000000002152, -1.003026178682266 
4.810000000002129, -1.003919088323747 
4.820000000002105, -1.0037694649219537 
4.830000000002082, -1.004869748238107 
4.840000000002059, -1.0047503243846618 
4.850000000002035, -1.005528816295199 
4.860000000002012, -1.0057570852809945 
4.870000000001989, -1.0060090000689936 
4.880000000001965, -1.0066498584876038 
4.890000000001942, -1.0065267221312568 
4.900000000001919, -1.0073626280741312 
4.9100000000018955, -1.007198431067474 
4.920000000001872, -1.0078261155319888 
4.930000000001849, -1.0079017280080163 
