t, s[1].omega / s[0].omega 
0, -1.2401306403781056 
0.009999999999999995, -1.2516767957452049 
0.019999999999999934, -1.259904865315758 
0.029999999999999874, -1.2651635069771776 
0.04000000000000012, -1.2682460748985398 
0.050000000000000405, -1.2698980026794058 
0.06000000000000069, -1.2706555262145793 
0.07000000000000098, -1.2708558848972937 
0.08000000000000126, -1.2706988698584474 
0.09000000000000155, -1.270311690036174 
0.10000000000000184, -1.2698101653085914 
0.11000000000000212, -1.2693546426651783 
0.12000000000000241, -1.2691730062865425 
0.130000000000002, -1.2695001042964285 
0.1400000000000009, -1.2704446515793195 
0.1499999999999998, -1.2719113978796828 
0.1599999999999987, -1.2736666710020068 
0.1699999999999976, -1.2754642681426098 
0.1799999999999965, -1.2771198523265865 
0.1899999999999954, -1.2785206985290705 
0.1999999999999943, -1.279608139939442 
0.2099999999999932, -1.2803588395206154 
0.2199999999999921, -1.2807726446991488 
0.229999999999991, -1.2808661838661852 
0.2399999999999899, -1.2806691770064629 
0.2499999999999888, -1.280221826369703 
0.2599999999999877, -1.2795741976205355 
0.2699999999999866, -1.2787886714723231 
0.2799999999999855, -1.2779427895931783 
0.2899999999999844, -1.2771260691682678 
0.2999999999999833, -1.2764273950136185 
0.3099999999999822, -1.2759169298635389 
0.3199999999999811, -1.27562680866933 
0.32999999999998, -1.275534754183498 
0.3399999999999789, -1.2755644731485505 
0.3499999999999778, -1.2756105498781067 
0.35999999999997667, -1.275568284228782 
0.36999999999997557, -1.2753447479172 
0.37999999999997447, -1.2748508989187797 
0.38999999999997337, -1.2739897307914654 
0.39999999999997227, -1.2726530760010324 
0.40999999999997117, -1.2707318631154843 
0.41999999999997006, -1.2681378609097758 
0.42999999999996896, -1.2648323139734639 
0.43999999999996786, -1.260861327900713 
0.44999999999996676, -1.256403438701891 
0.45999999999996566, -1.251821701701139 
0.46999999999996456, -1.247662778156915 
0.47999999999996346, -1.24450063798384 
0.48999999999996235, -1.2426312984883063 
0.49999999999996125, -1.2418869818259346 
0.5099999999999602, -1.2418023395399806 
0.519999999999959, -1.2419323656775885 
0.529999999999958, -1.2420046538848895 
0.5399999999999568, -1.2418847421496255 
0.5499999999999557, -1.2414855633551798 
0.5599999999999546, -1.2406887193221947 
0.5699999999999535, -1.2392739873335763 
0.5799999999999524, -1.2368350718442884 
0.5899999999999513, -1.2326788049905735 
0.5999999999999502, -1.225778009221639 
0.6099999999999491, -1.2150146069831802 
0.619999999999948, -1.2000910608817665 
0.6299999999999469, -1.1829730181866702 
0.6399999999999458, -1.1681039149489447 
0.6499999999999447, -1.1595594561739389 
0.6599999999999436, -1.157711160626817 
0.6699999999999425, -1.1597641905346765 
0.6799999999999414, -1.1627897727649554 
0.6899999999999403, -1.1653003955401657 
0.6999999999999392, -1.1669567050781786 
0.7099999999999381, -1.1678807046256945 
0.719999999999937, -1.1682665777502135 
0.7299999999999359, -1.1682517769491636 
0.7399999999999348, -1.1678951095963448 
0.7499999999999337, -1.1671804496894391 
0.7599999999999326, -1.1660240575241392 
0.7699999999999315, -1.1643019105283252 
0.7799999999999304, -1.1619606732832248 
0.7899999999999293, -1.1593308490442078 
0.7999999999999282, -1.157680214344841 
0.8099999999999271, -1.1595028325196837 
0.819999999999926, -1.1673572493355544 
0.8299999999999249, -1.181305429224509 
0.8399999999999238, -1.1979912077287378 
0.8499999999999227, -1.213151036865602 
0.8599999999999216, -1.2244395870286893 
0.8699999999999205, -1.23175780294721 
0.8799999999999194, -1.2360705796120393 
0.8899999999999183, -1.2384255095973655 
0.8999999999999172, -1.239589620818331 
0.9099999999999161, -1.2400368133762005 
0.919999999999915, -1.2400346966477744 
0.9299999999999139, -1.2397303913680837 
0.9399999999999128, -1.2392212270240468 
0.9499999999999117, -1.238625023261552 
0.9599999999999106, -1.238156474343689 
0.9699999999999095, -1.2381665522258172 
0.9799999999999084, -1.2390477986216217 
0.9899999999999073, -1.2409962709336493 
0.9999999999999062, -1.2438469368224612 
1.0099999999999052, -1.2471736414938164 
1.019999999999904, -1.2505241985855444 
1.029999999999903, -1.253568466695374 
1.039999999999902, -1.2561193786057068 
1.0499999999999008, -1.258098975154365 
1.0599999999998997, -1.2595029474314046 
1.0699999999998986, -1.2603757856785736 
1.0799999999998975, -1.2607913323459 
1.0899999999998964, -1.2608352794672801 
1.0999999999998953, -1.2605925979956762 
1.1099999999998942, -1.2601444690758257 
1.119999999999893, -1.259574689072918 
1.129999999999892, -1.2589778276167753 
1.1399999999998909, -1.258455863272919 
1.1499999999998898, -1.2580965643422544 
1.1599999999998887, -1.2579467482585973 
1.1699999999998876, -1.2580012919775654 
1.1799999999998865, -1.2582105647866348 
1.1899999999998854, -1.2584959191963643 
1.1999999999998843, -1.2587679867539427 
1.2099999999998832, -1.2589433085893458 
1.219999999999882, -1.2589525311553849 
1.229999999999881, -1.2587399166670479 
1.2399999999998799, -1.2582604980565948 
1.2499999999998788, -1.2574797431222804 
1.2599999999998777, -1.2563758049037288 
1.2699999999998766, -1.2549425610315454 
1.2799999999998755, -1.2531935089044715 
1.2899999999998744, -1.2511689812290154 
1.2999999999998733, -1.2489489283923523 
1.3099999999998722, -1.2466691988905994 
1.319999999999871, -1.244528723839218 
1.32999999999987, -1.2427598254047547 
1.3399999999998689, -1.241540292015469 
1.3499999999998678, -1.2408907227190744 
1.3599999999998666, -1.240660007980125 
1.3699999999998655, -1.2406223981589506 
1.3799999999998644, -1.240582031020796 
1.3899999999998633, -1.240402346459588 
1.3999999999998622, -1.2399747454470997 
1.4099999999998611, -1.2391681663554885 
1.41999999999986, -1.2377777196028104 
1.429999999999859, -1.2354763296799218 
1.4399999999998578, -1.2317850032652147 
1.4499999999998567, -1.2261096087931111 
1.4599999999998556, -1.2179234343504641 
1.4699999999998545, -1.2071497711056707 
1.4799999999998534, -1.1946391400159775 
1.4899999999998523, -1.1823360472742128 
1.4999999999998512, -1.1725994558712864 
1.5099999999998501, -1.1668220197998576 
1.519999999999849, -1.1646369979712161 
1.529999999999848, -1.1645848648374257 
1.5399999999998468, -1.1652978485603358 
1.5499999999998457, -1.1660194725441015 
1.5599999999998446, -1.1664793151056043 
1.5699999999998435, -1.166628515927127 
1.5799999999998424, -1.1664696625072362 
1.5899999999998413, -1.1659770673980576 
1.5999999999998402, -1.1650539615391164 
1.6099999999998391, -1.1634907364275198 
1.619999999999838, -1.1609133628732884 
1.629999999999837, -1.1567527550248673 
1.6399999999998358, -1.1503620308343356 
1.6499999999998347, -1.1415426850685466 
1.6599999999998336, -1.1315835247682764 
1.6699999999998325, -1.1238496590379792 
1.6799999999998314, -1.1220144322911705 
1.6899999999998303, -1.1266855255148165 
1.6999999999998292, -1.1348297949090416 
1.709999999999828, -1.142816782293247 
1.719999999999827, -1.1488162047295287 
1.729999999999826, -1.152680921251569 
1.7399999999998248, -1.1549316432958148 
1.7499999999998237, -1.1561178000632935 
1.7599999999998226, -1.156625594839441 
1.7699999999998215, -1.1566802234756817 
1.7799999999998204, -1.1563897627539375 
1.7899999999998193, -1.1557836469191771 
1.7999999999998182, -1.1548475879942974 
1.809999999999817, -1.1535835279895879 
1.819999999999816, -1.1521488930223096 
1.8299999999998149, -1.1511217040719692 
1.8399999999998138, -1.1517713143779413 
1.8499999999998127, -1.155846797551743 
1.8599999999998116, -1.1644490564696985 
1.8699999999998105, -1.1767786640889983 
1.8799999999998094, -1.1903425775986387 
1.8899999999998083, -1.202540336440446 
1.8999999999998072, -1.2119347645713436 
1.909999999999806, -1.2183598810548557 
1.919999999999805, -1.2223631563242732 
1.9299999999998039, -1.224658364560068 
1.9399999999998028, -1.2258421310485859 
1.9499999999998017, -1.2263247315115342 
1.9599999999998006, -1.2263598747047315 
1.9699999999997995, -1.226099978414822 
1.9799999999997984, -1.2256521351686158 
1.9899999999997973, -1.2251341914492493 
1.9999999999997962, -1.224726262329735 
2.0099999999998173, -1.2246829247746258 
2.0199999999998384, -1.2252551673946965 
2.0299999999998595, -1.226546195768605 
2.0399999999998806, -1.2284369179754635 
2.0499999999999017, -1.2306606452765423 
2.059999999999923, -1.2329369969095896 
2.069999999999944, -1.2350524220707808 
2.079999999999965, -1.2368728766977308 
2.089999999999986, -1.2383265109743422 
2.100000000000007, -1.2393848262391347 
2.1100000000000283, -1.2400507353112808 
2.1200000000000494, -1.2403512925364373 
2.1300000000000705, -1.2403309588546954 
2.1400000000000916, -1.240044687471115 
2.1500000000001127, -1.2395538890662843 
2.160000000000134, -1.238927837691279 
2.170000000000155, -1.2382477415372053 
2.180000000000176, -1.2376048962774895 
2.190000000000197, -1.2370862037114507 
2.2000000000002182, -1.2367525704995797 
2.2100000000002393, -1.2366235955357212 
2.2200000000002604, -1.236673992329746 
2.2300000000002815, -1.2368399026050543 
2.2400000000003026, -1.2370348312822323 
2.2500000000003237, -1.237169955658643 
2.260000000000345, -1.2371673245280461 
2.270000000000366, -1.236961646578939 
2.280000000000387, -1.2364970007603497 
2.290000000000408, -1.235725946653924 
2.3000000000004293, -1.2346129699244341 
2.3100000000004504, -1.2331397278400968 
2.3200000000004715, -1.2313098490877803 
2.3300000000004926, -1.2291545838015012 
2.3400000000005137, -1.2267428983162298 
2.3500000000005348, -1.2241972125145464 
2.360000000000556, -1.2217070999888948 
2.370000000000577, -1.2195176460265933 
2.380000000000598, -1.2178618676107504 
2.390000000000619, -1.2168478597782 
2.4000000000006403, -1.2163915691193934 
2.4100000000006614, -1.2162739081937697 
2.4200000000006825, -1.216263543783731 
2.4300000000007036, -1.2161895876748892 
2.4400000000007247, -1.2159355799924731 
2.450000000000746, -1.2153951978788249 
2.460000000000767, -1.2144221679956542 
2.470000000000788, -1.212782359269586 
2.480000000000809, -1.2101126909372621 
2.49000000000083, -1.205911043755806 
2.5000000000008513, -1.1996131294715373 
2.5100000000008724, -1.1908246843797936 
2.5200000000008935, -1.1797125256920054 
2.5300000000009146, -1.1673754410638153 
2.5400000000009357, -1.1557927240210064 
2.550000000000957, -1.1470152608717914 
2.560000000000978, -1.1419914362400339 
2.570000000000999, -1.1401453372172212 
2.58000000000102, -1.1401174377378265 
2.5900000000010412, -1.1407294862128503 
2.6000000000010624, -1.1413416870485276 
2.6100000000010835, -1.1417198310682486 
2.6200000000011046, -1.1418132163273094 
2.6300000000011257, -1.1416122707748908 
2.6400000000011468, -1.1410778340266075 
2.650000000001168, -1.1400979384600975 
2.660000000001189, -1.1384407458534218 
2.67000000000121, -1.13569100633258 
2.680000000001231, -1.1311912437612297 
2.6900000000012523, -1.1240934604080455 
2.7000000000012734, -1.113765934151202 
2.7100000000012945, -1.100756094952589 
2.7200000000013156, -1.0877151035182329 
2.7300000000013367, -1.0785743004950747 
2.740000000001358, -1.0756496275338063 
2.750000000001379, -1.0778702001482756 
2.7600000000014, -1.0823102679996008 
2.770000000001421, -1.086622677399497 
2.780000000001442, -1.0898450785251919 
2.7900000000014633, -1.0919246065733739 
2.8000000000014844, -1.093119773503201 
2.8100000000015055, -1.0936952158029294 
2.8200000000015266, -1.0938321165580578 
2.8300000000015477, -1.093622895568575 
2.840000000001569, -1.0930824047366552 
2.85000000000159, -1.0921540662709968 
2.860000000001611, -1.0907128622648115 
2.870000000001632, -1.0885893149800154 
2.8800000000016532, -1.0856782130717966 
2.8900000000016743, -1.082240789797129 
2.9000000000016954, -1.0794305073702852 
2.9100000000017165, -1.0796097334793424 
2.9200000000017377, -1.085423706050639 
2.9300000000017588, -1.0974657087216675 
2.94000000000178, -1.112980319938405 
2.950000000001801, -1.1277814647124398 
2.960000000001822, -1.1391770762146827 
2.970000000001843, -1.1467423444728024 
2.9800000000018643, -1.1512934354475086 
2.9900000000018854, -1.1538412460670822 
3.0000000000019065, -1.15515550903904 
3.0100000000019276, -1.1557196477559222 
3.0200000000019487, -1.1558058630386454 
3.03000000000197, -1.1555531002619799 
3.040000000001991, -1.1550252882184056 
3.050000000002012, -1.1542637319419884 
3.060000000002033, -1.1533624344891984 
3.070000000002054, -1.1525941546203646 
3.0800000000020753, -1.1525586016955593 
3.0900000000020964, -1.154176520400962 
3.1000000000021175, -1.1582901204390061 
3.1100000000021386, -1.1650147961870896 
3.1200000000021597, -1.1734911312369607 
3.130000000002181, -1.1823401425016793 
3.140000000002202, -1.1903350370913253 
3.150000000002223, -1.1967676983270341 
3.160000000002244, -1.201458084003981 
3.1700000000022652, -1.2045842901694763 
3.1800000000022863, -1.2064830527321806 
3.1900000000023074, -1.2075000911457583 
3.2000000000023285, -1.2079146295976726 
3.2100000000023496, -1.207924163691349 
3.2200000000023707, -1.207662986516027 
3.230000000002392, -1.207235470617336 
3.240000000002413, -1.2067544047578016 
3.250000000002434, -1.2063714328781712 
3.260000000002455, -1.2062723193721223 
3.2700000000024763, -1.2066157120816663 
3.2800000000024974, -1.2074500142830626 
3.2900000000025185, -1.208687145756759 
3.3000000000025396, -1.210156223035653 
3.3100000000025607, -1.2116787226086718 
3.3200000000025818, -1.2131121255798663 
3.330000000002603, -1.2143588500297033 
3.340000000002624, -1.2153587333193117 
3.350000000002645, -1.2160788106289402 
3.360000000002666, -1.2165061397677692 
3.3700000000026873, -1.2166443370133881 
3.3800000000027084, -1.2165118836001785 
3.3900000000027295, -1.216140359308448 
3.4000000000027506, -1.2155729669575683 
3.4100000000027717, -1.214865062936831 
3.420000000002793, -1.2140861878966311 
3.430000000002814, -1.213318751683503 
3.440000000002835, -1.2126480069819634 
3.450000000002856, -1.2121446540028438 
3.460000000002877, -1.2118476057174117 
3.4700000000028983, -1.2117524548480827 
3.4800000000029194, -1.211809501895971 
3.4900000000029405, -1.2119362170903822 
3.5000000000029616, -1.212039921568596 
3.5100000000029827, -1.212035761752046 
3.520000000003004, -1.2118512641925556 
3.530000000003025, -1.2114226002839286 
3.540000000003046, -1.2106920888688717 
3.550000000003067, -1.2096115367670657 
3.5600000000030882, -1.2081496366721665 
3.5700000000031094, -1.2062991749285494 
3.5800000000031305, -1.204082569172446 
3.5900000000031516, -1.2015587698032575 
3.6000000000031727, -1.1988352602067778 
3.6100000000031938, -1.1960826896941283 
3.620000000003215, -1.1935362225775799 
3.630000000003236, -1.1914541574555884 
3.640000000003257, -1.1900199984276172 
3.650000000003278, -1.189242342669877 
3.6600000000032993, -1.1889514885561456 
3.6700000000033204, -1.1889039170456241 
3.6800000000033415, -1.1888901492577246 
3.6900000000033626, -1.188767865748662 
3.7000000000033837, -1.1884344800610593 
3.710000000003405, -1.1877808595795514 
3.720000000003426, -1.1866460838187622 
3.730000000003447, -1.184777109094357 
3.740000000003468, -1.1818027333243226 
3.750000000003489, -1.1772524641091404 
3.7600000000035103, -1.170670345650311 
3.7700000000035314, -1.1618564967346163 
3.7800000000035525, -1.1511836098960382 
3.7900000000035736, -1.1398001452299433 
3.8000000000035947, -1.1294404264142144 
3.810000000003616, -1.1217110576943166 
3.820000000003637, -1.1172458055962262 
3.830000000003658, -1.1154941118570034 
3.840000000003679, -1.1153256149059207 
3.8500000000037002, -1.1157576180374076 
3.8600000000037213, -1.1162321329486435 
3.8700000000037424, -1.1165234950982195 
3.8800000000037635, -1.1165653718800999 
3.8900000000037847, -1.1163308603819693 
3.9000000000038058, -1.1157666039838945 
3.910000000003827, -1.1147478731015275 
3.920000000003848, -1.1130276760235291 
3.930000000003869, -1.1101668085958785 
3.94000000000389, -1.105460175791265 
3.9500000000039113, -1.0979475905631308 
3.9600000000039324, -1.086722321530652 
3.9700000000039535, -1.0717572852064152 
3.9800000000039746, -1.054911124643359 
3.9900000000039957, -1.0397899956864465 
4.000000000004016, -1.0296639130109917 
4.010000000003993, -1.0252911401692195 
4.02000000000397, -1.0250346756209106 
4.030000000003946, -1.0266421756926838 
4.040000000003923, -1.0285582326511045 
4.0500000000039, -1.0301042690639872 
4.0600000000038765, -1.0311319415673101 
4.070000000003853, -1.0316967312939833 
4.08000000000383, -1.0318870970155887 
4.090000000003807, -1.0317593816452293 
4.100000000003783, -1.0313158092487573 
4.11000000000376, -1.0304895930803724 
4.120000000003737, -1.0291200424132199 
4.130000000003713, -1.0269106441617493 
4.14000000000369, -1.023376684552478 
4.150000000003667, -1.0178255389145536 
4.1600000000036434, -1.009488724112963 
4.17000000000362, -0.9979867124574794 
4.180000000003597, -0.9841131193264175 
4.1900000000035735, -0.9702650892426223 
4.20000000000355, -0.9595095555010266 
4.210000000003527, -0.9536424764970338 
4.220000000003504, -0.9522247571246444 
4.23000000000348, -0.9534590643452778 
4.240000000003457, -0.9556003244357492 
4.250000000003434, -0.9576242668808638 
4.26000000000341, -0.9591527358272897 
4.270000000003387, -0.960152267529464 
4.280000000003364, -0.960706498016538 
4.2900000000033405, -0.9609047346416568 
4.300000000003317, -0.960800594650274 
4.310000000003294, -0.9603974744094614 
4.320000000003271, -0.9596363923508517 
4.330000000003247, -0.958373504106129 
4.340000000003224, -0.9563402733341393 
4.350000000003201, -0.9530871645502673 
4.360000000003177, -0.9479361763483031 
4.370000000003154, -0.9400256719713959 
4.380000000003131, -0.9286024441360221 
4.390000000003107, -0.9136492242829902 
4.400000000003084, -0.8965160308845975 
4.410000000003061, -0.879770364305488 
4.4200000000030375, -0.8659938970613172 
4.430000000003014, -0.8565060073801837 
4.440000000002991, -0.8510954748303193 
4.450000000002968, -0.8486596375165754 
4.460000000002944, -0.847972356487411 
4.470000000002921, -0.8481050857092866 
4.480000000002898, -0.8485009534704979 
4.490000000002874, -0.8488823746793235 
4.500000000002851, -0.8491330055775366 
4.510000000002828, -0.8492101534764818 
4.520000000002804, -0.849092226868108 
4.530000000002781, -0.8487492014491794 
4.540000000002758, -0.8481244467599417 
4.5500000000027345, -0.8471218528904793 
4.560000000002711, -0.8455995734324292 
4.570000000002688, -0.8433804060288791 
4.580000000002665, -0.840294150358552 
4.590000000002641, -0.8362555807108196 
4.600000000002618, -0.831345073509244 
4.610000000002595, -0.8258298958844923 
4.620000000002571, -0.820097054279661 
4.630000000002548, -0.8145425315059669 
4.640000000002525, -0.8094863581815386 
4.6500000000025015, -0.8051402492724481 
4.660000000002478, -0.8016108474965709 
4.670000000002455, -0.7989146401386104 
4.6800000000024315, -0.7969942528652797 
4.690000000002408, -0.79573703738246 
4.700000000002385, -0.7949982108718284 
4.710000000002362, -0.794626088392619 
4.720000000002338, -0.7944831597223978 
4.730000000002315, -0.7944578563457271 
4.740000000002292, -0.7944663717368934 
4.750000000002268, -0.7944478935640122 
4.760000000002245, -0.7943579285660111 
4.770000000002222, -0.7941635457221299 
4.7800000000021985, -0.7938424883584176 
4.790000000002175, -0.7933856245666817 
4.800000000002152, -0.7927995494082761 
4.810000000002129, -0.7921051833851861 
4.820000000002105, -0.7913309422758388 
4.830000000002082, -0.7905038672756342 
4.840000000002059, -0.7896441137967111 
4.850000000002035, -0.7887653857497913 
4.860000000002012, -0.7878796191599533 
4.870000000001989, -0.787002415863828 
4.880000000001965, -0.7861567997041876 
4.890000000001942, -0.7853746334843918 
4.900000000001919, -0.784695804192986 
4.9100000000018955, -0.784165195166967 
4.920000000001872, -0.7838275417394158 
4.930000000001849, -0.7837210121023104 
