t, s[1].omega / s[0].omega 
0, -1.2000267847815371 
0.009999999999999995, -1.2023463948426276 
0.019999999999999934, -1.2039751913600083 
0.029999999999999874, -1.2049870907433768 
0.04000000000000012, -1.2054900931186108 
0.050000000000000405, -1.2055982120247133 
0.06000000000000069, -1.205414522715174 
0.07000000000000098, -1.205029613671358 
0.08000000000000126, -1.2045325995357135 
0.09000000000000155, -1.2040251515855585 
0.10000000000000184, -1.2036230335148168 
0.11000000000000212, -1.2034327945938266 
0.12000000000000241, -1.2035136245491596 
0.130000000000002, -1.2038558174966556 
0.1400000000000009, -1.2043925794367323 
0.1499999999999998, -1.2050294915155633 
0.1599999999999987, -1.205670417451343 
0.1699999999999976, -1.2062329523980004 
0.1799999999999965, -1.2066545725789741 
0.1899999999999954, -1.2068922296362672 
0.1999999999999943, -1.206918956702881 
0.2099999999999932, -1.2067204322244094 
0.2199999999999921, -1.2062927818971323 
0.229999999999991, -1.2056419243669532 
0.2399999999999899, -1.2047845828225374 
0.2499999999999888, -1.2037509814505463 
0.2599999999999877, -1.2025887539312807 
0.2699999999999866, -1.2013663252781632 
0.2799999999999855, -1.2001724970030223 
0.2899999999999844, -1.199108489338989 
0.2999999999999833, -1.1982690588517337 
0.3099999999999822, -1.197712266177546 
0.3199999999999811, -1.1974301314085811 
0.32999999999998, -1.1973452678332566 
0.3399999999999789, -1.1973417967346367 
0.3499999999999778, -1.1973040282169918 
0.35999999999997667, -1.1971334060159753 
0.36999999999997557, -1.1967415006551763 
0.37999999999997447, -1.1960345668810917 
0.38999999999997337, -1.19490424267295 
0.39999999999997227, -1.193232578446882 
0.40999999999997117, -1.1909130544449567 
0.41999999999997006, -1.1878817843973255 
0.42999999999996896, -1.184149178208192 
0.43999999999996786, -1.1798274869565186 
0.44999999999996676, -1.1751562787511434 
0.45999999999996566, -1.1705174911206409 
0.46999999999996456, -1.1663998161144045 
0.47999999999996346, -1.1632598996496795 
0.48999999999996235, -1.1613113781662423 
0.49999999999996125, -1.1604130292481845 
0.5099999999999602, -1.1601857012720154 
0.519999999999959, -1.1602395308256843 
0.529999999999958, -1.1603072708077584 
0.5399999999999568, -1.160241609349607 
0.5499999999999557, -1.159953126668472 
0.5599999999999546, -1.1593474035047615 
0.5699999999999535, -1.1582714645965935 
0.5799999999999524, -1.156460123860451 
0.5899999999999513, -1.1534798072955244 
0.5999999999999502, -1.1486975876398002 
0.6099999999999491, -1.1413577336391358 
0.619999999999948, -1.130889863490249 
0.6299999999999469, -1.1174780781221094 
0.6399999999999458, -1.1025782469956513 
0.6499999999999447, -1.0887308662107626 
0.6599999999999436, -1.0783681375733394 
0.6699999999999425, -1.072446902847434 
0.6799999999999414, -1.070198218770319 
0.6899999999999403, -1.0700705135057245 
0.6999999999999392, -1.0707444957354308 
0.7099999999999381, -1.0714859955591183 
0.719999999999937, -1.0720101966779811 
0.7299999999999359, -1.0722511119360125 
0.7399999999999348, -1.0722080895728898 
0.7499999999999337, -1.0718697015679832 
0.7599999999999326, -1.0711740430251215 
0.7699999999999315, -1.069973519417798 
0.7799999999999304, -1.067985629303843 
0.7899999999999293, -1.0647252750051621 
0.7999999999999282, -1.0594466898039454 
0.8099999999999271, -1.0512013191584697 
0.819999999999926, -1.039222950594272 
0.8299999999999249, -1.023768498295953 
0.8399999999999238, -1.006913839685493 
0.8499999999999227, -0.9920917706518241 
0.8599999999999216, -0.9820917333312783 
0.8699999999999205, -0.977402318486295 
0.8799999999999194, -0.976543244267822 
0.8899999999999183, -0.9775581469698233 
0.8999999999999172, -0.9790527031911042 
0.9099999999999161, -0.9803573912127004 
0.919999999999915, -0.9812711306973074 
0.9299999999999139, -0.9817968289757735 
0.9399999999999128, -0.9819887998184557 
0.9499999999999117, -0.9818861837403249 
0.9599999999999106, -0.9814859473560917 
0.9699999999999095, -0.9807248779449894 
0.9799999999999084, -0.9794538947586708 
0.9899999999999073, -0.9773957471200413 
0.9999999999999062, -0.9740867923859602 
1.0099999999999052, -0.9688305534030567 
1.019999999999904, -0.9607524904385416 
1.029999999999903, -0.9491162029246258 
1.039999999999902, -0.9339771757678482 
1.0499999999999008, -0.9168030354692526 
1.0599999999998997, -0.9002541359198633 
1.0699999999998986, -0.8869075020151378 
1.0799999999998975, -0.8779788404612587 
1.0899999999998964, -0.8731197900965562 
1.0999999999998953, -0.8711273456792664 
1.1099999999998942, -0.8707401430839609 
1.119999999999893, -0.8710450463669328 
1.129999999999892, -0.8715212593706964 
1.1399999999998909, -0.8719256616619392 
1.1499999999998898, -0.8721657785922876 
1.1599999999998887, -0.8722116062359028 
1.1699999999998876, -0.8720450846004075 
1.1799999999998865, -0.8716319525744989 
1.1899999999998854, -0.8709031389815343 
1.1999999999998843, -0.8697395105082618 
1.2099999999998832, -0.8679622733058396 
1.219999999999882, -0.8653423581861321 
1.229999999999881, -0.8616507684848514 
1.2399999999998799, -0.856759793850814 
1.2499999999998788, -0.8507567339326464 
1.2599999999998777, -0.8439851264476804 
1.2699999999998766, -0.8369632646929748 
1.2799999999998755, -0.830231896040688 
1.2899999999998744, -0.824227398761024 
1.2999999999998733, -0.8192249232662835 
1.3099999999998722, -0.8153356135550484 
1.319999999999871, -0.8125295362346272 
1.32999999999987, -0.8106706009931146 
1.3399999999998689, -0.8095596175503814 
1.3499999999998678, -0.8089795602188599 
1.3599999999998666, -0.8087326957910304 
1.3699999999998655, -0.808661254261175 
1.3799999999998644, -0.8086508658244396 
1.3899999999998633, -0.808622503927805 
1.3999999999998622, -0.8085204179465004 
1.4099999999998611, -0.808301813424069 
1.41999999999986, -0.8079316152350483 
1.429999999999859, -0.8073835559139313 
1.4399999999998578, -0.8066462523946034 
1.4499999999998567, -0.8057295631734999 
1.4599999999998556, -0.804664953627468 
1.4699999999998545, -0.8034973001366804 
1.4799999999998534, -0.8022725834455364 
1.4899999999998523, -0.801029061642993 
1.4999999999998512, -0.7997958270100136 
1.5099999999998501, -0.7985969842207667 
1.519999999999849, -0.797457231303306 
1.529999999999848, -0.7964056151960665 
1.5399999999998468, -0.795476175382735 
1.5499999999998457, -0.794705476666252 
1.5599999999998446, -0.7941277349648529 
1.5699999999998435, -0.7937688796598931 
1.5799999999998424, -0.7936414296616363 
1.5899999999998413, -0.7937420008405434 
1.5999999999998402, -0.7940523684448104 
1.6099999999998391, -0.7945436401074151 
1.619999999999838, -0.7951819555030765 
1.629999999999837, -0.7959337238256642 
1.6399999999998358, -0.7967687113962942 
1.6499999999998347, -0.7976599218121793 
1.6599999999998336, -0.7985800429775574 
1.6699999999998325, -0.7994956640914133 
1.6799999999998314, -0.8003626143360062 
1.6899999999998303, -0.8011271517743642 
1.6999999999998292, -0.8017355287550055 
1.709999999999828, -0.8021482205835856 
1.719999999999827, -0.8023501547358698 
1.729999999999826, -0.8023509495667043 
1.7399999999998248, -0.8021772795610532 
1.7499999999998237, -0.8018644956814688 
1.7599999999998226, -0.801453310770856 
1.7699999999998215, -0.800993622256746 
1.7799999999998204, -0.800554968535657 
1.7899999999998193, -0.8002415419653822 
1.7999999999998182, -0.8002074528241462 
1.809999999999817, -0.8006647236265525 
1.819999999999816, -0.8018745208594481 
1.8299999999998149, -0.8041148632019917 
1.8399999999998138, -0.8076259776794583 
1.8499999999998127, -0.8125424942642349 
1.8599999999998116, -0.8188244606409215 
1.8699999999998105, -0.8262008397971279 
1.8799999999998094, -0.8341512763951249 
1.8899999999998083, -0.8419705263013212 
1.8999999999998072, -0.8489434250669101 
1.909999999999806, -0.8545702301503744 
1.919999999999805, -0.8586985627168529 
1.9299999999998039, -0.8614770240565885 
1.9399999999998028, -0.863199235565553 
1.9499999999998017, -0.8641630317390068 
1.9599999999998006, -0.8646011856452429 
1.9699999999997995, -0.8646688574624626 
1.9799999999997984, -0.864455704954373 
1.9899999999997973, -0.8640027442126025 
1.9999999999997962, -0.8633181081305779 
2.0099999999998173, -0.8623950690271529 
2.0199999999998384, -0.8612428182944434 
2.0299999999998595, -0.8599476660355991 
2.0399999999998806, -0.8587845238982783 
2.0499999999999017, -0.8583758491677747 
2.059999999999923, -0.8598142032585707 
2.069999999999944, -0.8645284301306904 
2.079999999999965, -0.8736439280296221 
2.089999999999986, -0.8869846433327162 
2.100000000000007, -0.902598684754205 
2.1100000000000283, -0.9176323058964038 
2.1200000000000494, -0.9299145759078019 
2.1300000000000705, -0.9387489896491996 
2.1400000000000916, -0.944550503523231 
2.1500000000001127, -0.9481264000091449 
2.160000000000134, -0.9502193580010407 
2.170000000000155, -0.9513635365962019 
2.180000000000176, -0.9518968447749 
2.190000000000197, -0.9520126570956584 
2.2000000000002182, -0.9518039403709254 
2.2100000000002393, -0.951289166400595 
2.2200000000002604, -0.9504213762453755 
2.2300000000002815, -0.9490848483596951 
2.2400000000003026, -0.9470877467475043 
2.2500000000003237, -0.944170923442058 
2.260000000000345, -0.9400766678992352 
2.270000000000366, -0.9347412172278113 
2.280000000000387, -0.9286223044415012 
2.290000000000408, -0.9229531995652905 
2.3000000000004293, -0.9194666084851091 
2.3100000000004504, -0.9194191938621954 
2.3200000000004715, -0.9226666322167484 
2.3300000000004926, -0.9277884228156976 
2.3400000000005137, -0.9331124511475846 
2.3500000000005348, -0.9375690129822616 
2.360000000000556, -0.9408245167077656 
2.370000000000577, -0.9429889069926258 
2.380000000000598, -0.9443158733665932 
2.390000000000619, -0.9450428351768071 
2.4000000000006403, -0.9453390276158327 
2.4100000000006614, -0.9453014061912887 
2.4200000000006825, -0.9449611271307765 
2.4300000000007036, -0.9442839713360964 
2.4400000000007247, -0.9431574229522237 
2.450000000000746, -0.9413601012405659 
2.460000000000767, -0.9385130112464164 
2.470000000000788, -0.9340273931949413 
2.480000000000809, -0.9271074337459645 
2.49000000000083, -0.9169405047556616 
2.5000000000008513, -0.9032224640819836 
2.5100000000008724, -0.8868805425961908 
2.5200000000008935, -0.8702754175701347 
2.5300000000009146, -0.8562161879111312 
2.5400000000009357, -0.8464352093654496 
2.550000000000957, -0.8409553391634376 
2.560000000000978, -0.8386628079847733 
2.570000000000999, -0.8382183677522681 
2.58000000000102, -0.8385981181368048 
2.5900000000010412, -0.8391999140924099 
2.6000000000010624, -0.8397375840274865 
2.6100000000010835, -0.8401034397531142 
2.6200000000011046, -0.8402686948851963 
2.6300000000011257, -0.8402260896788741 
2.6400000000011468, -0.8399594366543699 
2.650000000001168, -0.8394257344289073 
2.660000000001189, -0.8385415611994416 
2.67000000000121, -0.8371724421233309 
2.680000000001231, -0.8351326121025051 
2.6900000000012523, -0.8322121765850481 
2.7000000000012734, -0.8282483927131468 
2.7100000000012945, -0.8232287139633397 
2.7200000000013156, -0.8173628840228477 
2.7300000000013367, -0.8110545825983962 
2.740000000001358, -0.8047803999011525 
2.750000000001379, -0.7989602970009494 
2.7600000000014, -0.7938870511432651 
2.770000000001421, -0.7897163576029933 
2.780000000001442, -0.7864863873729487 
2.7900000000014633, -0.7841436864635309 
2.8000000000014844, -0.7825692839717876 
2.8100000000015055, -0.7816061227279677 
2.8200000000015266, -0.7810868767316816 
2.8300000000015477, -0.7808573693595137 
2.840000000001569, -0.7807906918748885 
2.85000000000159, -0.7807907954281855 
2.860000000001611, -0.7807883624502793 
2.870000000001632, -0.780733547471037 
2.8800000000016532, -0.7805897032337489 
2.8900000000016743, -0.780330633334697 
2.9000000000016954, -0.7799418097206876 
2.9100000000017165, -0.779423417853491 
2.9200000000017377, -0.778791118544835 
2.9300000000017588, -0.7780713990514407 
2.94000000000178, -0.7772927802880218 
2.950000000001801, -0.77647804117732 
2.960000000001822, -0.7756418848383435 
2.970000000001843, -0.7747942144643785 
2.9800000000018643, -0.7739458636961508 
2.9900000000018854, -0.7731135360876704 
3.0000000000019065, -0.7723225485251878 
3.0100000000019276, -0.7716074139240392 
3.0200000000019487, -0.7710104852686553 
3.03000000000197, -0.7705785751637991 
3.040000000001991, -0.770357653194323 
3.050000000002012, -0.770386579429852 
3.060000000002033, -0.770691676878368 
3.070000000002054, -0.7712839406841592 
3.0800000000020753, -0.7721596089178981 
3.0900000000020964, -0.7733032453467723 
3.1000000000021175, -0.7746912179844566 
3.1100000000021386, -0.7762929903888414 
3.1200000000021597, -0.7780681845835511 
3.130000000002181, -0.7799592831090953 
3.140000000002202, -0.7818835246403685 
3.150000000002223, -0.7837319178010114 
3.160000000002244, -0.7853836983334015 
3.1700000000022652, -0.7867354390096513 
3.1800000000022863, -0.7877294844932099 
3.1900000000023074, -0.7883630204170224 
3.2000000000023285, -0.7886742206900956 
3.2100000000023496, -0.7887186473340042 
3.2200000000023707, -0.7885506689596432 
3.230000000002392, -0.7882159367033992 
3.240000000002413, -0.7877542745775886 
3.250000000002434, -0.7872115423659142 
3.260000000002455, -0.7866612737880496 
3.2700000000024763, -0.7862386173546075 
3.2800000000024974, -0.7861872151753618 
3.2900000000025185, -0.7869108132601721 
3.3000000000025396, -0.7890035828078065 
3.3100000000025607, -0.7932105994097239 
3.3200000000025818, -0.8002589702851012 
3.330000000002603, -0.8105317532925443 
3.340000000002624, -0.8236692855068553 
3.350000000002645, -0.8383647980547947 
3.360000000002666, -0.8526821571345995 
3.3700000000026873, -0.8648655282912575 
3.3800000000027084, -0.8740487353896033 
3.3900000000027295, -0.8803228587653562 
3.4000000000027506, -0.8843038664332582 
3.4100000000027717, -0.8866863210553518 
3.420000000002793, -0.8880228452462287 
3.430000000002814, -0.8886848446526553 
3.440000000002835, -0.8888963108852845 
3.450000000002856, -0.8887767398274498 
3.460000000002877, -0.8883717555468422 
3.4700000000028983, -0.8876691942905074 
3.4800000000029194, -0.8866043297041903 
3.4900000000029405, -0.8850607768274553 
3.5000000000029616, -0.8828793922416736 
3.5100000000029827, -0.8798988088844653 
3.520000000003004, -0.8760618513173398 
3.530000000003025, -0.8716025073768996 
3.540000000003046, -0.8672295461873489 
3.550000000003067, -0.8640748136240808 
3.5600000000030882, -0.8632200681766828 
3.5700000000031094, -0.8650383796777377 
3.5800000000031305, -0.8689276161899627 
3.5900000000031516, -0.8736966623418088 
3.6000000000031727, -0.8782344187154543 
3.6100000000031938, -0.8819163665557758 
3.620000000003215, -0.8845950143279409 
3.630000000003236, -0.8863907284288318 
3.640000000003257, -0.8875037439526192 
3.650000000003278, -0.8881149303751845 
3.6600000000032993, -0.8883522764656304 
3.6700000000033204, -0.8882867307288584 
3.6800000000033415, -0.8879340839618317 
3.6900000000033626, -0.8872513250200573 
3.7000000000033837, -0.8861214486084575 
3.710000000003405, -0.8843231151366717 
3.720000000003426, -0.8814867908024778 
3.730000000003447, -0.8770571690544513 
3.740000000003468, -0.8703242720700481 
3.750000000003489, -0.8606353146657645 
3.7600000000035103, -0.847848186589081 
3.7700000000035314, -0.8328011738621358 
3.7800000000035525, -0.8172841348073054 
3.7900000000035736, -0.8033146466599627 
3.8000000000035947, -0.7922706559955309 
3.810000000003616, -0.7845375278760296 
3.820000000003637, -0.7797217077058719 
3.830000000003658, -0.7770738774418171 
3.840000000003679, -0.7758300097102195 
3.8500000000037002, -0.7753835350973084 
3.8600000000037213, -0.7753231864546126 
3.8700000000037424, -0.775400702696716 
3.8800000000037635, -0.7754781674085767 
3.8900000000037847, -0.7754807467642141 
3.9000000000038058, -0.775362666310192 
3.910000000003827, -0.7750856236145945 
3.920000000003848, -0.7746070137117439 
3.930000000003869, -0.7738769730080768 
3.94000000000389, -0.7728453336003955 
3.9500000000039113, -0.7714788100542889 
3.9600000000039324, -0.7697825772579013 
3.9700000000039535, -0.7678124858973909 
3.9800000000039746, -0.7656658709803259 
3.9900000000039957, -0.7634545375060282 
4.000000000004016, -0.7612775188697342 
4.010000000003993, -0.7592079573128568 
4.02000000000397, -0.7572947763843809 
4.030000000003946, -0.7555712214060951 
4.040000000003923, -0.7540627142201173 
4.0500000000039, -0.7527905728745752 
4.0600000000038765, -0.7517715507520377 
4.070000000003853, -0.7510148472290331 
4.08000000000383, -0.7505187492943928 
4.090000000003807, -0.7502688315312003 
4.100000000003783, -0.7502388257130153 
4.11000000000376, -0.7503940998391248 
4.120000000003737, -0.7506966489927931 
4.130000000003713, -0.7511100886859672 
4.14000000000369, -0.7516034246787469 
4.150000000003667, -0.752152907990575 
4.1600000000036434, -0.7527415525622849 
4.17000000000362, -0.7533559273653024 
4.180000000003597, -0.7539803728756674 
4.1900000000035735, -0.7545904890774163 
4.20000000000355, -0.755149837325953 
4.210000000003527, -0.7556138143908527 
4.220000000003504, -0.7559406385265861 
4.23000000000348, -0.7561035750660994 
4.240000000003457, -0.7560969858065545 
4.250000000003434, -0.7559339657756553 
4.26000000000341, -0.7556397831440169 
4.270000000003387, -0.7552470983581199 
4.280000000003364, -0.7547965770507827 
4.2900000000033405, -0.7543437856879406 
4.300000000003317, -0.753971731497215 
4.310000000003294, -0.7538071655211087 
4.320000000003271, -0.7540366170462451 
4.330000000003247, -0.7549151237880442 
4.340000000003224, -0.7567583592256144 
4.350000000003201, -0.759909258841734 
4.360000000003177, -0.7646734443029393 
4.370000000003154, -0.7712224800527074 
4.380000000003131, -0.779473503314344 
4.390000000003107, -0.7889803610754595 
4.400000000003084, -0.7989186675817981 
4.410000000003061, -0.8082622292896646 
4.4200000000030375, -0.8161324603530978 
4.430000000003014, -0.8221034304054806 
4.440000000002991, -0.8262389133511172 
4.450000000002968, -0.8288923087611615 
4.460000000002944, -0.8304757970193931 
4.470000000002921, -0.8313298432028828 
4.480000000002898, -0.8316896053533325 
4.490000000002874, -0.8316974288817512 
4.500000000002851, -0.8314248066332095 
4.510000000002828, -0.8308890509084742 
4.520000000002804, -0.8300620409981561 
4.530000000002781, -0.8288735202114432 
4.540000000002758, -0.8272149430818347 
4.5500000000027345, -0.8249551591640321 
4.560000000002711, -0.8219857020206011 
4.570000000002688, -0.8183115485381249 
4.580000000002665, -0.8141710338309356 
4.590000000002641, -0.8100993791241123 
4.600000000002618, -0.8068225232138782 
4.610000000002595, -0.8049932286104176 
4.620000000002571, -0.8049245628127594 
4.630000000002548, -0.8064396850345501 
4.640000000002525, -0.8089365682183709 
4.6500000000025015, -0.8116912213907927 
4.660000000002478, -0.8141683920140229 
4.670000000002455, -0.8161223992056122 
4.6800000000024315, -0.8175233653997859 
4.690000000002408, -0.8184435945763744 
4.700000000002385, -0.8189776068435954 
4.710000000002362, -0.8192028224763657 
4.720000000002338, -0.8191646336854976 
4.730000000002315, -0.8188705470791857 
4.740000000002292, -0.8182840821321804 
4.750000000002268, -0.8173138589851497 
4.760000000002245, -0.8157976326305748 
4.770000000002222, -0.8134887139263907 
4.7800000000021985, -0.8100668643018396 
4.790000000002175, -0.8052111891791327 
4.800000000002152, -0.798757250026642 
4.810000000002129, -0.7908781502786086 
4.820000000002105, -0.7821381998082003 
4.830000000002082, -0.7733287113453087 
4.840000000002059, -0.76519503459744 
4.850000000002035, -0.7582433588027454 
4.860000000002012, -0.7526972126250608 
4.870000000001989, -0.748550839356053 
4.880000000001965, -0.745649473522707 
4.890000000001942, -0.7437615452226887 
4.900000000001919, -0.7426343768297525 
4.9100000000018955, -0.742032960452055 
4.920000000001872, -0.741762116054896 
