t, s[1].omega / s[0].omega 
0, -1.0099979549252378 
0.009999999999999995, -1.0097137173415118 
0.019999999999999934, -1.0094785720026798 
0.029999999999999874, -1.0093647383388573 
0.04000000000000012, -1.0090995773087246 
0.050000000000000405, -1.0088046834638764 
0.06000000000000069, -1.0086863802792074 
0.07000000000000098, -1.0084453575360273 
0.08000000000000126, -1.0081111833749228 
0.09000000000000155, -1.0079629735334166 
0.10000000000000184, -1.007751237150507 
0.11000000000000212, -1.0074018957550568 
0.12000000000000241, -1.007198613248551 
0.130000000000002, -1.0070194796291658 
0.1400000000000009, -1.0066748831669918 
0.1499999999999998, -1.0064030659878096 
0.1599999999999987, -1.006250919645897 
0.1699999999999976, -1.005925343206375 
0.1799999999999965, -1.005590061845578 
0.1899999999999954, -1.0054442614066221 
0.1999999999999943, -1.0051495859473845 
0.2099999999999932, -1.0047717622309742 
0.2199999999999921, -1.0046002458443426 
0.229999999999991, -1.0043470532861838 
0.2399999999999899, -1.0039531908396966 
0.2499999999999888, -1.0037254667689028 
0.2599999999999877, -1.0035187394509364 
0.2699999999999866, -1.0031322637525342 
0.2799999999999855, -1.0028329362122284 
0.2899999999999844, -1.002664223926878 
0.2999999999999833, -1.0023038486319027 
0.3099999999999822, -1.0019398403592148 
0.3199999999999811, -1.0017825146881318 
0.32999999999998, -1.0014640180210483 
0.3399999999999789, -1.0010604080942487 
0.3499999999999778, -1.0008767727474503 
0.35999999999997667, -1.0006119019849318 
0.36999999999997557, -1.0001991023832233 
0.37999999999997447, -0.9999568186303486 
0.38999999999997337, -0.999747998486349 
0.39999999999997227, -0.9993521566908479 
0.40999999999997117, -0.999038666378343 
0.41999999999997006, -0.9988718740404766 
0.42999999999996896, -0.9985132425498568 
0.43999999999996786, -0.9981412255468602 
0.44999999999996676, -0.9979840236424664 
0.45999999999996566, -0.9976778776202224 
0.46999999999996456, -0.997277400555351 
0.47999999999996346, -0.9970900826596583 
0.48999999999996235, -0.9968449182332957 
0.49999999999996125, -0.996448393016298 
0.5099999999999602, -0.9962020554240397 
0.519999999999959, -0.9960147575375573 
0.529999999999958, -0.9956479434214938 
0.5399999999999568, -0.9953371722506239 
0.5499999999999557, -0.9951875452866167 
0.5599999999999546, -0.994868405333167 
0.5699999999999535, -0.9945126894424936 
0.5799999999999524, -0.9943652186704586 
0.5899999999999513, -0.9941047415820697 
0.5999999999999502, -0.9937367550621868 
0.6099999999999491, -0.9935547506134792 
0.619999999999948, -0.993355683475704 
0.6299999999999469, -0.9930068696676673 
0.6399999999999458, -0.9927688455966802 
0.6499999999999447, -0.9926218634284827 
0.6599999999999436, -0.992315165927907 
0.6699999999999425, -0.9920238379656974 
0.6799999999999414, -0.9919042571125536 
0.6899999999999403, -0.9916531472314714 
0.6999999999999392, -0.9913327566318731 
0.7099999999999381, -0.9912058752152351 
0.719999999999937, -0.9910156147011011 
0.7299999999999359, -0.9906995622929423 
0.7399999999999348, -0.9905344042058598 
0.7499999999999337, -0.990401655737994 
0.7599999999999326, -0.9901204744388539 
0.7699999999999315, -0.9899026596302716 
0.7799999999999304, -0.9898127383464145 
0.7899999999999293, -0.9895866575227279 
0.7999999999999282, -0.989325142027347 
0.8099999999999271, -0.9892511441026651 
0.819999999999926, -0.9890891069165269 
0.8299999999999249, -0.9888124393949552 
0.8399999999999238, -0.9887212935914137 
0.8499999999999227, -0.9886230899056433 
0.8599999999999216, -0.9883687595268931 
0.8699999999999205, -0.9882321641030468 
0.8799999999999194, -0.9881887301523063 
0.8899999999999183, -0.9879895778570454 
0.8999999999999172, -0.9877974175805015 
0.9099999999999161, -0.9877892370881635 
0.919999999999915, -0.9876643227780878 
0.9299999999999139, -0.9874328799951614 
0.9399999999999128, -0.9874291714799226 
0.9499999999999117, -0.9873842138149307 
0.9599999999999106, -0.9871533740763814 
0.9699999999999095, -0.9871155097074183 
0.9799999999999084, -0.9871453390925378 
0.9899999999999073, -0.9869640495806897 
0.9999999999999062, -0.9868603635752747 
1.0099999999999052, -0.9869492158801214 
1.019999999999904, -0.9868560549814458 
1.029999999999903, -0.9866831732556764 
1.039999999999902, -0.9868017830198628 
1.0499999999999008, -0.986817839083915 
1.0599999999998997, -0.9866109094727773 
1.0699999999998986, -0.9867111768035386 
1.0799999999998975, -0.9868413148804751 
1.0899999999998964, -0.9866644141148518 
1.0999999999998953, -0.9866891159381873 
1.1099999999998942, -0.9869216222066152 
1.119999999999893, -0.9868404864311053 
1.129999999999892, -0.9867573445087501 
1.1399999999998909, -0.9870605074301414 
1.1499999999998898, -0.987124823186811 
1.1599999999998887, -0.9869551676334551 
1.1699999999998876, -0.9872669795421349 
1.1799999999998865, -0.9875065728782849 
1.1899999999998854, -0.9873252832267729 
1.1999999999998843, -0.98755438821316 
1.2099999999998832, -0.9879734202484524 
1.219999999999882, -0.9878748387226794 
1.229999999999881, -0.9879457581738975 
1.2399999999998799, -0.9885117019452592 
1.2499999999998788, -0.988582180594371 
1.2599999999998777, -0.9884893479683737 
1.2699999999998766, -0.9891182330349026 
1.2799999999998755, -0.9894289402371137 
1.2899999999998744, -0.9892517233025568 
1.2999999999998733, -0.9898041197364126 
1.3099999999998722, -0.9903955966043072 
1.319999999999871, -0.9902552416800864 
1.32999999999987, -0.9905921655181766 
1.3399999999998689, -0.991447573037881 
1.3499999999998678, -0.991460461549732 
1.3599999999998666, -0.9915299217274287 
1.3699999999998655, -0.9925460920650953 
1.3799999999998644, -0.9928228252626145 
1.3899999999998633, -0.992695009191357 
1.3999999999998622, -0.9936774152195202 
1.4099999999998611, -0.9943047734423588 
1.41999999999986, -0.9941268065028193 
1.429999999999859, -0.9948584539101614 
1.4399999999998578, -0.9958532173171738 
1.4499999999998567, -0.9957649981621359 
1.4599999999998556, -0.9961272891168795 
1.4699999999998545, -0.9973940314255006 
1.4799999999998534, -0.9975172593796401 
1.4899999999998523, -0.9975445886663811 
1.4999999999998512, -0.9988676644705684 
1.5099999999998501, -0.9993127185435422 
1.519999999999849, -0.9991564343188655 
1.529999999999848, -1.000270574613124 
1.5399999999998468, -1.001086967972213 
1.5499999999998457, -1.0009159376554209 
1.5599999999998446, -1.0016377999639168 
1.5699999999998435, -1.0027657685157703 
1.5799999999998424, -1.00270604109595 
1.5899999999998413, -1.003009262048459 
1.5999999999998402, -1.0042781997477868 
1.6099999999998391, -1.0044294841668582 
1.619999999999838, -1.0044180122402968 
1.629999999999837, -1.0056005364387557 
1.6399999999998358, -1.006026475405753 
1.6499999999998347, -1.0058626198865466 
1.6599999999998336, -1.00676738504464 
1.6699999999998325, -1.0074533299067514 
1.6799999999998314, -1.0072819431158588 
1.6899999999998303, -1.0078239304188792 
1.6999999999998292, -1.008672901333793 
1.709999999999828, -1.008593771444814 
1.719999999999827, -1.0087983022927085 
1.729999999999826, -1.009668400378357 
1.7399999999998248, -1.009745399620595 
1.7499999999998237, -1.0097067145397034 
1.7599999999998226, -1.0104636563571188 
1.7699999999998215, -1.0107155288315228 
1.7799999999998204, -1.0105517737804954 
1.7899999999998193, -1.0111058545738665 
1.7999999999998182, -1.0114967358172313 
1.809999999999817, -1.0113138153230399 
1.819999999999816, -1.0116307430950955 
1.8299999999998149, -1.01208842756459 
1.8399999999998138, -1.0119614021064267 
1.8499999999998127, -1.012057832791389 
1.8599999999998116, -1.0125041080295507 
1.8699999999998105, -1.012473187346309 
1.8799999999998094, -1.012401057515914 
1.8899999999998083, -1.012775240045862 
1.8999999999998072, -1.0128435268268277 
1.909999999999806, -1.0126716976067938 
1.919999999999805, -1.0129351708529073 
1.9299999999998039, -1.0130753105005592 
1.9399999999998028, -1.0128730290312524 
1.9499999999998017, -1.0130050173602834 
1.9599999999998006, -1.013176187601982 
1.9699999999997995, -1.0129980847806674 
1.9799999999997984, -1.012997009099524 
1.9899999999997973, -1.01316135704726 
1.9999999999997962, -1.0130369053417545 
2.0099999999998173, -1.0129218504071453 
2.0199999999998384, -1.0130522375053002 
2.0299999999998595, -1.012984209659379 
2.0399999999998806, -1.0127904528920626 
2.0499999999999017, -1.0128669602412406 
2.059999999999923, -1.0128403390190377 
2.069999999999944, -1.0126107190614262 
2.079999999999965, -1.0126157932884399 
2.089999999999986, -1.0126102702387172 
2.100000000000007, -1.0123837490306398 
2.1100000000000283, -1.0123054328240397 
2.1200000000000494, -1.0123038945492369 
2.1300000000000705, -1.0121045216244746 
2.1400000000000916, -1.01194373575438 
2.1500000000001127, -1.011933168363613 
2.160000000000134, -1.0117670408141313 
2.170000000000155, -1.0115401415254264 
2.180000000000176, -1.0115064282416666 
2.190000000000197, -1.011368478071879 
2.2000000000002182, -1.011102756137028 
2.2100000000002393, -1.011027480874926 
2.2200000000002604, -1.0109104134258027 
2.2300000000002815, -1.0106349420331742 
2.2400000000003026, -1.0104999086642616 
2.2500000000003237, -1.0103982569738093 
2.260000000000345, -1.0101342505254887 
2.270000000000366, -1.0099305940598404 
2.280000000000387, -1.0098379364846057 
2.290000000000408, -1.0095951824565117 
2.3000000000004293, -1.0093293806146755 
2.3100000000004504, -1.0092321718580066 
2.3200000000004715, -1.0090135539357554 
2.3300000000004926, -1.0087054835344043 
2.3400000000005137, -1.0085815128549942 
2.3500000000005348, -1.00838894854657 
2.360000000000556, -1.0080635429200713 
2.370000000000577, -1.007888819379526 
2.380000000000598, -1.0077240631038602 
2.390000000000619, -1.0074023807040855 
2.4000000000006403, -1.0071619840843336 
2.4100000000006614, -1.007021348160337 
2.4200000000006825, -1.0067171589297361 
2.4300000000007036, -1.0064130947405507 
2.4400000000007247, -1.0062806522375007 
2.450000000000746, -1.0060034453141646 
2.460000000000767, -1.005653921413984 
2.470000000000788, -1.0055018364390524 
2.480000000000809, -1.0052600113437395 
2.49000000000083, -1.0048905228312692 
2.5000000000008513, -1.0046892298196446 
2.5100000000008724, -1.0044881753228148 
2.5200000000008935, -1.0041220248082638 
2.5300000000009146, -1.0038533142100494 
2.5400000000009357, -1.0036886413945516 
2.550000000000957, -1.0033435763929837 
2.560000000000978, -1.0030093272351477 
2.570000000000999, -1.0028604714930256 
2.58000000000102, -1.002550611742981 
2.5900000000010412, -1.0021715816547152 
2.6000000000010624, -1.0020048643921178 
2.6100000000010835, -1.00174160072404 
2.6200000000011046, -1.0013465313774104 
2.6300000000011257, -1.0011289144779558 
2.6400000000011468, -1.0009172545409835 
2.650000000001168, -1.000532230800828 
2.660000000001189, -1.0002461022086542 
2.67000000000121, -1.0000777272461938 
2.680000000001231, -0.9997228430948254 
2.6900000000012523, -0.9993740971957789 
2.7000000000012734, -0.9992227416976586 
2.7100000000012945, -0.998913301506584 
2.7200000000013156, -0.9985274859348935 
2.7300000000013367, -0.9983556538611212 
2.740000000001358, -0.9981018161675671 
2.750000000001379, -0.997710608421151 
2.7600000000014, -0.9974860374529307 
2.770000000001421, -0.9972888593723481 
2.780000000001442, -0.9969191822093575 
2.7900000000014633, -0.9966293039162447 
2.8000000000014844, -0.9964747459476767 
2.8100000000015055, -0.9961459224462614 
2.8200000000015266, -0.9958031665941822 
2.8300000000015477, -0.9956603652130932 
2.840000000001569, -0.9953850936653642 
2.85000000000159, -0.9950190790084904 
2.860000000001611, -0.9948507285574826 
2.870000000001632, -0.9946346945052793 
2.8800000000016532, -0.9942776565265784 
2.8900000000016743, -0.9940566766018335 
2.9000000000016954, -0.9938952418704173 
2.9100000000017165, -0.9935725198571356 
2.9200000000017377, -0.993293852435142 
2.9300000000017588, -0.993167598779028 
2.94000000000178, -0.9928952241045028 
2.950000000001801, -0.9925773203426324 
2.960000000001822, -0.9924537441953514 
2.970000000001843, -0.9922396019688847 
2.9800000000018643, -0.9919141430577043 
2.9900000000018854, -0.9917596783844724 
3.0000000000019065, -0.9916037754580982 
3.0100000000019276, -0.9913026781711763 
3.0200000000019487, -0.9910967719401673 
3.03000000000197, -0.9909887855014589 
3.040000000001991, -0.9907353642089043 
3.050000000002012, -0.9904797062337365 
3.060000000002033, -0.9903965060238795 
3.070000000002054, -0.9902028445544964 
3.0800000000020753, -0.9899206322424445 
3.0900000000020964, -0.9898301955126986 
3.1000000000021175, -0.989699025653735 
3.1100000000021386, -0.9894253420417329 
3.1200000000021597, -0.9892970486330254 
3.130000000002181, -0.9892227136888885 
3.140000000002202, -0.9889917984888987 
3.150000000002223, -0.9888092317906686 
3.160000000002244, -0.9887762148770842 
3.1700000000022652, -0.9886106013576371 
3.1800000000022863, -0.9883815086370689 
3.1900000000023074, -0.9883632300865726 
3.2000000000023285, -0.9882718495777107 
3.2100000000023496, -0.9880278802742802 
3.2200000000023707, -0.9879891276175756 
3.230000000002392, -0.9879700710990309 
3.240000000002413, -0.9877563690202968 
3.250000000002434, -0.9876634415170642 
3.260000000002455, -0.9877050977996134 
3.2700000000024763, -0.9875619873183863 
3.2800000000024974, -0.9874015512418766 
3.2900000000025185, -0.9874813173818868 
3.3000000000025396, -0.9874327673883484 
3.3100000000025607, -0.987225076513467 
3.3200000000025818, -0.9873053649152282 
3.330000000002603, -0.9873593097237737 
3.340000000002624, -0.9871560904590629 
3.350000000002645, -0.987186134257538 
3.360000000002666, -0.9873360169572613 
3.3700000000026873, -0.98719961508057 
3.3800000000027084, -0.9871387961828445 
3.3900000000027295, -0.9873628493499638 
3.4000000000027506, -0.987343181410515 
3.4100000000027717, -0.9871911294651158 
3.420000000002793, -0.9874465986703768 
3.430000000002814, -0.9875742929079613 
3.440000000002835, -0.9873821758527903 
3.450000000002856, -0.9875979362299167 
3.460000000002877, -0.9878825679611036 
3.4700000000028983, -0.9877338069729191 
3.4800000000029194, -0.987832450030765 
3.4900000000029405, -0.9882569830837121 
3.5000000000029616, -0.988233609035963 
3.5100000000029827, -0.9881814401351504 
3.520000000003004, -0.988693362063815 
3.530000000003025, -0.9888621775312233 
3.540000000003046, -0.9887000880947039 
3.550000000003067, -0.9891996475684043 
3.5600000000030882, -0.9896044082746338 
3.5700000000031094, -0.9894333416913981 
3.5800000000031305, -0.9897922101115515 
3.5900000000031516, -0.9904373661817407 
3.6000000000031727, -0.9903688123465456 
3.6100000000031938, -0.9905017653726791 
3.620000000003215, -0.9913307321096545 
3.630000000003236, -0.9914673621800478 
3.640000000003257, -0.9913895237015695 
3.650000000003278, -0.9922682179094592 
3.6600000000032993, -0.9926980659883872 
3.6700000000033204, -0.9925211916332517 
3.6800000000033415, -0.9932587789431963 
3.6900000000033626, -0.9940250087361941 
3.7000000000033837, -0.9938881971223892 
3.710000000003405, -0.9943293843057815 
3.720000000003426, -0.995392125752105 
3.730000000003447, -0.9954171169621848 
3.740000000003468, -0.9955297231919542 
3.750000000003489, -0.9967403525959688 
3.7600000000035103, -0.9970405616764787 
3.7700000000035314, -0.9969246334432845 
3.7800000000035525, -0.9980488145823391 
3.7900000000035736, -0.9987031132165525 
3.8000000000035947, -0.9985218235294666 
3.810000000003616, -0.999339392462126 
3.820000000003637, -1.0003399228815177 
3.830000000003658, -1.0002331737001715 
3.840000000003679, -1.0006492739689365 
3.8500000000037002, -1.001875771894359 
3.8600000000037213, -1.0019534596553679 
3.8700000000037424, -1.002019866896949 
3.8800000000037635, -1.003261086302879 
3.8900000000037847, -1.0036107159645762 
3.9000000000038058, -1.003474219702637 
3.910000000003827, -1.0045061961660808 
3.920000000003848, -1.0051520443608586 
3.930000000003869, -1.004971503800108 
3.94000000000389, -1.0056527058060887 
3.9500000000039113, -1.0065280213319174 
3.9600000000039324, -1.0064210055972809 
3.9700000000039535, -1.0067339783204736 
3.9800000000039746, -1.0077001844699678 
3.9900000000039957, -1.0077478834535052 
4.000000000004016, -1.0077714552148969 
4.010000000003993, -1.0086686120948456 
4.02000000000397, -1.0089137151739946 
4.030000000003946, -1.008772306156912 
4.040000000003923, -1.0094734201309157 
4.0500000000039, -1.0098995898347067 
4.0600000000038765, -1.0097153298050976 
4.070000000003853, -1.0101563572863734 
4.08000000000383, -1.0106941193108094 
4.090000000003807, -1.0105580145216992 
4.100000000003783, -1.010741715303453 
4.11000000000376, -1.0112986715385235 
4.120000000003737, -1.011266099803969 
4.130000000003713, -1.0112447217487788 
4.14000000000369, -1.0117381553485738 
4.150000000003667, -1.011825908180966 
4.1600000000036434, -1.0116769736170805 
4.17000000000362, -1.0120499751499878 
4.180000000003597, -1.01223621146305 
4.1900000000035735, -1.0120408649586443 
4.20000000000355, -1.0122620801399356 
4.210000000003527, -1.0125011828895616 
4.220000000003504, -1.0123260024717562 
4.23000000000348, -1.0123900739059564 
4.240000000003457, -1.0126328710109447 
4.250000000003434, -1.0125180341912094 
4.26000000000341, -1.0124455765146818 
4.270000000003387, -1.0126535928568914 
4.280000000003364, -1.012608921528221 
4.2900000000033405, -1.0124401417240774 
4.300000000003317, -1.012586687397505 
4.310000000003294, -1.0125979007405428 
4.320000000003271, -1.012382476519933 
4.330000000003247, -1.0124471421303276 
4.340000000003224, -1.012489116615039 
4.350000000003201, -1.0122737833584867 
4.360000000003177, -1.0122436149525706 
4.370000000003154, -1.0122921874563233 
4.380000000003131, -1.0121081106869594 
4.390000000003107, -1.0119842861588786 
4.400000000003084, -1.0120212139123876 
4.410000000003061, -1.0118783661269009 
4.4200000000030375, -1.011678786347731 
4.430000000003014, -1.0116884418953969 
4.440000000002991, -1.0115810223710886 
4.450000000002968, -1.0113359067187808 
4.460000000002944, -1.0113005222870477 
4.470000000002921, -1.0112171727006833 
4.480000000002898, -1.0109598484285542 
4.490000000002874, -1.010861732061046 
4.500000000002851, -1.0107924535325228 
4.510000000002828, -1.0105484418233956 
4.520000000002804, -1.0103783881619202 
4.530000000002781, -1.0103147105278627 
4.540000000002758, -1.010095763964135 
4.5500000000027345, -1.0098596556598465 
4.560000000002711, -1.0097893981362243 
4.570000000002688, -1.0095969009149612 
4.580000000002665, -1.0093147250850414 
4.590000000002641, -1.0092184866066565 
4.600000000002618, -1.0090507995862021 
4.610000000002595, -1.00874894645966 
4.620000000002571, -1.0086043132398952 
4.630000000002548, -1.0084603227953648 
4.640000000002525, -1.0081618542108863 
4.6500000000025015, -1.0079532382951577 
4.660000000002478, -1.0078294613900491 
4.670000000002455, -1.0075486127527085 
4.6800000000024315, -1.0072757935884569 
4.690000000002408, -1.0071598391004661 
4.700000000002385, -1.0069041045835927 
4.710000000002362, -1.0065831163493533 
4.720000000002338, -1.006451401875555 
4.730000000002315, -1.0062263352313863 
4.740000000002292, -1.0058819550959515 
4.750000000002268, -1.0057067705448222 
4.760000000002245, -1.0055166662499446 
4.770000000002222, -1.0051725444759094 
4.7800000000021985, -1.0049340783136187 
4.790000000002175, -1.0047769561924202 
4.800000000002152, -1.0044504279367088 
4.810000000002129, -1.0041464759643057 
4.820000000002105, -1.0040070759035988 
4.830000000002082, -1.0037104979861227 
4.840000000002059, -1.0033577112147092 
4.850000000002035, -1.0032070764633263 
4.860000000002012, -1.0029504451342963 
4.870000000001989, -1.002575619449292 
4.880000000001965, -1.0023815560432685 
4.890000000001942, -1.0021709414697595 
4.900000000001919, -1.0018000256523183 
4.9100000000018955, -1.001541368907616 
4.920000000001872, -1.0013728828286186 
4.930000000001849, -1.001025835219363 
