t, s[1].omega / s[0].omega 
0, -0.6099977258170783 
0.009999999999999995, -0.6097914071455409 
0.019999999999999934, -0.6096154024931654 
0.029999999999999874, -0.6094405266708456 
0.04000000000000012, -0.6092321712963085 
0.050000000000000405, -0.6089631999978234 
0.06000000000000069, -0.6086215288291361 
0.07000000000000098, -0.6082113029392441 
0.08000000000000126, -0.607751229181998 
0.09000000000000155, -0.6072747187331935 
0.10000000000000184, -0.6068350693575606 
0.11000000000000212, -0.6065175270633754 
0.12000000000000241, -0.6064597173342082 
0.130000000000002, -0.606882135602014 
0.1400000000000009, -0.6081301263492606 
0.1499999999999998, -0.6107265225194183 
0.1599999999999987, -0.615426387328528 
0.1699999999999976, -0.623244005412318 
0.1799999999999965, -0.6353741390856669 
0.1899999999999954, -0.6528559718540917 
0.1999999999999943, -0.6758278247877502 
0.2099999999999932, -0.7025855670329991 
0.2199999999999921, -0.7294559647519283 
0.229999999999991, -0.7524294146176652 
0.2399999999999899, -0.7693686677488067 
0.2499999999999888, -0.7805147515665604 
0.2599999999999877, -0.7873265640989247 
0.2699999999999866, -0.7913110914603483 
0.2799999999999855, -0.7935639849288776 
0.2899999999999844, -0.7947668138139135 
0.2999999999999833, -0.7953089845746646 
0.3099999999999822, -0.7953942618834539 
0.3199999999999811, -0.7951049843695588 
0.32999999999998, -0.7944292797360751 
0.3399999999999789, -0.7932572567217397 
0.3499999999999778, -0.7913449279035902 
0.35999999999997667, -0.788237557545036 
0.36999999999997557, -0.7831467541280046 
0.37999999999997447, -0.7748176174909533 
0.38999999999997337, -0.7615635321591836 
0.39999999999997227, -0.7418690437394287 
0.40999999999997117, -0.7157950513324958 
0.41999999999997006, -0.686159376707741 
0.42999999999996896, -0.6575769024577762 
0.43999999999996786, -0.6338005759132186 
0.44999999999996676, -0.6161885836103099 
0.45999999999996566, -0.6041967729927834 
0.46999999999996456, -0.5965201526147224 
0.47999999999996346, -0.5918465848599636 
0.48999999999996235, -0.5891370215619227 
0.49999999999996125, -0.587654432534235 
0.5099999999999602, -0.5869070557549401 
0.519999999999959, -0.5865793936684222 
0.529999999999958, -0.5864744239685824 
0.5399999999999568, -0.5864710759720348 
0.5499999999999557, -0.586495147974712 
0.5599999999999546, -0.5865008557323823 
0.5699999999999535, -0.5864606710137058 
0.5799999999999524, -0.5863615755293352 
0.5899999999999513, -0.5862054693340557 
0.5999999999999502, -0.5860101245142422 
0.6099999999999491, -0.5858062201600813 
0.619999999999948, -0.5856279823253042 
0.6299999999999469, -0.5854997618626232 
0.6399999999999458, -0.585424778223377 
0.6499999999999447, -0.5853820117672225 
0.6599999999999436, -0.5853333230708603 
0.6699999999999425, -0.5852374586520293 
0.6799999999999414, -0.5850636164879985 
0.6899999999999403, -0.5847982796943076 
0.6999999999999392, -0.5844447268239696 
0.7099999999999381, -0.5840196249629708 
0.719999999999937, -0.5835518862938326 
0.7299999999999359, -0.5830872675198379 
0.7399999999999348, -0.5827010817062298 
0.7499999999999337, -0.5825219670307632 
0.7599999999999326, -0.5827714184125112 
0.7699999999999315, -0.5838256044967001 
0.7799999999999304, -0.5863053808460508 
0.7899999999999293, -0.591190130649853 
0.7999999999999282, -0.5999119075690295 
0.8099999999999271, -0.6142825939284597 
0.819999999999926, -0.6359346167453114 
0.8299999999999249, -0.6649710030839298 
0.8399999999999238, -0.6984312550787521 
0.8499999999999227, -0.7307109392305196 
0.8599999999999216, -0.7568102122212915 
0.8699999999999205, -0.7750694215033997 
0.8799999999999194, -0.7866606311682941 
0.8899999999999183, -0.793630020324633 
0.8999999999999172, -0.7977050203923077 
0.9099999999999161, -0.8000354288996577 
0.919999999999915, -0.8013102896994855 
0.9299999999999139, -0.8019195115903276 
0.9399999999999128, -0.8020686404238194 
0.9499999999999117, -0.8018435783690556 
0.9599999999999106, -0.8012376061441921 
0.9699999999999095, -0.8001484179373304 
0.9799999999999084, -0.7983454200896092 
0.9899999999999073, -0.7954034694694021 
0.9999999999999062, -0.7906094635131801 
1.0099999999999052, -0.7829001116762143 
1.019999999999904, -0.7710098163676393 
1.029999999999903, -0.7540903637999024 
1.039999999999902, -0.7327066866124553 
1.0499999999999008, -0.7092564660763254 
1.0599999999998997, -0.6869486962432546 
1.0699999999998986, -0.6681871660828881 
1.0799999999998975, -0.6538634612559184 
1.0899999999998964, -0.6437047990911021 
1.0999999999998953, -0.636911948571983 
1.1099999999998942, -0.6326030829823422 
1.119999999999893, -0.6300152133487387 
1.129999999999892, -0.6285595383488443 
1.1399999999998909, -0.6278120746720288 
1.1499999999998898, -0.627482379090904 
1.1599999999998887, -0.6273790196229165 
1.1699999999998876, -0.6273791679258914 
1.1799999999998865, -0.6274048499270265 
1.1899999999998854, -0.6274063530777245 
1.1999999999998843, -0.627352484732714 
1.2099999999998832, -0.6272268831743384 
1.219999999999882, -0.6270285463369796 
1.229999999999881, -0.6267729469617368 
1.2399999999998799, -0.6264890653524471 
1.2499999999998788, -0.6262098912592584 
1.2599999999998777, -0.6259591900040594 
1.2699999999998766, -0.6257412248689386 
1.2799999999998755, -0.6255391205766435 
1.2899999999998744, -0.6253227125068321 
1.2999999999998733, -0.6250614335786748 
1.3099999999998722, -0.6247354290006376 
1.319999999999871, -0.624340607395597 
1.32999999999987, -0.6238885590664591 
1.3399999999998689, -0.623405588914474 
1.3499999999998678, -0.6229349000089623 
1.3599999999998666, -0.62254422352503 
1.3699999999998655, -0.6223399262329201 
1.3799999999998644, -0.6224881028153257 
1.3899999999998633, -0.6232426767260163 
1.3999999999998622, -0.624979232688091 
1.4099999999998611, -0.628229901869154 
1.41999999999986, -0.6337060962529761 
1.429999999999859, -0.6422760133665052 
1.4399999999998578, -0.6548264537401478 
1.4499999999998567, -0.6719017029428253 
1.4599999999998556, -0.693080612445048 
1.4699999999998545, -0.7164139351739566 
1.4799999999998534, -0.7387216005737811 
1.4899999999998523, -0.7570862925589563 
1.4999999999998512, -0.7703022765963061 
1.5099999999998501, -0.7788881042015909 
1.519999999999849, -0.7841012962955507 
1.529999999999848, -0.7871279060818537 
1.5399999999998468, -0.7888056935448962 
1.5499999999998457, -0.7896492353468714 
1.5599999999998446, -0.7899472024971651 
1.5699999999998435, -0.7898411007258848 
1.5799999999998424, -0.7893693005998631 
1.5899999999998413, -0.788479784472411 
1.5999999999998402, -0.7870134801668096 
1.6099999999998391, -0.7846528922646137 
1.619999999999838, -0.7808246275680227 
1.629999999999837, -0.7745526882988235 
1.6399999999998358, -0.7643242100036269 
1.6499999999998347, -0.7482250281431517 
1.6599999999998336, -0.7248479834883844 
1.6699999999998325, -0.6950418271138398 
1.6799999999998314, -0.6628244987916931 
1.6899999999998303, -0.6334574245635499 
1.6999999999998292, -0.6103453418664839 
1.709999999999828, -0.594060329691637 
1.719999999999827, -0.5834460306638916 
1.729999999999826, -0.5769084749115249 
1.7399999999998248, -0.5730676859701249 
1.7499999999998237, -0.5709186365930172 
1.7599999999998226, -0.5697888144451464 
1.7699999999998215, -0.5692491771787552 
1.7799999999998204, -0.5690340914332432 
1.7899999999998193, -0.5689821612865017 
1.7999999999998182, -0.5689960596362759 
1.809999999999817, -0.5690168161770437 
1.819999999999816, -0.569008661973039 
1.8299999999998149, -0.5689516970380332 
1.8399999999998138, -0.5688401917703401 
1.8499999999998127, -0.568683713938725 
1.8599999999998116, -0.5685069861329326 
1.8699999999998105, -0.5683444480289488 
1.8799999999998094, -0.5682287240236855 
1.8899999999998083, -0.5681770314848953 
1.8999999999998072, -0.5681820608560436 
1.909999999999806, -0.5682123307944376 
1.919999999999805, -0.5682226174449752 
1.9299999999998039, -0.5681695371931973 
1.9399999999998028, -0.5680241699616346 
1.9499999999998017, -0.5677763752681699 
1.9599999999998006, -0.5674320414854301 
1.9699999999997995, -0.5670086806728121 
1.9799999999997984, -0.5665343951926208 
1.9899999999997973, -0.5660532822708503 
1.9999999999997962, -0.5656397691841228 
2.0099999999998173, -0.5654258376683317 
2.0199999999998384, -0.565648014264119 
2.0299999999998595, -0.5667241363845072 
2.0399999999998806, -0.569369387812017 
2.0499999999999017, -0.574743951208907 
2.059999999999923, -0.5845560565705459 
2.069999999999944, -0.600868891709329 
2.079999999999965, -0.6251371696670112 
2.089999999999986, -0.6563357770519789 
2.100000000000007, -0.6898107631767603 
2.1100000000000283, -0.7194594757946144 
2.1200000000000494, -0.7417067575287828 
2.1300000000000705, -0.7565957966316017 
2.1400000000000916, -0.7659487259591178 
2.1500000000001127, -0.7716520760157628 
2.160000000000134, -0.7750761773724417 
2.170000000000155, -0.7770935082315293 
2.180000000000176, -0.7782286841726903 
2.190000000000197, -0.7787847684507865 
2.2000000000002182, -0.7789240590551918 
2.2100000000002393, -0.7787121979128406 
2.2200000000002604, -0.7781352138345647 
2.2300000000002815, -0.7770944500189073 
2.2400000000003026, -0.7753809902484852 
2.2500000000003237, -0.7726342829836367 
2.260000000000345, -0.7683094006970056 
2.270000000000366, -0.7617241589076873 
2.280000000000387, -0.7522991338758234 
2.290000000000408, -0.7400034225843636 
2.3000000000004293, -0.7256948744940176 
2.3100000000004504, -0.7109093074641146 
2.3200000000004715, -0.6971808312670212 
2.3300000000004926, -0.6854941430362513 
2.3400000000005137, -0.6761943306134709 
2.3500000000005348, -0.6691826120481845 
2.360000000000556, -0.6641417455464633 
2.370000000000577, -0.6606862991886311 
2.380000000000598, -0.6584409658108307 
2.390000000000619, -0.6570758178840653 
2.4000000000006403, -0.6563195167965559 
2.4100000000006614, -0.6559608256945222 
2.4200000000006825, -0.6558431657618555 
2.4300000000007036, -0.6558552439496761 
2.4400000000007247, -0.6559204791714928 
2.450000000000746, -0.6559876443618877 
2.460000000000767, -0.6560244540178559 
2.470000000000788, -0.6560146878540406 
2.480000000000809, -0.655957718532774 
2.49000000000083, -0.6558673941058966 
2.5000000000008513, -0.6557667507291641 
2.5100000000008724, -0.6556776710417715 
2.5200000000008935, -0.6556091730497599 
2.5300000000009146, -0.6555506013733715 
2.5400000000009357, -0.655474108666575 
2.550000000000957, -0.6553455248326548 
2.560000000000978, -0.6551375340135789 
2.570000000000999, -0.6548382788767947 
2.58000000000102, -0.6544530999889259 
2.5900000000010412, -0.6540026134416156 
2.6000000000010624, -0.6535221361375848 
2.6100000000010835, -0.6530659244734796 
2.6200000000011046, -0.6527176191110518 
2.6300000000011257, -0.652607028054872 
2.6400000000011468, -0.6529324918824637 
2.650000000001168, -0.6539867428807947 
2.660000000001189, -0.6561818427704524 
2.67000000000121, -0.6600646203157978 
2.680000000001231, -0.666305601097635 
2.6900000000012523, -0.675627536386872 
2.7000000000012734, -0.688615436256615 
2.7100000000012945, -0.7053507028406012 
2.7200000000013156, -0.7249345188366776 
2.7300000000013367, -0.7452803974280404 
2.740000000001358, -0.7637190190827639 
2.750000000001379, -0.7782691778349903 
2.7600000000014, -0.7884457124149366 
2.770000000001421, -0.79494585086888 
2.780000000001442, -0.7988460913872464 
2.7900000000014633, -0.8010721634642616 
2.8000000000014844, -0.8022554546687708 
2.8100000000015055, -0.80277582384059 
2.8200000000015266, -0.8028385325033185 
2.8300000000015477, -0.8025306455227745 
2.840000000001569, -0.8018484308072793 
2.85000000000159, -0.8006977166587745 
2.860000000001611, -0.7988662480175396 
2.870000000001632, -0.7959606873773862 
2.8800000000016532, -0.7912966072399363 
2.8900000000016743, -0.7837423964713559 
2.9000000000016954, -0.7715948070276587 
2.9100000000017165, -0.7527907265436007 
2.9200000000017377, -0.7260369790370013 
2.9300000000017588, -0.6928534902540371 
2.94000000000178, -0.6583454996103407 
2.950000000001801, -0.6284561858011912 
2.960000000001822, -0.6063459916577891 
2.970000000001843, -0.5918303746263326 
2.9800000000018643, -0.5830868844587604 
2.9900000000018854, -0.5781600801485653 
3.0000000000019065, -0.5755531971891548 
3.0100000000019276, -0.5742760185389351 
3.0200000000019487, -0.573721586417442 
3.03000000000197, -0.5735341509398196 
3.040000000001991, -0.573510744260904 
3.050000000002012, -0.5735366897278172 
3.060000000002033, -0.573546067124666 
3.070000000002054, -0.5734989187323996 
3.0800000000020753, -0.5733697491302332 
3.0900000000020964, -0.5731441271723616 
3.1000000000021175, -0.5728209010183686 
3.1100000000021386, -0.5724163181052657 
3.1200000000021597, -0.5719645704909102 
3.130000000002181, -0.571510344525164 
3.140000000002202, -0.5710944534008358 
3.150000000002223, -0.5707394288123948 
3.160000000002244, -0.5704425061970951 
3.1700000000022652, -0.5701790237374357 
3.1800000000022863, -0.5699138900826981 
3.1900000000023074, -0.5696151361099855 
3.2000000000023285, -0.5692634025391652 
3.2100000000023496, -0.5688550010450111 
3.2200000000023707, -0.568400918260296 
3.230000000002392, -0.5679261705706716 
3.240000000002413, -0.5674731760303301 
3.250000000002434, -0.5671116055169191 
3.260000000002455, -0.5669570472638089 
3.2700000000024763, -0.5672018007033711 
3.2800000000024974, -0.568162483359179 
3.2900000000025185, -0.5703493867391978 
3.3000000000025396, -0.5745574630733479 
3.3100000000025607, -0.5819567166637992 
3.3200000000025818, -0.5940948446702318 
3.330000000002603, -0.6125919919551397 
3.340000000002624, -0.6382042940835182 
3.350000000002645, -0.669343833913865 
3.360000000002666, -0.7014899733098312 
3.3700000000026873, -0.729280358629445 
3.3800000000027084, -0.7497605815502448 
3.3900000000027295, -0.7631825493637384 
3.4000000000027506, -0.771379331454097 
3.4100000000027717, -0.7762065951853243 
3.420000000002793, -0.7789878081441788 
3.430000000002814, -0.7805389278802588 
3.440000000002835, -0.7813288921344064 
3.450000000002856, -0.7816118725804728 
3.460000000002877, -0.7815072317048085 
3.4700000000028983, -0.7810378796592012 
3.4800000000029194, -0.7801373859108764 
3.4900000000029405, -0.778629124988939 
3.5000000000029616, -0.7761755739933051 
3.5100000000029827, -0.7722008511230088 
3.520000000003004, -0.7658248975448997 
3.530000000003025, -0.7559399008728447 
3.540000000003046, -0.7416535006095285 
3.550000000003067, -0.7231218252181939 
3.5600000000030882, -0.7021025716576835 
3.5700000000031094, -0.6813474080292968 
3.5800000000031305, -0.6632181239518801 
3.5900000000031516, -0.6488463362898116 
3.6000000000031727, -0.6382547945653538 
3.6100000000031938, -0.6308770741897605 
3.620000000003215, -0.6259800925337681 
3.630000000003236, -0.6228809546411959 
3.640000000003257, -0.6210233630797506 
3.650000000003278, -0.6199863698309163 
3.6600000000032993, -0.6194670528037581 
3.6700000000033204, -0.6192558584088845 
3.6800000000033415, -0.6192123287562616 
3.6900000000033626, -0.6192443909815202 
3.7000000000033837, -0.6192925162289394 
3.710000000003405, -0.6193191879488638 
3.720000000003426, -0.6193035192782387 
3.730000000003447, -0.6192399398287312 
3.740000000003468, -0.6191383337543047 
3.750000000003489, -0.6190217050291027 
3.7600000000035103, -0.618918398626492 
3.7700000000035314, -0.6188498832733911 
3.7800000000035525, -0.6188193988624957 
3.7900000000035736, -0.6188077087949775 
3.8000000000035947, -0.6187789459735 
3.810000000003616, -0.6186939035974924 
3.820000000003637, -0.6185235646600803 
3.830000000003658, -0.618256263990989 
3.840000000003679, -0.61789754426011 
3.8500000000037002, -0.6174670309126455 
3.8600000000037213, -0.6169976070894575 
3.8700000000037424, -0.6165403613045658 
3.8800000000037635, -0.6161772947415461 
3.8900000000037847, -0.6160436515472001 
3.9000000000038058, -0.6163622664706587 
3.910000000003827, -0.6174922413661059 
3.920000000003848, -0.6199916577495129 
3.930000000003869, -0.6246846870805445 
3.94000000000389, -0.6326976914245742 
3.9500000000039113, -0.6453711202538257 
3.9600000000039324, -0.6638679462187225 
3.9700000000039535, -0.6883103237174896 
3.9800000000039746, -0.7167319366872625 
3.9900000000039957, -0.7450445602429366 
4.000000000004016, -0.7689718847446989 
4.010000000003993, -0.7864085588997822 
4.02000000000397, -0.7977728949783804 
4.030000000003946, -0.8046708073943464 
4.040000000003923, -0.8086864344570495 
4.0500000000039, -0.8109483344670156 
4.0600000000038765, -0.8121510984861727 
4.070000000003853, -0.8126891120391045 
4.08000000000383, -0.8127677014470549 
4.090000000003807, -0.8124689533527031 
4.100000000003783, -0.8117792491100614 
4.11000000000376, -0.8105849941168162 
4.120000000003737, -0.8086351900777202 
4.130000000003713, -0.8054618061851985 
4.14000000000369, -0.8002501976462504 
4.150000000003667, -0.791691297331141 
4.1600000000036434, -0.7779892338039113 
4.17000000000362, -0.7574471345246486 
4.180000000003597, -0.7299561398454265 
4.1900000000035735, -0.6984111805976456 
4.20000000000355, -0.6678602326578341 
4.210000000003527, -0.6425464770668772 
4.220000000003504, -0.6240287513240137 
4.23000000000348, -0.6116707858846842 
4.240000000003457, -0.6039669237611355 
4.250000000003434, -0.5994275916987437 
4.26000000000341, -0.5968987986530185 
4.270000000003387, -0.5955834269380235 
4.280000000003364, -0.594965455484301 
4.2900000000033405, -0.5947245214271757 
4.300000000003317, -0.5946672072454335 
4.310000000003294, -0.5946782869757311 
4.320000000003271, -0.5946885696184399 
4.330000000003247, -0.5946552599429071 
4.340000000003224, -0.5945517224049329 
4.350000000003201, -0.5943644250462213 
4.360000000003177, -0.5940946164826146 
4.370000000003154, -0.593760743222713 
4.380000000003131, -0.593396448029641 
4.390000000003107, -0.5930411592311371 
4.400000000003084, -0.5927259045663297 
4.410000000003061, -0.5924613875350848 
4.4200000000030375, -0.5922345610512023 
4.430000000003014, -0.5920152061714917 
4.440000000002991, -0.591768802304577 
4.450000000002968, -0.5914690085070688 
4.460000000002944, -0.5911044849697384 
4.470000000002921, -0.5906796853045149 
4.480000000002898, -0.5902133704569239 
4.490000000002874, -0.5897392797618862 
4.500000000002851, -0.5893120132801776 
4.510000000002828, -0.5890200983709557 
4.520000000002804, -0.5890082437594868 
4.530000000002781, -0.5895114296592623 
4.540000000002758, -0.5909037175633466 
4.5500000000027345, -0.5937625481842541 
4.560000000002711, -0.5989398752410048 
4.570000000002688, -0.607602845967311 
4.580000000002665, -0.6211393000989043 
4.590000000002641, -0.640721507772571 
4.600000000002618, -0.6663426848904355 
4.610000000002595, -0.6957063077963628 
4.620000000002571, -0.724377242160287 
4.630000000002548, -0.7480611423629467 
4.640000000002525, -0.7649696438876712 
4.6500000000025015, -0.7758343063485745 
4.660000000002478, -0.7823844294782581 
4.670000000002455, -0.786194923484532 
4.6800000000024315, -0.7883477202231833 
4.690000000002408, -0.7894971728168476 
4.700000000002385, -0.7900118049039768 
4.710000000002362, -0.7900820056228313 
4.720000000002338, -0.7897812912557527 
4.730000000002315, -0.7890905045478218 
4.740000000002292, -0.7878914047915554 
4.750000000002268, -0.7859284838383938 
4.760000000002245, -0.7827327250400282 
4.770000000002222, -0.7775102941526728 
4.7800000000021985, -0.7690553076349624 
4.790000000002175, -0.7558913009207566 
4.800000000002152, -0.7369796048169397 
4.810000000002129, -0.7129466494397736 
4.820000000002105, -0.6866597534570303 
4.830000000002082, -0.6619549824895914 
4.840000000002059, -0.6415839385832407 
4.850000000002035, -0.626394317259448 
4.860000000002012, -0.6158740057303466 
4.870000000001989, -0.6089857549197377 
4.880000000001965, -0.6046881283626907 
4.890000000001942, -0.6021351392228684 
4.900000000001919, -0.6007055565384639 
4.9100000000018955, -0.5999692837546643 
4.920000000001872, -0.5996402976999431 
