t, s[1].omega / s[0].omega 
0, -0.9499975798138328 
0.009999999999999995, -0.9496904651881929 
0.019999999999999934, -0.9492539028042362 
0.029999999999999874, -0.9486888539776596 
0.04000000000000012, -0.9480038614791881 
0.050000000000000405, -0.9472208086013637 
0.06000000000000069, -0.9463781991026355 
0.07000000000000098, -0.9455317001716341 
0.08000000000000126, -0.9447512374507661 
0.09000000000000155, -0.9441128535839688 
0.10000000000000184, -0.9436851439341793 
0.11000000000000212, -0.9435141990356305 
0.12000000000000241, -0.9436132830903352 
0.130000000000002, -0.9439611743002961 
0.1400000000000009, -0.9445088281301958 
0.1499999999999998, -0.9451913173800189 
0.1599999999999987, -0.945941019388474 
0.1699999999999976, -0.946698145830999 
0.1799999999999965, -0.9474161692315691 
0.1899999999999954, -0.9480617521988405 
0.1999999999999943, -0.948610324406298 
0.2099999999999932, -0.9490398095953211 
0.2199999999999921, -0.9493264575722165 
0.229999999999991, -0.9494464296164924 
0.2399999999999899, -0.9493830175248057 
0.2499999999999888, -0.9491347572698994 
0.2599999999999877, -0.9487194870735601 
0.2699999999999866, -0.9481740982078664 
0.2799999999999855, -0.9475535031240272 
0.2899999999999844, -0.9469308320094039 
0.2999999999999833, -0.946396025992476 
0.3099999999999822, -0.9460471324508323 
0.3199999999999811, -0.9459719914512345 
0.32999999999998, -0.9462265236808266 
0.3399999999999789, -0.9468211974392835 
0.3499999999999778, -0.9477225637335313 
0.35999999999997667, -0.9488668177175514 
0.36999999999997557, -0.9501771228693041 
0.37999999999997447, -0.9515778507307161 
0.38999999999997337, -0.953002335039059 
0.39999999999997227, -0.9543934700896817 
0.40999999999997117, -0.9556988559132182 
0.41999999999997006, -0.9568647801041521 
0.42999999999996896, -0.9578350578688648 
0.43999999999996786, -0.9585587386834424 
0.44999999999996676, -0.9590037199358461 
0.45999999999996566, -0.9591669096007134 
0.46999999999996456, -0.959074000981062 
0.47999999999996346, -0.9587716285817628 
0.48999999999996235, -0.9583207432555971 
0.49999999999996125, -0.9577971829750729 
0.5099999999999602, -0.9572978674423016 
0.519999999999959, -0.9569440475782051 
0.529999999999958, -0.95687057100818 
0.5399999999999568, -0.9571971888902041 
0.5499999999999557, -0.9579936960979802 
0.5599999999999546, -0.9592603710861379 
0.5699999999999535, -0.960935043074163 
0.5799999999999524, -0.9629182687754458 
0.5899999999999513, -0.9650994826541025 
0.5999999999999502, -0.9673728365635071 
0.6099999999999491, -0.9696406883872569 
0.619999999999948, -0.9718088437970606 
0.6299999999999469, -0.9737813502821089 
0.6399999999999458, -0.9754637836484885 
0.6499999999999447, -0.9767789412801562 
0.6599999999999436, -0.9776872734608208 
0.6699999999999425, -0.9781967168424867 
0.6799999999999414, -0.978354302425109 
0.6899999999999403, -0.9782278336747969 
0.6999999999999392, -0.9778923057357272 
0.7099999999999381, -0.9774293672338032 
0.719999999999937, -0.976938556190904 
0.7299999999999359, -0.9765512367740705 
0.7399999999999348, -0.9764319641271223 
0.7499999999999337, -0.9767528788609459 
0.7599999999999326, -0.9776440399803681 
0.7699999999999315, -0.9791480138389783 
0.7799999999999304, -0.9812100480802609 
0.7899999999999293, -0.983706240419095 
0.7999999999999282, -0.9864845579257631 
0.8099999999999271, -0.9893940949347053 
0.819999999999926, -0.9922950335729412 
0.8299999999999249, -0.9950555712099677 
0.8399999999999238, -0.9975479858099707 
0.8499999999999227, -0.9996554862576298 
0.8599999999999216, -1.0012926830925613 
0.8699999999999205, -1.002427642083767 
0.8799999999999194, -1.003087155464383 
0.8899999999999183, -1.0033400461433666 
0.8999999999999172, -1.0032721020137667 
0.9099999999999161, -1.002970044611311 
0.919999999999915, -1.002522150423894 
0.9299999999999139, -1.0020326860213549 
0.9399999999999128, -1.0016397235489207 
0.9499999999999117, -1.001518802799996 
0.9599999999999106, -1.0018547639394837 
0.9699999999999095, -1.0027843288562306 
0.9799999999999084, -1.0043439597906885 
0.9899999999999073, -1.006461361445366 
0.9999999999999062, -1.00899178122047 
1.0099999999999052, -1.0117667396356458 
1.019999999999904, -1.0146264796337223 
1.029999999999903, -1.0174297935216712 
1.039999999999902, -1.0200500910181975 
1.0499999999999008, -1.022370936564862 
1.0599999999998997, -1.0242918281564517 
1.0699999999998986, -1.0257455523536505 
1.0799999999998975, -1.0267153031258858 
1.0899999999998964, -1.027236073727496 
1.0999999999998953, -1.0273779305476007 
1.1099999999998942, -1.027224456918055 
1.119999999999893, -1.0268612622849118 
1.129999999999892, -1.0263798418089956 
1.1399999999998909, -1.0258917908258576 
1.1499999999998898, -1.0255400583873489 
1.1599999999998887, -1.0254889996313818 
1.1699999999998876, -1.0258839473706665 
1.1799999999998865, -1.0267987662427764 
1.1899999999998854, -1.0282095559202848 
1.1999999999998843, -1.0300127981129332 
1.2099999999998832, -1.0320683443905094 
1.219999999999882, -1.0342368934810104 
1.229999999999881, -1.0363982949623145 
1.2399999999998799, -1.0384533854061477 
1.2499999999998788, -1.0403178017278276 
1.2599999999998777, -1.0419166388973466 
1.2699999999998766, -1.0431868001926388 
1.2799999999998755, -1.0440876861075203 
1.2899999999998744, -1.044612343428928 
1.2999999999998733, -1.0447890340674548 
1.3099999999998722, -1.0446718332462743 
1.319999999999871, -1.044329063747964 
1.32999999999987, -1.0438391447020998 
1.3399999999998689, -1.0432956078735751 
1.3499999999998678, -1.0428133502512318 
1.3599999999998666, -1.0425222838338026 
1.3699999999998655, -1.0425398709786056 
1.3799999999998644, -1.0429334669857955 
1.3899999999998633, -1.0436987593336307 
1.3999999999998622, -1.0447689470193944 
1.4099999999998611, -1.046043402147034 
1.41999999999986, -1.0474158565968956 
1.429999999999859, -1.0487920641294073 
1.4399999999998578, -1.0500966311999673 
1.4499999999998567, -1.0512718687501788 
1.4599999999998556, -1.0522723642731475 
1.4699999999998545, -1.0530598569693226 
1.4799999999998534, -1.0536027183666776 
1.4899999999998523, -1.0538811273550035 
1.4999999999998512, -1.0538940406750412 
1.5099999999998501, -1.0536623661617461 
1.519999999999849, -1.0532270994027515 
1.529999999999848, -1.0526465195317456 
1.5399999999998468, -1.0519960862436215 
1.5499999999998457, -1.0513685337357423 
1.5599999999998446, -1.0508663126114146 
1.5699999999998435, -1.0505816456653316 
1.5799999999998424, -1.0505715671952696 
1.5899999999998413, -1.0508433040439402 
1.5999999999998402, -1.0513574909159893 
1.6099999999998391, -1.0520433163865273 
1.619999999999838, -1.0528165350608056 
1.629999999999837, -1.053595280314603 
1.6399999999998358, -1.0543109695484891 
1.6499999999998347, -1.0549128612046714 
1.6599999999998336, -1.0553669550171974 
1.6699999999998325, -1.0556514898633762 
1.6799999999998314, -1.0557518830185146 
1.6899999999998303, -1.0556581031555536 
1.6999999999998292, -1.0553662053691355 
1.709999999999828, -1.0548828410740216 
1.719999999999827, -1.0542297277204655 
1.729999999999826, -1.0534463432937335 
1.7399999999998248, -1.0525909611972089 
1.7499999999998237, -1.051739121140843 
1.7599999999998226, -1.050976305516411 
1.7699999999998215, -1.0503831535089154 
1.7799999999998204, -1.0500176214672452 
1.7899999999998193, -1.0499018169667889 
1.7999999999998182, -1.050017594438335 
1.809999999999817, -1.0503108992471293 
1.819999999999816, -1.0507040880045275 
1.8299999999998149, -1.0511129871420593 
1.8399999999998138, -1.0514619527037499 
1.8499999999998127, -1.0516920957123235 
1.8599999999998116, -1.0517633392918138 
1.8699999999998105, -1.0516532221126293 
1.8799999999998094, -1.0513537650740192 
1.8899999999998083, -1.050866795422523 
1.8999999999998072, -1.0501996133433165 
1.909999999999806, -1.0493638044706384 
1.919999999999805, -1.0483780816436963 
1.9299999999998039, -1.0472732991697093 
1.9399999999998028, -1.046096829114148 
1.9499999999998017, -1.0449137904478878 
1.9599999999998006, -1.0438029330255998 
1.9699999999997995, -1.0428462336367885 
1.9799999999997984, -1.0421138619186778 
1.9899999999997973, -1.0416478682474715 
1.9999999999997962, -1.0414486871811994 
2.0099999999998173, -1.0414707312369207 
2.0199999999998384, -1.0416326513090803 
2.0299999999998595, -1.0418386903200207 
2.0399999999998806, -1.0419988647039404 
2.0499999999999017, -1.0420392622068229 
2.059999999999923, -1.0419040990213568 
2.069999999999944, -1.0415558417360344 
2.079999999999965, -1.0409763002702572 
2.089999999999986, -1.0401664898544858 
2.100000000000007, -1.0391425546728095 
2.1100000000000283, -1.0379293133985648 
2.1200000000000494, -1.036556186968292 
2.1300000000000705, -1.0350583834494353 
2.1400000000000916, -1.0334819008571232 
2.1500000000001127, -1.0318884272484086 
2.160000000000134, -1.0303563093966228 
2.170000000000155, -1.0289750828696915 
2.180000000000176, -1.0278325854054602 
2.190000000000197, -1.0269952978324615 
2.2000000000002182, -1.0264862845025944 
2.2100000000002393, -1.0262716483168155 
2.2200000000002604, -1.0262671987867298 
2.2300000000002815, -1.0263637305003595 
2.2400000000003026, -1.0264542552366087 
2.2500000000003237, -1.026448485740145 
2.260000000000345, -1.026274326828923 
2.270000000000366, -1.0258755418871526 
2.280000000000387, -1.0252131342516173 
2.290000000000408, -1.0242705194223867 
2.3000000000004293, -1.023056510838047 
2.3100000000004504, -1.0216011286545683 
2.3200000000004715, -1.0199464035659225 
2.3300000000004926, -1.0181393342090455 
2.3400000000005137, -1.016231577441881 
2.3500000000005348, -1.014284383171384 
2.360000000000556, -1.0123737840597178 
2.370000000000577, -1.0105911259067575 
2.380000000000598, -1.0090355221176512 
2.390000000000619, -1.0077965398243314 
2.4000000000006403, -1.0069291003591299 
2.4100000000006614, -1.0064303661986878 
2.4200000000006825, -1.006234364942474 
2.4300000000007036, -1.0062316706201087 
2.4400000000007247, -1.0063017500642317 
2.450000000000746, -1.006337283877699 
2.460000000000767, -1.0062515190535253 
2.470000000000788, -1.005974977687647 
2.480000000000809, -1.0054524863413392 
2.49000000000083, -1.0046465461179377 
2.5000000000008513, -1.003544764429339 
2.5100000000008724, -1.0021634817697054 
2.5200000000008935, -1.0005422072819647 
2.5300000000009146, -0.9987322794453679 
2.5400000000009357, -0.9967883780771443 
2.550000000000957, -0.9947678270237741 
2.560000000000978, -0.992735621687163 
2.570000000000999, -0.9907695392922559 
2.58000000000102, -0.988960152729766 
2.5900000000010412, -0.9874025066787977 
2.6000000000010624, -0.9861784818564046 
2.6100000000010835, -0.9853330315168725 
2.6200000000011046, -0.9848544897230924 
2.6300000000011257, -0.9846727296907162 
2.6400000000011468, -0.9846795471341385 
2.650000000001168, -0.9847586923896026 
2.660000000001189, -0.9848075906004908 
2.67000000000121, -0.9847438952083873 
2.680000000001231, -0.9845029621304173 
2.6900000000012523, -0.9840358079396685 
2.7000000000012734, -0.9833122853140797 
2.7100000000012945, -0.9823267053952895 
2.7200000000013156, -0.9810988730335796 
2.7300000000013367, -0.9796669043984695 
2.740000000001358, -0.9780762424987005 
2.750000000001379, -0.9763727539435919 
2.7600000000014, -0.9746033900251829 
2.770000000001421, -0.9728216297470708 
2.780000000001442, -0.9710923870081954 
2.7900000000014633, -0.9694921038101892 
2.8000000000014844, -0.9681019430800294 
2.8100000000015055, -0.9669941270378963 
2.8200000000015266, -0.9662139071235332 
2.8300000000015477, -0.9657632862767814 
2.840000000001569, -0.9655955733576261 
2.85000000000159, -0.965626359631993 
2.860000000001611, -0.9657557818453366 
2.870000000001632, -0.9658894039099779 
2.8800000000016532, -0.9659490985551239 
2.8900000000016743, -0.9658751040195985 
2.9000000000016954, -0.9656255674081343 
2.9100000000017165, -0.9651776620625002 
2.9200000000017377, -0.9645289330575977 
2.9300000000017588, -0.9636947505030623 
2.94000000000178, -0.9627007973908401 
2.950000000001801, -0.9615749498035049 
2.960000000001822, -0.9603440459678435 
2.970000000001843, -0.9590368340714687 
2.9800000000018643, -0.9576899353216183 
2.9900000000018854, -0.9563525506601771 
3.0000000000019065, -0.9550868728210066 
3.0100000000019276, -0.9539627900657417 
3.0200000000019487, -0.953047241869004 
3.03000000000197, -0.9523905588074723 
3.040000000001991, -0.9520135925867974 
3.050000000002012, -0.9519001794486343 
3.060000000002033, -0.9519990162447234 
3.070000000002054, -0.9522355404490057 
3.0800000000020753, -0.952528722731145 
3.0900000000020964, -0.9528052712239073 
3.1000000000021175, -0.9530073468563203 
3.1100000000021386, -0.9530950116146004 
3.1200000000021597, -0.953046035166216 
3.130000000002181, -0.9528536406123396 
3.140000000002202, -0.9525214567510767 
3.150000000002223, -0.9520568468575265 
3.160000000002244, -0.9514664105985938 
3.1700000000022652, -0.9507567116008238 
3.1800000000022863, -0.9499394450474492 
3.1900000000023074, -0.9490375476958917 
3.2000000000023285, -0.9480893424042204 
3.2100000000023496, -0.9471494770681461 
3.2200000000023707, -0.9462856739101879 
3.230000000002392, -0.9455701484687967 
3.240000000002413, -0.9450664077396855 
3.250000000002434, -0.9448154042669097 
3.260000000002455, -0.9448262653369535 
3.2700000000024763, -0.9450747438065428 
3.2800000000024974, -0.9455094930027597 
3.2900000000025185, -0.9460639207600968 
3.3000000000025396, -0.9466696132098861 
3.3100000000025607, -0.9472670216365382 
3.3200000000025818, -0.9478110030475131 
3.330000000002603, -0.9482711743940184 
3.340000000002624, -0.9486281543624895 
3.350000000002645, -0.9488674525693341 
3.360000000002666, -0.9489741686061253 
3.3700000000026873, -0.9489322426891447 
3.3800000000027084, -0.9487294147157852 
3.3900000000027295, -0.9483646884037149 
3.4000000000027506, -0.9478536623041076 
3.4100000000027717, -0.9472302212859489 
3.420000000002793, -0.9465465089829387 
3.430000000002814, -0.9458724628449146 
3.440000000002835, -0.9452925627259487 
3.450000000002856, -0.9448956777527273 
3.460000000002877, -0.9447575851857037 
3.4700000000028983, -0.9449226895181988 
3.4800000000029194, -0.9453942555404444 
3.4900000000029405, -0.9461373163695151 
3.5000000000029616, -0.9470909253155275 
3.5100000000029827, -0.9481833527083211 
3.520000000003004, -0.9493450071194772 
3.530000000003025, -0.9505160336085211 
3.540000000003046, -0.9516475356205165 
3.550000000003067, -0.9526974231803657 
3.5600000000030882, -0.9536241735185353 
3.5700000000031094, -0.9543836572193423 
3.5800000000031305, -0.9549333856723999 
3.5900000000031516, -0.955243314747251 
3.6000000000031727, -0.9553061367911624 
3.6100000000031938, -0.9551400830476522 
3.620000000003215, -0.9547845998510882 
3.630000000003236, -0.9542955053631325 
3.640000000003257, -0.9537450235394198 
3.650000000003278, -0.9532256245483317 
3.6600000000032993, -0.9528502135582642 
3.6700000000033204, -0.9527397337179997 
3.6800000000033415, -0.9529966588189653 
3.6900000000033626, -0.9536761423860012 
3.7000000000033837, -0.9547723029580814 
3.710000000003405, -0.9562266968257822 
3.720000000003426, -0.9579504805121216 
3.730000000003447, -0.959846559347732 
3.740000000003468, -0.9618231905794687 
3.750000000003489, -0.9637972729516319 
3.7600000000035103, -0.9656900317054522 
3.7700000000035314, -0.9674210560145484 
3.7800000000035525, -0.9689085316831113 
3.7900000000035736, -0.9700806666179446 
3.8000000000035947, -0.9708939676429493 
3.810000000003616, -0.9713454672054889 
3.820000000003637, -0.9714696178797629 
3.830000000003658, -0.971324193872565 
3.840000000003679, -0.970977823773687 
3.8500000000037002, -0.9705080888951331 
3.8600000000037213, -0.9700102641387606 
3.8700000000037424, -0.9696087247283103 
3.8800000000037635, -0.9694571731488905 
3.8900000000037847, -0.9697150717795141 
3.9000000000038058, -0.9705032583609252 
3.910000000003827, -0.9718636135023779 
3.920000000003848, -0.973749925822192 
3.930000000003869, -0.9760522766449607 
3.94000000000389, -0.9786334903999853 
3.9500000000039113, -0.9813560234313476 
3.9600000000039324, -0.9840918118165142 
3.9700000000039535, -0.9867195577049046 
3.9800000000039746, -0.9891197621056624 
3.9900000000039957, -0.9911787218659767 
4.000000000004016, -0.9928063683001245 
4.010000000003993, -0.9939591328219718 
4.02000000000397, -0.9946499678083753 
4.030000000003946, -0.9949367299532644 
4.040000000003923, -0.9948989232594622 
4.0500000000039, -0.9946200990936225 
4.0600000000038765, -0.9941855586823447 
4.070000000003853, -0.9936943791583467 
4.08000000000383, -0.993276909269382 
4.090000000003807, -0.9931017987345465 
4.100000000003783, -0.9933545020813531 
4.11000000000376, -0.9941848260332 
4.120000000003737, -0.9956518224468649 
4.130000000003713, -0.9977054906596047 
4.14000000000369, -1.0002147768891396 
4.150000000003667, -1.0030148431326937 
4.1600000000036434, -1.0059428772524757 
4.17000000000362, -1.008851729198136 
4.180000000003597, -1.0116078182323212 
4.1900000000035735, -1.0140863208868904 
4.20000000000355, -1.0161757312432902 
4.210000000003527, -1.0177954171445174 
4.220000000003504, -1.0189156965204091 
4.23000000000348, -1.0195631660502593 
4.240000000003457, -1.0198054536725345 
4.250000000003434, -1.0197275168886046 
4.26000000000341, -1.019416214591225 
4.270000000003387, -1.0189608940281538 
4.280000000003364, -1.0184670491740877 
4.2900000000033405, -1.018071817812296 
4.300000000003317, -1.0179433167193908 
4.310000000003294, -1.0182484804981344 
4.320000000003271, -1.0190974604691858 
4.330000000003247, -1.0205014108347237 
4.340000000003224, -1.0223753039301877 
4.350000000003201, -1.0245780250867798 
4.360000000003177, -1.0269569169645367 
4.370000000003154, -1.0293742308420497 
4.380000000003131, -1.031713536261219 
4.390000000003107, -1.0338746916843566 
4.400000000003084, -1.035767953742268 
4.410000000003061, -1.0373158929798292 
4.4200000000030375, -1.0384651945166021 
4.430000000003014, -1.0392003456324928 
4.440000000002991, -1.0395470013974224 
4.450000000002968, -1.039561491502657 
4.460000000002944, -1.0393155945215176 
4.470000000002921, -1.0388885472555045 
4.480000000002898, -1.0383707776479052 
4.490000000002874, -1.0378737288102675 
4.500000000002851, -1.037532062889854 
4.510000000002828, -1.0374840447449505 
4.520000000002804, -1.0378312823396432 
4.530000000002781, -1.0386025754859673 
4.540000000002758, -1.0397489038868168 
4.5500000000027345, -1.041169561577211 
4.560000000002711, -1.0427469606844735 
4.570000000002688, -1.0443715906547753 
4.580000000002665, -1.0459529210761194 
4.590000000002641, -1.0474196276159855 
4.600000000002618, -1.048714133599712 
4.610000000002595, -1.0497869850514607 
4.620000000002571, -1.0505962079436655 
4.630000000002548, -1.051113324535335 
4.640000000002525, -1.0513317394366362 
4.6500000000025015, -1.0512704481239437 
4.660000000002478, -1.0509707359472171 
4.670000000002455, -1.0504907392751628 
4.6800000000024315, -1.049903919743014 
4.690000000002408, -1.0493013650586316 
4.700000000002385, -1.0487900763005484 
4.710000000002362, -1.0484779001253055 
4.720000000002338, -1.0484460236704303 
4.730000000002315, -1.048724720694939 
4.740000000002292, -1.0492884867965373 
4.750000000002268, -1.0500703756870136 
4.760000000002245, -1.0509833768110188 
4.770000000002222, -1.0519392051666583 
4.7800000000021985, -1.052861070942127 
4.790000000002175, -1.053689625934969 
4.800000000002152, -1.0543826557859566 
4.810000000002129, -1.0549106643480761 
4.820000000002105, -1.0552516176216131 
4.830000000002082, -1.055388343816765 
4.840000000002059, -1.0553105058375423 
4.850000000002035, -1.0550196532341376 
4.860000000002012, -1.0545336689221987 
4.870000000001989, -1.0538886440488773 
4.880000000001965, -1.053139282185027 
4.890000000001942, -1.0523585341604345 
4.900000000001919, -1.051633399072032 
4.9100000000018955, -1.0510525473957286 
4.920000000001872, -1.050687095308375 
4.930000000001849, -1.0505733729491007 
