t, s[1].omega / s[0].omega 
0, -1.9099968488836314 
0.009999999999999995, -1.9094137520880516 
0.019999999999999934, -1.9082676515592663 
0.029999999999999874, -1.9064684727808632 
0.04000000000000012, -1.9039145830826805 
0.050000000000000405, -1.90069124405648 
0.06000000000000069, -1.897504754673371 
0.07000000000000098, -1.895609470686902 
0.08000000000000126, -1.8953316556870612 
0.09000000000000155, -1.8956986794306996 
0.10000000000000184, -1.895907808650609 
0.11000000000000212, -1.8957250748891066 
0.12000000000000241, -1.8950924792223283 
0.130000000000002, -1.8939445980411782 
0.1400000000000009, -1.8924422659761295 
0.1499999999999998, -1.891735958983213 
0.1599999999999987, -1.893761416284414 
0.1699999999999976, -1.8982875990723183 
0.1799999999999965, -1.9029196665808557 
0.1899999999999954, -1.9062873388067652 
0.1999999999999943, -1.908338069732692 
0.2099999999999932, -1.9093838756303803 
0.2199999999999921, -1.9096936118225856 
0.229999999999991, -1.9094315337459282 
0.2399999999999899, -1.908676290975666 
0.2499999999999888, -1.9074508259091936 
0.2599999999999877, -1.9057656233930154 
0.2699999999999866, -1.9037206405724387 
0.2799999999999855, -1.9017088882991466 
0.2899999999999844, -1.9004032186695472 
0.2999999999999833, -1.9000514350194404 
0.3099999999999822, -1.9001481257738617 
0.3199999999999811, -1.900148179701895 
0.32999999999998, -1.899803432926647 
0.3399999999999789, -1.8989551863870695 
0.3499999999999778, -1.8973686650930197 
0.35999999999997667, -1.8949677317078186 
0.36999999999997557, -1.8931356636381143 
0.37999999999997447, -1.895557282961161 
0.38999999999997337, -1.902958862709206 
0.39999999999997227, -1.9108800926403007 
0.40999999999997117, -1.9164633521789785 
0.41999999999997006, -1.9197147799491319 
0.42999999999996896, -1.9213663151030171 
0.43999999999996786, -1.9219971381167764 
0.44999999999996676, -1.9219539640113126 
0.45999999999996566, -1.9214251671908689 
0.46999999999996456, -1.9205143268717957 
0.47999999999996346, -1.9192999208316401 
0.48999999999996235, -1.9179003790944962 
0.49999999999996125, -1.9165782191798033 
0.5099999999999602, -1.9157210604040202 
0.519999999999959, -1.9154465841997592 
0.529999999999958, -1.9154222433548718 
0.5399999999999568, -1.9152663918055832 
0.5499999999999557, -1.9147411696629029 
0.5599999999999546, -1.913589580990871 
0.5699999999999535, -1.9113516952416347 
0.5799999999999524, -1.9075856064409966 
0.5899999999999513, -1.90388081045768 
0.5999999999999502, -1.9063701580815942 
0.6099999999999491, -1.917156445821507 
0.619999999999948, -1.9286527129844409 
0.6299999999999469, -1.936218378813514 
0.6399999999999458, -1.9402796870768326 
0.6499999999999447, -1.9421969806670991 
0.6599999999999436, -1.94289535493768 
0.6699999999999425, -1.9428752155334146 
0.6799999999999414, -1.9423943666456291 
0.6899999999999403, -1.9416021133713923 
0.6999999999999392, -1.9406179967140154 
0.7099999999999381, -1.9395767536447912 
0.719999999999937, -1.938685631884201 
0.7299999999999359, -1.9381720724333995 
0.7399999999999348, -1.9380135124993454 
0.7499999999999337, -1.9379168748659552 
0.7599999999999326, -1.9375920806937443 
0.7699999999999315, -1.9367906477858579 
0.7799999999999304, -1.9351051037763967 
0.7899999999999293, -1.931741622967063 
0.7999999999999282, -1.9259340499952344 
0.8099999999999271, -1.9205001147368161 
0.819999999999926, -1.9248232480305059 
0.8299999999999249, -1.9391001223968147 
0.8399999999999238, -1.9519932090404377 
0.8499999999999227, -1.9594679946015954 
0.8599999999999216, -1.9630920252393493 
0.8699999999999205, -1.964624263996042 
0.8799999999999194, -1.965054430826094 
0.8899999999999183, -1.9648662795479606 
0.8999999999999172, -1.9643042535414879 
0.9099999999999161, -1.9635285882724731 
0.919999999999915, -1.9626769702614364 
0.9299999999999139, -1.9618861029966386 
0.9399999999999128, -1.9613227964570679 
0.9499999999999117, -1.9610720355412763 
0.9599999999999106, -1.960972790285155 
0.9699999999999095, -1.9607475287241871 
0.9799999999999084, -1.9601446143288583 
0.9899999999999073, -1.9588197367942304 
0.9999999999999062, -1.9560544354840794 
1.0099999999999052, -1.9505623890077053 
1.019999999999904, -1.9421436094305649 
1.029999999999903, -1.9382642966567236 
1.039999999999902, -1.9488329552958894 
1.0499999999999008, -1.9646827115590444 
1.0599999999998997, -1.9752666241462422 
1.0699999999998986, -1.9805303486227923 
1.0799999999998975, -1.9828124950936092 
1.0899999999998964, -1.9835996477548146 
1.0999999999998953, -1.9836088482651495 
1.1099999999998942, -1.9831783380085948 
1.119999999999893, -1.982505023887518 
1.129999999999892, -1.9817466551314944 
1.1399999999998909, -1.9810323644708856 
1.1499999999998898, -1.9804866278968287 
1.1599999999998887, -1.980204442321892 
1.1699999999998876, -1.9800959823889612 
1.1799999999998865, -1.9799139562919312 
1.1899999999998854, -1.9794066490919113 
1.1999999999998843, -1.978258710342264 
1.2099999999998832, -1.9758238874393925 
1.219999999999882, -1.9707822056557807 
1.229999999999881, -1.9618646837580307 
1.2399999999998799, -1.9538694423027354 
1.2499999999998788, -1.9598937394092584 
1.2599999999998777, -1.9760659886096346 
1.2699999999998766, -1.9883857462315138 
1.2799999999998755, -1.9946757340352055 
1.2899999999998744, -1.997414293495386 
1.2999999999998733, -1.9984026087791213 
1.3099999999998722, -1.9985124439923692 
1.319999999999871, -1.9981428073490068 
1.32999999999987, -1.9975131687582954 
1.3399999999998689, -1.9967940862308133 
1.3499999999998678, -1.996118794739947 
1.3599999999998666, -1.9955955011677489 
1.3699999999998655, -1.995311795137383 
1.3799999999998644, -1.9952007389235926 
1.3899999999998633, -1.995031370278414 
1.3999999999998622, -1.9945529388115777 
1.4099999999998611, -1.9934562855173197 
1.41999999999986, -1.991113512548883 
1.429999999999859, -1.9861984824793137 
1.4399999999998578, -1.9771663300249034 
1.4499999999998567, -1.9679659764050264 
1.4599999999998556, -1.972339833596925 
1.4699999999998545, -1.9883341609306495 
1.4799999999998534, -2.0010351486132274 
1.4899999999998523, -2.007536957319096 
1.4999999999998512, -2.010349052707632 
1.5099999999998501, -2.0113587878015142 
1.519999999999849, -2.0114742311597196 
1.529999999999848, -2.0111064049149143 
1.5399999999998468, -2.010479617598274 
1.5499999999998457, -2.0097675262244197 
1.5599999999998446, -2.009103431421811 
1.5699999999998435, -2.008592964938493 
1.5799999999998424, -2.0083196982158755 
1.5899999999998413, -2.008210456868384 
1.5999999999998402, -2.008031027867848 
1.6099999999998391, -2.0075286357808038 
1.619999999999838, -2.006381923343464 
1.629999999999837, -2.003926490385341 
1.6399999999998358, -1.9987755009863648 
1.6499999999998347, -1.989513157862995 
1.6599999999998336, -1.9810961202351396 
1.6699999999998325, -1.9872720630828518 
1.6799999999998314, -2.0034751353604996 
1.6899999999998303, -2.0154101266649187 
1.6999999999998292, -2.0213397506653825 
1.709999999999828, -2.02385611599757 
1.719999999999827, -2.02471769056004 
1.729999999999826, -2.0247512232917506 
1.7399999999998248, -2.0243321379934858 
1.7499999999998237, -2.023672871547073 
1.7599999999998226, -2.0229404271630083 
1.7699999999998215, -2.022263232473418 
1.7799999999998204, -2.0217574833471113 
1.7899999999998193, -2.0215050185022614 
1.7999999999998182, -2.0213980554311974 
1.809999999999817, -2.021181908355299 
1.819999999999816, -2.020597461867486 
1.8299999999998149, -2.019286883413951 
1.8399999999998138, -2.0164859866923375 
1.8499999999998127, -2.01072405588413 
1.8599999999998116, -2.001428940453935 
1.8699999999998105, -1.996611975078018 
1.8799999999998094, -2.007421062532151 
1.8899999999998083, -2.0232151385361155 
1.8999999999998072, -2.0331671232698794 
1.909999999999806, -2.0378653595679337 
1.919999999999805, -2.0397891186518082 
1.9299999999998039, -2.040361730290514 
1.9399999999998028, -2.0402345237025883 
1.9499999999998017, -2.039711657698491 
1.9599999999998006, -2.038980256003148 
1.9699999999997995, -2.0381911179677625 
1.9799999999997984, -2.0374746474747694 
1.9899999999997973, -2.036980658687572 
1.9999999999997962, -2.0367699107939323 
2.0099999999998173, -2.0366578392151373 
2.0199999999998384, -2.036361693677414 
2.0299999999998595, -2.0356096876095577 
2.0399999999998806, -2.0339650037063075 
2.0499999999999017, -2.030499997817409 
2.059999999999923, -2.0239365516652894 
2.069999999999944, -2.0165481000383743 
2.079999999999965, -2.019763807708817 
2.089999999999986, -2.034691438241597 
2.100000000000007, -2.047580859632366 
2.1100000000000283, -2.0544819304687114 
2.1200000000000494, -2.057570677788871 
2.1300000000000705, -2.0587352425563656 
2.1400000000000916, -2.0589224023668518 
2.1500000000001127, -2.0585630376104733 
2.160000000000134, -2.0578745786086987 
2.170000000000155, -2.0570087896628757 
2.180000000000176, -2.0561028924006863 
2.190000000000197, -2.055337198041433 
2.2000000000002182, -2.054910111295686 
2.2100000000002393, -2.0547729420879097 
2.2200000000002604, -2.054622685635052 
2.2300000000002815, -2.0541669861799816 
2.2400000000003026, -2.053101995186609 
2.2500000000003237, -2.050853294524856 
2.260000000000345, -2.0464741056648457 
2.270000000000366, -2.0405481809607684 
2.280000000000387, -2.040691211802427 
2.290000000000408, -2.0523434925973705 
2.3000000000004293, -2.065210513887766 
2.3100000000004504, -2.072964480527182 
2.3200000000004715, -2.076700385590367 
2.3300000000004926, -2.0782513146401773 
2.3400000000005137, -2.0786562882114343 
2.3500000000005348, -2.0784073096067113 
2.360000000000556, -2.077736436556685 
2.370000000000577, -2.076778984194111 
2.380000000000598, -2.075657807050009 
2.390000000000619, -2.0745777918584545 
2.4000000000006403, -2.0738674224153852 
2.4100000000006614, -2.0736362959573817 
2.4200000000006825, -2.0735642183255854 
2.4300000000007036, -2.073284070510772 
2.4400000000007247, -2.0725309562177 
2.450000000000746, -2.0709313675423804 
2.460000000000767, -2.067913940147613 
2.470000000000788, -2.0639708127555227 
2.480000000000809, -2.064273705942817 
2.49000000000083, -2.072990182564383 
2.5000000000008513, -2.0832430412207708 
2.5100000000008724, -2.089868534668944 
2.5200000000008935, -2.093264604316705 
2.5300000000009146, -2.0947501493844687 
2.5400000000009357, -2.0951529039971324 
2.550000000000957, -2.094884777045518 
2.560000000000978, -2.0941335597000146 
2.570000000000999, -2.092988383995279 
2.58000000000102, -2.091534814022455 
2.5900000000010412, -2.0900164887633403 
2.6000000000010624, -2.0889524318297847 
2.6100000000010835, -2.088627838115879 
2.6200000000011046, -2.0886409958606635 
2.6300000000011257, -2.088496572707574 
2.6400000000011468, -2.0879359232014787 
2.650000000001168, -2.086721315622703 
2.660000000001189, -2.0845885076566932 
2.67000000000121, -2.0822550231054504 
2.680000000001231, -2.08327958185365 
2.6900000000012523, -2.0894535322641046 
2.7000000000012734, -2.0962950214465423 
2.7100000000012945, -2.1008430014531503 
2.7200000000013156, -2.103274985117326 
2.7300000000013367, -2.1043380052317135 
2.740000000001358, -2.104527032545921 
2.750000000001379, -2.104087410953329 
2.7600000000014, -2.103106482497361 
2.770000000001421, -2.1015854989420646 
2.780000000001442, -2.0995469029416354 
2.7900000000014633, -2.0973278017383987 
2.8000000000014844, -2.095805916306257 
2.8100000000015055, -2.095464271151228 
2.8200000000015266, -2.095643270088948 
2.8300000000015477, -2.095648919422488 
2.840000000001569, -2.0952383865418005 
2.85000000000159, -2.0942940209401213 
2.860000000001611, -2.0927813257838452 
2.870000000001632, -2.0915017299000196 
2.8800000000016532, -2.092681268823012 
2.8900000000016743, -2.0966685369628837 
2.9000000000016954, -2.100793716908149 
2.9100000000017165, -2.1035727715525177 
2.9200000000017377, -2.1050739261881724 
2.9300000000017588, -2.1056515745050324 
2.94000000000178, -2.1055361691294854 
2.950000000001801, -2.1048095605521735 
2.960000000001822, -2.1034286823719515 
2.970000000001843, -2.1012560403357297 
2.9800000000018643, -2.098213834041198 
2.9900000000018854, -2.0948526103750402 
3.0000000000019065, -2.092737259372004 
3.0100000000019276, -2.092538117682672 
3.0200000000019487, -2.093021253030171 
3.03000000000197, -2.0932261231532387 
3.040000000001991, -2.0929643135058216 
3.050000000002012, -2.092236615165599 
3.060000000002033, -2.0911455891753263 
3.070000000002054, -2.090382495014173 
3.0800000000020753, -2.091248795675276 
3.0900000000020964, -2.093668445854207 
3.1000000000021175, -2.0961199523576504 
3.1100000000021386, -2.0977944650497884 
3.1200000000021597, -2.0986696185632128 
3.130000000002181, -2.098878035947362 
3.140000000002202, -2.098481714527598 
3.150000000002223, -2.0974266953776532 
3.160000000002244, -2.095516999038354 
3.1700000000022652, -2.0924081958893 
3.1800000000022863, -2.0878476075034302 
3.1900000000023074, -2.0827419191376957 
3.2000000000023285, -2.079829426281271 
3.2100000000023496, -2.0799650083244883 
3.2200000000023707, -2.0809311766124186 
3.230000000002392, -2.081419870808818 
3.240000000002413, -2.0813354708516814 
3.250000000002434, -2.0807967830600997 
3.260000000002455, -2.0799666914495054 
3.2700000000024763, -2.079358148545608 
3.2800000000024974, -2.079784453015802 
3.2900000000025185, -2.0812134880781725 
3.3000000000025396, -2.0827463945470788 
3.3100000000025607, -2.0838315747050333 
3.3200000000025818, -2.0843737102536517 
3.330000000002603, -2.084384029027148 
3.340000000002624, -2.0838235605200133 
3.350000000002645, -2.0825351704281347 
3.360000000002666, -2.080170627015091 
3.3700000000026873, -2.0761287688313597 
3.3800000000027084, -2.0698353239747775 
3.3900000000027295, -2.0624019854691404 
3.4000000000027506, -2.0581268799424666 
3.4100000000027717, -2.0585737819297565 
3.420000000002793, -2.0602365338053232 
3.430000000002814, -2.0611678373291142 
3.440000000002835, -2.061338292464236 
3.450000000002856, -2.0609957910193315 
3.460000000002877, -2.0603373666688114 
3.4700000000028983, -2.059719494527955 
3.4800000000029194, -2.059727447207048 
3.4900000000029405, -2.0605175935644118 
3.5000000000029616, -2.0615559671205452 
3.5100000000029827, -2.062371233007153 
3.520000000003004, -2.0628032566948136 
3.530000000003025, -2.0627963453848137 
3.540000000003046, -2.062265528432486 
3.550000000003067, -2.0610139246913866 
3.5600000000030882, -2.058626429781223 
3.5700000000031094, -2.0543378094268605 
3.5800000000031305, -2.047149349666564 
3.5900000000031516, -2.0374837877273166 
3.6000000000031727, -2.030403930606951 
3.6100000000031938, -2.0301268132071275 
3.620000000003215, -2.03260137279704 
3.630000000003236, -2.034285073574064 
3.640000000003257, -2.034895549456355 
3.650000000003278, -2.034827134302632 
3.6600000000032993, -2.034349132813507 
3.6700000000033204, -2.0337148444164788 
3.6800000000033415, -2.033357262796729 
3.6900000000033626, -2.033638081860161 
3.7000000000033837, -2.0343607126475964 
3.710000000003405, -2.0350830450588338 
3.720000000003426, -2.035561175811474 
3.730000000003447, -2.035693077818652 
3.740000000003468, -2.035387268513076 
3.750000000003489, -2.034481908883505 
3.7600000000035103, -2.0326426163840146 
3.7700000000035314, -2.02920989718992 
3.7800000000035525, -2.023075810530757 
3.7900000000035736, -2.013328578809589 
3.8000000000035947, -2.002560219610404 
3.810000000003616, -1.9980436879913566 
3.820000000003637, -2.000133082353018 
3.830000000003658, -2.002937623276842 
3.840000000003679, -2.004396525359049 
3.8500000000037002, -2.004822437943571 
3.8600000000037213, -2.004645803157488 
3.8700000000037424, -2.004122214641517 
3.8800000000037635, -2.0035315565018306 
3.8900000000037847, -2.003298539724371 
3.9000000000038058, -2.0036518872095934 
3.910000000003827, -2.0043237156728737 
3.920000000003848, -2.0049449744720462 
3.930000000003869, -2.005326001660227 
3.94000000000389, -2.005368006431153 
3.9500000000039113, -2.004965641252025 
3.9600000000039324, -2.0039332713895535 
3.9700000000039535, -2.001898879661667 
3.9800000000039746, -1.9981519423149368 
3.9900000000039957, -1.9915608042097375 
4.000000000004016, -1.981398748836046 
4.010000000003993, -1.970761196260564 
4.02000000000397, -1.9667320323723676 
4.030000000003946, -1.9689329586863447 
4.040000000003923, -1.9716714280661498 
4.0500000000039, -1.973092919245427 
4.0600000000038765, -1.973510796050467 
4.070000000003853, -1.9733362752940884 
4.08000000000383, -1.972813420539394 
4.090000000003807, -1.9722104493531476 
4.100000000003783, -1.97195590103362 
4.11000000000376, -1.9723230766976165 
4.120000000003737, -1.9730680533675589 
4.130000000003713, -1.9737887411170618 
4.14000000000369, -1.9742683348979426 
4.150000000003667, -1.9744092456032072 
4.1600000000036434, -1.9741251014466088 
4.17000000000362, -1.9732727261356575 
4.180000000003597, -1.9715719582930877 
4.1900000000035735, -1.9684977239123662 
4.20000000000355, -1.9631996736292794 
4.210000000003527, -1.9548953093099275 
4.220000000003504, -1.9449886145142408 
4.23000000000348, -1.9389776581131266 
4.240000000003457, -1.9393090604179863 
4.250000000003434, -1.9416703888489895 
4.26000000000341, -1.943223163885494 
4.270000000003387, -1.9437952141289205 
4.280000000003364, -1.9437284997219262 
4.2900000000033405, -1.9432551168901473 
4.300000000003317, -1.9425899732981908 
4.310000000003294, -1.9421465002102427 
4.320000000003271, -1.9424052927297635 
4.330000000003247, -1.9433190914457896 
4.340000000003224, -1.9443752631776163 
4.350000000003201, -1.9451994928261722 
4.360000000003177, -1.9456578906567201 
4.370000000003154, -1.9456983927377276 
4.380000000003131, -1.9452548530976081 
4.390000000003107, -1.9441905843772467 
4.400000000003084, -1.9422411736554275 
4.410000000003061, -1.9389577423808557 
4.4200000000030375, -1.9337571362085462 
4.430000000003014, -1.9265570002620407 
4.440000000002991, -1.9194844450978916 
4.450000000002968, -1.9163532245927162 
4.460000000002944, -1.9170748282278336 
4.470000000002921, -1.918539261387366 
4.480000000002898, -1.9193547431090274 
4.490000000002874, -1.919503686441924 
4.500000000002851, -1.919169212974884 
4.510000000002828, -1.918487896037231 
4.520000000002804, -1.917725853352217 
4.530000000002781, -1.9175084268396891 
4.540000000002758, -1.9183856947025837 
4.5500000000027345, -1.920006155537323 
4.560000000002711, -1.9215929188331535 
4.570000000002688, -1.9227418124816658 
4.580000000002665, -1.9233775063419638 
4.590000000002641, -1.9235120970628372 
4.600000000002618, -1.9231375571393177 
4.610000000002595, -1.9221856870203173 
4.620000000002571, -1.9205030980476328 
4.630000000002548, -1.9178399479708266 
4.640000000002525, -1.9139316482700661 
4.6500000000025015, -1.9089447624629858 
4.660000000002478, -1.9043556451243056 
4.670000000002455, -1.9022869729922813 
4.6800000000024315, -1.9025515328549676 
4.690000000002408, -1.9033342417844057 
4.700000000002385, -1.9037256480145088 
4.710000000002362, -1.9036263500997428 
4.720000000002338, -1.9030869927508107 
4.730000000002315, -1.90216297838333 
4.740000000002292, -1.9011719504599884 
4.750000000002268, -1.9010818757957786 
4.760000000002245, -1.9027846410337947 
4.770000000002222, -1.905615595988347 
4.7800000000021985, -1.9082569801176148 
4.790000000002175, -1.9101280766148327 
4.800000000002152, -1.91122047374938 
4.810000000002129, -1.911658607481225 
4.820000000002105, -1.9115356932874275 
4.830000000002082, -1.910881944556147 
4.840000000002059, -1.9096635577330747 
4.850000000002035, -1.9077944302498515 
4.860000000002012, -1.9051974357583359 
4.870000000001989, -1.9020366856168587 
4.880000000001965, -1.8991273959422699 
4.890000000001942, -1.8976204753322228 
4.900000000001919, -1.8975393643435818 
4.9100000000018955, -1.8978867081348088 
4.920000000001872, -1.8980058728026634 
4.930000000001849, -1.8977231556865288 
4.940000000001826, -1.8969727509767094 
4.950000000001802, -1.895686191072216 
