t, s[1].omega / s[0].omega 
0, -0.5199977518396214 
0.009999999999999995, -0.5197911802150719 
0.019999999999999934, -0.5196131669344708 
0.029999999999999874, -0.5194441483348166 
0.04000000000000012, -0.5192599756310534 
0.050000000000000405, -0.5190397912892865 
0.06000000000000069, -0.5187708287303382 
0.07000000000000098, -0.5184491342450686 
0.08000000000000126, -0.5180777743597688 
0.09000000000000155, -0.5176649005064611 
0.10000000000000184, -0.517223402534886 
0.11000000000000212, -0.5167730543908629 
0.12000000000000241, -0.5163457365241346 
0.130000000000002, -0.515994389078559 
0.1400000000000009, -0.5158061526129478 
0.1499999999999998, -0.5159183662526429 
0.1599999999999987, -0.5165300848675354 
0.1699999999999976, -0.5178878171071037 
0.1799999999999965, -0.5202041208811943 
0.1899999999999954, -0.523472626551399 
0.1999999999999943, -0.5272526282232867 
0.2099999999999932, -0.5307059831241299 
0.2199999999999921, -0.5330923236044033 
0.229999999999991, -0.5342917850108309 
0.2399999999999899, -0.5347257033060937 
0.2499999999999888, -0.5348789108705343 
0.2599999999999877, -0.5350187415126626 
0.2699999999999866, -0.5352133148918834 
0.2799999999999855, -0.5354400219668999 
0.2899999999999844, -0.5356584161536471 
0.2999999999999833, -0.5358373234548444 
0.3099999999999822, -0.5359582065674535 
0.3199999999999811, -0.5360109318613892 
0.32999999999998, -0.5359888809349566 
0.3399999999999789, -0.5358855193396463 
0.3499999999999778, -0.535692924689238 
0.35999999999997667, -0.5354025560778087 
0.36999999999997557, -0.5350085037508572 
0.37999999999997447, -0.5345127354793736 
0.38999999999997337, -0.5339301587923677 
0.39999999999997227, -0.5332897824856744 
0.40999999999997117, -0.5326292762283762 
0.41999999999997006, -0.5319844510332439 
0.42999999999996896, -0.5313791495954352 
0.43999999999996786, -0.5308207475336859 
0.44999999999996676, -0.5303025400925395 
0.45999999999996566, -0.5298104876415692 
0.46999999999996456, -0.5293304756267891 
0.47999999999996346, -0.5288533379797151 
0.48999999999996235, -0.5283770767967432 
0.49999999999996125, -0.5279074480273158 
0.5099999999999602, -0.5274586139266279 
0.519999999999959, -0.5270552320026366 
0.529999999999958, -0.5267368868364444 
0.5399999999999568, -0.5265655560299073 
0.5499999999999557, -0.5266367434366305 
0.5599999999999546, -0.5270945631493164 
0.5699999999999535, -0.528149488561982 
0.5799999999999524, -0.5300928388276475 
0.5899999999999513, -0.5332914013364756 
0.5999999999999502, -0.5381276539146065 
0.6099999999999491, -0.5448391455773129 
0.619999999999948, -0.5532555126734974 
0.6299999999999469, -0.562593300322823 
0.6399999999999458, -0.5716181858792144 
0.6499999999999447, -0.5792277920352041 
0.6599999999999436, -0.5849535594284749 
0.6699999999999425, -0.5889393256300546 
0.6799999999999414, -0.5915967655572263 
0.6899999999999403, -0.593330737191897 
0.6999999999999392, -0.594442334941287 
0.7099999999999381, -0.595131236222925 
0.719999999999937, -0.5955232938704008 
0.7299999999999359, -0.5956945941572112 
0.7399999999999348, -0.5956870209294461 
0.7499999999999337, -0.5955170519616355 
0.7599999999999326, -0.5951802795040546 
0.7699999999999315, -0.5946540605498205 
0.7799999999999304, -0.5939011913397638 
0.7899999999999293, -0.5928783723964134 
0.7999999999999282, -0.5915527119845797 
0.8099999999999271, -0.5899245891483968 
0.819999999999926, -0.5880458387499027 
0.8299999999999249, -0.5860175428432786 
0.8399999999999238, -0.5839631385468673 
0.8499999999999227, -0.5819926830911479 
0.8599999999999216, -0.5801798052740235 
0.8699999999999205, -0.5785591375309644 
0.8799999999999194, -0.577137216589297 
0.8899999999999183, -0.575906413870627 
0.8999999999999172, -0.5748557324485939 
0.9099999999999161, -0.5739770637478122 
0.919999999999915, -0.5732679100512639 
0.9299999999999139, -0.5727320686108344 
0.9399999999999128, -0.5723794337436361 
0.9499999999999117, -0.5722256176951032 
0.9599999999999106, -0.5722917690881822 
0.9699999999999095, -0.5726047591663318 
0.9799999999999084, -0.5731976917759429 
0.9899999999999073, -0.5741103336735585 
0.9999999999999062, -0.5753884171568698 
1.0099999999999052, -0.5770797481241768 
1.019999999999904, -0.5792238553034808 
1.029999999999903, -0.5818316207969247 
1.039999999999902, -0.584854690589468 
1.0499999999999008, -0.5881549885880714 
1.0599999999998997, -0.5914997479402527 
1.0699999999998986, -0.5946082215661581 
1.0799999999998975, -0.5972408617428061 
1.0899999999998964, -0.5992745629872366 
1.0999999999998953, -0.6007131845098659 
1.1099999999998942, -0.6016416222617239 
1.119999999999893, -0.6021688145897575 
1.129999999999892, -0.6023904430243708 
1.1399999999998909, -0.6023739265788064 
1.1499999999998898, -0.6021558313503328 
1.1599999999998887, -0.6017425300529317 
1.1699999999998876, -0.6011088070653995 
1.1799999999998865, -0.6001917162199597 
1.1899999999998854, -0.5988785285568061 
1.1999999999998843, -0.5969903455706835 
1.2099999999998832, -0.5942710097485692 
1.219999999999882, -0.5904083595079197 
1.229999999999881, -0.5851325563127128 
1.2399999999998799, -0.5784081299001173 
1.2499999999998788, -0.5706144794879577 
1.2599999999998777, -0.5625075282584889 
1.2699999999998766, -0.5549153230961975 
1.2799999999998755, -0.5484136452858317 
1.2899999999998744, -0.5432179862702496 
1.2999999999998733, -0.5392715289561667 
1.3099999999998722, -0.5363845650793323 
1.319999999999871, -0.534336115762262 
1.32999999999987, -0.532924797514327 
1.3399999999998689, -0.5319860210616866 
1.3499999999998678, -0.5313928450597085 
1.3599999999998666, -0.531050804423556 
1.3699999999998655, -0.5308915264822828 
1.3799999999998644, -0.5308669937131922 
1.3899999999998633, -0.5309450164824315 
1.3999999999998622, -0.5311059821263855 
1.4099999999998611, -0.5313407163526456 
1.41999999999986, -0.5316490311637201 
1.429999999999859, -0.5320381207387016 
1.4399999999998578, -0.5325195312884905 
1.4499999999998567, -0.5331034211924235 
1.4599999999998556, -0.5337898497623489 
1.4699999999998545, -0.5345591679119632 
1.4799999999998534, -0.5353664730328225 
1.4899999999998523, -0.5361459983770636 
1.4999999999998512, -0.5368269308005114 
1.5099999999998501, -0.5373534836249012 
1.519999999999849, -0.537697452389971 
1.529999999999848, -0.5378572636816732 
1.5399999999998468, -0.5378474894283772 
1.5499999999998457, -0.5376867082834331 
1.5599999999998446, -0.5373885340331173 
1.5699999999998435, -0.5369562565412462 
1.5799999999998424, -0.5363792813275826 
1.5899999999998413, -0.5356290584558 
1.5999999999998402, -0.5346520255217379 
1.6099999999998391, -0.5333563642829258 
1.619999999999838, -0.5315883483214827 
1.629999999999837, -0.5290961489307265 
1.6399999999998358, -0.5254957073581135 
1.6499999999998347, -0.5203027142563237 
1.6599999999998336, -0.5131500037109059 
1.6699999999998325, -0.5042003799634235 
1.6799999999998314, -0.4943875197122344 
1.6899999999998303, -0.48504420405877713 
1.6999999999998292, -0.477194319161519 
1.709999999999828, -0.47120509652540904 
1.719999999999827, -0.4669336324972654 
1.729999999999826, -0.4640223919393476 
1.7399999999998248, -0.4621004232132506 
1.7499999999998237, -0.46086475167982127 
1.7599999999998226, -0.46009340572697716 
1.7699999999998215, -0.4596327657182312 
1.7799999999998204, -0.45938004432254714 
1.7899999999998193, -0.45926824057203064 
1.7999999999998182, -0.45925512017874126 
1.809999999999817, -0.4593158612544427 
1.819999999999816, -0.4594385868201908 
1.8299999999998149, -0.4596219724940892 
1.8399999999998138, -0.45987400075683976 
1.8499999999998127, -0.4602106065958618 
1.8599999999998116, -0.46065260841180156 
1.8699999999998105, -0.4612194151213266 
1.8799999999998094, -0.46191909580482504 
1.8899999999998083, -0.462736821009992 
1.8999999999998072, -0.46362703449100956 
1.909999999999806, -0.464516590329121 
1.919999999999805, -0.46532206684550503 
1.9299999999998039, -0.4659740641367064 
1.9399999999998028, -0.46643411464775086 
1.9499999999998017, -0.46669550595805165 
1.9599999999998006, -0.4667717446178995 
1.9699999999997995, -0.46668211740937016 
1.9799999999997984, -0.46644047684078266 
1.9899999999997973, -0.46604791231317233 
1.9999999999997962, -0.46548698532061106 
2.0099999999998173, -0.4647145149193972 
2.0199999999998384, -0.46365006010423643 
2.0299999999998595, -0.4621581500486731 
2.0399999999998806, -0.46002651217374346 
2.0499999999999017, -0.45695627534385314 
2.059999999999923, -0.45260783263365123 
2.069999999999944, -0.4467615373547595 
2.079999999999965, -0.4395691650355156 
2.089999999999986, -0.43167574170338757 
2.100000000000007, -0.42398604186721023 
2.1100000000000283, -0.41723623637849244 
2.1200000000000494, -0.4117579104122834 
2.1300000000000705, -0.40753589121007394 
2.1400000000000916, -0.404380711854847 
2.1500000000001127, -0.4020634263510967 
2.160000000000134, -0.4003809430577629 
2.170000000000155, -0.399175205504413 
2.180000000000176, -0.3983316840705882 
2.190000000000197, -0.39777165227993677 
2.2000000000002182, -0.3974443882116002 
2.2100000000002393, -0.39732129055781257 
2.2200000000002604, -0.3973922532808095 
2.2300000000002815, -0.39766411735182683 
2.2400000000003026, -0.3981608527958774 
2.2500000000003237, -0.3989248991967684 
2.260000000000345, -0.40001847950869723 
2.270000000000366, -0.4015223428567314 
2.280000000000387, -0.40352702185944045 
2.290000000000408, -0.40610897203853236 
2.3000000000004293, -0.40928478075824515 
2.3100000000004504, -0.4129501468820599 
2.3200000000004715, -0.41684191276839694 
2.3300000000004926, -0.42058265850707677 
2.3400000000005137, -0.4238171255625941 
2.3500000000005348, -0.42634732500376654 
2.360000000000556, -0.42816245118625584 
2.370000000000577, -0.42937069720408827 
2.380000000000598, -0.43011369098773233 
2.390000000000619, -0.4305147837454587 
2.4000000000006403, -0.43066197966069797 
2.4100000000006614, -0.43060850248486504 
2.4200000000006825, -0.4303781733432806 
2.4300000000007036, -0.42997021100022126 
2.4400000000007247, -0.42936283825539856 
2.450000000000746, -0.4285179051857546 
2.460000000000767, -0.4273907299244237 
2.470000000000788, -0.4259493752459518 
2.480000000000809, -0.42420196751341965 
2.49000000000083, -0.42221846599387136 
2.5000000000008513, -0.420126019166245 
2.5100000000008724, -0.41807199189391336 
2.5200000000008935, -0.4161771278196894 
2.5300000000009146, -0.4145086012410026 
2.5400000000009357, -0.4130814995638074 
2.550000000000957, -0.41187664627634024 
2.560000000000978, -0.41086014311418867 
2.570000000000999, -0.4099974117888445 
2.58000000000102, -0.4092609211136612 
2.5900000000010412, -0.40863349802741106 
2.6000000000010624, -0.4081095386613941 
2.6100000000010835, -0.40769599350445607 
2.6200000000011046, -0.4074144488168968 
2.6300000000011257, -0.4073052857599905 
2.6400000000011468, -0.40743482233343586 
2.650000000001168, -0.4079063592511889 
2.660000000001189, -0.40887565503579004 
2.67000000000121, -0.4105692812292607 
2.680000000001231, -0.41329767513639687 
2.6900000000012523, -0.41743867357902087 
2.7000000000012734, -0.4233407402428053 
2.7100000000012945, -0.43108647736536243 
2.7200000000013156, -0.44016255396648474 
2.7300000000013367, -0.44935804725742334 
2.740000000001358, -0.4572729709426013 
2.750000000001379, -0.46312581066482467 
2.7600000000014, -0.46700132987947696 
2.770000000001421, -0.46943274208331986 
2.780000000001442, -0.47094935496744483 
2.7900000000014633, -0.47191177852110566 
2.8000000000014844, -0.4725300845037862 
2.8100000000015055, -0.47292069399894376 
2.8200000000015266, -0.4731482928069052 
2.8300000000015477, -0.4732489672868908 
2.840000000001569, -0.4732417299695385 
2.85000000000159, -0.47313432643212616 
2.860000000001611, -0.4729268351940797 
2.870000000001632, -0.47261520558574655 
2.8800000000016532, -0.47219608497189547 
2.8900000000016743, -0.47167316324190856 
2.9000000000016954, -0.4710632675028209 
2.9100000000017165, -0.4703984719034042 
2.9200000000017377, -0.4697210394269041 
2.9300000000017588, -0.46907224324694996 
2.94000000000178, -0.46848069935028225 
2.950000000001801, -0.46795613686126397 
2.960000000001822, -0.4674906633260297 
2.970000000001843, -0.46706548552167027 
2.9800000000018643, -0.4666592188049714 
2.9900000000018854, -0.46625437414214954 
3.0000000000019065, -0.4658405104321915 
3.0100000000019276, -0.4654146436547353 
3.0200000000019487, -0.4649806354873277 
3.03000000000197, -0.4645492440551312 
3.040000000001991, -0.46413999235871184 
3.050000000002012, -0.4637856508895445 
3.060000000002033, -0.4635400617249582 
3.070000000002054, -0.4634898395678163 
3.0800000000020753, -0.4637690841534363 
3.0900000000020964, -0.46457122575050097 
3.1000000000021175, -0.4661393554992648 
3.1100000000021386, -0.46869433951846 
3.1200000000021597, -0.47225161391027787 
3.130000000002181, -0.4763664911710901 
3.140000000002202, -0.48009260720780056 
3.150000000002223, -0.4824895038694961 
3.160000000002244, -0.48333038909357595 
3.1700000000022652, -0.4831427594533844 
3.1800000000022863, -0.4826146366933554 
3.1900000000023074, -0.4821594691959441 
3.2000000000023285, -0.48189862423144036 
3.2100000000023496, -0.48180513322293006 
3.2200000000023707, -0.48181332499294943 
3.230000000002392, -0.48186527429548515 
3.240000000002413, -0.48192110108236774 
3.250000000002434, -0.4819560501504226 
3.260000000002455, -0.481955035198854 
3.2700000000024763, -0.4819082625646353 
3.2800000000024974, -0.48180881031362766 
3.2900000000025185, -0.4816522756031268 
3.3000000000025396, -0.48143834191201595 
3.3100000000025607, -0.48117356993642096 
3.3200000000025818, -0.48087370928857986 
3.330000000002603, -0.4805630976980022 
3.340000000002624, -0.48026957835907813 
3.350000000002645, -0.4800160637350023 
3.360000000002666, -0.4798124735816086 
3.3700000000026873, -0.47965205017605816 
3.3800000000027084, -0.4795138971642057 
3.3900000000027295, -0.4793704620624532 
3.4000000000027506, -0.4791962211996159 
3.4100000000027717, -0.478973577033985 
3.420000000002793, -0.4786942522333876 
3.430000000002814, -0.4783573331243147 
3.440000000002835, -0.47796637028126254 
3.450000000002856, -0.47752741671579935 
3.460000000002877, -0.4770488325549557 
3.4700000000028983, -0.4765430126578803 
3.4800000000029194, -0.47602986843610395 
3.4900000000029405, -0.475541218791846 
3.5000000000029616, -0.47512288330480745 
3.5100000000029827, -0.4748250552743885 
3.520000000003004, -0.47466024724171196 
3.530000000003025, -0.4745022257794972 
3.540000000003046, -0.47394534777189967 
3.550000000003067, -0.4723002137733513 
3.5600000000030882, -0.46899892215451394 
3.5700000000031094, -0.4642264576848191 
3.5800000000031305, -0.4589633663814013 
3.5900000000031516, -0.45426666078336647 
3.6000000000031727, -0.4506738797294913 
3.6100000000031938, -0.44820270753687624 
3.620000000003215, -0.44662252547765197 
3.630000000003236, -0.4456648947663243 
3.640000000003257, -0.4451109867824667 
3.650000000003278, -0.4448065102724582 
3.6600000000032993, -0.44465036855757534 
3.6700000000033204, -0.44457899102843096 
3.6800000000033415, -0.44455351511927244 
3.6900000000033626, -0.44455103503489807 
3.7000000000033837, -0.4445593852422326 
3.710000000003405, -0.4445746433340121 
3.720000000003426, -0.44460049581294686 
3.730000000003447, -0.4446483518617124 
3.740000000003468, -0.4447366530113871 
3.750000000003489, -0.444887705649829 
3.7600000000035103, -0.4451211674886876 
3.7700000000035314, -0.44544511567305917 
3.7800000000035525, -0.4458477566235806 
3.7900000000035736, -0.4462942825098063 
3.8000000000035947, -0.44673259840792 
3.810000000003616, -0.4471071977090503 
3.820000000003637, -0.44737440054006594 
3.830000000003658, -0.44751060567266154 
3.840000000003679, -0.4475106011507857 
3.8500000000037002, -0.4473795506045999 
3.8600000000037213, -0.4471239632998668 
3.8700000000037424, -0.44674441506089024 
3.8800000000037635, -0.44622978128581325 
3.8900000000037847, -0.44555104480143387 
3.9000000000038058, -0.4446519201549128 
3.910000000003827, -0.4434328815020544 
3.920000000003848, -0.4417253718855452 
3.930000000003869, -0.4392584648995467 
3.94000000000389, -0.43564227815350004 
3.9500000000039113, -0.43043912550407876 
3.9600000000039324, -0.42341276719609144 
3.9700000000039535, -0.4148826108830498 
3.9800000000039746, -0.4058029199132437 
3.9900000000039957, -0.39731826798291103 
4.000000000004016, -0.3901974169681274 
4.010000000003993, -0.38465844280284384 
4.02000000000397, -0.38054812771743307 
4.030000000003946, -0.37757666954801344 
4.040000000003923, -0.37545833927704697 
4.0500000000039, -0.37396321369911895 
4.0600000000038765, -0.3729231137186505 
4.070000000003853, -0.37222168608036604 
4.08000000000383, -0.3717822119452953 
4.090000000003807, -0.3715577152261912 
4.100000000003783, -0.3715242718191081 
4.11000000000376, -0.3716772616805425 
4.120000000003737, -0.3720300671581419 
4.130000000003713, -0.3726146591677447 
4.14000000000369, -0.37348322670541395 
4.150000000003667, -0.37470914309906495 
4.1600000000036434, -0.3763837261613584 
4.17000000000362, -0.37860230585330423 
4.180000000003597, -0.3814306771946638 
4.1900000000035735, -0.3848476382410815 
4.20000000000355, -0.38868227766084523 
4.210000000003527, -0.39260187865504637 
4.220000000003504, -0.39620480791345847 
4.23000000000348, -0.3991811855594224 
4.240000000003457, -0.40141541462607516 
4.250000000003434, -0.40296332820130026 
4.26000000000341, -0.40396161901268934 
4.270000000003387, -0.40455155551557864 
4.280000000003364, -0.40484389941929316 
4.2900000000033405, -0.40491235669013453 
4.300000000003317, -0.4047981824867704 
4.310000000003294, -0.4045164435365258 
4.320000000003271, -0.40406114523902675 
4.330000000003247, -0.4034101052578494 
4.340000000003224, -0.40253247296570416 
4.350000000003201, -0.4014023363676946 
4.360000000003177, -0.40001894195294774 
4.370000000003154, -0.39842605867722336 
4.380000000003131, -0.3967153943998731 
4.390000000003107, -0.3950046013166151 
4.400000000003084, -0.39340056597318285 
4.410000000003061, -0.39197134945631923 
4.4200000000030375, -0.39073999120147695 
4.430000000003014, -0.3896954118654624 
4.440000000002991, -0.3888087345548232 
4.450000000002968, -0.3880470099032259 
4.460000000002944, -0.3873817975919279 
4.470000000002921, -0.38679324918291924 
4.480000000002898, -0.3862714886584502 
4.490000000002874, -0.3858171606626593 
4.500000000002851, -0.38544265342239353 
4.510000000002828, -0.3851751337816941 
4.520000000002804, -0.38506238078727695 
4.530000000002781, -0.3851824153749401 
4.540000000002758, -0.3856576344245507 
4.5500000000027345, -0.38667225311104525 
4.560000000002711, -0.3884851338119576 
4.570000000002688, -0.3914126431040058 
4.580000000002665, -0.3957254925070034 
4.590000000002641, -0.4013931083941668 
4.600000000002618, -0.4077433978736553 
4.610000000002595, -0.4134556120350562 
4.620000000002571, -0.41730626010679356 
4.630000000002548, -0.419060675498629 
4.640000000002525, -0.4194005690213979 
4.6500000000025015, -0.41915295337352826 
4.660000000002478, -0.4188186049256569 
4.670000000002455, -0.4185794300338232 
4.6800000000024315, -0.4184541186511046 
4.690000000002408, -0.41840899740558896 
4.700000000002385, -0.4184060268311961 
4.710000000002362, -0.4184164206012988 
4.720000000002338, -0.4184212715087452 
4.730000000002315, -0.4184089663343742 
4.740000000002292, -0.41837289545903156 
4.750000000002268, -0.4183104798390918 
4.760000000002245, -0.4182236553936843 
4.770000000002222, -0.418120420571989 
4.7800000000021985, -0.41801636411440385 
4.790000000002175, -0.41793443043350054 
4.800000000002152, -0.4179012955858822 
4.810000000002129, -0.4179401476343186 
4.820000000002105, -0.4180618025272369 
4.830000000002082, -0.4182576671920642 
4.840000000002059, -0.4184982971248449 
4.850000000002035, -0.41873965949539443 
4.860000000002012, -0.4189353200852385 
4.870000000001989, -0.4190486136040958 
4.880000000001965, -0.41905865268906295 
