t, s[1].omega / s[0].omega 
0, -0.6199977210935248 
0.009999999999999995, -0.6197757882687474 
0.019999999999999934, -0.6195585457529099 
0.029999999999999874, -0.6193281290633048 
0.04000000000000012, -0.6190639382853395 
0.050000000000000405, -0.618750749144547 
0.06000000000000069, -0.6183832849825304 
0.07000000000000098, -0.6179668952382054 
0.08000000000000126, -0.6175166668838159 
0.09000000000000155, -0.6170577393206779 
0.10000000000000184, -0.6166286296345762 
0.11000000000000212, -0.6162884174777059 
0.12000000000000241, -0.6161281703298653 
0.130000000000002, -0.616286673032123 
0.1400000000000009, -0.616969729506938 
0.1499999999999998, -0.6184701703410801 
0.1599999999999987, -0.6211807491015905 
0.1699999999999976, -0.6255819972125832 
0.1799999999999965, -0.6321707111433916 
0.1899999999999954, -0.6412822620300874 
0.1999999999999943, -0.6527938119691747 
0.2099999999999932, -0.6658419415922527 
0.2199999999999921, -0.678883402009584 
0.229999999999991, -0.6902996360134966 
0.2399999999999899, -0.6991403572909857 
0.2499999999999888, -0.7053467402639464 
0.2599999999999877, -0.709412302670532 
0.2699999999999866, -0.711952432716835 
0.2799999999999855, -0.7134748667131962 
0.2899999999999844, -0.7143301500690737 
0.2999999999999833, -0.7147373395520834 
0.3099999999999822, -0.7148213022079681 
0.3199999999999811, -0.7146400282614305 
0.32999999999998, -0.7141985900487012 
0.3399999999999789, -0.7134508880401913 
0.3499999999999778, -0.7122905325307806 
0.35999999999997667, -0.7105333469913377 
0.36999999999997557, -0.7079006965367658 
0.37999999999997447, -0.7040299528745891 
0.38999999999997337, -0.6985603738103066 
0.39999999999997227, -0.6913286287902232 
0.40999999999997117, -0.6825975928821689 
0.41999999999997006, -0.6731046777464125 
0.42999999999996896, -0.6638054434028577 
0.43999999999996786, -0.6554985088565253 
0.44999999999996676, -0.6486167138784155 
0.45999999999996566, -0.6432474965354548 
0.46999999999996456, -0.6392605338462978 
0.47999999999996346, -0.6364291671006658 
0.48999999999996235, -0.6345075618985441 
0.49999999999996125, -0.633269523337686 
0.5099999999999602, -0.6325240717353501 
0.519999999999959, -0.6321188943324273 
0.529999999999958, -0.6319378121186643 
0.5399999999999568, -0.6318954600032896 
0.5499999999999557, -0.631931062117209 
0.5599999999999546, -0.6320026107051644 
0.5699999999999535, -0.6320823749407052 
0.5799999999999524, -0.6321541938067137 
0.5899999999999513, -0.6322122628825866 
0.5999999999999502, -0.6322601298166981 
0.6099999999999491, -0.632307939162235 
0.619999999999948, -0.6323666368144124 
0.6299999999999469, -0.6324401792319104 
0.6399999999999458, -0.6325193456359105 
0.6499999999999447, -0.6325811932065366 
0.6599999999999436, -0.6325954430329929 
0.6699999999999425, -0.632534627372386 
0.6799999999999414, -0.6323823149663279 
0.6899999999999403, -0.6321357354272397 
0.6999999999999392, -0.631803676077959 
0.7099999999999381, -0.6314033409773907 
0.719999999999937, -0.6309595591731001 
0.7299999999999359, -0.6305081937623489 
0.7399999999999348, -0.6301046771034375 
0.7499999999999337, -0.6298385251344311 
0.7599999999999326, -0.6298547388412175 
0.7699999999999315, -0.6303821340237631 
0.7799999999999304, -0.6317653351141299 
0.7899999999999293, -0.6344888132780561 
0.7999999999999282, -0.6391642001975595 
0.8099999999999271, -0.6464259426043705 
0.819999999999926, -0.6566675830348261 
0.8299999999999249, -0.6696277460146262 
0.8399999999999238, -0.6840807867358486 
0.8499999999999227, -0.6980949288407217 
0.8599999999999216, -0.7099234771689316 
0.8699999999999205, -0.7187827190478129 
0.8799999999999194, -0.724854296297653 
0.8899999999999183, -0.728778786725581 
0.8999999999999172, -0.7312186282323533 
0.9099999999999161, -0.7326806540004949 
0.919999999999915, -0.7335026477954697 
0.9299999999999139, -0.7338922610102594 
0.9399999999999128, -0.7339664971655402 
0.9499999999999117, -0.733777988054302 
0.9599999999999106, -0.7333275197978101 
0.9699999999999095, -0.7325646183001234 
0.9799999999999084, -0.7313777567804707 
0.9899999999999073, -0.7295772805465288 
0.9999999999999062, -0.7268817619066438 
1.0099999999999052, -0.7229359468964014 
1.019999999999904, -0.7174067512922221 
1.029999999999903, -0.7101794242890127 
1.039999999999902, -0.7015617760202333 
1.0499999999999008, -0.692294895724339 
1.0599999999998997, -0.6832892732971193 
1.0699999999998986, -0.6752836334677902 
1.0799999999998975, -0.6686711916141761 
1.0899999999998964, -0.6635274536838354 
1.0999999999998953, -0.6597265216507802 
1.1099999999998942, -0.6570500900630262 
1.119999999999893, -0.6552582932013485 
1.129999999999892, -0.6541274493807953 
1.1399999999998909, -0.653466949365524 
1.1499999999998898, -0.653124293805069 
1.1599999999998887, -0.6529834776204831 
1.1699999999998876, -0.6529598182199161 
1.1799999999998865, -0.652993410649074 
1.1899999999998854, -0.6530428920462029 
1.1999999999998843, -0.653080721138978 
1.2099999999998832, -0.6530905594394595 
1.219999999999882, -0.6530664287442366 
1.229999999999881, -0.6530121585143879 
1.2399999999998799, -0.6529389190220138 
1.2499999999998788, -0.6528595194784451 
1.2599999999998777, -0.6527807949265162 
1.2699999999998766, -0.6526978969643425 
1.2799999999998755, -0.6525941776208775 
1.2899999999998744, -0.6524471916788428 
1.2999999999998733, -0.652237411255441 
1.3099999999998722, -0.6519548521999117 
1.319999999999871, -0.6516011920069935 
1.32999999999987, -0.6511886805344134 
1.3399999999998689, -0.6507389767493137 
1.3499999999998678, -0.6502844890362878 
1.3599999999998666, -0.6498734571317166 
1.3699999999998655, -0.6495790740050447 
1.3799999999998644, -0.6495123890802096 
1.3899999999998633, -0.6498379986497692 
1.3999999999998622, -0.6507900502782253 
1.4099999999998611, -0.6526832656391297 
1.41999999999986, -0.6559085589317653 
1.429999999999859, -0.6608943300449016 
1.4399999999998578, -0.6680047792949336 
1.4499999999998567, -0.6773509539552565 
1.4599999999998556, -0.6885471373986822 
1.4699999999998545, -0.7005779718999163 
1.4799999999998534, -0.7120224906505912 
1.4899999999998523, -0.721637444259198 
1.4999999999998512, -0.7288594079901383 
1.5099999999998501, -0.7338215581042536 
1.519999999999849, -0.7370158460882573 
1.529999999999848, -0.7389697628509404 
1.5399999999998468, -0.7400969296716857 
1.5499999999998457, -0.7406754150023767 
1.5599999999998446, -0.7408737715831741 
1.5699999999998435, -0.7407809794669866 
1.5799999999998424, -0.740426042105775 
1.5899999999998413, -0.7397848737762849 
1.5999999999998402, -0.7387745068181382 
1.6099999999998391, -0.7372342920537834 
1.619999999999838, -0.734895357834634 
1.629999999999837, -0.731349663784531 
1.6399999999998358, -0.7260579805570979 
1.6499999999998347, -0.7184778994373311 
1.6599999999998336, -0.7083810211603342 
1.6699999999998325, -0.6962384452216479 
1.6799999999998314, -0.6832877667952169 
1.6899999999998303, -0.671052489157827 
1.6999999999998292, -0.6606834234497743 
1.709999999999828, -0.6526540526020538 
1.719999999999827, -0.646876042508126 
1.729999999999826, -0.6429680026741352 
1.7399999999998248, -0.6404721454177754 
1.7499999999998237, -0.6389710118286682 
1.7599999999998226, -0.6381306819242463 
1.7699999999998215, -0.6377046302153566 
1.7799999999998204, -0.637520789243632 
1.7899999999998193, -0.6374638041600458 
1.7999999999998182, -0.6374581560968452 
1.809999999999817, -0.6374545387479339 
1.819999999999816, -0.6374202820867405 
1.8299999999998149, -0.6373339113170575 
1.8399999999998138, -0.6371834599347896 
1.8499999999998127, -0.6369673401340558 
1.8599999999998116, -0.6366953296973951 
1.8699999999998105, -0.6363866088214863 
1.8799999999998094, -0.6360633557264996 
1.8899999999998083, -0.635741967388237 
1.8999999999998072, -0.6354265747413987 
1.909999999999806, -0.635108580424131 
1.919999999999805, -0.6347722070069646 
1.9299999999998039, -0.6344025417522382 
1.9399999999998028, -0.6339918761833437 
1.9499999999998017, -0.6335424454633809 
1.9599999999998006, -0.6330666743138798 
1.9699999999997995, -0.6325873957594037 
1.9799999999997984, -0.6321400336021393 
1.9899999999997973, -0.6317776479784689 
1.9999999999997962, -0.6315788998554013 
2.0099999999998173, -0.6316584263482536 
2.0199999999998384, -0.6321784951683391 
2.0299999999998595, -0.6333597310213073 
2.0399999999998806, -0.6354865991425609 
2.0499999999999017, -0.6388991288495356 
2.059999999999923, -0.6439549475349204 
2.069999999999944, -0.6509372135907591 
2.079999999999965, -0.6598888507056301 
2.089999999999986, -0.6704057277998205 
2.100000000000007, -0.6815379502219586 
2.1100000000000283, -0.6920095269465115 
2.1200000000000494, -0.7007391127039014 
2.1300000000000705, -0.7072650920385145 
2.1400000000000916, -0.7117376164867073 
2.1500000000001127, -0.7146115474688998 
2.160000000000134, -0.7163634789658759 
2.170000000000155, -0.7173640401601793 
2.180000000000176, -0.7178610894244939 
2.190000000000197, -0.7180034112605596 
2.2000000000002182, -0.7178669546096255 
2.2100000000002393, -0.7174712922787597 
2.2200000000002604, -0.7167841410653553 
2.2300000000002815, -0.7157138073313908 
2.2400000000003026, -0.7140894852619339 
2.2500000000003237, -0.7116323289725404 
2.260000000000345, -0.7079331678794134 
2.270000000000366, -0.7024830756227519 
2.280000000000387, -0.6948352858105489 
2.290000000000408, -0.6849283361746266 
2.3000000000004293, -0.6733852155473825 
2.3100000000004504, -0.661433564414136 
2.3200000000004715, -0.6503889583213958 
2.3300000000004926, -0.6411336899394187 
2.3400000000005137, -0.6339644682699537 
2.3500000000005348, -0.6287479824998178 
2.360000000000556, -0.6251462749353742 
2.370000000000577, -0.6227777050758996 
2.380000000000598, -0.6212981683043177 
2.390000000000619, -0.6204296924320915 
2.4000000000006403, -0.619962332035824 
2.4100000000006614, -0.619744891425399 
2.4200000000006825, -0.6196723068852314 
2.4300000000007036, -0.619673388839896 
2.4400000000007247, -0.6197006323439205 
2.450000000000746, -0.619722846841128 
2.460000000000767, -0.6197208186236781 
2.470000000000788, -0.6196856678359515 
2.480000000000809, -0.6196186939209533 
2.49000000000083, -0.6195305223857576 
2.5000000000008513, -0.6194372854826146 
2.5100000000008724, -0.6193533957742149 
2.5200000000008935, -0.619283502728024 
2.5300000000009146, -0.6192179969624162 
2.5400000000009357, -0.6191351052291407 
2.550000000000957, -0.6190087903573168 
2.560000000000978, -0.6188180465965238 
2.570000000000999, -0.6185527997345128 
2.58000000000102, -0.618214836742885 
2.5900000000010412, -0.6178158718131225 
2.6000000000010624, -0.6173761149825003 
2.6100000000010835, -0.616925818848318 
2.6200000000011046, -0.6165110914901446 
2.6300000000011257, -0.6162047704808264 
2.6400000000011468, -0.616123133202624 
2.650000000001168, -0.6164489110574846 
2.660000000001189, -0.617459410548085 
2.67000000000121, -0.6195537211752489 
2.680000000001231, -0.6232618624590534 
2.6900000000012523, -0.6291979419338342 
2.7000000000012734, -0.6378948649821247 
2.7100000000012945, -0.649472100071811 
2.7200000000013156, -0.6632343426861262 
2.7300000000013367, -0.6775763153737235 
2.740000000001358, -0.6905655711820319 
2.750000000001379, -0.7008822350272598 
2.7600000000014, -0.7082546321726931 
2.770000000001421, -0.7131494557107156 
2.780000000001442, -0.7162498881942259 
2.7900000000014633, -0.718146647142581 
2.8000000000014844, -0.7192570462144084 
2.8100000000015055, -0.7198472597281075 
2.8200000000015266, -0.7200748847068003 
2.8300000000015477, -0.7200224122930126 
2.840000000001569, -0.7197165855329131 
2.85000000000159, -0.7191351278034303 
2.860000000001611, -0.7182028008876428 
2.870000000001632, -0.7167790827729007 
2.8800000000016532, -0.7146438530938364 
2.8900000000016743, -0.7114992815122299 
2.9000000000016954, -0.7070239558610385 
2.9100000000017165, -0.7010142135813834 
2.9200000000017377, -0.6935787084363655 
2.9300000000017588, -0.6852345838373439 
2.94000000000178, -0.676764619730719 
2.950000000001801, -0.6689166276367283 
2.960000000001822, -0.6621774363805358 
2.970000000001843, -0.6567329537923213 
2.9800000000018643, -0.6525492193749852 
2.9900000000018854, -0.6494741719603685 
3.0000000000019065, -0.6473118483396907 
3.0100000000019276, -0.6458647111820256 
3.0200000000019487, -0.6449543738600622 
3.03000000000197, -0.6444302017635095 
3.040000000001991, -0.6441713289388163 
3.050000000002012, -0.6440849160342601 
3.060000000002033, -0.6441023179071311 
3.070000000002054, -0.644174480680856 
3.0800000000020753, -0.6442677153974747 
3.0900000000020964, -0.6443606757810936 
3.1000000000021175, -0.6444427410282627 
3.1100000000021386, -0.644513041717233 
3.1200000000021597, -0.6445784430541698 
3.130000000002181, -0.644648852873306 
3.140000000002202, -0.644729986778972 
3.150000000002223, -0.644816405667431 
3.160000000002244, -0.6448889907005255 
3.1700000000022652, -0.6449192794104859 
3.1800000000022863, -0.6448788552141479 
3.1900000000023074, -0.6447484989795853 
3.2000000000023285, -0.6445224614566725 
3.2100000000023496, -0.6442074399074864 
3.2200000000023707, -0.6438194663310782 
3.230000000002392, -0.6433823955449911 
3.240000000002413, -0.6429302415605131 
3.250000000002434, -0.642514366686939 
3.260000000002455, -0.6422161381024897 
3.2700000000024763, -0.642165564089396 
3.2800000000024974, -0.6425656635534414 
3.2900000000025185, -0.6437197738962539 
3.3000000000025396, -0.6460529736206582 
3.3100000000025607, -0.650106802626431 
3.3200000000025818, -0.6564673864878285 
3.330000000002603, -0.6655719869133965 
3.340000000002624, -0.6773745996269491 
3.350000000002645, -0.6910126696608878 
3.360000000002666, -0.704840850348311 
3.3700000000026873, -0.7170745356625366 
3.3800000000027084, -0.7266202137464375 
3.3900000000027295, -0.7333558570614476 
3.4000000000027506, -0.737782751839268 
3.4100000000027717, -0.740555634756114 
3.420000000002793, -0.7422236715696757 
3.430000000002814, -0.7431695615980318 
3.440000000002835, -0.7436343476840783 
3.450000000002856, -0.7437572267864418 
3.460000000002877, -0.7436056028269356 
3.4700000000028983, -0.7431911073744325 
3.4800000000029194, -0.7424725491120667 
3.4900000000029405, -0.7413467939860452 
3.5000000000029616, -0.7396288067932494 
3.5100000000029827, -0.7370271360891059 
3.520000000003004, -0.7331373636826604 
3.530000000003025, -0.7275048003117935 
3.540000000003046, -0.7198175064224731 
3.550000000003067, -0.7102000988004209 
3.5600000000030882, -0.699384824582689 
3.5700000000031094, -0.688512730938349 
3.5800000000031305, -0.6786642110372284 
3.5900000000031516, -0.6704993683253444 
3.6000000000031727, -0.664204748405109 
3.6100000000031938, -0.6596382732142981 
3.620000000003215, -0.6565018264081519 
3.630000000003236, -0.6544618997330993 
3.640000000003257, -0.6532134983844944 
3.650000000003278, -0.6525058739040027 
3.6600000000032993, -0.6521469959468637 
3.6700000000033204, -0.6519974634866019 
3.6800000000033415, -0.651960088003478 
3.6900000000033626, -0.6519688198821247 
3.7000000000033837, -0.651979177128595 
3.710000000003405, -0.6519613668162205 
3.720000000003426, -0.6518965805073019 
3.730000000003447, -0.6517761503585691 
3.740000000003468, -0.6516020977013481 
3.750000000003489, -0.6513864876868712 
3.7600000000035103, -0.6511472444716315 
3.7700000000035314, -0.6509005732735724 
3.7800000000035525, -0.6506533865290274 
3.7900000000035736, -0.6504001220117516 
3.8000000000035947, -0.6501258894796716 
3.810000000003616, -0.6498139219842907 
3.820000000003637, -0.6494530014616275 
3.830000000003658, -0.6490416039344865 
3.840000000003679, -0.6485886741048904 
3.8500000000037002, -0.6481132923338555 
3.8600000000037213, -0.6476456900927637 
3.8700000000037424, -0.6472309897765769 
3.8800000000037635, -0.6469359427862573 
3.8900000000037847, -0.6468581918825023 
3.9000000000038058, -0.647136941495823 
3.910000000003827, -0.6479630533900727 
3.920000000003848, -0.6495851695154301 
3.930000000003869, -0.6523058862202548 
3.94000000000389, -0.6564572693229878 
3.9500000000039113, -0.6623381854236049 
3.9600000000039324, -0.6700934949307078 
3.9700000000039535, -0.679538493982924 
3.9800000000039746, -0.690009270998674 
3.9900000000039957, -0.7004150690907753 
4.000000000004016, -0.709605053258737 
4.010000000003993, -0.7168460522955853 
4.02000000000397, -0.7220205291090538 
4.030000000003946, -0.7254483312703714 
4.040000000003923, -0.7275885708675232 
4.0500000000039, -0.7288469141877517 
4.0600000000038765, -0.7295146286688965 
4.070000000003853, -0.7297763185752442 
4.08000000000383, -0.7297349058691129 
4.090000000003807, -0.729431693787298 
4.100000000003783, -0.728855500086099 
4.11000000000376, -0.7279397850308146 
4.120000000003737, -0.7265469883962896 
4.130000000003713, -0.724439738911418 
4.14000000000369, -0.7212448958381038 
4.150000000003667, -0.7164383154057494 
4.1600000000036434, -0.7094220360383667 
4.17000000000362, -0.699790962822155 
4.180000000003597, -0.6877601511894371 
4.1900000000035735, -0.674409278024759 
4.20000000000355, -0.6613456809545571 
4.210000000003527, -0.6499715458328088 
4.220000000003504, -0.6409941582986429 
4.23000000000348, -0.634445116782685 
4.240000000003457, -0.6299644785358937 
4.250000000003434, -0.6270671051452237 
4.26000000000341, -0.6252954182851066 
4.270000000003387, -0.6242789433023734 
4.280000000003364, -0.6237427508517372 
4.2900000000033405, -0.6234943163075177 
4.300000000003317, -0.6234042629219994 
4.310000000003294, -0.6233879207320931 
4.320000000003271, -0.6233903646295149 
4.330000000003247, -0.6233756781106803 
4.340000000003224, -0.6233204294358827 
4.350000000003201, -0.6232109787603084 
4.360000000003177, -0.6230436417970411 
4.370000000003154, -0.6228256587972287 
4.380000000003131, -0.6225740464741916 
4.390000000003107, -0.6223102658666793 
4.400000000003084, -0.6220517089787372 
4.410000000003061, -0.6218041238391324 
4.4200000000030375, -0.6215593253449428 
4.430000000003014, -0.6212994916862631 
4.440000000002991, -0.6210053901291684 
4.450000000002968, -0.6206639663814221 
4.460000000002944, -0.6202722112766275 
4.470000000002921, -0.6198375309880026 
4.480000000002898, -0.6193771055072558 
4.490000000002874, -0.6189188058129955 
4.500000000002851, -0.618505212215852 
4.510000000002828, -0.6182013891235247 
4.520000000002804, -0.6181066166458954 
4.530000000002781, -0.6183698680022736 
4.540000000002758, -0.6192078524832217 
4.5500000000027345, -0.6209220862030248 
4.560000000002711, -0.6239062538069053 
4.570000000002688, -0.6286249618913173 
4.580000000002665, -0.6355298256822098 
4.590000000002641, -0.6448717030222868 
4.600000000002618, -0.6564133988673213 
4.610000000002595, -0.6691991116078277 
4.620000000002571, -0.6816950465847967 
4.630000000002548, -0.6924176679713054 
4.640000000002525, -0.7005911850499345 
4.6500000000025015, -0.706264850669329 
4.660000000002478, -0.7099516520104083 
4.670000000002455, -0.7122379724423349 
4.6800000000024315, -0.7135928647798575 
4.690000000002408, -0.7143350970879989 
4.700000000002385, -0.7146612402787536 
4.710000000002362, -0.7146805370096334 
4.720000000002338, -0.7144391216199679 
4.730000000002315, -0.7139312020901822 
4.740000000002292, -0.7130982207974226 
4.750000000002268, -0.7118171074194704 
4.760000000002245, -0.7098804721003475 
4.770000000002222, -0.7069800342361293 
4.7800000000021985, -0.7027246672072314 
4.790000000002175, -0.6967470561509315 
4.800000000002152, -0.6889272323979128 
4.810000000002129, -0.6796266027904021 
4.820000000002105, -0.669692579495225 
4.830000000002082, -0.6601409197006972 
4.840000000002059, -0.6517614210056806 
4.850000000002035, -0.644936752094132 
4.860000000002012, -0.6396976441772027 
4.870000000001989, -0.6358686962383394 
4.880000000001965, -0.6331934326672118 
4.890000000001942, -0.631409065866848 
4.900000000001919, -0.6302817910834967 
4.9100000000018955, -0.6296192364113229 
4.920000000001872, -0.6292713897478012 
4.930000000001849, -0.6291261199020347 
