t, s[1].omega / s[0].omega 
0, -1.3499976459575385 
0.009999999999999995, -1.3495603415437907 
0.019999999999999934, -1.3487259538408336 
0.029999999999999874, -1.3475083306186797 
0.04000000000000012, -1.3459468285600533 
0.050000000000000405, -1.3441262033475174 
0.06000000000000069, -1.3422226756337443 
0.07000000000000098, -1.340577935239591 
0.08000000000000126, -1.3395849008952068 
0.09000000000000155, -1.3392743265165592 
0.10000000000000184, -1.3392441237326838 
0.11000000000000212, -1.3390545936070768 
0.12000000000000241, -1.338348114652224 
0.130000000000002, -1.3365973128333348 
0.1400000000000009, -1.3326796833541328 
0.1499999999999998, -1.3243085658468354 
0.1599999999999987, -1.307626251338179 
0.1699999999999976, -1.2780785631612694 
0.1799999999999965, -1.2344748628355846 
0.1899999999999954, -1.1861586342454273 
0.1999999999999943, -1.1515297675305352 
0.2099999999999932, -1.1381855315346925 
0.2199999999999921, -1.1370283586889185 
0.229999999999991, -1.1387360313036192 
0.2399999999999899, -1.1400678407434814 
0.2499999999999888, -1.1406258899686363 
0.2599999999999877, -1.1405143703563048 
0.2699999999999866, -1.1396622528738938 
0.2799999999999855, -1.1375345639385872 
0.2899999999999844, -1.1325223665322246 
0.2999999999999833, -1.120295018961454 
0.3099999999999822, -1.0903800144430296 
0.3199999999999811, -1.024438920386039 
0.32999999999998, -0.9117914620723969 
0.3399999999999789, -0.7781409178116375 
0.3499999999999778, -0.671860819412204 
0.35999999999997667, -0.6133795711873193 
0.36999999999997557, -0.5885545959341436 
0.37999999999997447, -0.5796240257874969 
0.38999999999997337, -0.5769252802319733 
0.39999999999997227, -0.5764077896385701 
0.40999999999997117, -0.5765372929689283 
0.41999999999997006, -0.5767631123393626 
0.42999999999996896, -0.5768922064200861 
0.43999999999996786, -0.5768478189289312 
0.44999999999996676, -0.5765808162102021 
0.45999999999996566, -0.5760484175019466 
0.46999999999996456, -0.5752342709637971 
0.47999999999996346, -0.5741885423422683 
0.48999999999996235, -0.5730399462750839 
0.49999999999996125, -0.571943358630358 
0.5099999999999602, -0.5710032443891109 
0.519999999999959, -0.57024054278369 
0.529999999999958, -0.5696126715053064 
0.5399999999999568, -0.5690562271984986 
0.5499999999999557, -0.5685251086567101 
0.5599999999999546, -0.5680108166596889 
0.5699999999999535, -0.5675490036195314 
0.5799999999999524, -0.5672271912840484 
0.5899999999999513, -0.5672060711896783 
0.5999999999999502, -0.5677603740002756 
0.6099999999999491, -0.5693434807850373 
0.619999999999948, -0.5726837367003977 
0.6299999999999469, -0.5789268736439898 
0.6399999999999458, -0.5898306564183595 
0.6499999999999447, -0.6079179352411003 
0.6599999999999436, -0.6360793210598953 
0.6699999999999425, -0.6752665164560141 
0.6799999999999414, -0.7199088259479286 
0.6899999999999403, -0.758130170765356 
0.6999999999999392, -0.7824813563732058 
0.7099999999999381, -0.7950313614470391 
0.719999999999937, -0.8008583362837658 
0.7299999999999359, -0.8034354717155235 
0.7399999999999348, -0.8044597160753384 
0.7499999999999337, -0.8046467599413343 
0.7599999999999326, -0.8042218072581957 
0.7699999999999315, -0.8030880689261893 
0.7799999999999304, -0.8007526844920763 
0.7899999999999293, -0.795920731174194 
0.7999999999999282, -0.7853579335078134 
0.8099999999999271, -0.7612499273162529 
0.819999999999926, -0.7082720339002857 
0.8299999999999249, -0.614570820291878 
0.8399999999999238, -0.5061175255330604 
0.8499999999999227, -0.42700232497618 
0.8599999999999216, -0.3836552998756664 
0.8699999999999205, -0.3619638601205704 
0.8799999999999194, -0.35103144053420193 
0.8899999999999183, -0.3453390140658093 
0.8999999999999172, -0.3422995799974523 
0.9099999999999161, -0.3406810996502456 
0.919999999999915, -0.339876231248938 
0.9299999999999139, -0.33958027505787863 
0.9399999999999128, -0.3396480799563482 
0.9499999999999117, -0.34003215741078463 
0.9599999999999106, -0.3407622413679844 
0.9699999999999095, -0.3419508998535884 
0.9799999999999084, -0.343819599943287 
0.9899999999999073, -0.34673949005955196 
0.9999999999999062, -0.3512566317013561 
1.0099999999999052, -0.3579762140531194 
1.019999999999904, -0.3670345938775516 
1.029999999999903, -0.3772304121848311 
1.039999999999902, -0.38621925470556406 
1.0499999999999008, -0.3924436638517902 
1.0599999999998997, -0.39605499272929945 
1.0699999999998986, -0.39792471610513586 
1.0799999999998975, -0.39876848247235736 
1.0899999999998964, -0.3989787486257373 
1.0999999999998953, -0.3987062476588358 
1.1099999999998942, -0.39793331393651693 
1.119999999999893, -0.39651069560237695 
1.129999999999892, -0.39421672369790317 
1.1399999999998909, -0.3909339558915546 
1.1499999999998898, -0.38691639484865326 
1.1599999999998887, -0.3828097018631061 
1.1699999999998876, -0.37924422127564644 
1.1799999999998865, -0.37648515656041504 
1.1899999999998854, -0.37447601094071736 
1.1999999999998843, -0.3730344582837274 
1.2099999999998832, -0.3719781040184358 
1.219999999999882, -0.37117085700976804 
1.229999999999881, -0.37053293359486317 
1.2399999999998799, -0.37003935962715545 
1.2499999999998788, -0.36972127069110555 
1.2599999999998777, -0.36968381590923227 
1.2699999999998766, -0.3701602885857486 
1.2799999999998755, -0.371643599332516 
1.2899999999998744, -0.3751976433608714 
1.2999999999998733, -0.3832112440287297 
1.3099999999998722, -0.4012153664784688 
1.319999999999871, -0.44160898854794634 
1.32999999999987, -0.5258182160993082 
1.3399999999998689, -0.6621164624044608 
1.3499999999998678, -0.8034362278131226 
1.3599999999998666, -0.8968360405671665 
1.3699999999998655, -0.9430471116691188 
1.3799999999998644, -0.9631140898623579 
1.3899999999998633, -0.9715293646229672 
1.3999999999998622, -0.9750489775550842 
1.4099999999998611, -0.9764446880007128 
1.41999999999986, -0.9767970055543392 
1.429999999999859, -0.9764589800158124 
1.4399999999998578, -0.9753717625304248 
1.4499999999998567, -0.9730374181504855 
1.4599999999998556, -0.968172788847914 
1.4699999999998545, -0.9579401127588048 
1.4799999999998534, -0.9370111114875437 
1.4899999999998523, -0.898261381182419 
1.4999999999998512, -0.8366333589658076 
1.5099999999998501, -0.7534641275219193 
1.519999999999849, -0.6685723353939259 
1.529999999999848, -0.6115224320854682 
1.5399999999998468, -0.5849183786103201 
1.5499999999998457, -0.5751720866971805 
1.5599999999998446, -0.5723189305278137 
1.5699999999998435, -0.5718563495173188 
1.5799999999998424, -0.5720732251678162 
1.5899999999998413, -0.5723729224186391 
1.5999999999998402, -0.5725587363738648 
1.6099999999998391, -0.5725602895792935 
1.619999999999838, -0.5723339094305031 
1.629999999999837, -0.5718353071456257 
1.6399999999998358, -0.5710349762459436 
1.6499999999998347, -0.5699616401045132 
1.6599999999998336, -0.5687315344112854 
1.6699999999998325, -0.5675115263495265 
1.6799999999998314, -0.5664355149752445 
1.6899999999998303, -0.5655521935304855 
1.6999999999998292, -0.5648340048737639 
1.709999999999828, -0.5642187109820632 
1.719999999999827, -0.5636515333910675 
1.729999999999826, -0.5631110525874489 
1.7399999999998248, -0.5626186455120099 
1.7499999999998237, -0.5622443327347556 
1.7599999999998226, -0.5621226016738025 
1.7699999999998215, -0.5624855380326802 
1.7799999999998204, -0.5637173980365151 
1.7899999999998193, -0.5664373742620935 
1.7999999999998182, -0.5716241449179775 
1.809999999999817, -0.5807966091980448 
1.819999999999816, -0.5962099290760721 
1.8299999999998149, -0.62074395679393 
1.8399999999998138, -0.6563904542994047 
1.8499999999998127, -0.7000926119673961 
1.8599999999998116, -0.7412099496647936 
1.8699999999998105, -0.7697405771494249 
1.8799999999998094, -0.7852421744725165 
1.8899999999998083, -0.7926081748274305 
1.8999999999998072, -0.7959166931435397 
1.909999999999806, -0.7973035424674743 
1.919999999999805, -0.7977061830919316 
1.9299999999998039, -0.797466390525592 
1.9399999999998028, -0.7965810302464401 
1.9499999999998017, -0.7946991184044638 
1.9599999999998006, -0.7908368066352189 
1.9699999999997995, -0.7825243841879761 
1.9799999999997984, -0.7637327145406444 
1.9899999999997973, -0.7218486602688127 
1.9999999999997962, -0.6430470920553966 
2.0099999999998173, -0.541226180752646 
2.0199999999998384, -0.45808280715196126 
2.0299999999998595, -0.40911766063029176 
2.0399999999998806, -0.38379414120695193 
2.0499999999999017, -0.3708714714516003 
2.059999999999923, -0.3641119977966865 
2.069999999999944, -0.36049001099135836 
2.079999999999965, -0.3585433405511486 
2.089999999999986, -0.35754398039519897 
2.100000000000007, -0.35712035301939293 
2.1100000000000283, -0.35708585413375543 
2.1200000000000494, -0.3573614898600471 
2.1300000000000705, -0.3579451034159063 
2.1400000000000916, -0.3589076167873717 
2.1500000000001127, -0.3604079503755092 
2.160000000000134, -0.3627201876978716 
2.170000000000155, -0.36625400153192267 
2.180000000000176, -0.37149550200394954 
2.190000000000197, -0.37869071646601654 
2.2000000000002182, -0.3872012880782698 
2.2100000000002393, -0.39530222918540026 
2.2200000000002604, -0.4013869878035658 
2.2300000000002815, -0.4051498857988316 
2.2400000000003026, -0.40718236561153687 
2.2500000000003237, -0.4081366247860289 
2.260000000000345, -0.4084173829602796 
2.270000000000366, -0.4081958353168404 
2.280000000000387, -0.4074647019996271 
2.290000000000408, -0.4060602669332406 
2.3000000000004293, -0.40368820361745483 
2.3100000000004504, -0.4000701305282713 
2.3200000000004715, -0.39529537969479717 
2.3300000000004926, -0.3900616585177685 
2.3400000000005137, -0.385289736169792 
2.3500000000005348, -0.3815034915632402 
2.360000000000556, -0.3787263831367372 
2.370000000000577, -0.37674436094534314 
2.380000000000598, -0.3753177771477706 
2.390000000000619, -0.3742616560300482 
2.4000000000006403, -0.373460181610239 
2.4100000000006614, -0.3728618851544304 
2.4200000000006825, -0.3724754389577501 
2.4300000000007036, -0.3723781346379833 
2.4400000000007247, -0.37275050264451326 
2.450000000000746, -0.3739618407796562 
2.460000000000767, -0.37676456198028613 
2.470000000000788, -0.38273943527554394 
2.480000000000809, -0.39532783879605804 
2.49000000000083, -0.4220681303649812 
2.5000000000008513, -0.47770505164351507 
2.5100000000008724, -0.5787018174539744 
2.5200000000008935, -0.7091912498165527 
2.5300000000009146, -0.8140351390398992 
2.5400000000009357, -0.8708918843445779 
2.550000000000957, -0.8961697605741044 
2.560000000000978, -0.9068171326282273 
2.570000000000999, -0.9113203608241902 
2.58000000000102, -0.9131957502558737 
2.5900000000010412, -0.9138325096885452 
2.6000000000010624, -0.913736359381331 
2.6100000000010835, -0.9129708696803818 
2.6200000000011046, -0.9112135445626203 
2.6300000000011257, -0.9074859786633733 
2.6400000000011468, -0.8993004373621392 
2.650000000001168, -0.8805382302838011 
2.660000000001189, -0.8375590079851937 
2.67000000000121, -0.7494595902543177 
2.680000000001231, -0.61606147237548 
2.6900000000012523, -0.4903883027757112 
2.7000000000012734, -0.4138295970893035 
2.7100000000012945, -0.37643213448210544 
2.7200000000013156, -0.3589739159793943 
2.7300000000013367, -0.35062721068204683 
2.740000000001358, -0.3465030171368231 
2.750000000001379, -0.3444341356426668 
2.7600000000014, -0.3434252897233392 
2.770000000001421, -0.34300148680572157 
2.780000000001442, -0.3429337955438273 
2.7900000000014633, -0.3431218078544397 
2.8000000000014844, -0.3435456376633467 
2.8100000000015055, -0.34425270540020164 
2.8200000000015266, -0.34536411177739396 
2.8300000000015477, -0.3470909560610677 
2.840000000001569, -0.34974525328571104 
2.85000000000159, -0.35369731787837094 
2.860000000001611, -0.3591623631584911 
2.870000000001632, -0.3657515874219755 
2.8800000000016532, -0.37225116944683057 
2.8900000000016743, -0.3773645745308465 
2.9000000000016954, -0.38066841290195186 
2.9100000000017165, -0.38250710489559053 
2.9200000000017377, -0.3833756467584798 
2.9300000000017588, -0.38360959024151875 
2.94000000000178, -0.38335212811149655 
2.950000000001801, -0.38258222104845435 
2.960000000001822, -0.3811258134940354 
2.970000000001843, -0.37868028616303046 
2.9800000000018643, -0.3749703304789827 
2.9900000000018854, -0.37011442981450654 
3.0000000000019065, -0.3648537166524432 
3.0100000000019276, -0.36012354690602505 
3.0200000000019487, -0.3564243129067091 
3.03000000000197, -0.35374921472777165 
3.040000000001991, -0.35186595778653207 
3.050000000002012, -0.3505267984901001 
3.060000000002033, -0.3495427445603035 
3.070000000002054, -0.34879470782462163 
3.0800000000020753, -0.34822752578129323 
3.0900000000020964, -0.347845315462295 
3.1000000000021175, -0.3477202964805911 
3.1100000000021386, -0.34803064916538795 
3.1200000000021597, -0.349158490919207 
3.130000000002181, -0.3519248888725969 
3.140000000002202, -0.35816249972359593 
3.150000000002223, -0.37213260475280563 
3.160000000002244, -0.40375545136823277 
3.1700000000022652, -0.4727530157099972 
3.1800000000022863, -0.5968165514268047 
3.1900000000023074, -0.7442599010342278 
3.2000000000023285, -0.8527453585565019 
3.2100000000023496, -0.9101253774441191 
3.2200000000023707, -0.9360885982560183 
3.230000000002392, -0.9472469110074742 
3.240000000002413, -0.9520153376180656 
3.250000000002434, -0.9540126612486456 
3.260000000002455, -0.9547061962080413 
3.2700000000024763, -0.9546406232965658 
3.2800000000024974, -0.9538962760601889 
3.2900000000025185, -0.9521559613170301 
3.3000000000025396, -0.9484419102660878 
3.3100000000025607, -0.9402927629039746 
3.3200000000025818, -0.9218134854722677 
3.330000000002603, -0.8802572008249377 
3.340000000002624, -0.7951807670079168 
3.350000000002645, -0.6586584946199886 
3.360000000002666, -0.5162850592869418 
3.3700000000026873, -0.423814257448748 
3.3800000000027084, -0.37882632669111915 
3.3900000000027295, -0.3586699034563746 
3.4000000000027506, -0.34951308348047483 
3.4100000000027717, -0.3452127013301999 
3.420000000002793, -0.34315520642081665 
3.430000000002814, -0.34219251545041757 
3.440000000002835, -0.3417982266986468 
3.450000000002856, -0.3417256791589768 
3.460000000002877, -0.3418660180052008 
3.4700000000028983, -0.3421906454850799 
3.4800000000029194, -0.342733061870839 
3.4900000000029405, -0.3435904019818999 
3.5000000000029616, -0.34493258493835705 
3.5100000000029827, -0.3470052198702592 
3.520000000003004, -0.3500925177877176 
3.530000000003025, -0.35436186185318275 
3.540000000003046, -0.35954596421939927 
3.550000000003067, -0.36476348536344566 
3.5600000000030882, -0.3689991054807979 
3.5700000000031094, -0.3718263523387842 
3.5800000000031305, -0.37343282422169893 
3.5900000000031516, -0.3741832010566993 
3.6000000000031727, -0.37434337691888103 
3.6100000000031938, -0.3740209725950175 
3.620000000003215, -0.3731681788396757 
3.630000000003236, -0.37157414560159174 
3.640000000003257, -0.3688741761188325 
3.650000000003278, -0.3647137917373221 
3.6600000000032993, -0.35918979813793533 
3.6700000000033204, -0.35316642536169174 
3.6800000000033415, -0.3477685774515396 
3.6900000000033626, -0.3435897408408155 
3.7000000000033837, -0.34060560984010907 
3.710000000003405, -0.33853143898545923 
3.720000000003426, -0.3370760016272792 
3.730000000003447, -0.336022604392702 
3.740000000003468, -0.3352354648493921 
3.750000000003489, -0.3346489459055039 
3.7600000000035103, -0.3342599133259355 
3.7700000000035314, -0.334134486352786 
3.7800000000035525, -0.3344438106713104 
3.7900000000035736, -0.3355592007749884 
3.8000000000035947, -0.3382829350496507 
3.810000000003616, -0.3444160215673233 
3.820000000003637, -0.3581797428792167 
3.830000000003658, -0.3895092550515384 
3.840000000003679, -0.45839595949876966 
3.8500000000037002, -0.582738025383679 
3.8600000000037213, -0.7294170532412173 
3.8700000000037424, -0.8360326466057354 
3.8800000000037635, -0.8924575319540997 
3.8900000000037847, -0.9183865488781406 
3.9000000000038058, -0.929752884549345 
3.910000000003827, -0.9347018202041464 
3.920000000003848, -0.9368196377925067 
3.930000000003869, -0.9375955683663083 
3.94000000000389, -0.9375997241779507 
3.9500000000039113, -0.9369385786418474 
3.9600000000039324, -0.9353322660175536 
3.9700000000039535, -0.9318674029615619 
3.9800000000039746, -0.9241752224058564 
3.9900000000039957, -0.9063619033818323 
4.000000000004016, -0.8652211322847029 
4.010000000003993, -0.7804790203880994 
4.02000000000397, -0.6509612826568523 
4.030000000003946, -0.5259213612638054 
4.040000000003923, -0.447279851156539 
4.0500000000039, -0.4079803699274502 
4.0600000000038765, -0.3894729399801112 
4.070000000003853, -0.3806489916882636 
4.08000000000383, -0.37633882245657363 
4.090000000003807, -0.3742152861764471 
4.100000000003783, -0.3732014348463413 
4.11000000000376, -0.3727804437514486 
4.120000000003737, -0.3726996984513334 
4.130000000003713, -0.3728414916846327 
4.14000000000369, -0.3731678374029839 
4.150000000003667, -0.37370140167314403 
4.1600000000036434, -0.37452465647266825 
4.17000000000362, -0.37578485211598006 
4.180000000003597, -0.3776903239647244 
4.1900000000035735, -0.3804687510128546 
4.20000000000355, -0.3842290198047971 
4.210000000003527, -0.3887108053154646 
4.220000000003504, -0.39317292571710555 
4.23000000000348, -0.3967907711564835 
4.240000000003457, -0.39921326938475415 
4.250000000003434, -0.40058179540146377 
4.26000000000341, -0.4011879552432683 
4.270000000003387, -0.4012435823065929 
4.280000000003364, -0.40081701937630654 
4.2900000000033405, -0.3998143366886711 
4.300000000003317, -0.39793516596683304 
4.310000000003294, -0.3946211292938821 
4.320000000003271, -0.3891849113352282 
4.330000000003247, -0.38145581738002804 
4.340000000003224, -0.3725675607966171 
4.350000000003201, -0.36440214370810936 
4.360000000003177, -0.3580818197292101 
4.370000000003154, -0.35362653610942735 
4.380000000003131, -0.3505816371062111 
4.390000000003107, -0.3484878911861349 
4.400000000003084, -0.3470163897341101 
4.410000000003061, -0.34596488014599763 
4.4200000000030375, -0.34522906220138355 
4.430000000003014, -0.34478197095485413 
4.440000000002991, -0.3446703741082387 
4.450000000002968, -0.3450357129137387 
4.460000000002944, -0.34617599995443454 
4.470000000002921, -0.3486893606291659 
4.480000000002898, -0.353799698561713 
4.490000000002874, -0.36410506610957905 
4.500000000002851, -0.38523539112111616 
4.510000000002828, -0.4286171378483402 
4.520000000002804, -0.5101010608115979 
4.530000000002781, -0.6255276505287231 
4.540000000002758, -0.7282985790013713 
4.5500000000027345, -0.7874248366104359 
4.560000000002711, -0.8142893567442765 
4.570000000002688, -0.8257716794165387 
4.580000000002665, -0.830740856460824 
4.590000000002641, -0.8329021992544486 
4.600000000002618, -0.8337400850210922 
4.610000000002595, -0.8338242982191748 
4.620000000002571, -0.8332867474650648 
4.630000000002548, -0.8319231673945544 
4.640000000002525, -0.8290269725992313 
4.6500000000025015, -0.8228341356772921 
4.660000000002478, -0.8093744690352058 
4.670000000002455, -0.7815677373017829 
4.6800000000024315, -0.7334562854700528 
4.690000000002408, -0.6721214794422327 
4.700000000002385, -0.6163701289811099 
4.710000000002362, -0.5771010661111456 
4.720000000002338, -0.5530385071349943 
4.730000000002315, -0.5391911087946945 
4.740000000002292, -0.5314735255153855 
4.750000000002268, -0.5272979817879597 
4.760000000002245, -0.5251380576381072 
4.770000000002222, -0.5241087959269654 
4.7800000000021985, -0.5237000791026047 
4.790000000002175, -0.5236205564404098 
4.800000000002152, -0.5237074541139922 
4.810000000002129, -0.5238762384732375 
4.820000000002105, -0.5240962159489954 
4.830000000002082, -0.5243818025142238 
4.840000000002059, -0.5247864482734934 
4.850000000002035, -0.5253845381549995 
4.860000000002012, -0.5262339154352879 
4.870000000001989, -0.5273247433211635 
4.880000000001965, -0.5285394889863959 
4.890000000001942, -0.5296731091547028 
