t, s[1].omega / s[0].omega 
0, -1.3799595275852528 
0.009999999999999995, -1.3752807793800925 
0.019999999999999934, -1.3693977997706712 
0.029999999999999874, -1.3626992959816837 
0.04000000000000012, -1.3561339560911603 
0.050000000000000405, -1.3510128661630791 
0.06000000000000069, -1.348190854726678 
0.07000000000000098, -1.34739067926828 
0.08000000000000126, -1.3476292044121654 
0.09000000000000155, -1.3480796238092698 
0.10000000000000184, -1.3483557864957767 
0.11000000000000212, -1.3483428160459354 
0.12000000000000241, -1.3479990831311521 
0.130000000000002, -1.3472448208080043 
0.1400000000000009, -1.3458982264957844 
0.1499999999999998, -1.3436341412465906 
0.1599999999999987, -1.3400378303249503 
0.1699999999999976, -1.3350369355979592 
0.1799999999999965, -1.3301032834373259 
0.1899999999999954, -1.3293640020105717 
0.1999999999999943, -1.3371309033098628 
0.2099999999999932, -1.3522648003045243 
0.2199999999999921, -1.3685512718877582 
0.229999999999991, -1.3811523457338346 
0.2399999999999899, -1.389151179880774 
0.2499999999999888, -1.3936601035771266 
0.2599999999999877, -1.3959909700319522 
0.2699999999999866, -1.3970607887503241 
0.2799999999999855, -1.3974030477487633 
0.2899999999999844, -1.3973058828968956 
0.2999999999999833, -1.3969328903090825 
0.3099999999999822, -1.396418888296195 
0.3199999999999811, -1.3959493727541408 
0.32999999999998, -1.3957851289940193 
0.3399999999999789, -1.3961604545462103 
0.3499999999999778, -1.3971112395946432 
0.35999999999997667, -1.3984445365137268 
0.36999999999997557, -1.3998865071892757 
0.37999999999997447, -1.4012192898721954 
0.38999999999997337, -1.4023136942464354 
0.39999999999997227, -1.4031067319171417 
0.40999999999997117, -1.4035742179220327 
0.41999999999997006, -1.4037124824847544 
0.42999999999996896, -1.403528659266216 
0.43999999999996786, -1.403036798643844 
0.44999999999996676, -1.4022579556786314 
0.45999999999996566, -1.4012240869947807 
0.46999999999996456, -1.399986095061973 
0.47999999999996346, -1.398624756559982 
0.48999999999996235, -1.3972609992995102 
0.49999999999996125, -1.3960551655700597 
0.5099999999999602, -1.3951682063567683 
0.519999999999959, -1.3946731288704952 
0.529999999999958, -1.394491559352011 
0.5399999999999568, -1.3944424797423602 
0.5499999999999557, -1.394343370765323 
0.5599999999999546, -1.3940500117663743 
0.5699999999999535, -1.3934225327261751 
0.5799999999999524, -1.3922588236436488 
0.5899999999999513, -1.3902145679828881 
0.5999999999999502, -1.3867166140828107 
0.6099999999999491, -1.380915068154132 
0.619999999999948, -1.3718296135366286 
0.6299999999999469, -1.3589882558156179 
0.6399999999999458, -1.3436769178717305 
0.6499999999999447, -1.3296754925141456 
0.6599999999999436, -1.3211538200380932 
0.6699999999999425, -1.3188799151222468 
0.6799999999999414, -1.3201797597629525 
0.6899999999999403, -1.322263146223578 
0.6999999999999392, -1.3238730695420795 
0.7099999999999381, -1.3248016824525792 
0.719999999999937, -1.3251729699817563 
0.7299999999999359, -1.325120265676201 
0.7399999999999348, -1.3247051252293398 
0.7499999999999337, -1.3239167394584517 
0.7599999999999326, -1.3227102777256228 
0.7699999999999315, -1.3211344731805184 
0.7799999999999304, -1.319654821636333 
0.7899999999999293, -1.3195997661704102 
0.7999999999999282, -1.3229659376441254 
0.8099999999999271, -1.3307694030017914 
0.819999999999926, -1.341573718207003 
0.8299999999999249, -1.3525720987696026 
0.8399999999999238, -1.3616852393181624 
0.8499999999999227, -1.368242031024838 
0.8599999999999216, -1.3724931095342114 
0.8699999999999205, -1.3750085513134562 
0.8799999999999194, -1.3763390948530054 
0.8899999999999183, -1.3768991519102016 
0.8999999999999172, -1.3769642480815287 
0.9099999999999161, -1.3767117415718135 
0.919999999999915, -1.3762722426482172 
0.9299999999999139, -1.3757767451756577 
0.9399999999999128, -1.3753777213032903 
0.9499999999999117, -1.3752168838601175 
0.9599999999999106, -1.375357313971042 
0.9699999999999095, -1.375755371182046 
0.9799999999999084, -1.376301265374864 
0.9899999999999073, -1.376873074115982 
0.9999999999999062, -1.3773643401040636 
1.0099999999999052, -1.3776919173582098 
1.019999999999904, -1.3777946767498395 
1.029999999999903, -1.3776274000641437 
1.039999999999902, -1.3771547793787582 
1.0499999999999008, -1.3763487932652976 
1.0599999999998997, -1.375189576288829 
1.0699999999998986, -1.3736696836876177 
1.0799999999998975, -1.371803912268215 
1.0899999999998964, -1.3696487207038808 
1.0999999999998953, -1.3673333628775852 
1.1099999999998942, -1.3650898229042918 
1.119999999999893, -1.3632304436195457 
1.129999999999892, -1.3620112421454267 
1.1399999999998909, -1.3614516702403114 
1.1499999999998898, -1.361323685219166 
1.1599999999998887, -1.3613313463579575 
1.1699999999998876, -1.3612556161612943 
1.1799999999998865, -1.360957099002632 
1.1899999999998854, -1.3603045919510097 
1.1999999999998843, -1.3590890810686382 
1.2099999999998832, -1.356923713522873 
1.219999999999882, -1.3531186381722908 
1.229999999999881, -1.3465846600565352 
1.2399999999998799, -1.3360259922017943 
1.2499999999998788, -1.3209805447094882 
1.2599999999998777, -1.3038045245554304 
1.2699999999998766, -1.2901267947075343 
1.2799999999998755, -1.284518295785714 
1.2899999999998744, -1.2859515022052213 
1.2999999999998733, -1.290092328926252 
1.3099999999998722, -1.2938629610722208 
1.319999999999871, -1.2963715288476427 
1.32999999999987, -1.2977708850952343 
1.3399999999998689, -1.2984036672105437 
1.3499999999998678, -1.2985230802491456 
1.3599999999998666, -1.2982634859987916 
1.3699999999998655, -1.2976719624381068 
1.3799999999998644, -1.2967586797953934 
1.3899999999998633, -1.2955982402606918 
1.3999999999998622, -1.2945423087524264 
1.4099999999998611, -1.294490049290569 
1.41999999999986, -1.2967843964620296 
1.429999999999859, -1.302262645491372 
1.4399999999998578, -1.310263598581535 
1.4499999999998567, -1.3190182185581485 
1.4599999999998556, -1.3269011346317756 
1.4699999999998545, -1.333092542340074 
1.4799999999998534, -1.3374765999660387 
1.4899999999998523, -1.3403106496146473 
1.4999999999998512, -1.3419669616382663 
1.5099999999998501, -1.3427918500104192 
1.519999999999849, -1.3430522810777439 
1.529999999999848, -1.3429353530468513 
1.5399999999998468, -1.342574558377738 
1.5499999999998457, -1.3420859776176428 
1.5599999999998446, -1.3415981128032874 
1.5699999999998435, -1.34125108814292 
1.5799999999998424, -1.3411527528436564 
1.5899999999998413, -1.3413286114291263 
1.5999999999998402, -1.3417201063662867 
1.6099999999998391, -1.3422248380871538 
1.619999999999838, -1.3427340007106912 
1.629999999999837, -1.3431515410712689 
1.6399999999998358, -1.3434014609074938 
1.6499999999998347, -1.3434270986535042 
1.6599999999998336, -1.343186067776716 
1.6699999999998325, -1.342645958256694 
1.6799999999998314, -1.3417831193693825 
1.6899999999998303, -1.3405841294065133 
1.6999999999998292, -1.3390500531321987 
1.709999999999828, -1.337205611845041 
1.719999999999827, -1.3351161873567263 
1.729999999999826, -1.3329125860288191 
1.7399999999998248, -1.3308102658189263 
1.7499999999998237, -1.329081748020824 
1.7599999999998226, -1.3279400538706312 
1.7699999999998215, -1.3273958264010668 
1.7799999999998204, -1.3272505546830498 
1.7899999999998193, -1.327241320595481 
1.7999999999998182, -1.3271639962106447 
1.809999999999817, -1.3268824241064263 
1.819999999999816, -1.3262706159401563 
1.8299999999998149, -1.325139084800178 
1.8399999999998138, -1.3231517575914518 
1.8499999999998127, -1.3197283678423524 
1.8599999999998116, -1.3139693742585024 
1.8699999999998105, -1.3047626081472523 
1.8799999999998094, -1.2914041059432486 
1.8899999999998083, -1.2749153880646567 
1.8999999999998072, -1.259005546897982 
1.909999999999806, -1.2483133495490988 
1.919999999999805, -1.2445033323853063 
1.9299999999998039, -1.2453446307595444 
1.9399999999998028, -1.2477064559238238 
1.9499999999998017, -1.2498180239090524 
1.9599999999998006, -1.2512028240496023 
1.9699999999997995, -1.2519284122581138 
1.9799999999997984, -1.2521582366787614 
1.9899999999997973, -1.252003821596771 
1.9999999999997962, -1.2514990598953282 
2.0099999999998173, -1.250607542249837 
2.0199999999998384, -1.2492535673075413 
2.0299999999998595, -1.247431298858248 
2.0399999999998806, -1.2455054739766689 
2.0499999999999017, -1.2447202654571796 
2.059999999999923, -1.2473387133542793 
2.069999999999944, -1.2552903451176425 
2.079999999999965, -1.2679538153249965 
2.089999999999986, -1.282135218388367 
2.100000000000007, -1.2945740405005328 
2.1100000000000283, -1.3037539818238812 
2.1200000000000494, -1.3097475387995254 
2.1300000000000705, -1.3133146247596763 
2.1400000000000916, -1.3152588995441694 
2.1500000000001127, -1.3161849198022042 
2.160000000000134, -1.3164814923067751 
2.170000000000155, -1.3163809974655907 
2.180000000000176, -1.3160285589113998 
2.190000000000197, -1.3155463530413238 
2.2000000000002182, -1.3150886191127804 
2.2100000000002393, -1.3148600811719813 
2.2200000000002604, -1.3150552637401733 
2.2300000000002815, -1.3157442508023904 
2.2400000000003026, -1.3168259350408484 
2.2500000000003237, -1.3181018392464119 
2.260000000000345, -1.3193783455445298 
2.270000000000366, -1.3205153185824874 
2.280000000000387, -1.3214272069785549 
2.290000000000408, -1.322068326771396 
2.3000000000004293, -1.322418626913858 
2.3100000000004504, -1.3224741696926086 
2.3200000000004715, -1.3222422114292658 
2.3300000000004926, -1.3217395192094228 
2.3400000000005137, -1.3209930156135505 
2.3500000000005348, -1.320042875793471 
2.360000000000556, -1.3189477816453263 
2.370000000000577, -1.3177895952094947 
2.380000000000598, -1.3166730572641039 
2.390000000000619, -1.3157157144287452 
2.4000000000006403, -1.315019797706071 
2.4100000000006614, -1.3146247480722768 
2.4200000000006825, -1.31447412313512 
2.4300000000007036, -1.3144390286764007 
2.4400000000007247, -1.3143766902937368 
2.450000000000746, -1.314163979058032 
2.460000000000767, -1.3136869716735649 
2.470000000000788, -1.312807891398543 
2.480000000000809, -1.3113314345931135 
2.49000000000083, -1.308984953087132 
2.5000000000008513, -1.3054299962043765 
2.5100000000008724, -1.3003297472750144 
2.5200000000008935, -1.2934972724170604 
2.5300000000009146, -1.2851332213912434 
2.5400000000009357, -1.2760863714137556 
2.550000000000957, -1.2678689476188416 
2.560000000000978, -1.2620367504502243 
2.570000000000999, -1.2591563681029574 
2.58000000000102, -1.258504696371904 
2.5900000000010412, -1.2588841091443208 
2.6000000000010624, -1.259442686835736 
2.6100000000010835, -1.2598115475145557 
2.6200000000011046, -1.2598909862416214 
2.6300000000011257, -1.2596572411650317 
2.6400000000011468, -1.259060470775689 
2.650000000001168, -1.2579679833425146 
2.660000000001189, -1.2561147612593686 
2.67000000000121, -1.253068418734172 
2.680000000001231, -1.248315451230313 
2.6900000000012523, -1.241760976142929 
2.7000000000012734, -1.2349076231287242 
2.7100000000012945, -1.2317208771208494 
2.7200000000013156, -1.2363443354218928 
2.7300000000013367, -1.2483358524820158 
2.740000000001358, -1.2625284789569904 
2.750000000001379, -1.2742164087597927 
2.7600000000014, -1.281983412932011 
2.770000000001421, -1.2865229398356168 
2.780000000001442, -1.2889545184028826 
2.7900000000014633, -1.290130236576029 
2.8000000000014844, -1.2905653664677736 
2.8100000000015055, -1.2905388120433128 
2.8200000000015266, -1.2901940648549934 
2.8300000000015477, -1.2896202692338357 
2.840000000001569, -1.28893768377789 
2.85000000000159, -1.2884031476853208 
2.860000000001611, -1.288474660147419 
2.870000000001632, -1.2896724950600118 
2.8800000000016532, -1.292212757123099 
2.8900000000016743, -1.2957850857889728 
2.9000000000016954, -1.2997635678681727 
2.9100000000017165, -1.303570679559416 
2.9200000000017377, -1.3068492613528488 
2.9300000000017588, -1.309445430181753 
2.94000000000178, -1.3113375977903172 
2.950000000001801, -1.312579732849068 
2.960000000001822, -1.3132646403356953 
2.970000000001843, -1.3134983974778924 
2.9800000000018643, -1.3133832007200783 
2.9900000000018854, -1.3130111529983561 
3.0000000000019065, -1.3124697471582836 
3.0100000000019276, -1.3118529838698592 
3.0200000000019487, -1.311264577779414 
3.03000000000197, -1.3108017884333054 
3.040000000001991, -1.310527988197252 
3.050000000002012, -1.3104566079514914 
3.060000000002033, -1.3105530233793954 
3.070000000002054, -1.3107450043407771 
3.0800000000020753, -1.3109395884425694 
3.0900000000020964, -1.3110434242390714 
3.1000000000021175, -1.3109746112792338 
3.1100000000021386, -1.3106615986449053 
3.1200000000021597, -1.3100373535785121 
3.130000000002181, -1.3090377540719151 
3.140000000002202, -1.3076064965278156 
3.150000000002223, -1.3057041339686548 
3.160000000002244, -1.303319926456817 
3.1700000000022652, -1.3004901961681554 
3.1800000000022863, -1.2973296120159223 
3.1900000000023074, -1.2940723299904422 
3.2000000000023285, -1.291086078794946 
3.2100000000023496, -1.2887815159169844 
3.2200000000023707, -1.287396193039326 
3.230000000002392, -1.2868321505593507 
3.240000000002413, -1.2867506895357042 
3.250000000002434, -1.2868084371908224 
3.260000000002455, -1.2867823147800663 
3.2700000000024763, -1.28654535958451 
3.2800000000024974, -1.285989536244435 
3.2900000000025185, -1.2849486821345981 
3.3000000000025396, -1.2831172920326888 
3.3100000000025607, -1.2799497584792863 
3.3200000000025818, -1.2745628064558403 
3.330000000002603, -1.2657852373506082 
3.340000000002624, -1.2527091198815272 
3.350000000002645, -1.2360444382568017 
3.360000000002666, -1.2193656164988433 
3.3700000000026873, -1.20768180515379 
3.3800000000027084, -1.2033196356085472 
3.3900000000027295, -1.2043211305093018 
3.4000000000027506, -1.2072736011086709 
3.4100000000027717, -1.2100250775897043 
3.420000000002793, -1.2119167386395608 
3.430000000002814, -1.2129996945424244 
3.440000000002835, -1.2134826232820957 
3.450000000002856, -1.213530029823892 
3.460000000002877, -1.2132231209850848 
3.4700000000028983, -1.2125654837417277 
3.4800000000029194, -1.2114996584125006 
3.4900000000029405, -1.2099537340131556 
3.5000000000029616, -1.207990508343315 
3.5100000000029827, -1.2061651685263595 
3.520000000003004, -1.2060093060859103 
3.530000000003025, -1.2099093635042357 
3.540000000003046, -1.2194544675315828 
3.550000000003067, -1.2334354669681944 
3.5600000000030882, -1.2483488830486535 
3.5700000000031094, -1.261010495853212 
3.5800000000031305, -1.2701298438450777 
3.5900000000031516, -1.275969466248005 
3.6000000000031727, -1.2793913617679615 
3.6100000000031938, -1.2812321026275837 
3.620000000003215, -1.2820944951727855 
3.630000000003236, -1.2823549879143605 
3.640000000003257, -1.2822334011932535 
3.650000000003278, -1.2818647162224805 
3.6600000000032993, -1.2813645622421457 
3.6700000000033204, -1.280889751519116 
3.6800000000033415, -1.280669425249687 
3.6900000000033626, -1.28095195016735 
3.7000000000033837, -1.281866376181786 
3.710000000003405, -1.2833281739387343 
3.720000000003426, -1.285098567733861 
3.730000000003447, -1.2869194600512923 
3.740000000003468, -1.2885971804572858 
3.750000000003489, -1.290014588443031 
3.7600000000035103, -1.2911120755368575 
3.7700000000035314, -1.2918670233427196 
3.7800000000035525, -1.2922804411423885 
3.7900000000035736, -1.292369902302934 
3.8000000000035947, -1.2921656089989944 
3.810000000003616, -1.2917078369225483 
3.820000000003637, -1.2910465500310582 
3.830000000003658, -1.290244137436542 
3.840000000003679, -1.2893784879724877 
3.8500000000037002, -1.2885400077658564 
3.8600000000037213, -1.2878193537258777 
3.8700000000037424, -1.2872893740667755 
3.8800000000037635, -1.2869842957854059 
3.8900000000037847, -1.2868809484992283 
3.9000000000038058, -1.2868991105075813 
3.910000000003827, -1.2869290724983393 
3.920000000003848, -1.2868631077082073 
3.930000000003869, -1.2866052920023263 
3.94000000000389, -1.286061054334199 
3.9500000000039113, -1.2851230285508617 
3.9600000000039324, -1.2836666152802554 
3.9700000000039535, -1.2815610577536498 
3.9800000000039746, -1.2786953742716418 
3.9900000000039957, -1.275015505445224 
4.000000000004016, -1.2705731221541106 
4.010000000003993, -1.2655907976338687 
4.02000000000397, -1.2605263093947006 
4.030000000003946, -1.2560498320570612 
4.040000000003923, -1.2528087376017312 
4.0500000000039, -1.2510476360224012 
4.0600000000038765, -1.250465049342421 
4.070000000003853, -1.250497170667678 
4.08000000000383, -1.2506783087117674 
4.090000000003807, -1.250754393261246 
4.100000000003783, -1.250609719245762 
4.11000000000376, -1.2501637127363292 
4.120000000003737, -1.249291002794828 
4.130000000003713, -1.247749034538734 
4.14000000000369, -1.2450884815359402 
4.150000000003667, -1.2405513928112533 
4.1600000000036434, -1.2330608484961272 
4.17000000000362, -1.2216172570147863 
4.180000000003597, -1.206509157367408 
4.1900000000035735, -1.19079879859058 
4.20000000000355, -1.1795577288147523 
4.210000000003527, -1.175805555674151 
4.220000000003504, -1.1779781456264282 
4.23000000000348, -1.1823594228509955 
4.240000000003457, -1.1863560475586195 
4.250000000003434, -1.189137401315015 
4.26000000000341, -1.1907973312733788 
4.270000000003387, -1.1916493153648866 
4.280000000003364, -1.1919516776947765 
4.2900000000033405, -1.1918564790494581 
4.300000000003317, -1.1914232372630527 
4.310000000003294, -1.1906412478881636 
4.320000000003271, -1.1894610363122693 
4.330000000003247, -1.1878754089685284 
4.340000000003224, -1.1861306462225107 
4.350000000003201, -1.1851121454064648 
4.360000000003177, -1.1866157793518899 
4.370000000003154, -1.192692748088581 
4.380000000003131, -1.2038590856487859 
4.390000000003107, -1.2180472308978787 
4.400000000003084, -1.2319534394713043 
4.410000000003061, -1.2431954583710791 
4.4200000000030375, -1.2510821332237854 
4.430000000003014, -1.256063911567297 
4.440000000002991, -1.2589555355597073 
4.450000000002968, -1.2604868701734526 
4.460000000002944, -1.2611709771378545 
4.470000000002921, -1.2613262173182496 
4.480000000002898, -1.2611401790071088 
4.490000000002874, -1.2607340653748926 
4.500000000002851, -1.2602236869616077 
4.510000000002828, -1.25977570557537 
4.520000000002804, -1.2596292869145702 
4.530000000002781, -1.2600298970852146 
4.540000000002758, -1.2610884271740708 
4.5500000000027345, -1.2627004147133105 
4.560000000002711, -1.2646162141114343 
4.570000000002688, -1.2665740221851025 
4.580000000002665, -1.2683784184690494 
4.590000000002641, -1.269910481765296 
4.600000000002618, -1.271108990138459 
4.610000000002595, -1.2719506751551974 
4.620000000002571, -1.27243765489361 
4.630000000002548, -1.2725906505726319 
4.640000000002525, -1.2724444659615184 
4.6500000000025015, -1.2720442428461787 
4.660000000002478, -1.271443976661127 
4.670000000002455, -1.2707087262509318 
4.6800000000024315, -1.269917598072577 
4.690000000002408, -1.2691603029257716 
4.700000000002385, -1.2685234063556863 
4.710000000002362, -1.2680716572614927 
4.720000000002338, -1.2678313039386366 
4.730000000002315, -1.2677784163566472 
4.740000000002292, -1.267840625112175 
4.750000000002268, -1.2679185670315636 
4.760000000002245, -1.2679125918685785 
4.770000000002222, -1.2677344588567299 
4.7800000000021985, -1.2673024831548265 
4.790000000002175, -1.2665327930160584 
4.800000000002152, -1.2653377889380397 
4.810000000002129, -1.263635103841188 
4.820000000002105, -1.26136393012456 
4.830000000002082, -1.2585042947458054 
4.840000000002059, -1.255099943791715 
4.850000000002035, -1.25129075667102 
4.860000000002012, -1.2473523333881218 
4.870000000001989, -1.2437061360681452 
4.880000000001965, -1.2408237657577392 
4.890000000001942, -1.2390018357872543 
4.900000000001919, -1.2381762006319674 
4.9100000000018955, -1.2379936339631084 
4.920000000001872, -1.2380611345095454 
4.930000000001849, -1.2381090008461944 
4.940000000001826, -1.2379906518138781 
