t, s[1].omega / s[0].omega 
0, -0.6199749048473999 
0.009999999999999995, -0.6175274221497753 
0.019999999999999934, -0.6152634539938957 
0.029999999999999874, -0.6132344661780846 
0.04000000000000012, -0.6114531520292888 
0.050000000000000405, -0.6099123443107345 
0.06000000000000069, -0.6085996998744047 
0.07000000000000098, -0.6075059051280284 
0.08000000000000126, -0.60662775439045 
0.09000000000000155, -0.6059682147088702 
0.10000000000000184, -0.6055351599376451 
0.11000000000000212, -0.6053398615945002 
0.12000000000000241, -0.6053959014102771 
0.130000000000002, -0.6057188858213257 
0.1400000000000009, -0.6063270651794637 
0.1499999999999998, -0.6072425830427769 
0.1599999999999987, -0.6084925163708574 
0.1699999999999976, -0.6101080291597941 
0.1799999999999965, -0.6121188754398379 
0.1899999999999954, -0.6145396916253805 
0.1999999999999943, -0.6173457888440691 
0.2099999999999932, -0.6204427566763959 
0.2199999999999921, -0.6236475569753877 
0.229999999999991, -0.6267088448668082 
0.2399999999999899, -0.6293771734994416 
0.2499999999999888, -0.6314889633718738 
0.2599999999999877, -0.6330047887489464 
0.2699999999999866, -0.6339832237682728 
0.2799999999999855, -0.6345249796222989 
0.2899999999999844, -0.6347272250785712 
0.2999999999999833, -0.6346607914783078 
0.3099999999999822, -0.6343632993126065 
0.3199999999999811, -0.6338378019210672 
0.32999999999998, -0.6330496680595956 
0.3399999999999789, -0.6319169397990125 
0.3499999999999778, -0.6302895544216323 
0.35999999999997667, -0.6279114997517193 
0.36999999999997557, -0.6243613548522451 
0.37999999999997447, -0.618985472401435 
0.38999999999997337, -0.6109075234053085 
0.39999999999997227, -0.5993209318418002 
0.40999999999997117, -0.5842159003506251 
0.41999999999997006, -0.5670528045391067 
0.42999999999996896, -0.5503414492504064 
0.43999999999996786, -0.5362266283665279 
0.44999999999996676, -0.5255683548555983 
0.45999999999996566, -0.5181349008641468 
0.46999999999996456, -0.5132242855524922 
0.47999999999996346, -0.5101046879915165 
0.48999999999996235, -0.5081878464653526 
0.49999999999996125, -0.5070520532369598 
0.5099999999999602, -0.5064120740090547 
0.519999999999959, -0.5060810697863853 
0.529999999999958, -0.5059390367404802 
0.5399999999999568, -0.5059100661227244 
0.5499999999999557, -0.5059471271642082 
0.5599999999999546, -0.5060225824258711 
0.5699999999999535, -0.5061229431829705 
0.5799999999999524, -0.5062465604228704 
0.5899999999999513, -0.5064026986847964 
0.5999999999999502, -0.5066099003870588 
0.6099999999999491, -0.5068914194974059 
0.619999999999948, -0.507266622583226 
0.6299999999999469, -0.5077396983847777 
0.6399999999999458, -0.508289871489026 
0.6499999999999447, -0.5088690946444322 
0.6599999999999436, -0.5094115592490842 
0.6699999999999425, -0.5098525956454555 
0.6799999999999414, -0.5101467569075673 
0.6899999999999403, -0.5102748950580318 
0.6999999999999392, -0.5102388600530994 
0.7099999999999381, -0.5100502915646529 
0.719999999999937, -0.5097202349166688 
0.7299999999999359, -0.5092521617274948 
0.7399999999999348, -0.5086375388800028 
0.7499999999999337, -0.5078516358588088 
0.7599999999999326, -0.5068463717424394 
0.7699999999999315, -0.5055346860333944 
0.7799999999999304, -0.5037551376798273 
0.7899999999999293, -0.5011961850843357 
0.7999999999999282, -0.49726204786602873 
0.8099999999999271, -0.4909415340206761 
0.819999999999926, -0.48099148614031373 
0.8299999999999249, -0.46688694824531474 
0.8399999999999238, -0.4500304860065761 
0.8499999999999227, -0.433389155694449 
0.8599999999999216, -0.41948620375701146 
0.8699999999999205, -0.4091869264990421 
0.8799999999999194, -0.4021039524099136 
0.8899999999999183, -0.39742885413167384 
0.8999999999999172, -0.3944094765562003 
0.9099999999999161, -0.3924865171163197 
0.919999999999915, -0.3912814904598968 
0.9299999999999139, -0.3905491441816683 
0.9399999999999128, -0.3901341798408439 
0.9499999999999117, -0.3899403574374857 
0.9599999999999106, -0.38991052540785753 
0.9699999999999095, -0.3900145613742962 
0.9799999999999084, -0.3902427411182867 
0.9899999999999073, -0.39060274166583214 
0.9999999999999062, -0.39111877379609433 
1.0099999999999052, -0.3918311019421273 
1.019999999999904, -0.3927934997211165 
1.029999999999903, -0.39406521779504017 
1.039999999999902, -0.3956934257386034 
1.0499999999999008, -0.39768391183943874 
1.0599999999998997, -0.3999664020194521 
1.0699999999998986, -0.4023771409532486 
1.0799999999998975, -0.40468862282697593 
1.0899999999998964, -0.40668664001401655 
1.0999999999998953, -0.40824440513939975 
1.1099999999998942, -0.4093411394302418 
1.119999999999893, -0.41002742153229976 
1.129999999999892, -0.4103772118255895 
1.1399999999998909, -0.41045473867814997 
1.1499999999998898, -0.41029927516635745 
1.1599999999998887, -0.40991961950590294 
1.1699999999998876, -0.4092906693729373 
1.1799999999998865, -0.4083485095644983 
1.1899999999998854, -0.40698529591488697 
1.1999999999998843, -0.4050525496720141 
1.2099999999998832, -0.402391503549486 
1.219999999999882, -0.3989102370034455 
1.229999999999881, -0.3946916050427117 
1.2399999999998799, -0.3900457426838896 
1.2499999999998788, -0.3854185168541706 
1.2599999999998777, -0.38120500104108024 
1.2699999999998766, -0.37762180206330204 
1.2799999999998755, -0.37470689988910805 
1.2899999999998744, -0.37239038731274 
1.2999999999998733, -0.37056401944861456 
1.3099999999998722, -0.3691227030684991 
1.319999999999871, -0.36798197718717357 
1.32999999999987, -0.3670822818291436 
1.3399999999998689, -0.366387993003232 
1.3499999999998678, -0.3658856682351402 
1.3599999999998666, -0.3655837863208932 
1.3699999999998655, -0.3655153145025848 
1.3799999999998644, -0.36574429521305885 
1.3899999999998633, -0.36637802683135134 
1.3999999999998622, -0.3675870161428227 
1.4099999999998611, -0.3696349537733784 
1.41999999999986, -0.3729181432079044 
1.429999999999859, -0.3780014460090647 
1.4399999999998578, -0.38560170031803004 
1.4499999999998567, -0.3963982989752243 
1.4599999999998556, -0.4105107581078177 
1.4699999999998545, -0.42676088067583307 
1.4799999999998534, -0.4425900725691821 
1.4899999999998523, -0.4554398309979679 
1.4999999999998512, -0.4643517135906965 
1.5099999999998501, -0.46993790359496296 
1.519999999999849, -0.47330313860508977 
1.529999999999848, -0.4753355121477851 
1.5399999999998468, -0.4765828814224845 
1.5499999999998457, -0.4773511068584943 
1.5599999999998446, -0.4778071553517681 
1.5699999999998435, -0.47804222111166084 
1.5799999999998424, -0.4781046318615029 
1.5899999999998413, -0.4780163268960588 
1.5999999999998402, -0.47778169908121554 
1.6099999999998391, -0.47739402152963056 
1.619999999999838, -0.4768429375850565 
1.629999999999837, -0.4761248980956597 
1.6399999999998358, -0.4752552061200735 
1.6499999999998347, -0.4742757454457128 
1.6599999999998336, -0.4732509867795988 
1.6699999999998325, -0.47225122277589004 
1.6799999999998314, -0.4713319538140996 
1.6899999999998303, -0.4705209840362129 
1.6999999999998292, -0.4698178733371129 
1.709999999999828, -0.46920255597814603 
1.719999999999827, -0.46864714881561487 
1.729999999999826, -0.4681260631972507 
1.7399999999998248, -0.46762202184264334 
1.7499999999998237, -0.46712820654182846 
1.7599999999998226, -0.4666485160493935 
1.7699999999998215, -0.46619829833462045 
1.7799999999998204, -0.4658074906710887 
1.7899999999998193, -0.46552777110765253 
1.7999999999998182, -0.4654455660618839 
1.809999999999817, -0.46570345721894724 
1.819999999999816, -0.46653290949661785 
1.8299999999998149, -0.4682988918042567 
1.8399999999998138, -0.47154513392284014 
1.8499999999998127, -0.4769927921877336 
1.8599999999998116, -0.48537172606658174 
1.8699999999998105, -0.49691308816156854 
1.8799999999998094, -0.5105897171829112 
1.8899999999998083, -0.523967423214346 
1.8999999999998072, -0.5345802982416175 
1.909999999999806, -0.54161631069091 
1.919999999999805, -0.5458453700441782 
1.9299999999998039, -0.5483973746210398 
1.9399999999998028, -0.5500454388092707 
1.9499999999998017, -0.5511809844142266 
1.9599999999998006, -0.5519837103410646 
1.9699999999997995, -0.5525417335578298 
1.9799999999997984, -0.5529051616646328 
1.9899999999997973, -0.5531050228732642 
1.9999999999997962, -0.5531589353025776 
2.0099999999998173, -0.5530726244398007 
2.0199999999998384, -0.5528407446435466 
2.0299999999998595, -0.5524488790004878 
2.0399999999998806, -0.5518785728061706 
2.0499999999999017, -0.5511168894360192 
2.059999999999923, -0.5501694244251054 
2.069999999999944, -0.5490707866682067 
2.079999999999965, -0.5478836787811011 
2.089999999999986, -0.5466832295424325 
2.100000000000007, -0.5455346976493048 
2.1100000000000283, -0.544477750800334 
2.1200000000000494, -0.5435239931601746 
2.1300000000000705, -0.5426649348809744 
2.1400000000000916, -0.5418836250874273 
2.1500000000001127, -0.5411645840407748 
2.160000000000134, -0.5404999235063538 
2.170000000000155, -0.5398922601627298 
2.180000000000176, -0.5393562845672741 
2.190000000000197, -0.5389207884979716 
2.2000000000002182, -0.5386323326698552 
2.2100000000002393, -0.5385612119670726 
2.2200000000002604, -0.5388101417793292 
2.2300000000002815, -0.5395259721068179 
2.2400000000003026, -0.5409142849458967 
2.2500000000003237, -0.5432550108214145 
2.260000000000345, -0.5469122829757881 
2.270000000000366, -0.5523204367897712 
2.280000000000387, -0.559908537946624 
2.290000000000408, -0.5699107769229234 
2.3000000000004293, -0.5820541864294541 
2.3100000000004504, -0.5952974879087651 
2.3200000000004715, -0.6080006849671898 
2.3300000000004926, -0.6186536618389077 
2.3400000000005137, -0.6265771611197001 
2.3500000000005348, -0.6319586181615364 
2.360000000000556, -0.6354003855522986 
2.370000000000577, -0.6375148948789311 
2.380000000000598, -0.6387620894465708 
2.390000000000619, -0.6394417728511815 
2.4000000000006403, -0.6397331598341458 
2.4100000000006614, -0.6397325081115438 
2.4200000000006825, -0.63947692933924 
2.4300000000007036, -0.6389550161037547 
2.4400000000007247, -0.6381072986374074 
2.450000000000746, -0.6368205508787512 
2.460000000000767, -0.6349241401678981 
2.470000000000788, -0.6322059810413265 
2.480000000000809, -0.6284739495109818 
2.49000000000083, -0.623671356244229 
2.5000000000008513, -0.6179900625110459 
2.5100000000008724, -0.611869119584404 
2.5200000000008935, -0.6058400525285599 
2.5300000000009146, -0.6003339588737835 
2.5400000000009357, -0.5955871203426926 
2.550000000000957, -0.5916611423825329 
2.560000000000978, -0.5885110195153197 
2.570000000000999, -0.5860458161674351 
2.58000000000102, -0.5841650480486441 
2.5900000000010412, -0.5827751358908749 
2.6000000000010624, -0.581794588203332 
2.6100000000010835, -0.5811543270791375 
2.6200000000011046, -0.580796630516119 
2.6300000000011257, -0.5806741524579414 
2.6400000000011468, -0.580749416167164 
2.650000000001168, -0.5809947365592589 
2.660000000001189, -0.5813923984369966 
2.67000000000121, -0.5819348274807685 
2.680000000001231, -0.5826242154821055 
2.6900000000012523, -0.5834705157653213 
2.7000000000012734, -0.5844861503764103 
2.7100000000012945, -0.5856758907041913 
2.7200000000013156, -0.5870222745434883 
2.7300000000013367, -0.5884713283018489 
2.740000000001358, -0.5899286405919648 
2.750000000001379, -0.5912756442043616 
2.7600000000014, -0.5924036547884655 
2.770000000001421, -0.5932461239802195 
2.780000000001442, -0.593788573621864 
2.7900000000014633, -0.5940546688226076 
2.8000000000014844, -0.5940831566007266 
2.8100000000015055, -0.5939092466730613 
2.8200000000015266, -0.5935543261603387 
2.8300000000015477, -0.5930214641757703 
2.840000000001569, -0.592292855907935 
2.85000000000159, -0.5913260614834748 
2.860000000001611, -0.5900460055128138 
2.870000000001632, -0.5883276877159986 
2.8800000000016532, -0.5859592786991108 
2.8900000000016743, -0.5825693334529518 
2.9000000000016954, -0.5775182393296188 
2.9100000000017165, -0.5698619307036693 
2.9200000000017377, -0.5587156783021004 
2.9300000000017588, -0.5442264353728605 
2.94000000000178, -0.5282754586434182 
2.950000000001801, -0.5135751074941421 
2.960000000001822, -0.5019532931794968 
2.970000000001843, -0.4937527414072309 
2.9800000000018643, -0.4883966327710346 
2.9900000000018854, -0.48507677237003294 
3.0000000000019065, -0.4830991630299521 
3.0100000000019276, -0.481965201352289 
3.0200000000019487, -0.4813455953782261 
3.03000000000197, -0.48103206543711297 
3.040000000001991, -0.4808959057763964 
3.050000000002012, -0.4808586879391442 
3.060000000002033, -0.4808733075942837 
3.070000000002054, -0.48091256584087977 
3.0800000000020753, -0.4809630472358705 
3.0900000000020964, -0.4810226226322577 
3.1000000000021175, -0.48109994181515275 
3.1100000000021386, -0.4812138236017033 
3.1200000000021597, -0.4813901414159199 
3.130000000002181, -0.4816545895026859 
3.140000000002202, -0.4820218843911098 
3.150000000002223, -0.48248468092650354 
3.160000000002244, -0.4830075804381246 
3.1700000000022652, -0.48353153922064473 
3.1800000000022863, -0.4839894912402789 
3.1900000000023074, -0.48432597768467617 
3.2000000000023285, -0.484509571413868 
3.2100000000023496, -0.48453254687439723 
3.2200000000023707, -0.4844015215543154 
3.230000000002392, -0.4841262569845754 
3.240000000002413, -0.4837108835589423 
3.250000000002434, -0.4831477087555224 
3.260000000002455, -0.4824113818256651 
3.2700000000024763, -0.48144986272571344 
3.2800000000024974, -0.4801664859930518 
3.2900000000025185, -0.47838272507867885 
3.3000000000025396, -0.47576486486811503 
3.3100000000025607, -0.47170409590772266 
3.3200000000025818, -0.4652138115296487 
3.330000000002603, -0.45512348851380013 
3.340000000002624, -0.44096071742977594 
3.350000000002645, -0.4240682958829554 
3.360000000002666, -0.40729518183291935 
3.3700000000026873, -0.3931198896715207 
3.3800000000027084, -0.38244942351296335 
3.3900000000027295, -0.374960379125828 
3.4000000000027506, -0.3698918231607968 
3.4100000000027717, -0.36651766804585895 
3.420000000002793, -0.36428978676549983 
3.430000000002814, -0.36283268554141757 
3.440000000002835, -0.3619004280099022 
3.450000000002856, -0.3613360393413602 
3.460000000002877, -0.36104218854584347 
3.4700000000028983, -0.3609622267773686 
3.4800000000029194, -0.3610689080784343 
3.4900000000029405, -0.36135854351612745 
3.5000000000029616, -0.36184900909126666 
3.5100000000029827, -0.3625803529891731 
3.520000000003004, -0.36361647474510306 
3.530000000003025, -0.3650452029106094 
3.540000000003046, -0.3669717096526942 
3.550000000003067, -0.3694966828307076 
3.5600000000030882, -0.37266920258344954 
3.5700000000031094, -0.3764154349142712 
3.5800000000031305, -0.3804802937196289 
3.5900000000031516, -0.3844564928875395 
3.6000000000031727, -0.3879326452383399 
3.6100000000031938, -0.39066177481560155 
3.620000000003215, -0.39261267858830606 
3.630000000003236, -0.393896982282641 
3.640000000003257, -0.3946684005289792 
3.650000000003278, -0.3950605117748904 
3.6600000000032993, -0.3951657719868444 
3.6700000000033204, -0.39503532994640833 
3.6800000000033415, -0.3946842430757546 
3.6900000000033626, -0.39409601920648807 
3.7000000000033837, -0.3932267745836696 
3.710000000003405, -0.3920137510777171 
3.720000000003426, -0.3903959316426156 
3.730000000003447, -0.3883515024642271 
3.740000000003468, -0.3859407107303082 
3.750000000003489, -0.3833205699244574 
3.7600000000035103, -0.3807038666957119 
3.7700000000035314, -0.37828306745429907 
3.7800000000035525, -0.3761740393203283 
3.7900000000035736, -0.3744084614269329 
3.8000000000035947, -0.3729595260887043 
3.810000000003616, -0.3717736003829248 
3.820000000003637, -0.3707933551367177 
3.830000000003658, -0.36997045254418065 
3.840000000003679, -0.3692707697938497 
3.8500000000037002, -0.3686756809610131 
3.8600000000037213, -0.36818227458420694 
3.8700000000037424, -0.36780465573582466 
3.8800000000037635, -0.36757802605401235 
3.8900000000037847, -0.36756726559236863 
3.9000000000038058, -0.36788231326497256 
3.910000000003827, -0.3687034922877335 
3.920000000003848, -0.37031983185951717 
3.930000000003869, -0.37317809854778694 
3.94000000000389, -0.3779172685296808 
3.9500000000039113, -0.38529776622879064 
3.9600000000039324, -0.3958240470386648 
3.9700000000039535, -0.4089031111961984 
3.9800000000039746, -0.42213067531570425 
3.9900000000039957, -0.43229924094120326 
4.000000000004016, -0.4379407481710573 
4.010000000003993, -0.44008547679670673 
4.02000000000397, -0.44054578645207104 
4.030000000003946, -0.4405163892667572 
4.040000000003923, -0.4404698984690838 
4.0500000000039, -0.44050562708160246 
4.0600000000038765, -0.44060061349757784 
4.070000000003853, -0.440713208401122 
4.08000000000383, -0.4408114264089611 
4.090000000003807, -0.44087511680800084 
4.100000000003783, -0.4408920931391423 
4.11000000000376, -0.44085462877517567 
4.120000000003737, -0.44075797252186844 
4.130000000003713, -0.4406012005158117 
4.14000000000369, -0.4403900985117648 
4.150000000003667, -0.4401407448190774 
4.1600000000036434, -0.4398811430400033 
4.17000000000362, -0.43964800102030416 
4.180000000003597, -0.43947789708078283 
4.1900000000035735, -0.43939561180172404 
4.20000000000355, -0.43940448214625 
4.210000000003527, -0.43948308067865594 
4.220000000003504, -0.4395903212180915 
4.23000000000348, -0.43967761651472054 
4.240000000003457, -0.43970263374977503 
4.250000000003434, -0.4396379188634426 
4.26000000000341, -0.4394714027739844 
4.270000000003387, -0.43920106227622374 
4.280000000003364, -0.43882798133680445 
4.2900000000033405, -0.43835048448530306 
4.300000000003317, -0.4377595634630732 
4.310000000003294, -0.437034005431986 
4.320000000003271, -0.43613188870452885 
4.330000000003247, -0.4349716425868384 
4.340000000003224, -0.43338834739119836 
4.350000000003201, -0.4310398974771886 
4.360000000003177, -0.42724427923780334 
4.370000000003154, -0.42083896044560076 
4.380000000003131, -0.41046577586424027 
4.390000000003107, -0.3957573340249058 
4.400000000003084, -0.3785590511290932 
4.410000000003061, -0.3620991424508072 
4.4200000000030375, -0.3487174943109301 
4.430000000003014, -0.3389557796308635 
4.440000000002991, -0.3322480559210793 
4.450000000002968, -0.3277614709939879 
4.460000000002944, -0.32478807484755007 
4.470000000002921, -0.3228240318196077 
4.480000000002898, -0.3215367826098273 
4.490000000002874, -0.3207147032035105 
4.500000000002851, -0.3202269178665822 
4.510000000002828, -0.3199964869902927 
4.520000000002804, -0.31998419981908965 
4.530000000002781, -0.3201799302195254 
4.540000000002758, -0.32059943479830244 
4.5500000000027345, -0.3212852674575869 
4.560000000002711, -0.3223107437477852 
4.570000000002688, -0.3237852290633604 
4.580000000002665, -0.3258566398166436 
4.590000000002641, -0.32870158037567876 
4.600000000002618, -0.332484806243677 
4.610000000002595, -0.33726621759806297 
4.620000000002571, -0.3428640456378386 
4.630000000002548, -0.34877212321059253 
4.640000000002525, -0.35428670627795156 
4.6500000000025015, -0.35882890485898294 
4.660000000002478, -0.3621832302961918 
4.670000000002455, -0.36446040783830913 
4.6800000000024315, -0.3659103556087975 
4.690000000002408, -0.3667759595442938 
4.700000000002385, -0.3672373247180246 
4.710000000002362, -0.3674095994926295 
4.720000000002338, -0.367357084529763 
4.730000000002315, -0.3671071765789965 
4.740000000002292, -0.36666088765594995 
4.750000000002268, -0.3660021197764838 
4.760000000002245, -0.3651096874202416 
4.770000000002222, -0.3639750985764182 
4.7800000000021985, -0.3626235708315674 
4.790000000002175, -0.361126753059933 
4.800000000002152, -0.35959314395685693 
4.810000000002129, -0.35813633537126166 
4.820000000002105, -0.35684058534120244 
4.830000000002082, -0.3557439668393873 
4.840000000002059, -0.35484225587980245 
4.850000000002035, -0.35410382690362435 
4.860000000002012, -0.3534857478630473 
4.870000000001989, -0.3529461876007797 
4.880000000001965, -0.3524517300326533 
4.890000000001942, -0.3519800285148954 
