t, s[1].omega / s[0].omega 
0, -0.9599953578577753 
0.009999999999999995, -0.9594677494675263 
0.019999999999999934, -0.9588215121993178 
0.029999999999999874, -0.9580696528439114 
0.04000000000000012, -0.9572310811736833 
0.050000000000000405, -0.9563337845010308 
0.06000000000000069, -0.9554169818797028 
0.07000000000000098, -0.9545310626882401 
0.08000000000000126, -0.9537340912867286 
0.09000000000000155, -0.9530840782272598 
0.10000000000000184, -0.9526280657965456 
0.11000000000000212, -0.9523914092799697 
0.12000000000000241, -0.9523714068048708 
0.130000000000002, -0.9525379209651323 
0.1400000000000009, -0.9528407880193297 
0.1499999999999998, -0.9532209864195151 
0.1599999999999987, -0.9536212661397376 
0.1699999999999976, -0.9539931556257188 
0.1799999999999965, -0.9542997906094858 
0.1899999999999954, -0.954515616008193 
0.1999999999999943, -0.9546241009936163 
0.2099999999999932, -0.9546144942916781 
0.2199999999999921, -0.9544792040637097 
0.229999999999991, -0.9542135598319804 
0.2399999999999899, -0.9538182694724331 
0.2499999999999888, -0.9533028884251815 
0.2599999999999877, -0.9526883445644894 
0.2699999999999866, -0.9520080831218977 
0.2799999999999855, -0.9513083648829973 
0.2899999999999844, -0.9506472527295118 
0.2999999999999833, -0.9500902311046555 
0.3099999999999822, -0.9497007889435979 
0.3199999999999811, -0.949527502963468 
0.32999999999998, -0.949592670067641 
0.3399999999999789, -0.9498876865479134 
0.3499999999999778, -0.9503768091889391 
0.35999999999997667, -0.9510068987983994 
0.36999999999997557, -0.9517188660618169 
0.37999999999997447, -0.9524569563505427 
0.38999999999997337, -0.9531737656351552 
0.39999999999997227, -0.9538308765925201 
0.40999999999997117, -0.9543964928443043 
0.41999999999997006, -0.9548424220006213 
0.42999999999996896, -0.955143136932503 
0.43999999999996786, -0.9552785091819519 
0.44999999999996676, -0.9552389356635047 
0.45999999999996566, -0.9550293351777179 
0.46999999999996456, -0.9546696557463109 
0.47999999999996346, -0.9541930490794714 
0.48999999999996235, -0.9536447324238878 
0.49999999999996125, -0.9530828781499908 
0.5099999999999602, -0.952579328155528 
0.519999999999959, -0.9522155106421482 
0.529999999999958, -0.9520703185352767 
0.5399999999999568, -0.9522024096351245 
0.5499999999999557, -0.9526352073935712 
0.5599999999999546, -0.9533525543547394 
0.5699999999999535, -0.954306183147166 
0.5799999999999524, -0.9554295688544855 
0.5899999999999513, -0.9566512602408856 
0.5999999999999502, -0.9579033156617079 
0.6099999999999491, -0.9591238794043873 
0.619999999999948, -0.9602557493946486 
0.6299999999999469, -0.9612446865910238 
0.6399999999999458, -0.9620414303397453 
0.6499999999999447, -0.9626086651909761 
0.6599999999999436, -0.9629293445139868 
0.6699999999999425, -0.9630103341629107 
0.6799999999999414, -0.9628788579017803 
0.6899999999999403, -0.96257537616058 
0.6999999999999392, -0.9621489200976387 
0.7099999999999381, -0.9616581729533655 
0.719999999999937, -0.9611768566868465 
0.7299999999999359, -0.9607977412449846 
0.7399999999999348, -0.9606275803049724 
0.7499999999999337, -0.9607685850567019 
0.7599999999999326, -0.9612917559212756 
0.7699999999999315, -0.9622162787444914 
0.7799999999999304, -0.9635067144997678 
0.7899999999999293, -0.9650870691349626 
0.7999999999999282, -0.9668609495424334 
0.8099999999999271, -0.9687273567583541 
0.819999999999926, -0.9705881202393603 
0.8299999999999249, -0.972349257361048 
0.8399999999999238, -0.9739220724962945 
0.8499999999999227, -0.9752295027328195 
0.8599999999999216, -0.9762181285415522 
0.8699999999999205, -0.9768690727823376 
0.8799999999999194, -0.9771991904002096 
0.8899999999999183, -0.977251100625884 
0.8999999999999172, -0.977079383553208 
0.9099999999999161, -0.9767418555829046 
0.919999999999915, -0.9763000837542727 
0.9299999999999139, -0.9758278290418062 
0.9399999999999128, -0.9754218100218994 
0.9499999999999117, -0.9752053388107094 
0.9599999999999106, -0.9753146776564264 
0.9699999999999095, -0.975866449248288 
0.9799999999999084, -0.976920626958479 
0.9899999999999073, -0.9784615269800231 
0.9999999999999062, -0.9804066804908583 
1.0099999999999052, -0.9826330860807702 
1.019999999999904, -0.9850029912728478 
1.029999999999903, -0.9873791972487089 
1.039999999999902, -0.9896312079390942 
1.0499999999999008, -0.991639969507044 
1.0599999999998997, -0.9933081413252787 
1.0699999999998986, -0.9945752728524928 
1.0799999999998975, -0.9954284717160033 
1.0899999999998964, -0.9958990248460428 
1.0999999999998953, -0.9960459691513094 
1.1099999999998942, -0.9959373563778225 
1.119999999999893, -0.9956395548778069 
1.129999999999892, -0.9952182219699655 
1.1399999999998909, -0.9947488616098698 
1.1499999999998898, -0.9943310461601417 
1.1599999999998887, -0.9940960431683867 
1.1699999999998876, -0.9941950638259429 
1.1799999999998865, -0.9947631752623769 
1.1899999999998854, -0.9958739005344942 
1.1999999999998843, -0.99751297606502 
1.2099999999998832, -0.9995867809447899 
1.219999999999882, -1.0019540848364645 
1.229999999999881, -1.0044583101934494 
1.2399999999998799, -1.0069470485179706 
1.2499999999998788, -1.009280131112882 
1.2599999999998777, -1.0113351418074539 
1.2699999999998766, -1.013017676920907 
1.2799999999998755, -1.0142751446428562 
1.2899999999998744, -1.0151045003307921 
1.2999999999998733, -1.015545645216806 
1.3099999999998722, -1.0156632611263048 
1.319999999999871, -1.0155283864453095 
1.32999999999987, -1.0152092953298335 
1.3399999999998689, -1.0147742572010197 
1.3499999999998678, -1.0143031721967493 
1.3599999999998666, -1.0139009351591919 
1.3699999999998655, -1.0137008967596886 
1.3799999999998644, -1.0138463199843954 
1.3899999999998633, -1.0144500162999068 
1.3999999999998622, -1.01555352321146 
1.4099999999998611, -1.0171133647101223 
1.41999999999986, -1.0190207951563073 
1.429999999999859, -1.0211366440174576 
1.4399999999998578, -1.0233198190828836 
1.4499999999998567, -1.0254413585633277 
1.4599999999998556, -1.027388258895948 
1.4699999999998545, -1.0290656782815941 
1.4799999999998534, -1.030403458790311 
1.4899999999998523, -1.0313656933900615 
1.4999999999998512, -1.0319557134285895 
1.5099999999998501, -1.0322103515240182 
1.519999999999849, -1.032186010932652 
1.529999999999848, -1.031945485718964 
1.5399999999998468, -1.0315529166685298 
1.5499999999998457, -1.031078342760512 
1.5599999999998446, -1.0306076224469798 
1.5699999999998435, -1.0302487020362654 
1.5799999999998424, -1.030122977402572 
1.5899999999998413, -1.030337153156855 
1.5999999999998402, -1.0309478419126434 
1.6099999999998391, -1.0319422706205534 
1.619999999999838, -1.033247242365484 
1.629999999999837, -1.0347563996332163 
1.6399999999998358, -1.0363573133363067 
1.6499999999998347, -1.037947722775056 
1.6599999999998336, -1.039440669285869 
1.6699999999998325, -1.0407636262305602 
1.6799999999998314, -1.0418576124407837 
1.6899999999998303, -1.0426800392130482 
1.6999999999998292, -1.04321039830417 
1.709999999999828, -1.0434538199984738 
1.719999999999827, -1.0434383908744587 
1.729999999999826, -1.0432076814146904 
1.7399999999998248, -1.0428142233637527 
1.7499999999998237, -1.0423185334427436 
1.7599999999998226, -1.0417932892562813 
1.7699999999998215, -1.0413267991690263 
1.7799999999998204, -1.0410171309425356 
1.7899999999998193, -1.0409524795671046 
1.7999999999998182, -1.0411852012847043 
1.809999999999817, -1.0417157131879962 
1.819999999999816, -1.0424961540912594 
1.8299999999998149, -1.0434487705989925 
1.8399999999998138, -1.0444869088726167 
1.8499999999998127, -1.0455301947898168 
1.8599999999998116, -1.0465116717326566 
1.8699999999998105, -1.0473784864099425 
1.8799999999998094, -1.0480893704837289 
1.8899999999998083, -1.0486124397915684 
1.8999999999998072, -1.0489256907435398 
1.909999999999806, -1.0490199926922295 
1.919999999999805, -1.0489018776175998 
1.9299999999998039, -1.0485936235531528 
1.9399999999998028, -1.0481311376737967 
1.9499999999998017, -1.047562456042953 
1.9599999999998006, -1.0469483536314685 
1.9699999999997995, -1.0463625446823899 
1.9799999999997984, -1.0458860548107698 
1.9899999999997973, -1.045592686004348 
1.9999999999997962, -1.0455301717114767 
2.0099999999998173, -1.0457073029939379 
2.0199999999998384, -1.0460938194478238 
2.0299999999998595, -1.046631282709256 
2.0399999999998806, -1.0472484744346648 
2.0499999999999017, -1.0478754118321398 
2.059999999999923, -1.0484524799565815 
2.069999999999944, -1.0489339122061718 
2.079999999999965, -1.0492870509233125 
2.089999999999986, -1.049489632407385 
2.100000000000007, -1.0495271801253396 
2.1100000000000283, -1.0493920776010202 
2.1200000000000494, -1.0490847633332412 
2.1300000000000705, -1.0486159916789062 
2.1400000000000916, -1.0480086943120832 
2.1500000000001127, -1.0472990648135543 
2.160000000000134, -1.046537169753928 
2.170000000000155, -1.0457860862989012 
2.180000000000176, -1.0451167499173128 
2.190000000000197, -1.044596643472923 
2.2000000000002182, -1.0442748682492538 
2.2100000000002393, -1.0441698448043264 
2.2200000000002604, -1.044264909929024 
2.2300000000002815, -1.044513162415164 
2.2400000000003026, -1.0448494039172485 
2.2500000000003237, -1.0452044208903526 
2.260000000000345, -1.0455162476313702 
2.270000000000366, -1.045735807142551 
2.280000000000387, -1.0458280320247584 
2.290000000000408, -1.0457707944222494 
2.3000000000004293, -1.0455529282206615 
2.3100000000004504, -1.0451718436311928 
2.3200000000004715, -1.0446316590675955 
2.3300000000004926, -1.043943010857735 
2.3400000000005137, -1.0431247548015663 
2.3500000000005348, -1.0422066248486739 
2.360000000000556, -1.0412315360439408 
2.370000000000577, -1.0402560224028314 
2.380000000000598, -1.0393468404775223 
2.390000000000619, -1.0385722522796432 
2.4000000000006403, -1.037988884399709 
2.4100000000006614, -1.0376278957994773 
2.4200000000006825, -1.0374855268426033 
2.4300000000007036, -1.0375226025278832 
2.4400000000007247, -1.0376744401719584 
2.450000000000746, -1.0378668191887848 
2.460000000000767, -1.0380300916202576 
2.470000000000788, -1.0381065109718328 
2.480000000000809, -1.0380518733890718 
2.49000000000083, -1.0378353128543456 
2.5000000000008513, -1.0374393971065614 
2.5100000000008724, -1.036859871407846 
2.5200000000008935, -1.0361038269217304 
2.5300000000009146, -1.0351869128770432 
2.5400000000009357, -1.03413172338868 
2.550000000000957, -1.0329686930195296 
2.560000000000978, -1.031738788870752 
2.570000000000999, -1.0304958527254775 
2.58000000000102, -1.0293060219590515 
2.5900000000010412, -1.028242059087625 
2.6000000000010624, -1.0273718832473144 
2.6100000000010835, -1.0267430995449789 
2.6200000000011046, -1.0263683856940118 
2.6300000000011257, -1.0262189409494478 
2.6400000000011468, -1.026231295397503 
2.650000000001168, -1.0263248076415903 
2.660000000001189, -1.0264198236866666 
2.67000000000121, -1.026448026402075 
2.680000000001231, -1.026354484565515 
2.6900000000012523, -1.026096481259251 
2.7000000000012734, -1.0256437497870383 
2.7100000000012945, -1.0249807913467508 
2.7200000000013156, -1.0241085723697863 
2.7300000000013367, -1.023043049713746 
2.740000000001358, -1.0218112397597556 
2.750000000001379, -1.020448074711211 
2.7600000000014, -1.0189963343316286 
2.770000000001421, -1.0175089810268045 
2.780000000001442, -1.0160510642299632 
2.7900000000014633, -1.0146979080005507 
2.8000000000014844, -1.0135271774422492 
2.8100000000015055, -1.0126044829952459 
2.8200000000015266, -1.011965669592365 
2.8300000000015477, -1.0116032567714417 
2.840000000001569, -1.0114658288838017 
2.85000000000159, -1.0114727135417256 
2.860000000001611, -1.011535522614607 
2.870000000001632, -1.0115744065444328 
2.8800000000016532, -1.0115237304365212 
2.8900000000016743, -1.011330666978135 
2.9000000000016954, -1.0109532351502908 
2.9100000000017165, -1.0103617252207233 
2.9200000000017377, -1.0095427616266113 
2.9300000000017588, -1.0085020009833119 
2.94000000000178, -1.0072623542941685 
2.950000000001801, -1.0058588887223538 
2.960000000001822, -1.0043345342580612 
2.970000000001843, -1.002739367329507 
2.9800000000018643, -1.001132636641176 
2.9900000000018854, -0.9995842450159499 
3.0000000000019065, -0.9981720955563558 
3.0100000000019276, -0.9969729640730378 
3.0200000000019487, -0.996047114840968 
3.03000000000197, -0.9954208908274487 
3.040000000001991, -0.9950756329318692 
3.050000000002012, -0.9949508895540985 
3.060000000002033, -0.9949616803923723 
3.070000000002054, -0.9950197389952118 
3.0800000000020753, -0.9950476150728159 
3.0900000000020964, -0.9949824442189042 
3.1000000000021175, -0.9947738902060392 
3.1100000000021386, -0.9943824891468062 
3.1200000000021597, -0.9937815445025079 
3.130000000002181, -0.9929611667102641 
3.140000000002202, -0.9919302926271005 
3.150000000002223, -0.9907140011403259 
3.160000000002244, -0.9893478748960731 
3.1700000000022652, -0.9878737054299297 
3.1800000000022863, -0.9863390137934145 
3.1900000000023074, -0.9847992278557186 
3.2000000000023285, -0.9833192217043291 
3.2100000000023496, -0.9819709267795573 
3.2200000000023707, -0.9808251004001886 
3.230000000002392, -0.9799376986355822 
3.240000000002413, -0.9793345818181075 
3.250000000002434, -0.9790014296174749 
3.260000000002455, -0.978885524837378 
3.2700000000024763, -0.978909875046033 
3.2800000000024974, -0.9789919907645432 
3.2900000000025185, -0.9790577420605192 
3.3000000000025396, -0.979046540788883 
3.3100000000025607, -0.978910855980242 
3.3200000000025818, -0.978615186271886 
3.330000000002603, -0.9781372344065306 
3.340000000002624, -0.977470159025357 
3.350000000002645, -0.9766227153770501 
3.360000000002666, -0.9756157608945969 
3.3700000000026873, -0.9744772435964697 
3.3800000000027084, -0.9732392574354953 
3.3900000000027295, -0.9719386676668383 
3.4000000000027506, -0.9706198289261938 
3.4100000000027717, -0.9693365359605041 
3.420000000002793, -0.9681505965105108 
3.430000000002814, -0.9671255348156219 
3.440000000002835, -0.9663157356622746 
3.450000000002856, -0.965753652384017 
3.460000000002877, -0.9654397869628232 
3.4700000000028983, -0.9653405603363263 
3.4800000000029194, -0.9653962154157835 
3.4900000000029405, -0.9655352603121459 
3.5000000000029616, -0.9656883503891486 
3.5100000000029827, -0.965796508242061 
3.520000000003004, -0.9658136925475521 
3.530000000003025, -0.965706867229055 
3.540000000003046, -0.9654560335526916 
3.550000000003067, -0.9650541044350305 
3.5600000000030882, -0.9645051186430023 
3.5700000000031094, -0.963820600690676 
3.5800000000031305, -0.9630161407570867 
3.5900000000031516, -0.9621105276722736 
3.6000000000031727, -0.9611277255924133 
3.6100000000031938, -0.9601000277463907 
3.620000000003215, -0.9590702954394767 
3.630000000003236, -0.9580915568118241 
3.640000000003257, -0.9572226533511504 
3.650000000003278, -0.9565196214120464 
3.6600000000032993, -0.9560244773147349 
3.6700000000033204, -0.9557549993548724 
3.6800000000033415, -0.9556995341342944 
3.6900000000033626, -0.955819320299943 
3.7000000000033837, -0.9560576954515636 
3.710000000003405, -0.9563522867042737 
3.720000000003426, -0.9566453555236831 
3.730000000003447, -0.956889708353253 
3.740000000003468, -0.9570506376641263 
3.750000000003489, -0.957105519106227 
3.7600000000035103, -0.9570419584659424 
3.7700000000035314, -0.9568547946694741 
3.7800000000035525, -0.956542997349459 
3.7900000000035736, -0.9561083070989582 
3.8000000000035947, -0.9555565927123206 
3.810000000003616, -0.9549009315076304 
3.820000000003637, -0.9541645754341642 
3.830000000003658, -0.9533827684193943 
3.840000000003679, -0.9526030711365765 
3.8500000000037002, -0.9518832722701861 
3.8600000000037213, -0.951285328675264 
3.8700000000037424, -0.9508650184241991 
3.8800000000037635, -0.9506599806127488 
3.8900000000037847, -0.9506808852352714 
3.9000000000038058, -0.9509094486274885 
3.910000000003827, -0.9513037877786557 
3.920000000003848, -0.9518085760439728 
3.930000000003869, -0.9523660256351805 
3.94000000000389, -0.952924222885564 
3.9500000000039113, -0.9534412401455098 
3.9600000000039324, -0.9538853404630994 
3.9700000000039535, -0.954232565462131 
3.9800000000039746, -0.9544634861038437 
3.9900000000039957, -0.9545613200191271 
4.000000000004016, -0.9545131099644566 
4.010000000003993, -0.9543135195419611 
4.02000000000397, -0.9539686700197845 
4.030000000003946, -0.9534978217778372 
4.040000000003923, -0.9529332103796767 
4.0500000000039, -0.9523198355785653 
4.0600000000038765, -0.9517156649267147 
4.070000000003853, -0.9511899741305336 
4.08000000000383, -0.9508163835936457 
4.090000000003807, -0.9506597018861307 
4.100000000003783, -0.9507608401716661 
4.11000000000376, -0.9511270757053175 
4.120000000003737, -0.9517322837492633 
4.130000000003713, -0.9525259034674765 
4.14000000000369, -0.9534455564369155 
4.150000000003667, -0.9544281846247926 
4.1600000000036434, -0.9554166818202731 
4.17000000000362, -0.956361465115882 
4.180000000003597, -0.9572185128812924 
4.1900000000035735, -0.957946880343369 
4.20000000000355, -0.9585090645993273 
4.210000000003527, -0.9588757374641173 
4.220000000003504, -0.9590325346468049 
4.23000000000348, -0.9589841233693818 
4.240000000003457, -0.95875293675089 
4.250000000003434, -0.9583748137988299 
4.26000000000341, -0.9578961224849291 
4.270000000003387, -0.9573748825207822 
4.280000000003364, -0.95688415474458 
4.2900000000033405, -0.9565122969480871 
4.300000000003317, -0.956354126697966 
4.310000000003294, -0.9564918973100038 
4.320000000003271, -0.9569735878364563 
4.330000000003247, -0.9578004253972804 
4.340000000003224, -0.9589299553037106 
4.350000000003201, -0.9602906440699386 
4.360000000003177, -0.9617987363435754 
4.370000000003154, -0.963370163997156 
4.380000000003131, -0.9649253203535239 
4.390000000003107, -0.9663888345753351 
4.400000000003084, -0.9676890844418542 
4.410000000003061, -0.9687622146200627 
4.4200000000030375, -0.969561643811649 
4.430000000003014, -0.9700679816804095 
4.440000000002991, -0.9702918842392385 
4.450000000002968, -0.9702675367589105 
4.460000000002944, -0.9700420906840194 
4.470000000002921, -0.9696686852953192 
4.480000000002898, -0.9692070692965805 
4.490000000002874, -0.9687306667532092 
4.500000000002851, -0.9683344748670054 
4.510000000002828, -0.9681349280410302 
4.520000000002804, -0.9682538858749744 
4.530000000002781, -0.9687882675151274 
4.540000000002758, -0.9697801807960624 
4.5500000000027345, -0.9712054142537822 
4.560000000002711, -0.972984971531573 
4.570000000002688, -0.9750086201410978 
4.580000000002665, -0.9771559678116386 
4.590000000002641, -0.979307983783475 
4.600000000002618, -0.9813507923300635 
4.610000000002595, -0.9831785843861732 
4.620000000002571, -0.984702011519903 
4.630000000002548, -0.985862100628319 
4.640000000002525, -0.986641526459937 
4.6500000000025015, -0.9870638450190519 
4.660000000002478, -0.9871801900199018 
4.670000000002455, -0.9870525470751167 
4.6800000000024315, -0.9867435325563179 
4.690000000002408, -0.98631680457207 
4.700000000002385, -0.9858465299228962 
4.710000000002362, -0.9854302596508155 
4.720000000002338, -0.9851954137789743 
4.730000000002315, -0.9852875855506198 
4.740000000002292, -0.9858365170838599 
4.750000000002268, -0.9869138468692767 
4.760000000002245, -0.9885085593361366 
4.770000000002222, -0.9905342111823023 
4.7800000000021985, -0.9928578219264896 
4.790000000002175, -0.9953297233828051 
4.800000000002152, -0.9978019241259549 
4.810000000002129, -1.0001358511037195 
4.820000000002105, -1.0022077990327367 
4.830000000002082, -1.0039194253280095 
4.840000000002059, -1.0052125146278064 
4.850000000002035, -1.0060784137353738 
4.860000000002012, -1.0065530098482915 
4.870000000001989, -1.0066990706427785 
4.880000000001965, -1.0065871556371189 
4.890000000001942, -1.0062852807281584 
4.900000000001919, -1.0058605525977065 
4.9100000000018955, -1.005390287020936 
4.920000000001872, -1.0049761915773006 
4.930000000001849, -1.0047507160908409 
