t, s[1].omega / s[0].omega 
0, -0.8199114916258085 
0.009999999999999995, -0.8109752238340608 
0.019999999999999934, -0.8024035376779256 
0.029999999999999874, -0.7948437973175354 
0.04000000000000012, -0.7886700256832933 
0.050000000000000405, -0.7839863873452564 
0.06000000000000069, -0.7806913333256537 
0.07000000000000098, -0.778556739656538 
0.08000000000000126, -0.7773015828866605 
0.09000000000000155, -0.7766504203275356 
0.10000000000000184, -0.7763704174666523 
0.11000000000000212, -0.7762856854044131 
0.12000000000000241, -0.7762738891222003 
0.130000000000002, -0.7762534018029071 
0.1400000000000009, -0.776168550176201 
0.1499999999999998, -0.7759778173386362 
0.1599999999999987, -0.7756475055868103 
0.1699999999999976, -0.775151768290011 
0.1799999999999965, -0.774477989395909 
0.1899999999999954, -0.7736334550904458 
0.1999999999999943, -0.7726470821636136 
0.2099999999999932, -0.7715624553882405 
0.2199999999999921, -0.7704252928416854 
0.229999999999991, -0.7692730386320333 
0.2399999999999899, -0.7681318519470868 
0.2499999999999888, -0.7670203227045185 
0.2599999999999877, -0.7659557583450007 
0.2699999999999866, -0.764959336715922 
0.2799999999999855, -0.7640585099906393 
0.2899999999999844, -0.763286551702685 
0.2999999999999833, -0.7626796665404318 
0.3099999999999822, -0.7622723335239026 
0.3199999999999811, -0.7620920085213727 
0.32999999999998, -0.7621547427748704 
0.3399999999999789, -0.762463164095681 
0.3499999999999778, -0.7630074419104399 
0.35999999999997667, -0.7637686752436974 
0.36999999999997557, -0.764723167395633 
0.37999999999997447, -0.7658456175429155 
0.38999999999997337, -0.7671093840605308 
0.39999999999997227, -0.7684826913331506 
0.40999999999997117, -0.7699213610275213 
0.41999999999997006, -0.7713616927713426 
0.42999999999996896, -0.7727202158186545 
0.43999999999996786, -0.7739061562190168 
0.44999999999996676, -0.7748442450587039 
0.45999999999996566, -0.7754950641812195 
0.46999999999996456, -0.7758598915769823 
0.47999999999996346, -0.7759693591440356 
0.48999999999996235, -0.7758664384339762 
0.49999999999996125, -0.7755942492852793 
0.5099999999999602, -0.7751929049261854 
0.519999999999959, -0.7747053563733836 
0.529999999999958, -0.7741918758804589 
0.5399999999999568, -0.77375395984844 
0.5499999999999557, -0.7735680466072785 
0.5599999999999546, -0.7739250197972559 
0.5699999999999535, -0.7752615378875749 
0.5799999999999524, -0.7781554301058429 
0.5899999999999513, -0.7832466848923423 
0.5999999999999502, -0.7910506019549656 
0.6099999999999491, -0.8016695867269232 
0.619999999999948, -0.8145063372052125 
0.6299999999999469, -0.8282077440120335 
0.6399999999999458, -0.8410545932165867 
0.6499999999999447, -0.8516659414546002 
0.6599999999999436, -0.8594948291941791 
0.6699999999999425, -0.8647673550826065 
0.6799999999999414, -0.8680784085546598 
0.6899999999999403, -0.870036804607064 
0.6999999999999392, -0.8711090154380905 
0.7099999999999381, -0.8716022074596308 
0.719999999999937, -0.871697760384011 
0.7299999999999359, -0.8714874941632903 
0.7399999999999348, -0.8709978853700637 
0.7499999999999337, -0.8702015528870843 
0.7599999999999326, -0.869019676119122 
0.7699999999999315, -0.8673219167340591 
0.7799999999999304, -0.8649365799245722 
0.7899999999999293, -0.8616943955726162 
0.7999999999999282, -0.857535757309104 
0.8099999999999271, -0.8526839896407544 
0.819999999999926, -0.8477927619168328 
0.8299999999999249, -0.8438729797072574 
0.8399999999999238, -0.841893184817861 
0.8499999999999227, -0.8422626229440533 
0.8599999999999216, -0.844593900584543 
0.8699999999999205, -0.8479545664353558 
0.8799999999999194, -0.8513946852083183 
0.8899999999999183, -0.8543175183277277 
0.8999999999999172, -0.8565170766739673 
0.9099999999999161, -0.8580301714082446 
0.919999999999915, -0.8589846058678692 
0.9299999999999139, -0.8595102974365967 
0.9399999999999128, -0.8597031441555607 
0.9499999999999117, -0.8596150320170759 
0.9599999999999106, -0.8592508289306178 
0.9699999999999095, -0.8585619458891053 
0.9799999999999084, -0.8574310582672142 
0.9899999999999073, -0.8556462305143455 
0.9999999999999062, -0.8528706004967825 
1.0099999999999052, -0.848633843624787 
1.019999999999904, -0.8424045010809659 
1.029999999999903, -0.8338106181056159 
1.039999999999902, -0.8229733198695476 
1.0499999999999008, -0.8107109637829912 
1.0599999999998997, -0.7983451225286362 
1.0699999999998986, -0.7871886542650098 
1.0799999999998975, -0.7781022245324658 
1.0899999999998964, -0.7713647900859635 
1.0999999999998953, -0.7667979447556342 
1.1099999999998942, -0.763975212187854 
1.119999999999893, -0.7624038862325272 
1.129999999999892, -0.7616407041500788 
1.1399999999998909, -0.7613431321492531 
1.1499999999998898, -0.7612743675666775 
1.1599999999998887, -0.7612835569097972 
1.1699999999998876, -0.7612785109425405 
1.1799999999998865, -0.7612010106709399 
1.1899999999998854, -0.7610087473293812 
1.1999999999998843, -0.760664820255013 
1.2099999999998832, -0.7601349875250867 
1.219999999999882, -0.7593925857291677 
1.229999999999881, -0.7584289608735932 
1.2399999999998799, -0.7572630964268254 
1.2499999999998788, -0.7559420597298796 
1.2599999999998777, -0.7545291833355737 
1.2699999999998766, -0.7530866658130884 
1.2799999999998755, -0.7516631914662083 
1.2899999999998744, -0.7502916517849577 
1.2999999999998733, -0.7489944128772147 
1.3099999999998722, -0.747790620486972 
1.319999999999871, -0.7467015463926238 
1.32999999999987, -0.7457525786005309 
1.3399999999998689, -0.7449720955007413 
1.3499999999998678, -0.7443881016051763 
1.3599999999998666, -0.7440237972380674 
1.3699999999998655, -0.7438934834821463 
1.3799999999998644, -0.7440001604945315 
1.3899999999998633, -0.7443356376133515 
1.3999999999998622, -0.7448830531203331 
1.4099999999998611, -0.7456207957567109 
1.41999999999986, -0.7465262766254716 
1.429999999999859, -0.7475778842087062 
1.4399999999998578, -0.7487536769021549 
1.4499999999998567, -0.7500260942163657 
1.4599999999998556, -0.7513537889839368 
1.4699999999998545, -0.7526748251449945 
1.4799999999998534, -0.7539081255554545 
1.4899999999998523, -0.7549678766923326 
1.4999999999998512, -0.7557864116754197 
1.5099999999998501, -0.7563320022062581 
1.519999999999849, -0.756610556219765 
1.529999999999848, -0.756653133350783 
1.5399999999998468, -0.7565001258002582 
1.5499999999998457, -0.7561911387275988 
1.5599999999998446, -0.7557635819791698 
1.5699999999998435, -0.7552597571397289 
1.5799999999998424, -0.7547425139460188 
1.5899999999998413, -0.7543208608026488 
1.5999999999998402, -0.7541865744110959 
1.6099999999998391, -0.7546583636181525 
1.619999999999838, -0.7562193692945627 
1.629999999999837, -0.7595167874906249 
1.6399999999998358, -0.7652748389964305 
1.6499999999998347, -0.7740708110191237 
1.6599999999998336, -0.785974379835014 
1.6699999999998325, -0.8001959905975428 
1.6799999999998314, -0.8150733149449163 
1.6899999999998303, -0.8286459213228496 
1.6999999999998292, -0.839520750729718 
1.709999999999828, -0.8473218894902059 
1.719999999999827, -0.8524623295535273 
1.729999999999826, -0.8556438924047072 
1.7399999999998248, -0.8575091872020565 
1.7499999999998237, -0.8585232269180615 
1.7599999999998226, -0.8589819482479724 
1.7699999999998215, -0.8590554416918748 
1.7799999999998204, -0.8588255733356013 
1.7899999999998193, -0.8583081749129017 
1.7999999999998182, -0.8574603188446396 
1.809999999999817, -0.8561750472826061 
1.819999999999816, -0.8542665965755984 
1.8299999999998149, -0.851453041456246 
1.8399999999998138, -0.8473542380540865 
1.8499999999998127, -0.8415425061004294 
1.8599999999998116, -0.8337010977972078 
1.8699999999998105, -0.8239214900130868 
1.8799999999998094, -0.81303509692007 
1.8899999999998083, -0.8026338694026224 
1.8999999999998072, -0.7944406669548365 
1.909999999999806, -0.7893681721280672 
1.919999999999805, -0.7871660978360946 
1.9299999999998039, -0.78689136100563 
1.9399999999998028, -0.7875666904930828 
1.9499999999998017, -0.7885184224874603 
1.9599999999998006, -0.7893954864269328 
1.9699999999997995, -0.7900616860164932 
1.9799999999997984, -0.7904887236494458 
1.9899999999997973, -0.79068697592158 
1.9999999999997962, -0.7906685595066771 
2.0099999999998173, -0.7904286112508273 
2.0199999999998384, -0.7899340546563967 
2.0299999999998595, -0.7891144479900402 
2.0399999999998806, -0.7878551238040186 
2.0499999999999017, -0.7859998911253417 
2.059999999999923, -0.783377883895777 
2.069999999999944, -0.7798669613827136 
2.079999999999965, -0.7754792088264096 
2.089999999999986, -0.7704126947498555 
2.100000000000007, -0.7650147368755877 
2.1100000000000283, -0.7596728556564813 
2.1200000000000494, -0.7547100891898092 
2.1300000000000705, -0.7503382646519894 
2.1400000000000916, -0.7466634192694581 
2.1500000000001127, -0.7437117481225635 
2.160000000000134, -0.7414540238707018 
2.170000000000155, -0.7398227654928642 
2.180000000000176, -0.7387249380522684 
2.190000000000197, -0.7380537698136305 
2.2000000000002182, -0.7377006240754677 
2.2100000000002393, -0.7375653696672801 
2.2200000000002604, -0.7375631665247907 
2.2300000000002815, -0.7376268671633258 
2.2400000000003026, -0.7377060003638201 
2.2500000000003237, -0.7377643397208714 
2.260000000000345, -0.7377779377163481 
2.270000000000366, -0.7377343626154242 
2.280000000000387, -0.7376321940726009 
2.290000000000408, -0.7374786974216725 
2.3000000000004293, -0.7372844173707651 
2.3100000000004504, -0.7370562313766378 
2.3200000000004715, -0.7367927309355842 
2.3300000000004926, -0.736484993316769 
2.3400000000005137, -0.7361222292999544 
2.3500000000005348, -0.7356986729720394 
2.360000000000556, -0.7352181869970938 
2.370000000000577, -0.734695846759011 
2.380000000000598, -0.7341582493780026 
2.390000000000619, -0.7336445488775334 
2.4000000000006403, -0.7332088174528769 
2.4100000000006614, -0.7329227132868941 
2.4200000000006825, -0.7328764743947442 
2.4300000000007036, -0.73317630837219 
2.4400000000007247, -0.7339373707709804 
2.450000000000746, -0.7352731985225934 
2.460000000000767, -0.7372834419647012 
2.470000000000788, -0.7400408102620035 
2.480000000000809, -0.7435754299485582 
2.49000000000083, -0.747852550403099 
2.5000000000008513, -0.7527420096434739 
2.5100000000008724, -0.7579898025305701 
2.5200000000008935, -0.763221284816655 
2.5300000000009146, -0.7680100535763059 
2.5400000000009357, -0.7720046824103604 
2.550000000000957, -0.7750380791260223 
2.560000000000978, -0.7771416218345384 
2.570000000000999, -0.7784705978431468 
2.58000000000102, -0.7792116438291457 
2.5900000000010412, -0.7795239511299846 
2.6000000000010624, -0.7795188825273226 
2.6100000000010835, -0.7792610128647901 
2.6200000000011046, -0.7787758305681176 
2.6300000000011257, -0.7780576078613658 
2.6400000000011468, -0.7770773664644443 
2.650000000001168, -0.7757955170717926 
2.660000000001189, -0.7741881366111673 
2.67000000000121, -0.7722986052508206 
2.680000000001231, -0.7703187321705668 
2.6900000000012523, -0.7686676706007862 
2.7000000000012734, -0.7679689227784371 
2.7100000000012945, -0.7688082537380271 
2.7200000000013156, -0.7713554366699338 
2.7300000000013367, -0.7752242980601268 
2.740000000001358, -0.7797415093497657 
2.750000000001379, -0.7842689877061556 
2.7600000000014, -0.788332049706832 
2.770000000001421, -0.7916580814850328 
2.780000000001442, -0.7941764886827072 
2.7900000000014633, -0.7959605314789017 
2.8000000000014844, -0.7971458452631579 
2.8100000000015055, -0.797869415681503 
2.8200000000015266, -0.7982394197744245 
2.8300000000015477, -0.7983256109194967 
2.840000000001569, -0.7981577441151084 
2.85000000000159, -0.7977237706057997 
2.860000000001611, -0.7969634861471155 
2.870000000001632, -0.7957564943390917 
2.8800000000016532, -0.7939083329944149 
2.8900000000016743, -0.7911490765335419 
2.9000000000016954, -0.7871740118296634 
2.9100000000017165, -0.781757587121066 
2.9200000000017377, -0.7749217797279 
2.9300000000017588, -0.7670457663660808 
2.94000000000178, -0.758791571567586 
2.950000000001801, -0.7508741365945184 
2.960000000001822, -0.7438451695709403 
2.970000000001843, -0.738007057837382 
2.9800000000018643, -0.7334389322631705 
2.9900000000018854, -0.7300650326761879 
3.0000000000019065, -0.7277200826957333 
3.0100000000019276, -0.7261991231350419 
3.0200000000019487, -0.7252931785039662 
3.03000000000197, -0.7248132166973262 
3.040000000001991, -0.7246033246640715 
3.050000000002012, -0.7245441985486396 
3.060000000002033, -0.724549479070506 
3.070000000002054, -0.7245584599071851 
3.0800000000020753, -0.7245285576095595 
3.0900000000020964, -0.7244300043689142 
3.1000000000021175, -0.7242439302988938 
3.1100000000021386, -0.7239633105760945 
3.1200000000021597, -0.7235942837014491 
3.130000000002181, -0.7231543924965385 
3.140000000002202, -0.7226661598269877 
3.150000000002223, -0.7221484816957356 
3.160000000002244, -0.7216108232359031 
3.1700000000022652, -0.7210534576088209 
3.1800000000022863, -0.7204727941415834 
3.1900000000023074, -0.7198680851120177 
3.2000000000023285, -0.7192463379825139 
3.2100000000023496, -0.7186247391202618 
3.2200000000023707, -0.7180317371633193 
3.230000000002392, -0.7175079633406781 
3.240000000002413, -0.717107082564433 
3.250000000002434, -0.7168956770215603 
3.260000000002455, -0.7169510582104791 
3.2700000000024763, -0.7173565709162875 
3.2800000000024974, -0.7181950670560298 
3.2900000000025185, -0.7195419591108316 
3.3000000000025396, -0.7214588043056063 
3.3100000000025607, -0.7239865582148761 
3.3200000000025818, -0.7271352964425042 
3.330000000002603, -0.7308662188849918 
3.340000000002624, -0.7350652011514595 
3.350000000002645, -0.7395182699178666 
3.360000000002666, -0.7439151874938755 
3.3700000000026873, -0.7479084783000213 
3.3800000000027084, -0.751217626196035 
3.3900000000027295, -0.7537146561833672 
3.4000000000027506, -0.7554310521248359 
3.4100000000027717, -0.7564955945047901 
3.420000000002793, -0.7570602021751673 
3.430000000002814, -0.7572532791493088 
3.440000000002835, -0.7571633095027189 
3.450000000002856, -0.7568392743387842 
3.460000000002877, -0.7562964556088616 
3.4700000000028983, -0.7555227561255516 
3.4800000000029194, -0.75448593544796 
3.4900000000029405, -0.7531461615054899 
3.5000000000029616, -0.7514817279306849 
3.5100000000029827, -0.7495362815683002 
3.520000000003004, -0.7474842217690898 
3.530000000003025, -0.7456734505585769 
3.540000000003046, -0.7445554352154657 
3.550000000003067, -0.7444550597220263 
3.5600000000030882, -0.7453630362724369 
3.5700000000031094, -0.7470336562482832 
3.5800000000031305, -0.7492313248599831 
3.5900000000031516, -0.751744016461558 
3.6000000000031727, -0.7542934917203032 
3.6100000000031938, -0.7565964701510299 
3.620000000003215, -0.758476060303453 
3.630000000003236, -0.7598858982089653 
3.640000000003257, -0.7608647855884347 
3.650000000003278, -0.7614828780464185 
3.6600000000032993, -0.7618066678057607 
3.6700000000033204, -0.7618821001914329 
3.6800000000033415, -0.761727343584908 
3.6900000000033626, -0.7613281845204705 
3.7000000000033837, -0.7606323297716009 
3.710000000003405, -0.7595425540584527 
3.720000000003426, -0.7579139442935373 
3.730000000003447, -0.7555682334466687 
3.740000000003468, -0.7523428642806069 
3.750000000003489, -0.7481775351426967 
3.7600000000035103, -0.7431971649881965 
3.7700000000035314, -0.7377185284796207 
3.7800000000035525, -0.7321549682523728 
3.7900000000035736, -0.7268854216072695 
3.8000000000035947, -0.7221729609513556 
3.810000000003616, -0.7181543294528938 
3.820000000003637, -0.7148689261318515 
3.830000000003658, -0.7122931063955622 
3.840000000003679, -0.7103651473857586 
3.8500000000037002, -0.7090007334099482 
3.8600000000037213, -0.7081033990130265 
3.8700000000037424, -0.7075732991822343 
3.8800000000037635, -0.7073151547180825 
3.8900000000037847, -0.7072445374716032 
3.9000000000038058, -0.7072914920621047 
3.910000000003827, -0.7074013762410624 
3.920000000003848, -0.7075338219285402 
3.930000000003869, -0.7076611568721546 
3.94000000000389, -0.7077672132250841 
3.9500000000039113, -0.7078463243403552 
3.9600000000039324, -0.7079011344848254 
3.9700000000039535, -0.7079378098577809 
3.9800000000039746, -0.7079591066117426 
3.9900000000039957, -0.7079584018869587 
4.000000000004016, -0.7079186071969242 
4.010000000003993, -0.7078173623233703 
4.02000000000397, -0.7076356683751985 
4.030000000003946, -0.7073649348779454 
4.040000000003923, -0.7070094529653875 
4.0500000000039, -0.7065853777314048 
4.0600000000038765, -0.7061195601518638 
4.070000000003853, -0.7056509782649891 
4.08000000000383, -0.7052357267081347 
4.090000000003807, -0.7049549585422165 
4.100000000003783, -0.7049239954287779 
4.11000000000376, -0.7052997934401664 
4.120000000003737, -0.7062831894572665 
4.130000000003713, -0.708112155748262 
4.14000000000369, -0.7110423700430191 
4.150000000003667, -0.7153106132576276 
4.1600000000036434, -0.7210744846554562 
4.17000000000362, -0.7283232908282576 
4.180000000003597, -0.73677287001206 
4.1900000000035735, -0.745803331058634 
4.20000000000355, -0.7545424416614314 
4.210000000003527, -0.7621388402335441 
4.220000000003504, -0.7680787747983151 
4.23000000000348, -0.7723047331558954 
4.240000000003457, -0.775082039664954 
4.250000000003434, -0.7767812698848219 
4.26000000000341, -0.7777316324555781 
4.270000000003387, -0.7781703114000454 
4.280000000003364, -0.7782455267922558 
4.2900000000033405, -0.7780345860015963 
4.300000000003317, -0.7775586002946212 
4.310000000003294, -0.7767882680082728 
4.320000000003271, -0.775639669438902 
4.330000000003247, -0.7739598780993509 
4.340000000003224, -0.7715028226453703 
4.350000000003201, -0.7678994533024035 
4.360000000003177, -0.7626387836286455 
4.370000000003154, -0.755109312520579 
4.380000000003131, -0.7448067548724138 
4.390000000003107, -0.731805812126187 
4.400000000003084, -0.7172792609112806 
4.410000000003061, -0.7033598878641871 
4.4200000000030375, -0.6920612737769949 
4.430000000003014, -0.6842489631229162 
4.440000000002991, -0.6796031241530344 
4.450000000002968, -0.677241620180324 
4.460000000002944, -0.676275890675808 
4.470000000002921, -0.6760473735538117 
4.480000000002898, -0.6761439838772402 
4.490000000002874, -0.6763358446300882 
4.500000000002851, -0.6765052220030867 
4.510000000002828, -0.6765944452329851 
4.520000000002804, -0.6765728124047731 
4.530000000002781, -0.6764172893218885 
4.540000000002758, -0.6761022931404814 
4.5500000000027345, -0.6755962906927214 
4.560000000002711, -0.6748653109156482 
4.570000000002688, -0.6738840669957117 
4.580000000002665, -0.672652226584934 
4.590000000002641, -0.6712070749084695 
4.600000000002618, -0.6696213345841787 
4.610000000002595, -0.6679837014023036 
4.620000000002571, -0.666373652621081 
4.630000000002548, -0.6648455909489627 
4.640000000002525, -0.6634277287775785 
4.6500000000025015, -0.662130740642868 
4.660000000002478, -0.6609585226593631 
4.670000000002455, -0.6599162794138544 
4.6800000000024315, -0.6590147340159195 
4.690000000002408, -0.6582712006814772 
4.700000000002385, -0.657708657305539 
4.710000000002362, -0.6573537170611543 
4.720000000002338, -0.6572341892010871 
4.730000000002315, -0.6573768792357686 
4.740000000002292, -0.6578062264554296 
4.750000000002268, -0.6585441073084858 
4.760000000002245, -0.6596105729966353 
4.770000000002222, -0.6610244833421587 
4.7800000000021985, -0.6628020467119408 
4.790000000002175, -0.6649504297492681 
4.800000000002152, -0.667453674599308 
4.810000000002129, -0.6702510280122365 
4.820000000002105, -0.6732156374853846 
4.830000000002082, -0.6761523019444027 
4.840000000002059, -0.6788334606961388 
4.850000000002035, -0.6810673279087587 
4.860000000002012, -0.6827566761182347 
4.870000000001989, -0.6839081625194654 
4.880000000001965, -0.6845957313721851 
4.890000000001942, -0.6849130086138058 
4.900000000001919, -0.6849408277560329 
4.9100000000018955, -0.6847335203422992 
4.920000000001872, -0.684316376946444 
