t, s[1].omega / s[0].omega 
0, -0.5499977432976145 
0.009999999999999995, -0.5497879950237753 
0.019999999999999934, -0.5496020143683921 
0.029999999999999874, -0.5494198786818363 
0.04000000000000012, -0.5492173901623729 
0.050000000000000405, -0.5489743455644112 
0.06000000000000069, -0.5486794548604961 
0.07000000000000098, -0.548331036762815 
0.08000000000000126, -0.5479353591011231 
0.09000000000000155, -0.5475052630207385 
0.10000000000000184, -0.5470609919404434 
0.11000000000000212, -0.5466343437011754 
0.12000000000000241, -0.5462770849800833 
0.130000000000002, -0.546074848902162 
0.1400000000000009, -0.5461677942726685 
0.1499999999999998, -0.5467777480902161 
0.1599999999999987, -0.5482353779108766 
0.1699999999999976, -0.550984766256109 
0.1799999999999965, -0.5555130499992537 
0.1899999999999954, -0.5621308812778805 
0.1999999999999943, -0.5706052217005992 
0.2099999999999932, -0.5799160992507504 
0.2199999999999921, -0.5885949737328565 
0.229999999999991, -0.5955569871045692 
0.2399999999999899, -0.6005745752769764 
0.2499999999999888, -0.6040080547879568 
0.2599999999999877, -0.6063336935368808 
0.2699999999999866, -0.6079160609276816 
0.2799999999999855, -0.6089899347786394 
0.2899999999999844, -0.6097019875627339 
0.2999999999999833, -0.610145567507163 
0.3099999999999822, -0.6103800900665054 
0.3199999999999811, -0.6104406722686068 
0.32999999999998, -0.6103427535257102 
0.3399999999999789, -0.610084247568862 
0.3499999999999778, -0.6096469564648966 
0.35999999999997667, -0.6089993861030949 
0.36999999999997557, -0.6081039921567613 
0.37999999999997447, -0.6069315760385804 
0.38999999999997337, -0.6054814229121346 
0.39999999999997227, -0.603797717063965 
0.40999999999997117, -0.6019684507457923 
0.41999999999997006, -0.6001024998325162 
0.42999999999996896, -0.5982981283385846 
0.43999999999996786, -0.596621979836265 
0.44999999999996676, -0.5951062003902211 
0.45999999999996566, -0.5937580435025129 
0.46999999999996456, -0.5925726392999009 
0.47999999999996346, -0.5915430856393378 
0.48999999999996235, -0.5906663428905097 
0.49999999999996125, -0.5899457753790199 
0.5099999999999602, -0.5893917274671372 
0.519999999999959, -0.5890212160643723 
0.529999999999958, -0.5888573881224977 
0.5399999999999568, -0.5889291102267784 
0.5499999999999557, -0.5892709029382145 
0.5599999999999546, -0.5899232596616673 
0.5699999999999535, -0.5909330331300886 
0.5799999999999524, -0.5923528735476514 
0.5899999999999513, -0.5942375480646771 
0.5999999999999502, -0.5966335104826201 
0.6099999999999491, -0.5995573723533314 
0.619999999999948, -0.6029619273112974 
0.6299999999999469, -0.606699579831751 
0.6399999999999458, -0.6105113219939711 
0.6499999999999447, -0.6140745600546137 
0.6599999999999436, -0.6171056183146059 
0.6699999999999425, -0.6194530951658618 
0.6799999999999414, -0.6211164088110417 
0.6899999999999403, -0.6221936204207932 
0.6999999999999392, -0.6228129475335067 
0.7099999999999381, -0.6230874121506608 
0.719999999999937, -0.6230968448163833 
0.7299999999999359, -0.6228852105472619 
0.7399999999999348, -0.6224619423992169 
0.7499999999999337, -0.6218007721283307 
0.7599999999999326, -0.6208326108932061 
0.7699999999999315, -0.6194303110935533 
0.7799999999999304, -0.6173850808534278 
0.7899999999999293, -0.6143820132770512 
0.7999999999999282, -0.6100037641589673 
0.8099999999999271, -0.6038259632812506 
0.819999999999926, -0.5956642050708987 
0.8299999999999249, -0.5858838787432215 
0.8399999999999238, -0.5754587417719973 
0.8499999999999227, -0.5655826502376444 
0.8599999999999216, -0.557141028879211 
0.8699999999999205, -0.5504829970495837 
0.8799999999999194, -0.545532881939711 
0.8899999999999183, -0.5420087274549795 
0.8999999999999172, -0.5395846787491433 
0.9099999999999161, -0.5379699304822652 
0.919999999999915, -0.5369329247441391 
0.9299999999999139, -0.5363000887902606 
0.9399999999999128, -0.5359459727593642 
0.9499999999999117, -0.5357822497326689 
0.9599999999999106, -0.5357482345473826 
0.9699999999999095, -0.5358035867560366 
0.9799999999999084, -0.5359231718452244 
0.9899999999999073, -0.536093812921277 
0.9999999999999062, -0.5363124302597311 
1.0099999999999052, -0.536584641956035 
1.019999999999904, -0.5369223880514962 
1.029999999999903, -0.5373390356217349 
1.039999999999902, -0.5378413735699936 
1.0499999999999008, -0.5384201100572523 
1.0599999999998997, -0.5390431617821078 
1.0699999999998986, -0.5396571703111522 
1.0799999999998975, -0.5401996234984088 
1.0899999999998964, -0.5406167026677651 
1.0999999999998953, -0.5408766716361546 
1.1099999999998942, -0.5409718827173898 
1.119999999999893, -0.5409111500598327 
1.129999999999892, -0.540709176457951 
1.1399999999998909, -0.5403781337995708 
1.1499999999998898, -0.539922671794783 
1.1599999999998887, -0.539337260766606 
1.1699999999998876, -0.5386041235081868 
1.1799999999998865, -0.5376897922415033 
1.1899999999998854, -0.5365372423893616 
1.1999999999998843, -0.5350475518101467 
1.2099999999998832, -0.5330405418332951 
1.219999999999882, -0.5301866719541852 
1.229999999999881, -0.5259444860728199 
1.2399999999998799, -0.519655357565943 
1.2499999999998788, -0.5110046733794162 
1.2599999999998777, -0.500641613627075 
1.2699999999998766, -0.49013041701377985 
1.2799999999998755, -0.4810183699964182 
1.2899999999998744, -0.4740486695238997 
1.2999999999998733, -0.46917219357754725 
1.3099999999998722, -0.4659595783081505 
1.319999999999871, -0.46392983309831654 
1.32999999999987, -0.4626898218606975 
1.3399999999998689, -0.4619582967089437 
1.3499999999998678, -0.4615470743693485 
1.3599999999998666, -0.46133477364631725 
1.3699999999998655, -0.46124490800881623 
1.3799999999998644, -0.4612303701408191 
1.3899999999998633, -0.46126340889027323 
1.3999999999998622, -0.4613297539273299 
1.4099999999998611, -0.46142570476578487 
1.41999999999986, -0.4615570385051281 
1.429999999999859, -0.4617383059471177 
1.4399999999998578, -0.4619907081689451 
1.4499999999998567, -0.4623368716740658 
1.4599999999998556, -0.4627920141076259 
1.4699999999998545, -0.46335320792434204 
1.4799999999998534, -0.46399110038129787 
1.4899999999998523, -0.46465003727754545 
1.4999999999998512, -0.46526015808067384 
1.5099999999998501, -0.4657573762865902 
1.519999999999849, -0.4661000729130291 
1.529999999999848, -0.4662734572384039 
1.5399999999998468, -0.4662821945673984 
1.5499999999998457, -0.46613844773219537 
1.5599999999998446, -0.46585133329548345 
1.5699999999998435, -0.4654193378767165 
1.5799999999998424, -0.46482404162366936 
1.5899999999998413, -0.46402215994557183 
1.5999999999998402, -0.4629321782924863 
1.6099999999998391, -0.4614110821608417 
1.619999999999838, -0.4592178342669797 
1.629999999999837, -0.45597170477472054 
1.6399999999998358, -0.4511528464577147 
1.6499999999998347, -0.44425831631129997 
1.6599999999998336, -0.4351985934458126 
1.6699999999998325, -0.42469216040043867 
1.6799999999998314, -0.41410707199940744 
1.6899999999998303, -0.40472886816696096 
1.6999999999998292, -0.3971989376259891 
1.709999999999828, -0.3915331755014822 
1.719999999999827, -0.38742784064742264 
1.729999999999826, -0.38451178903827443 
1.7399999999998248, -0.3824633897913802 
1.7499999999998237, -0.38103958746647254 
1.7599999999998226, -0.3800688468652754 
1.7699999999998215, -0.3794352110404304 
1.7799999999998204, -0.37906369234511095 
1.7899999999998193, -0.3789095894905893 
1.7999999999998182, -0.3789516998334027 
1.809999999999817, -0.3791887756053519 
1.819999999999816, -0.379638554793768 
1.8299999999998149, -0.38033867045000913 
1.8399999999998138, -0.38134835041316556 
1.8499999999998127, -0.3827487045186143 
1.8599999999998116, -0.38463716675583937 
1.8699999999998105, -0.3871084217377909 
1.8799999999998094, -0.39021257164275935 
1.8899999999998083, -0.39389014987872983 
1.8999999999998072, -0.3979139637081198 
1.909999999999806, -0.40190376450668924 
1.919999999999805, -0.40545314788166315 
1.9299999999998039, -0.4082941793545728 
1.9399999999998028, -0.4103671369995253 
1.9499999999998017, -0.4117655486671308 
1.9599999999998006, -0.4126389694403585 
1.9699999999997995, -0.41312586880601987 
1.9799999999997984, -0.41332799456958985 
1.9899999999997973, -0.4133084090288235 
1.9999999999997962, -0.4130970294106904 
2.0099999999998173, -0.4126962226551134 
2.0199999999998384, -0.412085108701669 
2.0299999999998595, -0.4112247705751161 
2.0399999999998806, -0.4100689372623675 
2.0499999999999017, -0.40858484690317304 
2.059999999999923, -0.4067828743700798 
2.069999999999944, -0.4047399238083592 
2.079999999999965, -0.4025935114776201 
2.089999999999986, -0.40050053200304003 
2.100000000000007, -0.3985864288457164 
2.1100000000000283, -0.3969174539749162 
2.1200000000000494, -0.3955040391342855 
2.1300000000000705, -0.3943209827143543 
2.1400000000000916, -0.3933285799489532 
2.1500000000001127, -0.39248742086614186 
2.160000000000134, -0.39176633481886564 
2.170000000000155, -0.39114560980887597 
2.180000000000176, -0.3906179859219195 
2.190000000000197, -0.3901894894781925 
2.2000000000002182, -0.3898816350956607 
2.2100000000002393, -0.3897362169342834 
2.2200000000002604, -0.3898239449429922 
2.2300000000002815, -0.3902584101643471 
2.2400000000003026, -0.3912166998142155 
2.2500000000003237, -0.39296571656440044 
2.260000000000345, -0.39588445978020825 
2.270000000000366, -0.40044851091054723 
2.280000000000387, -0.4070983301097405 
2.290000000000408, -0.4158916760620568 
2.3000000000004293, -0.426017948316344 
2.3100000000004504, -0.43573513396004976 
2.3200000000004715, -0.44330395711114523 
2.3300000000004926, -0.4481475045025104 
2.3400000000005137, -0.4508493575274864 
2.3500000000005348, -0.45229913168461156 
2.360000000000556, -0.4531293572806427 
2.370000000000577, -0.45366207149080384 
2.380000000000598, -0.4540336153168151 
2.390000000000619, -0.4542971706806118 
2.4000000000006403, -0.45447397166697856 
2.4100000000006614, -0.454573405424478 
2.4200000000006825, -0.45459961635507995 
2.4300000000007036, -0.45455343969375595 
2.4400000000007247, -0.45443340841258434 
2.450000000000746, -0.4542374676913671 
2.460000000000767, -0.4539661196270311 
2.470000000000788, -0.4536267817856272 
2.480000000000809, -0.4532376881097309 
2.49000000000083, -0.452828404195853 
2.5000000000008513, -0.4524347015003241 
2.5100000000008724, -0.4520887483383351 
2.5200000000008935, -0.45180895134741145 
2.5300000000009146, -0.4515942786133178 
2.5400000000009357, -0.4514254874712017 
2.550000000000957, -0.4512724231202959 
2.560000000000978, -0.4511038843491894 
2.570000000000999, -0.4508955825722182 
2.58000000000102, -0.450633365046614 
2.5900000000010412, -0.4503120159178572 
2.6000000000010624, -0.4499320200423059 
2.6100000000010835, -0.44949661432392374 
2.6200000000011046, -0.4490102946580169 
2.6300000000011257, -0.4484789295614543 
2.6400000000011468, -0.44791098108205485 
2.650000000001168, -0.4473183443938987 
2.660000000001189, -0.4467124691217322 
2.67000000000121, -0.44608422935968484 
2.680000000001231, -0.4453431755284881 
2.6900000000012523, -0.4441871404430766 
2.7000000000012734, -0.44194018168919547 
2.7100000000012945, -0.43761955082211956 
2.7200000000013156, -0.43060997363420145 
2.7300000000013367, -0.4215663295448294 
2.740000000001358, -0.41224898127959025 
2.750000000001379, -0.4042633940078731 
2.7600000000014, -0.3982568995665297 
2.770000000001421, -0.39409891301101085 
2.780000000001442, -0.391359209167841 
2.7900000000014633, -0.38960693369886923 
2.8000000000014844, -0.3885105136938129 
2.8100000000015055, -0.3878416115354146 
2.8200000000015266, -0.3874513831558709 
2.8300000000015477, -0.3872459779881757 
2.840000000001569, -0.38716820847341915 
2.85000000000159, -0.38718551048353955 
2.860000000001611, -0.3872827696339195 
2.870000000001632, -0.3874585972222726 
2.8800000000016532, -0.3877238283394925 
2.8900000000016743, -0.3881009408373964 
2.9000000000016954, -0.38862271672774346 
2.9100000000017165, -0.3893280113890798 
2.9200000000017377, -0.3902523865442043 
2.9300000000017588, -0.39141233443907447 
2.94000000000178, -0.39278527275270514 
2.950000000001801, -0.39429441782471264 
2.960000000001822, -0.3958136683400997 
2.970000000001843, -0.39720070035201893 
2.9800000000018643, -0.3983432396995845 
2.9900000000018854, -0.39918802089210337 
3.0000000000019065, -0.3997371973597751 
3.0100000000019276, -0.40002406667124035 
3.0200000000019487, -0.4000879213103155 
3.03000000000197, -0.3999576774566499 
3.040000000001991, -0.3996434140214007 
3.050000000002012, -0.39913136797353926 
3.060000000002033, -0.39837882466146757 
3.070000000002054, -0.3973079254338673 
3.0800000000020753, -0.39580176380942395 
3.0900000000020964, -0.3937136707386531 
3.1000000000021175, -0.390908561192419 
3.1100000000021386, -0.3873471988628322 
3.1200000000021597, -0.38317755080046306 
3.130000000002181, -0.3787426549883589 
3.140000000002202, -0.374457133845956 
3.150000000002223, -0.3706413716166602 
3.160000000002244, -0.36744181197280595 
3.1700000000022652, -0.364857750388353 
3.1800000000022863, -0.3628098759172148 
3.1900000000023074, -0.36119680451200076 
3.2000000000023285, -0.35992585389850795 
3.2100000000023496, -0.3589248002683372 
3.2200000000023707, -0.3581439489374593 
3.230000000002392, -0.35755477627026755 
3.240000000002413, -0.35714847656596327 
3.250000000002434, -0.3569360781532199 
3.260000000002455, -0.35695110337812386 
3.2700000000024763, -0.3572556492356501 
3.2800000000024974, -0.3579509301979893 
3.2900000000025185, -0.35919329263471356 
3.3000000000025396, -0.36121538868508507 
3.3100000000025607, -0.36434680356262805 
3.3200000000025818, -0.36901312298129013 
3.330000000002603, -0.3756608612670906 
3.340000000002624, -0.3845243584131121 
3.350000000002645, -0.3952196781530011 
3.360000000002666, -0.40646690102103544 
3.3700000000026873, -0.4165107303769638 
3.3800000000027084, -0.4241473448981159 
3.3900000000027295, -0.42926787222731794 
3.4000000000027506, -0.4324621531425238 
3.4100000000027717, -0.43440964148332073 
3.420000000002793, -0.43560338298370427 
3.430000000002814, -0.4363405952789007 
3.440000000002835, -0.43678821286650893 
3.450000000002856, -0.4370384446723799 
3.460000000002877, -0.4371417884726768 
3.4700000000028983, -0.4371245031546593 
3.4800000000029194, -0.4369978789293799 
3.4900000000029405, -0.4367640471498394 
3.5000000000029616, -0.4364212399359193 
3.5100000000029827, -0.4359701089631896 
3.520000000003004, -0.4354209764043161 
3.530000000003025, -0.4347994316157588 
3.540000000003046, -0.4341461048574515 
3.550000000003067, -0.433508428406186 
3.5600000000030882, -0.43292745892395185 
3.5700000000031094, -0.4324265125037508 
3.5800000000031305, -0.4320068264242633 
3.5900000000031516, -0.43165098557453063 
3.6000000000031727, -0.4313313905832777 
3.6100000000031938, -0.43101970968834047 
3.620000000003215, -0.4306937238978422 
3.630000000003236, -0.4303399764361501 
3.640000000003257, -0.4299530478853125 
3.650000000003278, -0.42953353773248343 
3.6600000000032993, -0.42908660586501074 
3.6700000000033204, -0.42862208740710617 
3.6800000000033415, -0.42815652493391054 
3.6900000000033626, -0.42771696191116726 
3.7000000000033837, -0.42734519507257235 
3.710000000003405, -0.42709750420359976 
3.720000000003426, -0.42702520809064637 
3.730000000003447, -0.42710334946836365 
3.740000000003468, -0.4270657280353184 
3.750000000003489, -0.4261881661659016 
3.7600000000035103, -0.4233443248315722 
3.7700000000035314, -0.417782744760632 
3.7800000000035525, -0.4101200000728367 
3.7900000000035736, -0.4020943333013598 
3.8000000000035947, -0.39523512214136736 
3.810000000003616, -0.3901238652452783 
3.820000000003637, -0.38662518078334174 
3.830000000003658, -0.38434749337754204 
3.840000000003679, -0.3829097284395909 
3.8500000000037002, -0.3820237384034458 
3.8600000000037213, -0.3814937407018285 
3.8700000000037424, -0.3811936604416585 
3.8800000000037635, -0.38104507892297496 
3.8900000000037847, -0.3810011686311955 
3.9000000000038058, -0.38103639767744346 
3.910000000003827, -0.38114062663613685 
3.920000000003848, -0.3813162792747715 
3.930000000003869, -0.3815773840849327 
3.94000000000389, -0.38194911225060746 
3.9500000000039113, -0.3824660240917069 
3.9600000000039324, -0.3831668790804673 
3.9700000000039535, -0.38408402008619 
3.9800000000039746, -0.38522677483097373 
3.9900000000039957, -0.38656239457242497 
4.000000000004016, -0.3880050026925801 
4.010000000003993, -0.3894267583486784 
4.02000000000397, -0.3906945261905642 
4.030000000003946, -0.39171242265266243 
4.040000000003923, -0.3924423168474387 
4.0500000000039, -0.392894301945381 
4.0600000000038765, -0.3931021088211887 
4.070000000003853, -0.393100736582337 
4.08000000000383, -0.3929126879494614 
4.090000000003807, -0.3925406976115121 
4.100000000003783, -0.391962720095423 
4.11000000000376, -0.39112630984740115 
4.120000000003737, -0.38994244457591687 
4.130000000003713, -0.3882840207156527 
4.14000000000369, -0.3860026271505952 
4.150000000003667, -0.38298286331981984 
4.1600000000036434, -0.3792353340933815 
4.17000000000362, -0.37497263351846477 
4.180000000003597, -0.37057618806221054 
4.1900000000035735, -0.3664450456110793 
4.20000000000355, -0.36284661982496264 
4.210000000003527, -0.35987398147511074 
4.220000000003504, -0.357493639055371 
4.23000000000348, -0.35561408440386366 
4.240000000003457, -0.35413423272649636 
4.250000000003434, -0.35296709121050635 
4.26000000000341, -0.35204752725230265 
4.270000000003387, -0.3513327157947109 
4.280000000003364, -0.35080048788287577 
4.2900000000033405, -0.350448270693798 
4.300000000003317, -0.35029400688145057 
4.310000000003294, -0.35037999534847153 
4.320000000003271, -0.3507806477217624 
4.330000000003247, -0.35161536905980145 
4.340000000003224, -0.35306754048193423 
4.350000000003201, -0.3554083128631865 
4.360000000003177, -0.3590156107238801 
4.370000000003154, -0.36435677313688164 
4.380000000003131, -0.37186350841206967 
4.390000000003107, -0.38161020140191354 
4.400000000003084, -0.3928632005607267 
4.410000000003061, -0.40398789704024385 
4.4200000000030375, -0.41323193154859084 
4.430000000003014, -0.4197897868260022 
4.440000000002991, -0.4239552093311777 
4.450000000002968, -0.42647054232259995 
4.460000000002944, -0.4279858960529877 
4.470000000002921, -0.4289165533828358 
4.480000000002898, -0.42949512597012635 
4.490000000002874, -0.429846826405137 
4.500000000002851, -0.4300391828649065 
4.510000000002828, -0.4301085259666551 
4.520000000002804, -0.4300732268851747 
4.530000000002781, -0.42994070265001616 
4.540000000002758, -0.42971221097292184 
4.5500000000027345, -0.42938771982684376 
4.560000000002711, -0.4289718058431915 
4.570000000002688, -0.42847973929886507 
4.580000000002665, -0.4279408377488408 
4.590000000002641, -0.4273956670864162 
4.600000000002618, -0.4268865385834502 
4.610000000002595, -0.42644534138833184 
4.620000000002571, -0.42608467793646937 
4.630000000002548, -0.42579600089924796 
4.640000000002525, -0.4255547028234122 
4.6500000000025015, -0.4253293478129117 
4.660000000002478, -0.42509094460504826 
4.670000000002455, -0.42481872764527606 
4.6800000000024315, -0.4245013090940552 
4.690000000002408, -0.4241346034761757 
4.700000000002385, -0.42371883994876747 
4.710000000002362, -0.42325631108097717 
4.720000000002338, -0.4227504064673922 
4.730000000002315, -0.42220560993629963 
4.740000000002292, -0.4216271926344629 
4.750000000002268, -0.42101714011893954 
4.760000000002245, -0.4203573064930343 
4.770000000002222, -0.41955987971668185 
4.7800000000021985, -0.41835595324414265 
4.790000000002175, -0.4161308754773535 
4.800000000002152, -0.41189662261065924 
4.810000000002129, -0.40481388039466903 
4.820000000002105, -0.39519935365291525 
4.830000000002082, -0.38476162846267153 
4.840000000002059, -0.3754164726656829 
4.850000000002035, -0.3681467752649588 
4.860000000002012, -0.3629748086229985 
4.870000000001989, -0.35947766703032563 
4.880000000001965, -0.35717627677374125 
