t, s[1].omega / s[0].omega 
0, -0.22001005335684845 
0.009999999999999995, -0.22116930530575113 
0.019999999999999934, -0.22259453721972658 
0.029999999999999874, -0.22417235683687564 
0.04000000000000012, -0.22573624345615242 
0.050000000000000405, -0.22712083195353588 
0.06000000000000069, -0.22821720172686938 
0.07000000000000098, -0.22899107078051 
0.08000000000000126, -0.22946237254792798 
0.09000000000000155, -0.22967229569238873 
0.10000000000000184, -0.22965842636157419 
0.11000000000000212, -0.22944217669067468 
0.12000000000000241, -0.22902454385776885 
0.130000000000002, -0.2283866353240392 
0.1400000000000009, -0.2274949716732356 
0.1499999999999998, -0.22631487733527256 
0.1599999999999987, -0.22483491903246602 
0.1699999999999976, -0.22309681409184168 
0.1799999999999965, -0.2212105820534495 
0.1899999999999954, -0.21933307240240946 
0.1999999999999943, -0.21761569849472057 
0.2099999999999932, -0.2161573645556131 
0.2199999999999921, -0.21499029954032722 
0.229999999999991, -0.2140941542933267 
0.2399999999999899, -0.21341871536545942 
0.2499999999999888, -0.2129027896161652 
0.2599999999999877, -0.21248682625929574 
0.2699999999999866, -0.21212028174879832 
0.2799999999999855, -0.2117644096916973 
0.2899999999999844, -0.21139103062137718 
0.2999999999999833, -0.21097835768495404 
0.3099999999999822, -0.2105048982975147 
0.3199999999999811, -0.2099412763226279 
0.32999999999998, -0.20923768360075629 
0.3399999999999789, -0.20830152448787018 
0.3499999999999778, -0.2069558328454162 
0.35999999999997667, -0.20486896068220975 
0.36999999999997557, -0.20147219543209274 
0.37999999999997447, -0.19598391484721336 
0.38999999999997337, -0.18780555785054381 
0.39999999999997227, -0.17731420758385769 
0.40999999999997117, -0.1661480106611062 
0.41999999999997006, -0.15619248307034192 
0.42999999999996896, -0.14841593584283552 
0.43999999999996786, -0.14279761197353819 
0.44999999999996676, -0.13887316876291064 
0.45999999999996566, -0.13614460860233704 
0.46999999999996456, -0.1342253714138362 
0.47999999999996346, -0.13285028769248422 
0.48999999999996235, -0.13184799777970208 
0.49999999999996125, -0.13111302515991077 
0.5099999999999602, -0.13058614592264448 
0.519999999999959, -0.13024312332676266 
0.529999999999958, -0.13009060296629366 
0.5399999999999568, -0.13016863421110075 
0.5499999999999557, -0.13056001183171576 
0.5599999999999546, -0.1314057027100901 
0.5699999999999535, -0.13291779280584154 
0.5799999999999524, -0.13535016347687112 
0.5899999999999513, -0.1387961589253394 
0.5999999999999502, -0.14253950650430888 
0.6099999999999491, -0.14396097056092777 
0.619999999999948, -0.13888856990059747 
0.6299999999999469, -0.1260138000885117 
0.6399999999999458, -0.10987224094197837 
0.6499999999999447, -0.09587552130985746 
0.6599999999999436, -0.08591282144847037 
0.6699999999999425, -0.0794013495857364 
0.6799999999999414, -0.07523837136045562 
0.6899999999999403, -0.07255761125188762 
0.6999999999999392, -0.07080504856139726 
0.7099999999999381, -0.06965158046149997 
0.719999999999937, -0.06891000630685667 
0.7299999999999359, -0.06848245680996609 
0.7399999999999348, -0.06833262974876714 
0.7499999999999337, -0.06847568759509029 
0.7599999999999326, -0.06898271125088784 
0.7699999999999315, -0.07000108919353845 
0.7799999999999304, -0.07179639975938526 
0.7899999999999293, -0.07482219068702453 
0.7999999999999282, -0.07980488860350587 
0.8099999999999271, -0.08773112682269314 
0.819999999999926, -0.09932485430669538 
0.8299999999999249, -0.11334329052376717 
0.8399999999999238, -0.12481125810436496 
0.8499999999999227, -0.12823246538095484 
0.8599999999999216, -0.12410289282733637 
0.8699999999999205, -0.11731820626821636 
0.8799999999999194, -0.1113251164236427 
0.8899999999999183, -0.10701132208308173 
0.8999999999999172, -0.10413214682251463 
0.9099999999999161, -0.10225413078760621 
0.919999999999915, -0.10103747643537672 
0.9299999999999139, -0.10026245286939776 
0.9399999999999128, -0.09979995007943242 
0.9499999999999117, -0.09958335057699051 
0.9599999999999106, -0.09959168028843388 
0.9699999999999095, -0.09984347540284577 
0.9799999999999084, -0.10040037386833855 
0.9899999999999073, -0.10138132154680665 
0.9999999999999062, -0.10299050571616734 
1.0099999999999052, -0.1055629156994963 
1.019999999999904, -0.10962395444609421 
1.029999999999903, -0.11592149256105348 
1.039999999999902, -0.12527635092797734 
1.0499999999999008, -0.13794514709958233 
1.0599999999998997, -0.1525107596718921 
1.0699999999998986, -0.16576197646602706 
1.0799999999998975, -0.1749959938502575 
1.0899999999998964, -0.18004316645461768 
1.0999999999998953, -0.1823398241327327 
1.1099999999998942, -0.18326151567809065 
1.119999999999893, -0.1835969023056792 
1.129999999999892, -0.18370436847457033 
1.1399999999998909, -0.18372924474218338 
1.1499999999998898, -0.18372807225787396 
1.1599999999998887, -0.18372430836437184 
1.1699999999998876, -0.18373140759306025 
1.1799999999998865, -0.18376289198940945 
1.1899999999998854, -0.18383797499456814 
1.1999999999998843, -0.18398608064709943 
1.2099999999998832, -0.18425122432546717 
1.219999999999882, -0.18469598664842216 
1.229999999999881, -0.1854039242579824 
1.2399999999998799, -0.1864778842346631 
1.2499999999998788, -0.1880286209122159 
1.2599999999998777, -0.19014382556987816 
1.2699999999998766, -0.19282978579521476 
1.2799999999998755, -0.19594274630070224 
1.2899999999998744, -0.19917271494990088 
1.2999999999998733, -0.20214126563544252 
1.3099999999998722, -0.20456555409598493 
1.319999999999871, -0.206350251583944 
1.32999999999987, -0.20755259518649627 
1.3399999999998689, -0.2082931400557273 
1.3499999999998678, -0.2086893830533752 
1.3599999999998666, -0.20882900936000676 
1.3699999999998655, -0.2087673110300281 
1.3799999999998644, -0.20853362042887108 
1.3899999999998633, -0.20814006772063434 
1.3999999999998622, -0.207591624832752 
1.4099999999998611, -0.20689801702285254 
1.41999999999986, -0.20608621439137925 
1.429999999999859, -0.20520829598728607 
1.4399999999998578, -0.20433794793461893 
1.4499999999998567, -0.20355448722459796 
1.4599999999998556, -0.20292263318125583 
1.4699999999998545, -0.20247859597065276 
1.4799999999998534, -0.2022260570818765 
1.4899999999998523, -0.20213900388170147 
1.4999999999998512, -0.20216852853242542 
1.5099999999998501, -0.2022533301729767 
1.519999999999849, -0.20233277454733437 
1.529999999999848, -0.2023579759609977 
1.5399999999998468, -0.20229603718005823 
1.5499999999998457, -0.20212657976363121 
1.5599999999998446, -0.2018334510157266 
1.5699999999998435, -0.20139467018914553 
1.5799999999998424, -0.2007714983068493 
1.5899999999998413, -0.19989566912318074 
1.5999999999998402, -0.19865430163664566 
1.6099999999998391, -0.19687746088288896 
1.619999999999838, -0.19434771931722888 
1.629999999999837, -0.19087020479913452 
1.6399999999998358, -0.18642626315591385 
1.6499999999998347, -0.18132443589399977 
1.6599999999998336, -0.17615236098995118 
1.6699999999998325, -0.1714934729031774 
1.6799999999998314, -0.16767113215600887 
1.6899999999998303, -0.16472236444476418 
1.6999999999998292, -0.16251938706999314 
1.709999999999828, -0.16088775033075503 
1.719999999999827, -0.15966788177373709 
1.729999999999826, -0.15873436488260476 
1.7399999999998248, -0.15799610293628724 
1.7499999999998237, -0.15739054641782385 
1.7599999999998226, -0.15687718689643512 
1.7699999999998215, -0.156431956917717 
1.7799999999998204, -0.15604281438785889 
1.7899999999998193, -0.15570587228898042 
1.7999999999998182, -0.15541979754798627 
1.809999999999817, -0.15517207598798888 
1.819999999999816, -0.15490027397936612 
1.8299999999998149, -0.15438915597741032 
1.8399999999998138, -0.1530410898852433 
1.8499999999998127, -0.14954326993169131 
1.8599999999998116, -0.14194903557092167 
1.8699999999998105, -0.12924471302621293 
1.8799999999998094, -0.1134897272645097 
1.8899999999998083, -0.09866463053979942 
1.8999999999998072, -0.08724249015730648 
1.909999999999806, -0.07937255525558991 
1.919999999999805, -0.07418378407148782 
1.9299999999998039, -0.07077570165260613 
1.9399999999998028, -0.06850195562481706 
1.9499999999998017, -0.0669522945378278 
1.9599999999998006, -0.06587884830262578 
1.9699999999997995, -0.06513715754799188 
1.9799999999997984, -0.06464959984943267 
1.9899999999997973, -0.06438592498842308 
1.9999999999997962, -0.06435605410687141 
2.0099999999998173, -0.06461284350280036 
2.0199999999998384, -0.06526431386683525 
2.0299999999998595, -0.06649343274411366 
2.0399999999998806, -0.06857012542798527 
2.0499999999999017, -0.07178652589617039 
2.059999999999923, -0.07609833824288917 
2.069999999999944, -0.08010747994169046 
2.079999999999965, -0.07991206477624539 
2.089999999999986, -0.07130493952668626 
2.100000000000007, -0.05583892863541366 
2.1100000000000283, -0.040011933976030194 
2.1200000000000494, -0.02798376358764229 
2.1300000000000705, -0.020027576174955923 
2.1400000000000916, -0.01499619074471031 
2.1500000000001127, -0.011809781602729082 
2.160000000000134, -0.00975352362438378 
2.170000000000155, -0.0084027115299582 
2.180000000000176, -0.007515824470702867 
2.190000000000197, -0.006962648617165418 
2.2000000000002182, -0.006684769674682718 
2.2100000000002393, -0.006678183655899237 
2.2200000000002604, -0.006992015335582888 
2.2300000000002815, -0.007742037327937973 
2.2400000000003026, -0.00914028363156556 
2.2500000000003237, -0.011536479751687534 
2.260000000000345, -0.015427436526444929 
2.270000000000366, -0.021239717755210587 
2.280000000000387, -0.028367722642486055 
2.290000000000408, -0.033270287880359226 
2.3000000000004293, -0.0300033796470486 
2.3100000000004504, -0.017459035891407827 
2.3200000000004715, -0.002154097912498063 
2.3300000000004926, 0.009807675199185286 
2.3400000000005137, 0.017626947552255683 
2.3500000000005348, 0.02238399723333836 
2.360000000000556, 0.025202387897030405 
2.370000000000577, 0.02684344847049957 
2.380000000000598, 0.027758016551983677 
2.390000000000619, 0.02819996817739262 
2.4000000000006403, 0.028304719135035194 
2.4100000000006614, 0.02813229531726501 
2.4200000000006825, 0.02768625872024217 
2.4300000000007036, 0.02691547488162707 
2.4400000000007247, 0.0257008577317386 
2.450000000000746, 0.023827755723679928 
2.460000000000767, 0.02095577718746402 
2.470000000000788, 0.01665713960179261 
2.480000000000809, 0.010791277507715651 
2.49000000000083, 0.004770574225242814 
2.5000000000008513, 0.0032276296321375464 
2.5100000000008724, 0.011255179496433478 
2.5200000000008935, 0.02656877084900275 
2.5300000000009146, 0.041572716112464055 
2.5400000000009357, 0.05229428617206703 
2.550000000000957, 0.058961591333902684 
2.560000000000978, 0.06291085406571228 
2.570000000000999, 0.06521587664151214 
2.58000000000102, 0.0665384673812103 
2.5900000000010412, 0.0672558458355026 
2.6000000000010624, 0.06757645509116877 
2.6100000000010835, 0.06760938774094571 
2.6200000000011046, 0.06740048803822454 
2.6300000000011257, 0.06694812269111193 
2.6400000000011468, 0.06620651611716782 
2.650000000001168, 0.06508348554866633 
2.660000000001189, 0.06344953645863963 
2.67000000000121, 0.061217469479388595 
2.680000000001231, 0.05866506614712195 
2.6900000000012523, 0.057270053740913006 
2.7000000000012734, 0.060506800087042324 
2.7100000000012945, 0.07146220692910728 
2.7200000000013156, 0.08744062122136469 
2.7300000000013367, 0.10205978558460474 
2.740000000001358, 0.11224234066528986 
2.750000000001379, 0.11848098545293997 
2.7600000000014, 0.12213312282303053 
2.770000000001421, 0.12424449158251713 
2.780000000001442, 0.12545161335728458 
2.7900000000014633, 0.12611828868143798 
2.8000000000014844, 0.1264513312730342 
2.8100000000015055, 0.1265699623518959 
2.8200000000015266, 0.12654485370781876 
2.8300000000015477, 0.12642200968728995 
2.840000000001569, 0.12624293270716735 
2.85000000000159, 0.1260734636861692 
2.860000000001611, 0.12606095024119252 
2.870000000001632, 0.12654712106117033 
2.8800000000016532, 0.12822721268798903 
2.8900000000016743, 0.13213592023665263 
2.9000000000016954, 0.13893262652926278 
2.9100000000017165, 0.14769087144717136 
2.9200000000017377, 0.15616571152574832 
2.9300000000017588, 0.16271346456426722 
2.94000000000178, 0.16709146588040896 
2.950000000001801, 0.1697886015519128 
2.960000000001822, 0.1713655906102723 
2.970000000001843, 0.17223761787152608 
2.9800000000018643, 0.17267550707433554 
2.9900000000018854, 0.17285245891074857 
3.0000000000019065, 0.1728826419879922 
3.0100000000019276, 0.17284586085589043 
3.0200000000019487, 0.1728033802213298 
3.03000000000197, 0.1728099562590973 
3.040000000001991, 0.17292504364623287 
3.050000000002012, 0.17322373432881447 
3.060000000002033, 0.1738040785814982 
3.070000000002054, 0.17478017720059455 
3.0800000000020753, 0.17624313074426615 
3.0900000000020964, 0.1781837756418065 
3.1000000000021175, 0.18042428859301538 
3.1100000000021386, 0.18265012385180077 
3.1200000000021597, 0.18455309894825925 
3.130000000002181, 0.18595856350587558 
3.140000000002202, 0.18683808528398202 
3.150000000002223, 0.18724689151939253 
3.160000000002244, 0.18726469890457664 
3.1700000000022652, 0.18697017225820475 
3.1800000000022863, 0.18644029160271167 
3.1900000000023074, 0.18575670695640717 
3.2000000000023285, 0.18500570505351474 
3.2100000000023496, 0.1842684443105412 
3.2200000000023707, 0.1836083358426422 
3.230000000002392, 0.18306480862956942 
3.240000000002413, 0.1826560898378703 
3.250000000002434, 0.1823865229763083 
3.260000000002455, 0.18225251499461464 
3.2700000000024763, 0.1822438251034297 
3.2800000000024974, 0.18234009325982337 
3.2900000000025185, 0.18250517959541676 
3.3000000000025396, 0.18268374850955868 
3.3100000000025607, 0.18280380623569956 
3.3200000000025818, 0.18278423978306535 
3.330000000002603, 0.1825411472740818 
3.340000000002624, 0.18198715399697002 
3.350000000002645, 0.18102542484779763 
3.360000000002666, 0.17955052260384563 
3.3700000000026873, 0.17747693816491844 
3.3800000000027084, 0.17481149596173073 
3.3900000000027295, 0.171741238885131 
3.4000000000027506, 0.1686348970397366 
3.4100000000027717, 0.16588631274851234 
3.420000000002793, 0.16371946496679843 
3.430000000002814, 0.16213999158206488 
3.440000000002835, 0.1610270099195295 
3.450000000002856, 0.16023609503634764 
3.460000000002877, 0.15964844514590384 
3.4700000000028983, 0.1591775409280976 
3.4800000000029194, 0.15875887596056848 
3.4900000000029405, 0.15833656052900472 
3.5000000000029616, 0.15785058840403873 
3.5100000000029827, 0.15722395443606765 
3.520000000003004, 0.15634654574598159 
3.530000000003025, 0.15505082997339323 
3.540000000003046, 0.1530738568740282 
3.550000000003067, 0.1500085257879225 
3.5600000000030882, 0.14528843780503617 
3.5700000000031094, 0.13836403196008776 
3.5800000000031305, 0.12931977898071984 
3.5900000000031516, 0.11965204136665511 
3.6000000000031727, 0.11172997065452321 
3.6100000000031938, 0.10679184603859686 
3.620000000003215, 0.10432028900816834 
3.630000000003236, 0.10322834995470007 
3.640000000003257, 0.1027340712748203 
3.650000000003278, 0.10244203588833764 
3.6600000000032993, 0.10218106038028878 
3.6700000000033204, 0.10187761701997969 
3.6800000000033415, 0.10149077508415634 
3.6900000000033626, 0.10098080413656474 
3.7000000000033837, 0.10029000539742845 
3.710000000003405, 0.09932328526940135 
3.720000000003426, 0.09791889937191359 
3.730000000003447, 0.09579799632112765 
3.740000000003468, 0.09247936214446621 
3.750000000003489, 0.08716229013191555 
3.7600000000035103, 0.0786912450065549 
3.7700000000035314, 0.06607686706430699 
3.7800000000035525, 0.050314067679944355 
3.7900000000035736, 0.03597217410990814 
3.8000000000035947, 0.027702179166492175 
3.810000000003616, 0.02529550544302205 
3.820000000003637, 0.025718596313733088 
3.830000000003658, 0.026792971490358242 
3.840000000003679, 0.02769601724005675 
3.8500000000037002, 0.028262470652104448 
3.8600000000037213, 0.02852441128228698 
3.8700000000037424, 0.02854122385268031 
3.8800000000037635, 0.02835295295601139 
3.8900000000037847, 0.02797043280037397 
3.9000000000038058, 0.027371417718636836 
3.910000000003827, 0.026492140795113146 
3.920000000003848, 0.025208302411286087 
3.930000000003869, 0.023297975819776225 
3.94000000000389, 0.02037550563642104 
3.9500000000039113, 0.0157893513597054 
3.9600000000039324, 0.008526724636681735 
3.9700000000039535, -0.0025340367129903204 
3.9800000000039746, -0.017440880897959577 
3.9900000000039957, -0.03377561165330424 
4.000000000004016, -0.04598168909405008 
4.010000000003993, -0.05117568323346357 
4.02000000000397, -0.05144379215888595 
4.030000000003946, -0.049905603088524673 
4.040000000003923, -0.048219922732494896 
4.0500000000039, -0.04688113360603577 
4.0600000000038765, -0.045925055774899706 
4.070000000003853, -0.04527728284185516 
4.08000000000383, -0.044865241643658446 
4.090000000003807, -0.044643382542022644 
4.100000000003783, -0.044595344102052056 
4.11000000000376, -0.044733855434966364 
4.120000000003737, -0.045104778883572824 
4.130000000003713, -0.04579837780165321 
4.14000000000369, -0.046971367591579466 
4.150000000003667, -0.04888466372279534 
4.1600000000036434, -0.05195968854632247 
4.17000000000362, -0.05683607231218059 
4.180000000003597, -0.06433641212437338 
4.1900000000035735, -0.07507482135123009 
4.20000000000355, -0.08844792024889021 
4.210000000003527, -0.10181951117279905 
4.220000000003504, -0.11196936609352692 
4.23000000000348, -0.11780726890430841 
4.240000000003457, -0.12045434325416486 
4.250000000003434, -0.12142620954757959 
4.26000000000341, -0.1216892437616919 
4.270000000003387, -0.12169755616860105 
4.280000000003364, -0.12163385326314935 
4.2900000000033405, -0.12156628312592925 
4.300000000003317, -0.12152126385147573 
4.310000000003294, -0.12151366449638998 
4.320000000003271, -0.12155968279881033 
4.330000000003247, -0.12168386042314105 
4.340000000003224, -0.12192494413870536 
4.350000000003201, -0.12234248085547059 
4.360000000003177, -0.12302479539751143 
4.370000000003154, -0.12409790976139187 
4.380000000003131, -0.12573213905684846 
4.390000000003107, -0.1281352972154627 
4.400000000003084, -0.13150673264380852 
4.410000000003061, -0.13591826382056577 
4.4200000000030375, -0.14113748143958477 
4.430000000003014, -0.14655117221598551 
4.440000000002991, -0.15139291648975367 
4.450000000002968, -0.15515313391902336 
4.460000000002944, -0.15775996262718966 
4.470000000002921, -0.15942811800562845 
4.480000000002898, -0.1604359822671607 
4.490000000002874, -0.16100887434625122 
4.500000000002851, -0.1612977088506497 
4.510000000002828, -0.16139493438348385 
4.520000000002804, -0.1613552812584296 
4.530000000002781, -0.16121224432100212 
4.540000000002758, -0.16099036171948017 
4.5500000000027345, -0.16071487855285055 
4.560000000002711, -0.160419188035136 
4.570000000002688, -0.16014883011850395 
4.580000000002665, -0.15996046070173792 
4.590000000002641, -0.1599157861291636 
4.600000000002618, -0.16007230397065955 
4.610000000002595, -0.16047222917947887 
4.620000000002571, -0.1611290749976641 
4.630000000002548, -0.16201286228987619 
4.640000000002525, -0.16304221020147328 
4.6500000000025015, -0.1640965967048188 
4.660000000002478, -0.16505125093392115 
4.670000000002455, -0.16581516415073783 
4.6800000000024315, -0.16634745684301339 
4.690000000002408, -0.16664754167885734 
4.700000000002385, -0.1667335734370441 
4.710000000002362, -0.16662360183489727 
4.720000000002338, -0.16632438116297277 
4.730000000002315, -0.16582681481667272 
4.740000000002292, -0.16510678240184257 
4.750000000002268, -0.16413263529586933 
4.760000000002245, -0.16288239229020438 
4.770000000002222, -0.16137015782045405 
4.7800000000021985, -0.15966972580804759 
4.790000000002175, -0.15791300160867167 
4.800000000002152, -0.15625279957366917 
4.810000000002129, -0.15481188061184212 
4.820000000002105, -0.1536528911118823 
4.830000000002082, -0.15278001528810925 
4.840000000002059, -0.15215748966494586 
