t, s[1].omega / s[0].omega 
0, -0.799968273959584 
0.009999999999999995, -0.796754105247919 
0.019999999999999934, -0.7935697354553397 
0.029999999999999874, -0.7905541062964969 
0.04000000000000012, -0.7878057914342433 
0.050000000000000405, -0.7853899137929516 
0.06000000000000069, -0.7833469625911124 
0.07000000000000098, -0.7816972832555475 
0.08000000000000126, -0.7804410846941948 
0.09000000000000155, -0.7795570200626235 
0.10000000000000184, -0.7790028393933351 
0.11000000000000212, -0.778720012661598 
0.12000000000000241, -0.7786416816565015 
0.130000000000002, -0.7787013768982918 
0.1400000000000009, -0.7788398053682426 
0.1499999999999998, -0.7790084914860326 
0.1599999999999987, -0.7791708238790996 
0.1699999999999976, -0.7793018545468733 
0.1799999999999965, -0.7793876319042157 
0.1899999999999954, -0.7794235670650259 
0.1999999999999943, -0.7794107340119172 
0.2099999999999932, -0.7793502338612754 
0.2199999999999921, -0.7792380951284009 
0.229999999999991, -0.7790640814312103 
0.2399999999999899, -0.7788156018909581 
0.2499999999999888, -0.7784843101355918 
0.2599999999999877, -0.7780714520503587 
0.2699999999999866, -0.7775899909877398 
0.2799999999999855, -0.7770646463844498 
0.2899999999999844, -0.776532179624084 
0.2999999999999833, -0.7760430961352387 
0.3099999999999822, -0.7756639170714903 
0.3199999999999811, -0.7754777090803959 
0.32999999999998, -0.7755804063766979 
0.3399999999999789, -0.7760719381377493 
0.3499999999999778, -0.7770437569196444 
0.35999999999997667, -0.7785663283728488 
0.36999999999997557, -0.7806796468323215 
0.37999999999997447, -0.7833868017701474 
0.38999999999997337, -0.7866472307597179 
0.39999999999997227, -0.7903657416551968 
0.40999999999997117, -0.7943783637787077 
0.41999999999997006, -0.7984467925768423 
0.42999999999996896, -0.8022822574608399 
0.43999999999996786, -0.8056097972097845 
0.44999999999996676, -0.8082480902733465 
0.45999999999996566, -0.8101525461127224 
0.46999999999996456, -0.8113942915089167 
0.47999999999996346, -0.8121006192697356 
0.48999999999996235, -0.8124004004699252 
0.49999999999996125, -0.8123952421123013 
0.5099999999999602, -0.8121528923721657 
0.519999999999959, -0.811712661508991 
0.529999999999958, -0.811096964277392 
0.5399999999999568, -0.8103297040735983 
0.5499999999999557, -0.8094681207457904 
0.5599999999999546, -0.8086589342151804 
0.5699999999999535, -0.8082277533117187 
0.5799999999999524, -0.8087909994174239 
0.5899999999999513, -0.811325890144167 
0.5999999999999502, -0.8170514449446928 
0.6099999999999491, -0.826947136218601 
0.619999999999948, -0.840957379851457 
0.6299999999999469, -0.8574546994166126 
0.6399999999999458, -0.8737449363229379 
0.6499999999999447, -0.8874660848565104 
0.6599999999999436, -0.8976099602656739 
0.6699999999999425, -0.9044184175818414 
0.6799999999999414, -0.9086920489514176 
0.6899999999999403, -0.9112443272223052 
0.6999999999999392, -0.9126885232865506 
0.7099999999999381, -0.9134248604054583 
0.719999999999937, -0.9136909161923406 
0.7299999999999359, -0.9136117042669015 
0.7399999999999348, -0.9132320788579295 
0.7499999999999337, -0.9125308186788958 
0.7599999999999326, -0.9114191453530787 
0.7699999999999315, -0.909726937738869 
0.7799999999999304, -0.9071836061389277 
0.7899999999999293, -0.9034131848085758 
0.7999999999999282, -0.897988390638111 
0.8099999999999271, -0.8906122016703089 
0.819999999999926, -0.8814570993034087 
0.8299999999999249, -0.8715054688049472 
0.8399999999999238, -0.8624831109662955 
0.8499999999999227, -0.8561016858745933 
0.8599999999999216, -0.8530753389880419 
0.8699999999999205, -0.8528484317960825 
0.8799999999999194, -0.8542148173832697 
0.8899999999999183, -0.8560829263660924 
0.8999999999999172, -0.8578080524574336 
0.9099999999999161, -0.8591389410461924 
0.919999999999915, -0.8600451691718785 
0.9299999999999139, -0.8605800133129307 
0.9399999999999128, -0.8608063962328927 
0.9499999999999117, -0.8607649119731754 
0.9599999999999106, -0.8604603387312176 
0.9699999999999095, -0.859851618633224 
0.9799999999999084, -0.8588373650630036 
0.9899999999999073, -0.8572343080446991 
0.9999999999999062, -0.8547543456236584 
1.0099999999999052, -0.851003133244021 
1.019999999999904, -0.8455475136429099 
1.029999999999903, -0.8380979022338758 
1.039999999999902, -0.8287642972314583 
1.0499999999999008, -0.8181981444416266 
1.0599999999998997, -0.8074390074769221 
1.0699999999998986, -0.7975407388623246 
1.0799999999998975, -0.7892454507563429 
1.0899999999998964, -0.7828683490830889 
1.0999999999998953, -0.7783588143334884 
1.1099999999998942, -0.7754339313854679 
1.119999999999893, -0.7737118649879782 
1.129999999999892, -0.7728129695669391 
1.1399999999998909, -0.7724191506813498 
1.1499999999998898, -0.7722948360135515 
1.1599999999998887, -0.7722810431679734 
1.1699999999998876, -0.7722763688415664 
1.1799999999998865, -0.7722157740136596 
1.1899999999998854, -0.7720532277343966 
1.1999999999998843, -0.7717506922652505 
1.2099999999998832, -0.7712743666007519 
1.219999999999882, -0.770598284005602 
1.229999999999881, -0.7697132576762862 
1.2399999999998799, -0.7686353938006235 
1.2499999999998788, -0.7674065364767957 
1.2599999999998777, -0.7660837209419529 
1.2699999999998766, -0.7647235051638621 
1.2799999999998755, -0.7633707439015426 
1.2899999999998744, -0.7620565424252247 
1.2999999999998733, -0.7608031588010125 
1.3099999999998722, -0.7596307918131464 
1.319999999999871, -0.7585625027875657 
1.32999999999987, -0.7576259088091867 
1.3399999999998689, -0.7568518087195241 
1.3499999999998678, -0.7562705275909336 
1.3599999999998666, -0.7559071275302499 
1.3699999999998655, -0.7557769562056122 
1.3799999999998644, -0.7558830121307818 
1.3899999999998633, -0.7562160349319181 
1.3999999999998622, -0.7567572195576652 
1.4099999999998611, -0.757482465998345 
1.41999999999986, -0.7583665137913815 
1.429999999999859, -0.7593852483679686 
1.4399999999998578, -0.7605147730628026 
1.4499999999998567, -0.7617266161210423 
1.4599999999998556, -0.7629802063891648 
1.4699999999998545, -0.7642166791239542 
1.4799999999998534, -0.7653604025657887 
1.4899999999998523, -0.7663323880924493 
1.4999999999998512, -0.7670712167378576 
1.5099999999998501, -0.7675490180366722 
1.519999999999849, -0.767772688125598 
1.529999999999848, -0.7677723532289489 
1.5399999999998468, -0.7675870972566854 
1.5499999999998457, -0.7672562805048829 
1.5599999999998446, -0.7668193410000208 
1.5699999999998435, -0.7663240240753175 
1.5799999999998424, -0.7658430278974827 
1.5899999999998413, -0.7654995820811218 
1.5999999999998402, -0.7655008721917799 
1.6099999999998391, -0.7661725626306553 
1.619999999999838, -0.7679776638781777 
1.629999999999837, -0.7714916403461158 
1.6399999999998358, -0.7772999948500925 
1.6499999999998347, -0.785795729110484 
1.6599999999998336, -0.796900308199423 
1.6699999999998325, -0.809831301703176 
1.6799999999998314, -0.8231464132444636 
1.6899999999998303, -0.8352158665002045 
1.6999999999998292, -0.8448922551689565 
1.709999999999828, -0.85186231349289 
1.719999999999827, -0.856473481374279 
1.729999999999826, -0.8593293834295584 
1.7399999999998248, -0.8609930227111731 
1.7499999999998237, -0.8618773585295816 
1.7599999999998226, -0.8622470569169287 
1.7699999999998215, -0.8622538374227439 
1.7799999999998204, -0.8619688906971656 
1.7899999999998193, -0.8614026853211515 
1.7999999999998182, -0.8605127229068812 
1.809999999999817, -0.8592029123409699 
1.819999999999816, -0.8573210727539816 
1.8299999999998149, -0.8546675532431699 
1.8399999999998138, -0.8510384824934498 
1.8499999999998127, -0.8463319855505018 
1.8599999999998116, -0.8407170552950373 
1.8699999999998105, -0.8347804793838387 
1.8799999999998094, -0.8294890136412828 
1.8899999999998083, -0.8258679967380802 
1.8999999999998072, -0.8245100169893524 
1.909999999999806, -0.8252460598951015 
1.919999999999805, -0.82729432737274 
1.9299999999998039, -0.8297577952029078 
1.9399999999998028, -0.8320139794908845 
1.9499999999998017, -0.8337895000560976 
1.9599999999998006, -0.8350470441574395 
1.9699999999997995, -0.8358533791434924 
1.9799999999997984, -0.836295461626914 
1.9899999999997973, -0.8364415501088525 
1.9999999999997962, -0.8363265742274443 
2.0099999999998173, -0.8359453643364564 
2.0199999999998384, -0.8352443461989625 
2.0299999999998595, -0.8341072700710775 
2.0399999999998806, -0.8323355212501486 
2.0499999999999017, -0.8296333681862059 
2.059999999999923, -0.8256269281340716 
2.069999999999944, -0.8199623279119772 
2.079999999999965, -0.8125012682696833 
2.089999999999986, -0.8035238908665374 
2.100000000000007, -0.7937540111463531 
2.1100000000000283, -0.7841292395082001 
2.1200000000000494, -0.7754766968901728 
2.1300000000000705, -0.7683096184035301 
2.1400000000000916, -0.7628015012744727 
2.1500000000001127, -0.7588651509136919 
2.160000000000134, -0.7562574453263489 
2.170000000000155, -0.7546712145808057 
2.180000000000176, -0.7538026556660958 
2.190000000000197, -0.7533921989027873 
2.2000000000002182, -0.753240945478344 
2.2100000000002393, -0.7532086758670866 
2.2200000000002604, -0.7532015930867871 
2.2300000000002815, -0.7531572271523505 
2.2400000000003026, -0.7530314700345764 
2.2500000000003237, -0.7527903711478753 
2.260000000000345, -0.75240778462451 
2.270000000000366, -0.7518684805464315 
2.280000000000387, -0.7511739137764405 
2.290000000000408, -0.7503453240527491 
2.3000000000004293, -0.749419484998231 
2.3100000000004504, -0.7484378126651267 
2.3200000000004715, -0.7474352114912743 
2.3300000000004926, -0.7464349990457515 
2.3400000000005137, -0.7454511393283301 
2.3500000000005348, -0.744494459591946 
2.360000000000556, -0.7435787794314022 
2.370000000000577, -0.7427247597884795 
2.380000000000598, -0.7419611884709625 
2.390000000000619, -0.7413241068933399 
2.4000000000006403, -0.7408540793090805 
2.4100000000006614, -0.7405919188144163 
2.4200000000006825, -0.7405736531905498 
2.4300000000007036, -0.740826064719935 
2.4400000000007247, -0.7413641754197529 
2.450000000000746, -0.7421913247241367 
2.460000000000767, -0.74330128727947 
2.470000000000788, -0.7446807394749475 
2.480000000000809, -0.7463097211214258 
2.49000000000083, -0.748157857946184 
2.5000000000008513, -0.7501755658122526 
2.5100000000008724, -0.7522830652744045 
2.5200000000008935, -0.7543654025564414 
2.5300000000009146, -0.7562843352506954 
2.5400000000009357, -0.7579101555632979 
2.550000000000957, -0.759158764723127 
2.560000000000978, -0.760009869762768 
2.570000000000999, -0.7604963253956288 
2.58000000000102, -0.7606771571020935 
2.5900000000010412, -0.7606130233624386 
2.6000000000010624, -0.7603533448327736 
2.6100000000010835, -0.7599347402038977 
2.6200000000011046, -0.7593879911361461 
2.6300000000011257, -0.7587531900703536 
2.6400000000011468, -0.7581063659947874 
2.650000000001168, -0.7576033657459094 
2.660000000001189, -0.7575450331046574 
2.67000000000121, -0.758455765322194 
2.680000000001231, -0.7611370619805975 
2.6900000000012523, -0.766607299635083 
2.7000000000012734, -0.7758006697486852 
2.7100000000012945, -0.788976371310694 
2.7200000000013156, -0.8051122782593886 
2.7300000000013367, -0.8219366547081046 
2.740000000001358, -0.8369405399854232 
2.750000000001379, -0.8486027559925216 
2.7600000000014, -0.8567433402068151 
2.770000000001421, -0.86200984763773 
2.780000000001442, -0.865242642110234 
2.7900000000014633, -0.8671396620812084 
2.8000000000014844, -0.8681817141708548 
2.8100000000015055, -0.8686671922734428 
2.8200000000015266, -0.8687650278997154 
2.8300000000015477, -0.8685543054156775 
2.840000000001569, -0.8680452574804385 
2.85000000000159, -0.8671830103721423 
2.860000000001611, -0.8658350916768007 
2.870000000001632, -0.8637626839169406 
2.8800000000016532, -0.8605787010775016 
2.8900000000016743, -0.8557110403208108 
2.9000000000016954, -0.8484289880657492 
2.9100000000017165, -0.8380510767254885 
2.9200000000017377, -0.8244442646812944 
2.9300000000017588, -0.8086380851163263 
2.94000000000178, -0.7928790835823317 
2.950000000001801, -0.7796361835790645 
2.960000000001822, -0.7703027192455628 
2.970000000001843, -0.7648047956585873 
2.9800000000018643, -0.7621742944242484 
2.9900000000018854, -0.7612892557813524 
3.0000000000019065, -0.7612791684333076 
3.0100000000019276, -0.7616027601774558 
3.0200000000019487, -0.7619738181399265 
3.03000000000197, -0.762261173727164 
3.040000000001991, -0.762411832744864 
3.050000000002012, -0.7624030899265484 
3.060000000002033, -0.7622153730560205 
3.070000000002054, -0.761817026050883 
3.0800000000020753, -0.761156020563732 
3.0900000000020964, -0.7601583839641763 
3.1000000000021175, -0.7587376740111175 
3.1100000000021386, -0.756820951048645 
3.1200000000021597, -0.7543884780367454 
3.130000000002181, -0.7515069250130814 
3.140000000002202, -0.7483278715403402 
3.150000000002223, -0.7450455820761516 
3.160000000002244, -0.7418421483890136 
3.1700000000022652, -0.7388532690451732 
3.1800000000022863, -0.7361633765726686 
3.1900000000023074, -0.7338177456680459 
3.2000000000023285, -0.7318368574333581 
3.2100000000023496, -0.7302256540544534 
3.2200000000023707, -0.728977022543315 
3.230000000002392, -0.7280719707396452 
3.240000000002413, -0.727479432711658 
3.250000000002434, -0.7271577230879664 
3.260000000002455, -0.7270581830455198 
3.2700000000024763, -0.7271302149543846 
3.2800000000024974, -0.7273262760042345 
3.2900000000025185, -0.7276056667046699 
3.3000000000025396, -0.7279367041520779 
3.3100000000025607, -0.7282974200120695 
3.3200000000025818, -0.7286748210482566 
3.330000000002603, -0.7290622203490775 
3.340000000002624, -0.7294541133891294 
3.350000000002645, -0.7298394162373828 
3.360000000002666, -0.7301961497810849 
3.3700000000026873, -0.7304916529619423 
3.3800000000027084, -0.7306899510228211 
3.3900000000027295, -0.7307628085804387 
3.4000000000027506, -0.7306978907108845 
3.4100000000027717, -0.7305000526852644 
3.420000000002793, -0.7301874974080695 
3.430000000002814, -0.7297877030627766 
3.440000000002835, -0.7293370880259571 
3.450000000002856, -0.7288859861039041 
3.460000000002877, -0.7285087792248256 
3.4700000000028983, -0.7283178751393786 
3.4800000000029194, -0.7284786911597616 
3.4900000000029405, -0.729220598704115 
3.5000000000029616, -0.730836603323315 
3.5100000000029827, -0.7336634213872164 
3.520000000003004, -0.7380336882667917 
3.530000000003025, -0.7441928366183375 
3.540000000003046, -0.7521783379478543 
3.550000000003067, -0.7616822524956672 
3.5600000000030882, -0.7719728458207082 
3.5700000000031094, -0.7820003238772429 
3.5800000000031305, -0.7907356814720875 
3.5900000000031516, -0.7975584541426792 
3.6000000000031727, -0.802398342728667 
3.6100000000031938, -0.8055703878444058 
3.620000000003215, -0.8075120067897329 
3.630000000003236, -0.8086091070742004 
3.640000000003257, -0.8091383931031283 
3.650000000003278, -0.809273286177954 
3.6600000000032993, -0.8091070163439016 
3.6700000000033204, -0.808671734590798 
3.6800000000033415, -0.8079479136292601 
3.6900000000033626, -0.8068639792636942 
3.7000000000033837, -0.8052877914912757 
3.710000000003405, -0.8030133879926445 
3.720000000003426, -0.7997509499926327 
3.730000000003447, -0.7951369064559792 
3.740000000003468, -0.7887945827748033 
3.750000000003489, -0.7804905740746889 
3.7600000000035103, -0.7704213572999493 
3.7700000000035314, -0.7595243617673363 
3.7800000000035525, -0.7494097966353876 
3.7900000000035736, -0.7416153468930318 
3.8000000000035947, -0.7367613652082012 
3.810000000003616, -0.7344532851311868 
3.820000000003637, -0.733823891449731 
3.830000000003658, -0.7340587928044533 
3.840000000003679, -0.7346083577223462 
3.8500000000037002, -0.7351744838415264 
3.8600000000037213, -0.7356244697691728 
3.8700000000037424, -0.7359122441178637 
3.8800000000037635, -0.736026766598648 
3.8900000000037847, -0.7359628409585597 
3.9000000000038058, -0.7357052586876515 
3.910000000003827, -0.7352198146714869 
3.920000000003848, -0.7344488999958185 
3.930000000003869, -0.7333138673727226 
3.94000000000389, -0.7317300546024568 
3.9500000000039113, -0.729638950967657 
3.9600000000039324, -0.7270496649380883 
3.9700000000039535, -0.72406375065009 
3.9800000000039746, -0.7208578781627966 
3.9900000000039957, -0.7176305724800491 
4.000000000004016, -0.7145491888884726 
4.010000000003993, -0.7117256760401377 
4.02000000000397, -0.7092208101266092 
4.030000000003946, -0.7070606990070165 
4.040000000003923, -0.7052520189568898 
4.0500000000039, -0.7037908752430837 
4.0600000000038765, -0.7026658929076532 
4.070000000003853, -0.701858197134943 
4.08000000000383, -0.7013408909700322 
4.090000000003807, -0.70107971585975 
4.100000000003783, -0.7010354171880665 
4.11000000000376, -0.7011673428489946 
4.120000000003737, -0.7014372998894307 
4.130000000003713, -0.7018127643151713 
4.14000000000369, -0.7022689156977561 
4.150000000003667, -0.7027891993272102 
4.1600000000036434, -0.7033639531122147 
4.17000000000362, -0.7039863931479942 
4.180000000003597, -0.7046457918790827 
4.1900000000035735, -0.7053196309254418 
4.20000000000355, -0.7059690504635479 
4.210000000003527, -0.7065424179354844 
4.220000000003504, -0.7069877729906716 
4.23000000000348, -0.7072679561641244 
4.240000000003457, -0.7073692790667984 
4.250000000003434, -0.7072998259700911 
4.26000000000341, -0.7070814202969419 
4.270000000003387, -0.7067421808692405 
4.280000000003364, -0.7063142166563136 
4.2900000000033405, -0.7058380019569956 
4.300000000003317, -0.7053739079012519 
4.310000000003294, -0.7050216231259483 
4.320000000003271, -0.7049480486170489 
4.330000000003247, -0.7054219945209139 
4.340000000003224, -0.7068480533025118 
4.350000000003201, -0.7097810343633187 
4.360000000003177, -0.7148861890116694 
4.370000000003154, -0.7227945975602932 
4.380000000003131, -0.7338121853205786 
4.390000000003107, -0.7475331060178468 
4.400000000003084, -0.7626160340307372 
4.410000000003061, -0.777101210341915 
4.4200000000030375, -0.7892623781465622 
4.430000000003014, -0.7983259321658733 
4.440000000002991, -0.8044791143093555 
4.450000000002968, -0.8083863790067763 
4.460000000002944, -0.8107460458548973 
4.470000000002921, -0.8120958857251546 
4.480000000002898, -0.8127918008741772 
4.490000000002874, -0.8130472940625829 
4.500000000002851, -0.81297570325736 
4.510000000002828, -0.8126178206519052 
4.520000000002804, -0.8119530179908448 
4.530000000002781, -0.8108946883460636 
4.540000000002758, -0.8092694790625847 
4.5500000000027345, -0.8067791778393276 
4.560000000002711, -0.8029499824992609 
4.570000000002688, -0.7970982792062282 
4.580000000002665, -0.7884002825221506 
4.590000000002641, -0.7762178098084872 
4.600000000002618, -0.7607299332626183 
4.610000000002595, -0.7434475617870185 
4.620000000002571, -0.7268405482495186 
4.630000000002548, -0.7131013383079828 
4.640000000002525, -0.7031852160556123 
4.6500000000025015, -0.6968420740616519 
4.660000000002478, -0.6932165017175381 
4.670000000002455, -0.6913829064408157 
4.6800000000024315, -0.6906024494678579 
4.690000000002408, -0.6903732824764892 
4.700000000002385, -0.6903888654549922 
4.710000000002362, -0.6904756586380889 
4.720000000002338, -0.6905397293929825 
4.730000000002315, -0.6905291380516785 
4.740000000002292, -0.6904101713641911 
4.750000000002268, -0.69015381225359 
4.760000000002245, -0.6897300531955655 
4.770000000002222, -0.6891094205607604 
4.7800000000021985, -0.6882714981482922 
4.790000000002175, -0.6872176467695137 
4.800000000002152, -0.6859803394860258 
4.810000000002129, -0.6846202776638177 
4.820000000002105, -0.6832100118266946 
4.830000000002082, -0.6818136868410456 
4.840000000002059, -0.6804747984763384 
4.850000000002035, -0.6792160185110254 
4.860000000002012, -0.6780469141363887 
4.870000000001989, -0.6769732195714921 
4.880000000001965, -0.6760036808701846 
4.890000000001942, -0.675153506937858 
4.900000000001919, -0.6744450827501387 
4.9100000000018955, -0.6739068633657104 
4.920000000001872, -0.6735711252299537 
