t, s[1].omega / s[0].omega 
0, -0.6499977103743888 
0.009999999999999995, -0.6497662626971291 
0.019999999999999934, -0.6495245178300045 
0.029999999999999874, -0.6492591844867708 
0.04000000000000012, -0.6489556013507414 
0.050000000000000405, -0.6486042123089973 
0.06000000000000069, -0.6482041270956651 
0.07000000000000098, -0.6477637162660661 
0.08000000000000126, -0.647300239080884 
0.09000000000000155, -0.646840664517611 
0.10000000000000184, -0.6464249074297588 
0.11000000000000212, -0.6461117478595113 
0.12000000000000241, -0.645987051735461 
0.130000000000002, -0.6461733306040122 
0.1400000000000009, -0.6468388411512315 
0.1499999999999998, -0.6482030136373276 
0.1599999999999987, -0.6505325114896714 
0.1699999999999976, -0.6541180102982437 
0.1799999999999965, -0.6592164447196246 
0.1899999999999954, -0.6659433733282034 
0.1999999999999943, -0.674123397205632 
0.2099999999999932, -0.6831727205368019 
0.2199999999999921, -0.6921585402899374 
0.229999999999991, -0.7001121632702181 
0.2399999999999899, -0.7064175050269795 
0.2499999999999888, -0.7109666600852298 
0.2599999999999877, -0.7140153946503234 
0.2699999999999866, -0.7159420742239309 
0.2799999999999855, -0.7170879717024865 
0.2899999999999844, -0.7177029418324131 
0.2999999999999833, -0.7179484298298344 
0.3099999999999822, -0.7179165054589668 
0.3199999999999811, -0.7176461262424116 
0.32999999999998, -0.7171310716943367 
0.3399999999999789, -0.7163185190916423 
0.3499999999999778, -0.7150980666952964 
0.35999999999997667, -0.713282135806438 
0.36999999999997557, -0.7105844766115318 
0.37999999999997447, -0.7066199052327171 
0.38999999999997337, -0.700975237984504 
0.39999999999997227, -0.6934050892334073 
0.40999999999997117, -0.6841090450039455 
0.41999999999997006, -0.673862620516986 
0.42999999999996896, -0.6637819891048939 
0.43999999999996786, -0.6548579708417892 
0.44999999999996676, -0.6476364158433798 
0.45999999999996566, -0.6422063081159994 
0.46999999999996456, -0.638364948470279 
0.47999999999996346, -0.6357911952597498 
0.48999999999996235, -0.6341570228134654 
0.49999999999996125, -0.6331800069242985 
0.5099999999999602, -0.6326390103219499 
0.519999999999959, -0.6323714547811047 
0.529999999999958, -0.6322631340555247 
0.5399999999999568, -0.6322363123797051 
0.5499999999999557, -0.6322389288717274 
0.5599999999999546, -0.6322361984900493 
0.5699999999999535, -0.6322051164626517 
0.5799999999999524, -0.6321318745149255 
0.5899999999999513, -0.632011565998585 
0.5999999999999502, -0.6318486064549503 
0.6099999999999491, -0.6316555426794442 
0.619999999999948, -0.6314485426964253 
0.6299999999999469, -0.6312403049598788 
0.6399999999999458, -0.6310337650884044 
0.6499999999999447, -0.630820321721264 
0.6599999999999436, -0.6305837400507917 
0.6699999999999425, -0.6303073714349136 
0.6799999999999414, -0.6299806418540308 
0.6899999999999403, -0.6296021689963842 
0.6999999999999392, -0.629179840553981 
0.7099999999999381, -0.6287301150409802 
0.719999999999937, -0.6282787945521625 
0.7299999999999359, -0.6278645606712783 
0.7399999999999348, -0.6275457450129728 
0.7499999999999337, -0.6274103429340013 
0.7599999999999326, -0.6275888101950858 
0.7699999999999315, -0.628268189555062 
0.7799999999999304, -0.6297039514023516 
0.7899999999999293, -0.6322216071091353 
0.7999999999999282, -0.6361925289873941 
0.8099999999999271, -0.6419586975413176 
0.819999999999926, -0.6496808047267644 
0.8299999999999249, -0.6591249440779967 
0.8399999999999238, -0.6695126814366915 
0.8499999999999227, -0.6796515539921575 
0.8599999999999216, -0.6884025130714371 
0.8699999999999205, -0.6951540242941767 
0.8799999999999194, -0.6999138640464324 
0.8899999999999183, -0.703055765334579 
0.8999999999999172, -0.7050298336918259 
0.9099999999999161, -0.7062091315157297 
0.919999999999915, -0.7068545405821127 
0.9299999999999139, -0.7071306257873796 
0.9399999999999128, -0.7071304360716871 
0.9499999999999117, -0.7068938583916482 
0.9599999999999106, -0.7064163964234156 
0.9699999999999095, -0.7056486855177451 
0.9799999999999084, -0.704487723348134 
0.9899999999999073, -0.7027626554869031 
0.9999999999999062, -0.7002248211844468 
1.0099999999999052, -0.6965665129439256 
1.019999999999904, -0.6915072239940432 
1.029999999999903, -0.6849634853985274 
1.039999999999902, -0.6772214127682721 
1.0499999999999008, -0.6689409891263984 
1.0599999999998997, -0.6609245836537518 
1.0699999999998986, -0.6538189114293324 
1.0799999999998975, -0.6479627503151671 
1.0899999999998964, -0.6434127018008908 
1.0999999999998953, -0.6400484913436715 
1.1099999999998942, -0.637671674695789 
1.119999999999893, -0.6360690604005514 
1.129999999999892, -0.6350452479500897 
1.1399999999998909, -0.6344358981554988 
1.1499999999998898, -0.6341105739134383 
1.1599999999998887, -0.633970288092846 
1.1699999999998876, -0.6339426135014036 
1.1799999999998865, -0.633976102649364 
1.1899999999998854, -0.6340352109034024 
1.1999999999998843, -0.6340965160336814 
1.2099999999998832, -0.6341465513929148 
1.219999999999882, -0.6341808612283876 
1.229999999999881, -0.6342030096761628 
1.2399999999998799, -0.6342218132704381 
1.2499999999998788, -0.6342459069152787 
1.2599999999998777, -0.6342769722154009 
1.2699999999998766, -0.6343050317489854 
1.2799999999998755, -0.6343090857296375 
1.2899999999998744, -0.6342634686788962 
1.2999999999998733, -0.6341465302495087 
1.3099999999998722, -0.6339468621590707 
1.319999999999871, -0.6336646933160357 
1.32999999999987, -0.6333098326588691 
1.3399999999998689, -0.6328993567362071 
1.3499999999998678, -0.6324576550098066 
1.3599999999998666, -0.6320201722278814 
1.3699999999998655, -0.6316414894203811 
1.3799999999998644, -0.6314082580396523 
1.3899999999998633, -0.6314572758353945 
1.3999999999998622, -0.6319977737196962 
1.4099999999998611, -0.6333335199953244 
1.41999999999986, -0.6358727266972465 
1.429999999999859, -0.6401000593648937 
1.4399999999998578, -0.6464685914925095 
1.4499999999998567, -0.6551738134910373 
1.4599999999998556, -0.6658530657050995 
1.4699999999998545, -0.6774340040254347 
1.4799999999998534, -0.6884288032321692 
1.4899999999998523, -0.6976044647370578 
1.4999999999998512, -0.7044681963197028 
1.5099999999998501, -0.7092018600864829 
1.519999999999849, -0.7122915964382582 
1.529999999999848, -0.7142294949109116 
1.5399999999998468, -0.7153939042650366 
1.5499999999998457, -0.7160399753398963 
1.5599999999998446, -0.7163261250582595 
1.5699999999998435, -0.7163413696965985 
1.5799999999998424, -0.7161235741657571 
1.5899999999998413, -0.7156678062245936 
1.5999999999998402, -0.7149259682279274 
1.6099999999998391, -0.7137993384039638 
1.619999999999838, -0.7121279288847804 
1.629999999999837, -0.7096876347286154 
1.6399999999998358, -0.7062185405389927 
1.6499999999998347, -0.7015135393443936 
1.6599999999998336, -0.695563552757043 
1.6699999999998325, -0.6886729977942699 
1.6799999999998314, -0.6814197025383827 
1.6899999999998303, -0.6744509161437425 
1.6999999999998292, -0.6682664694357201 
1.709999999999828, -0.6631255022903132 
1.719999999999827, -0.6590758826897782 
1.729999999999826, -0.6560318005740169 
1.7399999999998248, -0.6538437968962068 
1.7499999999998237, -0.6523445509010947 
1.7599999999998226, -0.651374124961323 
1.7699999999998215, -0.6507922354624676 
1.7799999999998204, -0.650483005463442 
1.7899999999998193, -0.6503552618945615 
1.7999999999998182, -0.6503401695833255 
1.809999999999817, -0.6503875431901267 
1.819999999999816, -0.6504620006893113 
1.8299999999998149, -0.6505398824374038 
1.8399999999998138, -0.6506073940757756 
1.8499999999998127, -0.6506596633002616 
1.8599999999998116, -0.6506994968502602 
1.8699999999998105, -0.6507342509500227 
1.8799999999998094, -0.6507702301440677 
1.8899999999998083, -0.6508062817049081 
1.8999999999998072, -0.6508300580634954 
1.909999999999806, -0.6508198037737849 
1.919999999999805, -0.650751296713224 
1.9299999999998039, -0.650606079171613 
1.9399999999998028, -0.6503765435235829 
1.9499999999998017, -0.6500663749700032 
1.9599999999998006, -0.6496883356402421 
1.9699999999997995, -0.6492625646922432 
1.9799999999997984, -0.6488176666223968 
1.9899999999997973, -0.6483956167252071 
1.9999999999997962, -0.6480608628878703 
2.0099999999998173, -0.6479137132655051 
2.0199999999998384, -0.6481074742526263 
2.0299999999998595, -0.6488670778710757 
2.0399999999998806, -0.6505031964336981 
2.0499999999999017, -0.6534088919275665 
2.059999999999923, -0.6580151794385858 
2.069999999999944, -0.6646726624700653 
2.079999999999965, -0.6734410837182435 
2.089999999999986, -0.683849350092537 
2.100000000000007, -0.6948290571320273 
2.1100000000000283, -0.705034677597286 
2.1200000000000494, -0.7134263486392246 
2.1300000000000705, -0.7196392817674198 
2.1400000000000916, -0.7238866735816724 
2.1500000000001127, -0.7266296953155857 
2.160000000000134, -0.728321906618133 
2.170000000000155, -0.7293084182924098 
2.180000000000176, -0.7298196512351247 
2.190000000000197, -0.7299958120361254 
2.2000000000002182, -0.7299114185745347 
2.2100000000002393, -0.7295908296658324 
2.2200000000002604, -0.7290137131438423 
2.2300000000002815, -0.7281110288920817 
2.2400000000003026, -0.7267525046805929 
2.2500000000003237, -0.7247294058096196 
2.260000000000345, -0.7217459206212893 
2.270000000000366, -0.7174510593114982 
2.280000000000387, -0.7115561914451501 
2.290000000000408, -0.7040424425416443 
2.3000000000004293, -0.6953367495015803 
2.3100000000004504, -0.686258558665981 
2.3200000000004715, -0.6777119486525274 
2.3300000000004926, -0.6703589037725861 
2.3400000000005137, -0.66449120426559 
2.3500000000005348, -0.6600935877565813 
2.360000000000556, -0.6569742932424993 
2.370000000000577, -0.6548754529445983 
2.380000000000598, -0.6535404068790915 
2.390000000000619, -0.6527462232485042 
2.4000000000006403, -0.6523147109341734 
2.4100000000006614, -0.6521117093513593 
2.4200000000006825, -0.6520407036216012 
2.4300000000007036, -0.6520344463785368 
2.4400000000007247, -0.6520468656038504 
2.450000000000746, -0.6520466363226133 
2.460000000000767, -0.652013139672198 
2.470000000000788, -0.6519348844738515 
2.480000000000809, -0.6518095682144687 
2.49000000000083, -0.651643909805345 
2.5000000000008513, -0.6514510644530024 
2.5100000000008724, -0.651244878217291 
2.5200000000008935, -0.6510330131679561 
2.5300000000009146, -0.6508127423867663 
2.5400000000009357, -0.6505720750711063 
2.550000000000957, -0.6502955376251444 
2.560000000000978, -0.6499711215995595 
2.570000000000999, -0.649594901182924 
2.58000000000102, -0.649172338593264 
2.5900000000010412, -0.6487178571759844 
2.6000000000010624, -0.6482550179012077 
2.6100000000010835, -0.6478188932245472 
2.6200000000011046, -0.6474611944125783 
2.6300000000011257, -0.6472579688642988 
2.6400000000011468, -0.647319114374336 
2.650000000001168, -0.6477982148819177 
2.660000000001189, -0.6488999722033592 
2.67000000000121, -0.6508803739911839 
2.680000000001231, -0.6540310510449715 
2.6900000000012523, -0.6586339402478166 
2.7000000000012734, -0.6648692472293715 
2.7100000000012945, -0.6726730749074519 
2.7200000000013156, -0.6815939960408316 
2.7300000000013367, -0.6907794061203462 
2.740000000001358, -0.699216112659504 
2.750000000001379, -0.7061345847086543 
2.7600000000014, -0.7112662666546299 
2.770000000001421, -0.714779269103943 
2.780000000001442, -0.7170392495916805 
2.7900000000014633, -0.7184126237966862 
2.8000000000014844, -0.7191820542720608 
2.8100000000015055, -0.7195368296927238 
2.8200000000015266, -0.719590025859189 
2.8300000000015477, -0.7193968835990289 
2.840000000001569, -0.7189657700636258 
2.85000000000159, -0.7182598857347391 
2.860000000001611, -0.7171894125299897 
2.870000000001632, -0.7155943948584311 
2.8800000000016532, -0.7132222873353649 
2.8900000000016743, -0.7097163849298659 
2.9000000000016954, -0.7046561294455527 
2.9100000000017165, -0.6977090203040915 
2.9200000000017377, -0.6888983154943412 
2.9300000000017588, -0.6788168961242581 
2.94000000000178, -0.6685207217274047 
2.950000000001801, -0.6590979214918121 
2.960000000001822, -0.6512619157192555 
2.970000000001843, -0.6452404735986075 
2.9800000000018643, -0.6409046421121585 
2.9900000000018854, -0.6379537623614809 
3.0000000000019065, -0.6360507186460607 
3.0100000000019276, -0.6348924314150949 
3.0200000000019487, -0.6342355368525563 
3.03000000000197, -0.633898124387885 
3.040000000001991, -0.6337509666994313 
3.050000000002012, -0.6337055329239825 
3.060000000002033, -0.633702438307478 
3.070000000002054, -0.6337020395066554 
3.0800000000020753, -0.633677888587582 
3.0900000000020964, -0.6336132085014767 
3.1000000000021175, -0.6335000061427054 
3.1100000000021386, -0.633339573909768 
3.1200000000021597, -0.6331421819140238 
3.130000000002181, -0.6329237904699507 
3.140000000002202, -0.6326995436178897 
3.150000000002223, -0.6324767072540673 
3.160000000002244, -0.632251033979655 
3.1700000000022652, -0.6320088072874573 
3.1800000000022863, -0.6317332973690998 
3.1900000000023074, -0.6314118386588587 
3.2000000000023285, -0.6310401711800387 
3.2100000000023496, -0.630623406671246 
3.2200000000023707, -0.6301754270739373 
3.230000000002392, -0.6297190889806472 
3.240000000002413, -0.629288820664379 
3.250000000002434, -0.6289362660135438 
3.260000000002455, -0.6287390528542183 
3.2700000000024763, -0.628812323842805 
3.2800000000024974, -0.6293219052669146 
3.2900000000025185, -0.630496363666733 
3.3000000000025396, -0.6326319219387592 
3.3100000000025607, -0.636078175078062 
3.3200000000025818, -0.6411837030287264 
3.330000000002603, -0.6481755221261024 
3.340000000002624, -0.6569680467917344 
3.350000000002645, -0.6669799582752427 
3.360000000002666, -0.6771502090621382 
3.3700000000026873, -0.6862950335070541 
3.3800000000027084, -0.6936131963168064 
3.3900000000027295, -0.6989219225513725 
3.4000000000027506, -0.7024980136842054 
3.4100000000027717, -0.7047794782768064 
3.420000000002793, -0.7061655640384221 
3.430000000002814, -0.7069493939472485 
3.440000000002835, -0.7073219781084938 
3.450000000002856, -0.7073958555301492 
3.460000000002877, -0.7072257474323862 
3.4700000000028983, -0.7068201870281967 
3.4800000000029194, -0.7061436869290065 
3.4900000000029405, -0.7051101136849041 
3.5000000000029616, -0.7035690084540576 
3.5100000000029827, -0.7012914117163886 
3.520000000003004, -0.6979742831029113 
3.530000000003025, -0.6933005708432094 
3.540000000003046, -0.6870886052371271 
3.550000000003067, -0.6794899736491612 
3.5600000000030882, -0.6710749672815898 
3.5700000000031094, -0.6626664642818668 
3.5800000000031305, -0.6550201701981462 
3.5900000000031516, -0.6485973070599482 
3.6000000000031727, -0.6435379732023242 
3.6100000000031938, -0.6397584046813278 
3.620000000003215, -0.6370643184784825 
3.630000000003236, -0.6352306824477082 
3.640000000003257, -0.6340449803809417 
3.650000000003278, -0.6333259310326232 
3.6600000000032993, -0.6329285671301172 
3.6700000000033204, -0.632742399323283 
3.6800000000033415, -0.6326863876283843 
3.6900000000033626, -0.6327028761973313 
3.7000000000033837, -0.6327518734454768 
3.710000000003405, -0.6328065856246393 
3.720000000003426, -0.632850660874092 
3.730000000003447, -0.6328769739016994 
3.740000000003468, -0.6328869203822327 
3.750000000003489, -0.6328884879460939 
3.7600000000035103, -0.6328917152569657 
3.7700000000035314, -0.6329020375984046 
3.7800000000035525, -0.632914407075878 
3.7900000000035736, -0.6329118407151115 
3.8000000000035947, -0.6328699721146576 
3.810000000003616, -0.6327653862242891 
3.820000000003637, -0.632583055962193 
3.830000000003658, -0.6323194131901617 
3.840000000003679, -0.6319812468007127 
3.8500000000037002, -0.63158326750017 
3.8600000000037213, -0.6311472708515621 
3.8700000000037424, -0.6307046176124221 
3.8800000000037635, -0.6303028186745884 
3.8900000000037847, -0.6300167399464082 
3.9000000000038058, -0.629964819820531 
3.910000000003827, -0.6303299075798188 
3.920000000003848, -0.6313818133107653 
3.930000000003869, -0.6334927565368957 
3.94000000000389, -0.6371254918210469 
3.9500000000039113, -0.6427574190824192 
3.9600000000039324, -0.6506967699023534 
3.9700000000039535, -0.6607948337223918 
3.9800000000039746, -0.6722112774461058 
3.9900000000039957, -0.6835387521790299 
4.000000000004016, -0.6933898350106442 
4.010000000003993, -0.7010089933240793 
4.02000000000397, -0.706389552628699 
4.030000000003946, -0.7099572443357547 
4.040000000003923, -0.7122224928762518 
4.0500000000039, -0.7136051585819605 
4.0600000000038765, -0.714398415936986 
4.070000000003853, -0.7147889702059492 
4.08000000000383, -0.7148859920336621 
4.090000000003807, -0.7147426677514155 
4.100000000003783, -0.7143677078187107 
4.11000000000376, -0.7137277084800876 
4.120000000003737, -0.7127418089213586 
4.130000000003713, -0.7112714452581016 
4.14000000000369, -0.7091132099221983 
4.150000000003667, -0.7060138470453369 
4.1600000000036434, -0.7017368637698979 
4.17000000000362, -0.6961937453002858 
4.180000000003597, -0.6895824480618171 
4.1900000000035735, -0.6824065920666663 
4.20000000000355, -0.6753139335288326 
4.210000000003527, -0.6688652429679042 
4.220000000003504, -0.6633959495614431 
4.23000000000348, -0.6590134457303896 
4.240000000003457, -0.6556669320161649 
4.250000000003434, -0.6532227553500534 
4.26000000000341, -0.6515176038490746 
4.270000000003387, -0.650389121587383 
4.280000000003364, -0.6496913764518403 
4.2900000000033405, -0.6493014982319998 
4.300000000003317, -0.6491211847828379 
4.310000000003294, -0.649075120533538 
4.320000000003271, -0.6491076950889305 
4.330000000003247, -0.6491791992434592 
4.340000000003224, -0.6492624930988535 
4.350000000003201, -0.6493407746325444 
4.360000000003177, -0.6494064180209642 
4.370000000003154, -0.6494599571790957 
4.380000000003131, -0.6495076551776291 
4.390000000003107, -0.6495565984704803 
4.400000000003084, -0.6496082074380298 
4.410000000003061, -0.6496532440967246 
4.4200000000030375, -0.6496717152784056 
4.430000000003014, -0.6496385432374971 
4.440000000002991, -0.649532053491516 
4.450000000002968, -0.6493405121187787 
4.460000000002944, -0.6490639618722436 
4.470000000002921, -0.6487123975325474 
4.480000000002898, -0.6483034281416769 
4.490000000002874, -0.6478621616925297 
4.500000000002851, -0.6474247239810664 
4.510000000002828, -0.6470459674079531 
4.520000000002804, -0.6468116229203225 
4.530000000002781, -0.6468547641128622 
4.540000000002758, -0.6473751988814039 
4.5500000000027345, -0.6486573700032002 
4.560000000002711, -0.6510763028178845 
4.570000000002688, -0.6550709542964974 
4.580000000002665, -0.6610523626527981 
4.590000000002641, -0.6692163928710427 
4.600000000002618, -0.6792880391796104 
4.610000000002595, -0.6903619743701541 
4.620000000002571, -0.7010935191809697 
4.630000000002548, -0.7102578656681582 
4.640000000002525, -0.7172529679165829 
4.6500000000025015, -0.7221431774812486 
4.660000000002478, -0.7253538676053723 
4.670000000002455, -0.7273658444936516 
4.6800000000024315, -0.7285672556394758 
4.690000000002408, -0.7292260828219181 
4.700000000002385, -0.7295103859971829 
4.710000000002362, -0.7295149848474212 
4.720000000002338, -0.7292805020706387 
4.730000000002315, -0.7288022860932215 
4.740000000002292, -0.7280296891566602 
4.750000000002268, -0.7268565626765463 
4.760000000002245, -0.725105462091498 
4.770000000002222, -0.7225148092358055 
4.7800000000021985, -0.718753692341233 
4.790000000002175, -0.7135063101397449 
4.800000000002152, -0.7066504804693892 
4.810000000002129, -0.6984556281736597 
4.820000000002105, -0.689614821311924 
4.830000000002082, -0.6810114000468236 
4.840000000002059, -0.673383384457999 
4.850000000002035, -0.6671314483986446 
4.860000000002012, -0.662330761643794 
4.870000000001989, -0.6588453818257087 
4.880000000001965, -0.6564435247845445 
4.890000000001942, -0.6548749078067277 
4.900000000001919, -0.6539117661049448 
4.9100000000018955, -0.6533657752102242 
4.920000000001872, -0.6530911799127621 
