t, s[1].omega / s[0].omega 
0, -1.3998402360274744 
0.009999999999999995, -1.3832824049911214 
0.019999999999999934, -1.36949720979332 
0.029999999999999874, -1.3630907618576136 
0.04000000000000012, -1.3633703702534619 
0.050000000000000405, -1.3663067461991254 
0.06000000000000069, -1.3690644317165535 
0.07000000000000098, -1.370845008511878 
0.08000000000000126, -1.3717603649171497 
0.09000000000000155, -1.372067904628617 
0.10000000000000184, -1.3719435181295865 
0.11000000000000212, -1.3714650346714607 
0.12000000000000241, -1.3706530440231397 
0.130000000000002, -1.3695638219735962 
0.1400000000000009, -1.368494346245414 
0.1499999999999998, -1.3682653026764324 
0.1599999999999987, -1.3701361587346708 
0.1699999999999976, -1.37483440018104 
0.1799999999999965, -1.3816209799286194 
0.1899999999999954, -1.3888514808292158 
0.1999999999999943, -1.3951957820245695 
0.2099999999999932, -1.4000868186152198 
0.2199999999999921, -1.40350725698825 
0.229999999999991, -1.4056877608940979 
0.2399999999999899, -1.4069198074954594 
0.2499999999999888, -1.4074671643923742 
0.2599999999999877, -1.4075354100967195 
0.2699999999999866, -1.4072752160347028 
0.2799999999999855, -1.4068046964698282 
0.2899999999999844, -1.4062371221475656 
0.2999999999999833, -1.405694233842805 
0.3099999999999822, -1.4052872704674526 
0.3199999999999811, -1.4050796582171412 
0.32999999999998, -1.4050714931953479 
0.3399999999999789, -1.405212244315804 
0.3499999999999778, -1.4054173471616025 
0.35999999999997667, -1.4055854197099182 
0.36999999999997557, -1.4056175631313372 
0.37999999999997447, -1.4054252446474134 
0.38999999999997337, -1.4049229920661792 
0.39999999999997227, -1.404017598483263 
0.40999999999997117, -1.4026047194821858 
0.41999999999997006, -1.4005762123572112 
0.42999999999996896, -1.3978387269367836 
0.43999999999996786, -1.3943497733020707 
0.44999999999996676, -1.3901881907616351 
0.45999999999996566, -1.3856683287297176 
0.46999999999996456, -1.3814252218134269 
0.47999999999996346, -1.378249068006673 
0.48999999999996235, -1.3765729785527552 
0.49999999999996125, -1.3761295852635596 
0.5099999999999602, -1.3762732220968834 
0.519999999999959, -1.376487705024463 
0.529999999999958, -1.3765234371878168 
0.5399999999999568, -1.3762774523854349 
0.5499999999999557, -1.3756582987954316 
0.5599999999999546, -1.3744904215973015 
0.5699999999999535, -1.372429601473346 
0.5799999999999524, -1.3688955210541993 
0.5899999999999513, -1.3631911102926484 
0.5999999999999502, -1.3553256552005628 
0.6099999999999491, -1.3479178611150437 
0.619999999999948, -1.346763294433373 
0.6299999999999469, -1.3554999633273157 
0.6399999999999458, -1.370124331871108 
0.6499999999999447, -1.3837157627915087 
0.6599999999999436, -1.393064017674296 
0.6699999999999425, -1.398504788296831 
0.6799999999999414, -1.4013660622773885 
0.6899999999999403, -1.4027244612006586 
0.6999999999999392, -1.4032285136341136 
0.7099999999999381, -1.4032256900449505 
0.719999999999937, -1.40289987332631 
0.7299999999999359, -1.4023790667947638 
0.7399999999999348, -1.4018322909362282 
0.7499999999999337, -1.4015381836724639 
0.7599999999999326, -1.40182795847887 
0.7699999999999315, -1.4028641946727487 
0.7799999999999304, -1.4044889927961044 
0.7899999999999293, -1.4063527987674826 
0.7999999999999282, -1.4081388026646875 
0.8099999999999271, -1.4096558028767174 
0.819999999999926, -1.4108175896684019 
0.8299999999999249, -1.4115989436307006 
0.8399999999999238, -1.4120050117265566 
0.8499999999999227, -1.4120553666200513 
0.8599999999999216, -1.411777016722673 
0.8699999999999205, -1.4112023727518461 
0.8799999999999194, -1.4103711881193448 
0.8899999999999183, -1.4093367149864404 
0.8999999999999172, -1.4081742141561746 
0.9099999999999161, -1.406987531751564 
0.919999999999915, -1.40590869783059 
0.9299999999999139, -1.4050764848647443 
0.9399999999999128, -1.404575249526077 
0.9499999999999117, -1.4043686845018324 
0.9599999999999106, -1.4043117174731963 
0.9699999999999095, -1.4042325778558005 
0.9799999999999084, -1.4039856626235214 
0.9899999999999073, -1.4034351890571446 
0.9999999999999062, -1.4023994634354584 
1.0099999999999052, -1.4005815874005934 
1.019999999999904, -1.3974976386068543 
1.029999999999903, -1.3924360199347472 
1.039999999999902, -1.3845558413463201 
1.0499999999999008, -1.3733380541656743 
1.0599999999998997, -1.3595441481384163 
1.0699999999998986, -1.3460641412834173 
1.0799999999998975, -1.3367800358826054 
1.0899999999998964, -1.333271698751361 
1.0999999999998953, -1.3336942711439712 
1.1099999999998942, -1.3353714073446035 
1.119999999999893, -1.3368378318528917 
1.129999999999892, -1.3377254193637567 
1.1399999999998909, -1.3380883603214522 
1.1499999999998898, -1.3380351886357595 
1.1599999999998887, -1.3376171802738737 
1.1699999999998876, -1.3368136431305766 
1.1799999999998865, -1.3355613881742359 
1.1899999999998854, -1.3338763119901123 
1.1999999999998843, -1.3321908123843111 
1.2099999999998832, -1.3318729797879365 
1.219999999999882, -1.3351184253624075 
1.229999999999881, -1.3431627127559762 
1.2399999999998799, -1.354501679941936 
1.2499999999998788, -1.3660356444175707 
1.2599999999998777, -1.3754918854263962 
1.2699999999998766, -1.3821939617319061 
1.2799999999998755, -1.386469227677814 
1.2899999999998744, -1.3889581081457938 
1.2999999999998733, -1.3902507107044815 
1.3099999999998722, -1.3907767519123833 
1.319999999999871, -1.3908151184719295 
1.32999999999987, -1.3905431410405833 
1.3399999999998689, -1.3900928037649136 
1.3499999999998678, -1.3895994075728606 
1.3599999999998666, -1.3892192603608042 
1.3699999999998655, -1.3890900909964523 
1.3799999999998644, -1.3892616542458616 
1.3899999999998633, -1.3896769480746538 
1.3999999999998622, -1.3902205237641232 
1.4099999999998611, -1.3907709654815532 
1.41999999999986, -1.3912244746574645 
1.429999999999859, -1.391500595567278 
1.4399999999998578, -1.3915396940051337 
1.4499999999998567, -1.3912961745436445 
1.4599999999998556, -1.3907326077562114 
1.4699999999998545, -1.3898177534116425 
1.4799999999998534, -1.3885283556305485 
1.4899999999998523, -1.3868549683924576 
1.4999999999998512, -1.3848149559026086 
1.5099999999998501, -1.382477992954227 
1.519999999999849, -1.3800054660710095 
1.529999999999848, -1.3776805486737935 
1.5399999999998468, -1.3758558988866565 
1.5499999999998457, -1.3747649209033 
1.5599999999998446, -1.3743431998625626 
1.5699999999998435, -1.374294084573276 
1.5799999999998424, -1.3743114157213951 
1.5899999999998413, -1.3741947533974361 
1.5999999999998402, -1.3738152486480093 
1.6099999999998391, -1.373029346243104 
1.619999999999838, -1.3715849699798808 
1.629999999999837, -1.3690077126199949 
1.6399999999998358, -1.3644634925255024 
1.6499999999998347, -1.3567111417153994 
1.6599999999998336, -1.3445734016110753 
1.6699999999998325, -1.32860021063861 
1.6799999999998314, -1.3131447553564166 
1.6899999999998303, -1.3045856783943166 
1.6999999999998292, -1.3049002467159803 
1.709999999999828, -1.3100690590748356 
1.719999999999827, -1.3155141288138 
1.729999999999826, -1.3193686750612916 
1.7399999999998248, -1.3216254236217468 
1.7499999999998237, -1.322766625362623 
1.7599999999998226, -1.3231999378081867 
1.7699999999998215, -1.323167677486376 
1.7799999999998204, -1.3227864580158448 
1.7899999999998193, -1.3221060875119197 
1.7999999999998182, -1.3211920350913797 
1.809999999999817, -1.3202753894560142 
1.819999999999816, -1.3199556732510984 
1.8299999999998149, -1.3211944683504546 
1.8399999999998138, -1.3247253860771355 
1.8499999999998127, -1.3302867622691372 
1.8599999999998116, -1.3367271593466175 
1.8699999999998105, -1.3428425388418632 
1.8799999999998094, -1.347918643966324 
1.8899999999998083, -1.3517317375778561 
1.8999999999998072, -1.3543533593098775 
1.909999999999806, -1.3559845418795395 
1.919999999999805, -1.356855080876295 
1.9299999999998039, -1.357170582261741 
1.9399999999998028, -1.3570933289783187 
1.9499999999998017, -1.3567477662994503 
1.9599999999998006, -1.3562411034807882 
1.9699999999997995, -1.355685441476766 
1.9799999999997984, -1.3552013310163313 
1.9899999999997973, -1.3548903660184317 
1.9999999999997962, -1.3547984313223058 
2.0099999999998173, -1.3549066569225714 
2.0199999999998384, -1.355149686113832 
2.0299999999998595, -1.3554370750022968 
2.0399999999998806, -1.355671840892644 
2.0499999999999017, -1.3557656849764121 
2.059999999999923, -1.35564389358592 
2.069999999999944, -1.3552406028598276 
2.079999999999965, -1.354493343961969 
2.089999999999986, -1.3533429914083932 
2.100000000000007, -1.3517392159062616 
2.1100000000000283, -1.349650082624517 
2.1200000000000494, -1.3470783284285885 
2.1300000000000705, -1.3440918366469776 
2.1400000000000916, -1.3408729664011951 
2.1500000000001127, -1.3377630756424677 
2.160000000000134, -1.3352176695161027 
2.170000000000155, -1.3335898865816165 
2.180000000000176, -1.3328799068442185 
2.190000000000197, -1.3327569725248263 
2.2000000000002182, -1.3328298121310842 
2.2100000000002393, -1.3328345845474305 
2.2200000000002604, -1.3326285470681545 
2.2300000000002815, -1.3321025447053174 
2.2400000000003026, -1.3310918526350237 
2.2500000000003237, -1.3292845082828408 
2.260000000000345, -1.326105783237002 
2.270000000000366, -1.320604240874134 
2.280000000000387, -1.3115376578630165 
2.290000000000408, -1.2981843167510823 
2.3000000000004293, -1.2822516399490609 
2.3100000000004504, -1.2689972598406434 
2.3200000000004715, -1.2636856221731367 
2.3300000000004926, -1.2661566356800067 
2.3400000000005137, -1.2718937751894936 
2.3500000000005348, -1.2771508907375433 
2.360000000000556, -1.2807168007193102 
2.370000000000577, -1.2827770410198112 
2.380000000000598, -1.2838101733631802 
2.390000000000619, -1.284187422981524 
2.4000000000006403, -1.2841239060344816 
2.4100000000006614, -1.2837190957387352 
2.4200000000006825, -1.283008344392885 
2.4300000000007036, -1.2820356525483345 
2.4400000000007247, -1.2809955754169122 
2.450000000000746, -1.2804582968707119 
2.460000000000767, -1.2814687509788039 
2.470000000000788, -1.2850635356490514 
2.480000000000809, -1.2913188671088778 
2.49000000000083, -1.2990831047926015 
2.5000000000008513, -1.3068055891462644 
2.5100000000008724, -1.3133933057377245 
2.5200000000008935, -1.3184136870474628 
2.5300000000009146, -1.3218994615718682 
2.5400000000009357, -1.3241075798155308 
2.550000000000957, -1.325351852263481 
2.560000000000978, -1.3259125816107713 
2.570000000000999, -1.326004041965231 
2.58000000000102, -1.3257795397501186 
2.5900000000010412, -1.3253569113268533 
2.6000000000010624, -1.324850416086816 
2.6100000000010835, -1.3243906713547617 
2.6200000000011046, -1.3241095021816391 
2.6300000000011257, -1.3240906722182202 
2.6400000000011468, -1.3243330931189852 
2.650000000001168, -1.3247641537523795 
2.660000000001189, -1.3252799230641024 
2.67000000000121, -1.3257758770555401 
2.680000000001231, -1.3261623024196316 
2.6900000000012523, -1.326369703118222 
2.7000000000012734, -1.3263469247419155 
2.7100000000012945, -1.3260563124719975 
2.7200000000013156, -1.3254703716490128 
2.7300000000013367, -1.3245711828990312 
2.740000000001358, -1.3233520393847003 
2.750000000001379, -1.3218218168445826 
2.7600000000014, -1.320014146227476 
2.770000000001421, -1.3180032906759873 
2.780000000001442, -1.315924804567724 
2.7900000000014633, -1.3139863243350811 
2.8000000000014844, -1.3124316167521224 
2.8100000000015055, -1.311430818621317 
2.8200000000015266, -1.3109658575032792 
2.8300000000015477, -1.310843275894975 
2.840000000001569, -1.3108245354506063 
2.85000000000159, -1.3107251697372286 
2.860000000001611, -1.3104161934033816 
2.870000000001632, -1.3097705477780972 
2.8800000000016532, -1.3085961172241827 
2.8900000000016743, -1.3065617364184985 
2.9000000000016954, -1.3031176903412225 
2.9100000000017165, -1.2974522565861346 
2.9200000000017377, -1.2886200211351795 
2.9300000000017588, -1.2760784420032611 
2.94000000000178, -1.260708018882053 
2.950000000001801, -1.2455341460323461 
2.960000000001822, -1.2344950635604237 
2.970000000001843, -1.2294451004013631 
2.9800000000018643, -1.2289750611904329 
2.9900000000018854, -1.230453148348854 
3.0000000000019065, -1.232104794753695 
3.0100000000019276, -1.2332847248881857 
3.0200000000019487, -1.2339285922462087 
3.03000000000197, -1.2341293062754646 
3.040000000001991, -1.2339642394053516 
3.050000000002012, -1.2334467555032 
3.060000000002033, -1.2325153584032147 
3.070000000002054, -1.2310394979303025 
3.0800000000020753, -1.2288812714699582 
3.0900000000020964, -1.2261342236161812 
3.1000000000021175, -1.2236887559245198 
3.1100000000021386, -1.223851395850655 
3.1200000000021597, -1.2296779558989834 
3.130000000002181, -1.2421661958295034 
3.140000000002202, -1.2583641821196845 
3.150000000002223, -1.2736713546843226 
3.160000000002244, -1.285279679247897 
3.1700000000022652, -1.2928590016632164 
3.1800000000022863, -1.2973284378102927 
3.1900000000023074, -1.2997589716206936 
3.2000000000023285, -1.3009499126432018 
3.2100000000023496, -1.3013991793274287 
3.2200000000023707, -1.3013906344448727 
3.230000000002392, -1.3010855859885653 
3.240000000002413, -1.3005999232822878 
3.250000000002434, -1.3000756511723925 
3.260000000002455, -1.299736542377374 
3.2700000000024763, -1.2998696955543756 
3.2800000000024974, -1.3006860035132377 
3.2900000000025185, -1.302164706716201 
3.3000000000025396, -1.3040643265235206 
3.3100000000025607, -1.3060788477725886 
3.3200000000025818, -1.3079659090937188 
3.330000000002603, -1.3095785708995968 
3.340000000002624, -1.3108444836030106 
3.350000000002645, -1.311738318365982 
3.360000000002666, -1.3122631126720126 
3.3700000000026873, -1.3124402130769603 
3.3800000000027084, -1.312303733727333 
3.3900000000027295, -1.31189702737439 
3.4000000000027506, -1.3112717005659225 
3.4100000000027717, -1.310490349354056 
3.420000000002793, -1.3096305263220147 
3.430000000002814, -1.308783202939373 
3.440000000002835, -1.3080416012032114 
3.450000000002856, -1.3074836021593346 
3.460000000002877, -1.3071504907674578 
3.4700000000028983, -1.307025453119545 
3.4800000000029194, -1.307030244056634 
3.4900000000029405, -1.3070524708989086 
3.5000000000029616, -1.30697998391393 
3.5100000000029827, -1.306712386001917 
3.520000000003004, -1.3061492016057155 
3.530000000003025, -1.305172445168702 
3.540000000003046, -1.3036386770715678 
3.550000000003067, -1.3013884183169722 
3.5600000000030882, -1.2982750874487643 
3.5700000000031094, -1.2942125632232042 
3.5800000000031305, -1.2892438265229964 
3.5900000000031516, -1.283635012348292 
3.6000000000031727, -1.2779635210626163 
3.6100000000031938, -1.2730688931341494 
3.620000000003215, -1.2697047032496305 
3.630000000003236, -1.268054000252006 
3.640000000003257, -1.2676497733208025 
3.650000000003278, -1.2678118474894862 
3.6600000000032993, -1.2680517916034804 
3.6700000000033204, -1.2681359380805157 
3.6800000000033415, -1.2679688518780625 
3.6900000000033626, -1.2674772879343277 
3.7000000000033837, -1.2665295818675186 
3.710000000003405, -1.264862659943306 
3.720000000003426, -1.2619928069713446 
3.730000000003447, -1.2571354006978122 
3.740000000003468, -1.2493033211585016 
3.750000000003489, -1.2380075845215242 
3.7600000000035103, -1.2248299693003328 
3.7700000000035314, -1.2143446931400739 
3.7800000000035525, -1.2112443318598343 
3.7900000000035736, -1.2155677942813647 
3.8000000000035947, -1.2230921731407665 
3.810000000003616, -1.2299312606403512 
3.820000000003637, -1.2346793081736158 
3.830000000003658, -1.2375213776936806 
3.840000000003679, -1.2390456089576039 
3.8500000000037002, -1.2397377866194281 
3.8600000000037213, -1.2398978575484327 
3.8700000000037424, -1.239680896538736 
3.8800000000037635, -1.239150044232217 
3.8900000000037847, -1.2383293260025776 
3.9000000000038058, -1.2372875981914286 
3.910000000003827, -1.236301036362561 
3.920000000003848, -1.2360736587984191 
3.930000000003869, -1.237748205557742 
3.94000000000389, -1.2423006133398422 
3.9500000000039113, -1.2496178587167708 
3.9600000000039324, -1.2583795860980513 
3.9700000000039535, -1.266938679125635 
3.9800000000039746, -1.2741544337725084 
3.9900000000039957, -1.2795908529255535 
4.000000000004016, -1.2833188063495666 
4.010000000003993, -1.285653308662102 
4.02000000000397, -1.2869610176153472 
4.030000000003946, -1.2875574966271908 
4.040000000003923, -1.2876752568827043 
4.0500000000039, -1.2874744836205196 
4.0600000000038765, -1.2870740002990888 
4.070000000003853, -1.2865884392304854 
4.08000000000383, -1.28615568660189 
4.090000000003807, -1.285928871668406 
4.100000000003783, -1.2860216771507536 
4.11000000000376, -1.2864501367818861 
4.120000000003737, -1.2871322285262115 
4.130000000003713, -1.2879392138006094 
4.14000000000369, -1.2887450299738028 
4.150000000003667, -1.2894490381008779 
4.1600000000036434, -1.2899799963142171 
4.17000000000362, -1.2902918642774737 
4.180000000003597, -1.2903573117880431 
4.1900000000035735, -1.2901623286721318 
4.20000000000355, -1.2897032225429361 
4.210000000003527, -1.2889859454264623 
4.220000000003504, -1.2880276596639941 
4.23000000000348, -1.2868608112117381 
4.240000000003457, -1.2855395072770337 
4.250000000003434, -1.2841462658713454 
4.26000000000341, -1.2827948774853168 
4.270000000003387, -1.281621251373243 
4.280000000003364, -1.280749377789175 
4.2900000000033405, -1.2802330645016826 
4.300000000003317, -1.28001627145383 
4.310000000003294, -1.2799597976261163 
4.320000000003271, -1.2799089219065605 
4.330000000003247, -1.2797343858681982 
4.340000000003224, -1.2793247376053938 
4.350000000003201, -1.2785526172710908 
4.360000000003177, -1.2772380630646178 
4.370000000003154, -1.2751222558361652 
4.380000000003131, -1.2718678359150828 
4.390000000003107, -1.2671111566809716 
4.400000000003084, -1.2605925638248723 
4.410000000003061, -1.2523719526278057 
4.4200000000030375, -1.2430814020537304 
4.430000000003014, -1.2340313241994338 
4.440000000002991, -1.226838756480749 
4.450000000002968, -1.2225257899894015 
4.460000000002944, -1.2208722677609853 
4.470000000002921, -1.2208091173432483 
4.480000000002898, -1.2213024865011848 
4.490000000002874, -1.2217741532026989 
4.500000000002851, -1.2220120440832207 
4.510000000002828, -1.2219636183547147 
4.520000000002804, -1.221599252208752 
4.530000000002781, -1.2208402382996364 
4.540000000002758, -1.219506730519747 
4.5500000000027345, -1.2172593300824166 
4.560000000002711, -1.2135487982483883 
4.570000000002688, -1.2076868933642482 
4.580000000002665, -1.1993314803923576 
4.590000000002641, -1.189646405633308 
4.600000000002618, -1.182255170807188 
4.610000000002595, -1.1814677641357192 
4.620000000002571, -1.1880235340172702 
4.630000000002548, -1.1981509474435685 
4.640000000002525, -1.207521563527467 
4.6500000000025015, -1.2142229944282392 
4.660000000002478, -1.2183525867872829 
4.670000000002455, -1.2206604076066205 
4.6800000000024315, -1.2218234439439402 
4.690000000002408, -1.2222833288461403 
4.700000000002385, -1.222286492954792 
4.710000000002362, -1.221952300344978 
4.720000000002338, -1.2213302665050585 
4.730000000002315, -1.2204619481731567 
4.740000000002292, -1.219485934504537 
4.750000000002268, -1.2188116894754661 
4.760000000002245, -1.2192643077093568 
4.770000000002222, -1.2218834463176889 
4.7800000000021985, -1.22721092635406 
4.790000000002175, -1.2346943343059154 
4.800000000002152, -1.2429739838804266 
4.810000000002129, -1.2506997938395643 
4.820000000002105, -1.257049055070187 
4.830000000002082, -1.2617627731132983 
4.840000000002059, -1.2649599016943762 
4.850000000002035, -1.2669348083330907 
4.860000000002012, -1.268010722086383 
4.870000000001989, -1.2684611548770037 
4.880000000001965, -1.2684872809135217 
4.890000000001942, -1.268230374989787 
4.900000000001919, -1.2678015600401513 
4.9100000000018955, -1.2673161491525606 
4.920000000001872, -1.2669152519138194 
4.930000000001849, -1.2667493730163275 
4.940000000001826, -1.2669199283670818 
