t, s[1].omega / s[0].omega 
0, -0.9199403269492326 
0.009999999999999995, -0.9137500560991156 
0.019999999999999934, -0.9074299149823023 
0.029999999999999874, -0.9014388347805824 
0.04000000000000012, -0.8961645166708623 
0.050000000000000405, -0.8918707984450801 
0.06000000000000069, -0.8886688409378353 
0.07000000000000098, -0.886513367880904 
0.08000000000000126, -0.8852322931014674 
0.09000000000000155, -0.8845859798669606 
0.10000000000000184, -0.8843327636060578 
0.11000000000000212, -0.8842738993412358 
0.12000000000000241, -0.8842674788080069 
0.130000000000002, -0.8842190925841257 
0.1400000000000009, -0.8840632421278606 
0.1499999999999998, -0.8837459719972379 
0.1599999999999987, -0.8832141088303521 
0.1699999999999976, -0.8824138467015059 
0.1799999999999965, -0.8812997902456559 
0.1899999999999954, -0.8798515616883813 
0.1999999999999943, -0.8780886426842214 
0.2099999999999932, -0.8760720573011127 
0.2199999999999921, -0.8738901197147779 
0.229999999999991, -0.8716379526980891 
0.2399999999999899, -0.8694031985946191 
0.2499999999999888, -0.867262176818391 
0.2599999999999877, -0.86528228021828 
0.2699999999999866, -0.8635241928564991 
0.2799999999999855, -0.8620399563195196 
0.2899999999999844, -0.8608665248722677 
0.2999999999999833, -0.8600175028729747 
0.3099999999999822, -0.8594774939864918 
0.3199999999999811, -0.8592029790432001 
0.32999999999998, -0.8591305069183465 
0.3399999999999789, -0.8591889405392452 
0.3499999999999778, -0.8593106514438231 
0.35999999999997667, -0.8594382574693779 
0.36999999999997557, -0.8595268861656506 
0.37999999999997447, -0.8595441610771198 
0.38999999999997337, -0.8594699096840422 
0.39999999999997227, -0.8592957486413011 
0.40999999999997117, -0.859023154726739 
0.41999999999997006, -0.858659197393932 
0.42999999999996896, -0.8582115245547752 
0.43999999999996786, -0.8576857101376272 
0.44999999999996676, -0.8570866262504431 
0.45999999999996566, -0.8564225518770814 
0.46999999999996456, -0.8557093562335163 
0.47999999999996346, -0.854973126737715 
0.48999999999996235, -0.8542511140447735 
0.49999999999996125, -0.8535910492460064 
0.5099999999999602, -0.853048105487306 
0.519999999999959, -0.8526786264514359 
0.529999999999958, -0.8525311264243193 
0.5399999999999568, -0.8526371614285294 
0.5499999999999557, -0.8530055877349529 
0.5599999999999546, -0.8536224045204662 
0.5699999999999535, -0.854455727269394 
0.5799999999999524, -0.8554632812640017 
0.5899999999999513, -0.8565991666586283 
0.5999999999999502, -0.8578173767867664 
0.6099999999999491, -0.8590710948841869 
0.619999999999948, -0.8603088894799015 
0.6299999999999469, -0.861471363066238 
0.6399999999999458, -0.8624932480951516 
0.6499999999999447, -0.8633137252326308 
0.6599999999999436, -0.8638912103479148 
0.6699999999999425, -0.8642134310338552 
0.6799999999999414, -0.8642963556412768 
0.6899999999999403, -0.8641744887768678 
0.6999999999999392, -0.8638906891443379 
0.7099999999999381, -0.8634920439619815 
0.719999999999937, -0.8630338002534303 
0.7299999999999359, -0.8625900033612354 
0.7399999999999348, -0.8622670786729352 
0.7499999999999337, -0.8622135526662438 
0.7599999999999326, -0.8626164730666097 
0.7699999999999315, -0.8636772172256999 
0.7799999999999304, -0.8655692352530725 
0.7899999999999293, -0.8683923226699856 
0.7999999999999282, -0.8721405277294176 
0.8099999999999271, -0.8766903685308088 
0.819999999999926, -0.8818045473064988 
0.8299999999999249, -0.8871475912617077 
0.8399999999999238, -0.8923224010926878 
0.8499999999999227, -0.8969409886400326 
0.8599999999999216, -0.9007184574351035 
0.8699999999999205, -0.9035416041994699 
0.8799999999999194, -0.9054656366348965 
0.8899999999999183, -0.9066474649159748 
0.8999999999999172, -0.9072673710236527 
0.9099999999999161, -0.9074789785751711 
0.919999999999915, -0.9073927987037044 
0.9299999999999139, -0.9070809038633241 
0.9399999999999128, -0.906592046891315 
0.9499999999999117, -0.9059748541265747 
0.9599999999999106, -0.9053136593833372 
0.9699999999999095, -0.9047833736010824 
0.9799999999999084, -0.9047205779054657 
0.9899999999999073, -0.9056804477836351 
0.9999999999999062, -0.9084102273509924 
1.0099999999999052, -0.9136621321623105 
1.019999999999904, -0.9218473774080597 
1.029999999999903, -0.9326828240250322 
1.039999999999902, -0.9450794265384663 
1.0499999999999008, -0.9574391314208259 
1.0599999999998997, -0.9682586538799935 
1.0699999999998986, -0.976669256960777 
1.0799999999998975, -0.9825710779333903 
1.0899999999998964, -0.9863770222897456 
1.0999999999998953, -0.9886576547305334 
1.1099999999998942, -0.9899133713006373 
1.119999999999893, -0.9905007720936178 
1.129999999999892, -0.9906438394941468 
1.1399999999998909, -0.9904695162344848 
1.1499999999998898, -0.9900418537631628 
1.1599999999998887, -0.989392472222268 
1.1699999999998876, -0.9885577436286329 
1.1799999999998865, -0.9876410977407752 
1.1899999999998854, -0.9869184660018229 
1.1999999999998843, -0.9869744026992396 
1.2099999999998832, -0.9887704750213722 
1.219999999999882, -0.993453022716946 
1.229999999999881, -1.001791211751751 
1.2399999999998799, -1.013512099899613 
1.2499999999998788, -1.0271150669838076 
1.2599999999998777, -1.0404687496193998 
1.2699999999998766, -1.0517859617256886 
1.2799999999998755, -1.0602478513952651 
1.2899999999998744, -1.0659591312891072 
1.2999999999998733, -1.0695083621339172 
1.3099999999998722, -1.0715546585166558 
1.319999999999871, -1.0726229138401195 
1.32999999999987, -1.0730653658435159 
1.3399999999998689, -1.07309459671689 
1.3499999999998678, -1.0728299060718007 
1.3599999999998666, -1.0723396816520099 
1.3699999999998655, -1.0716850482268456 
1.3799999999998644, -1.0709792954197854 
1.3899999999998633, -1.0704714952899583 
1.3999999999998622, -1.070624738912279 
1.4099999999998611, -1.0720908242868155 
1.41999999999986, -1.075476687397742 
1.429999999999859, -1.0809784002632614 
1.4399999999998578, -1.0881763255227315 
1.4499999999998567, -1.0961819532100947 
1.4599999999998556, -1.1039962956050489 
1.4699999999998545, -1.1108249459533117 
1.4799999999998534, -1.116231476883559 
1.4899999999998523, -1.1201375769057234 
1.4999999999998512, -1.122719684553406 
1.5099999999998501, -1.1242681017851794 
1.519999999999849, -1.1250724806364023 
1.529999999999848, -1.1253636409381405 
1.5399999999998468, -1.1253038081615132 
1.5499999999998457, -1.1250040261976215 
1.5599999999998446, -1.1245542360583105 
1.5699999999998435, -1.1240602229228265 
1.5799999999998424, -1.1236792769211204 
1.5899999999998413, -1.1236303333492246 
1.5999999999998402, -1.124145390365854 
1.6099999999998391, -1.125367498237769 
1.619999999999838, -1.1272702584651324 
1.629999999999837, -1.129670981073154 
1.6399999999998358, -1.1323164040680929 
1.6499999999998347, -1.1349651534672367 
1.6599999999998336, -1.1374268273088488 
1.6699999999998325, -1.139567020357109 
1.6799999999998314, -1.141301128286193 
1.6899999999998303, -1.1425898262066725 
1.6999999999998292, -1.1434363035086483 
1.709999999999828, -1.1438795399803807 
1.719999999999827, -1.143981413738592 
1.729999999999826, -1.143812604224472 
1.7399999999998248, -1.1434447272999073 
1.7499999999998237, -1.1429520901506083 
1.7599999999998226, -1.1424196135377431 
1.7699999999998215, -1.1419469892711387 
1.7799999999998204, -1.1416374246610785 
1.7899999999998193, -1.1415697451281126 
1.7999999999998182, -1.141771098110904 
1.809999999999817, -1.142210919903189 
1.819999999999816, -1.142817429709377 
1.8299999999998149, -1.1435018196447153 
1.8399999999998138, -1.1441780204058403 
1.8499999999998127, -1.1447743067043663 
1.8599999999998116, -1.1452372836418836 
1.8699999999998105, -1.1455307093473626 
1.8799999999998094, -1.1456322480784265 
1.8899999999998083, -1.1455304757865887 
1.8999999999998072, -1.1452233102821532 
1.909999999999806, -1.1447181239873174 
1.919999999999805, -1.1440331167529572 
1.9299999999998039, -1.143199373233585 
1.9399999999998028, -1.142263130104143 
1.9499999999998017, -1.1412869572963031 
1.9599999999998006, -1.14034701170329 
1.9699999999997995, -1.139523773428584 
1.9799999999997984, -1.1388867347724019 
1.9899999999997973, -1.1384765362055296 
1.9999999999997962, -1.1382902362984957 
2.0099999999998173, -1.1382782446856603 
2.0199999999998384, -1.1383583524301137 
2.0299999999998595, -1.1384392448275735 
2.0399999999998806, -1.138438080358993 
2.0499999999999017, -1.1382851011146644 
2.059999999999923, -1.1379205822840364 
2.069999999999944, -1.1372928160192168 
2.079999999999965, -1.1363613716996528 
2.089999999999986, -1.1351038111477458 
2.100000000000007, -1.1335210781369638 
2.1100000000000283, -1.1316389923032686 
2.1200000000000494, -1.1295080203833523 
2.1300000000000705, -1.127205360238705 
2.1400000000000916, -1.124840249245053 
2.1500000000001127, -1.1225574145385184 
2.160000000000134, -1.1205274678518322 
2.170000000000155, -1.1189118794978572 
2.180000000000176, -1.117805071045511 
2.190000000000197, -1.117187462254051 
2.2000000000002182, -1.1169329684583746 
2.2100000000002393, -1.1168692506061164 
2.2200000000002604, -1.1168395051492985 
2.2300000000002815, -1.116725803219046 
2.2400000000003026, -1.1164369846479552 
2.2500000000003237, -1.115883104648787 
2.260000000000345, -1.1149526941079388 
2.270000000000366, -1.1135018456241583 
2.280000000000387, -1.111363191229226 
2.290000000000408, -1.1083810249519772 
2.3000000000004293, -1.1044676253927974 
2.3100000000004504, -1.099660037987658 
2.3200000000004715, -1.0941543623347116 
2.3300000000004926, -1.088309288424008 
2.3400000000005137, -1.0826169614944972 
2.3500000000005348, -1.0776238799012545 
2.360000000000556, -1.073783953955317 
2.370000000000577, -1.0712878940389843 
2.380000000000598, -1.0699920081331133 
2.390000000000619, -1.0695242655327861 
2.4000000000006403, -1.0694807105073174 
2.4100000000006614, -1.0695595667041409 
2.4200000000006825, -1.0695821085680144 
2.4300000000007036, -1.0694489560075418 
2.4400000000007247, -1.0690861711536133 
2.450000000000746, -1.0684012591950898 
2.460000000000767, -1.067247768967621 
2.470000000000788, -1.065395949126442 
2.480000000000809, -1.0625191689246412 
2.49000000000083, -1.058224840825294 
2.5000000000008513, -1.0521665739451116 
2.5100000000008724, -1.0442387110909581 
2.5200000000008935, -1.0347715311734829 
2.5300000000009146, -1.024589673175933 
2.5400000000009357, -1.014846221105988 
2.550000000000957, -1.0066673124260581 
2.560000000000978, -1.0007587969963643 
2.570000000000999, -0.9971888521256194 
2.58000000000102, -0.9954843056831919 
2.5900000000010412, -0.994952206855309 
2.6000000000010624, -0.9949825175163985 
2.6100000000010835, -0.9951758276494287 
2.6200000000011046, -0.9953210577891424 
2.6300000000011257, -0.9953191676125572 
2.6400000000011468, -0.9951144574697899 
2.650000000001168, -0.9946474469528142 
2.660000000001189, -0.9938219276485064 
2.67000000000121, -0.9924776404136336 
2.680000000001231, -0.9903688686833837 
2.6900000000012523, -0.9871649666922041 
2.7000000000012734, -0.9825056832108695 
2.7100000000012945, -0.976138425633448 
2.7200000000013156, -0.9681060285437398 
2.7300000000013367, -0.9588709631541997 
2.740000000001358, -0.9492628949524354 
2.750000000001379, -0.9402547337454035 
2.7600000000014, -0.932680929976281 
2.770000000001421, -0.927019006137076 
2.780000000001442, -0.9233094228272725 
2.7900000000014633, -0.9212333896821271 
2.8000000000014844, -0.9202970407922668 
2.8100000000015055, -0.9200182612364601 
2.8200000000015266, -0.9200337409944106 
2.8300000000015477, -0.9201155974262131 
2.840000000001569, -0.9201365517794875 
2.85000000000159, -0.9200239819337698 
2.860000000001611, -0.9197223646672041 
2.870000000001632, -0.9191674105416745 
2.8800000000016532, -0.9182703230781339 
2.8900000000016743, -0.9169134819467221 
2.9000000000016954, -0.9149639954228022 
2.9100000000017165, -0.9123113966055497 
2.9200000000017377, -0.9089220820821888 
2.9300000000017588, -0.9048812628385774 
2.94000000000178, -0.9003905999048056 
2.950000000001801, -0.8957212896559337 
2.960000000001822, -0.8911550237284714 
2.970000000001843, -0.8869420238606883 
2.9800000000018643, -0.8832794989206845 
2.9900000000018854, -0.8802987244071783 
3.0000000000019065, -0.8780533213713057 
3.0100000000019276, -0.876513191332665 
3.0200000000019487, -0.8755739988156976 
3.03000000000197, -0.8750851419774202 
3.040000000001991, -0.8748862314458531 
3.050000000002012, -0.8748363419717842 
3.060000000002033, -0.8748267472779915 
3.070000000002054, -0.8747786930274003 
3.0800000000020753, -0.8746338182757153 
3.0900000000020964, -0.8743447557455191 
3.1000000000021175, -0.8738707863067425 
3.1100000000021386, -0.8731804733764627 
3.1200000000021597, -0.8722596119201753 
3.130000000002181, -0.8711187474769408 
3.140000000002202, -0.8697933823536503 
3.150000000002223, -0.8683350404965315 
3.160000000002244, -0.8667988577554004 
3.1700000000022652, -0.865235380356569 
3.1800000000022863, -0.8636894819107962 
3.1900000000023074, -0.8622037934693824 
3.2000000000023285, -0.8608222455557921 
3.2100000000023496, -0.8595905991420842 
3.2200000000023707, -0.8585529264696825 
3.230000000002392, -0.8577448372623617 
3.240000000002413, -0.85718570859447 
3.250000000002434, -0.856872997985537 
3.260000000002455, -0.8567813231613514 
3.2700000000024763, -0.8568671294965375 
3.2800000000024974, -0.8570772166572006 
3.2900000000025185, -0.8573578165987195 
3.3000000000025396, -0.8576614100165829 
3.3100000000025607, -0.8579503447589835 
3.3200000000025818, -0.8581978054597862 
3.330000000002603, -0.8583868025683186 
3.340000000002624, -0.8585073113608507 
3.350000000002645, -0.8585519797333283 
3.360000000002666, -0.8585122414133848 
3.3700000000026873, -0.8583774766419111 
3.3800000000027084, -0.8581382582618486 
3.3900000000027295, -0.8577916889365234 
3.4000000000027506, -0.8573455476018503 
3.4100000000027717, -0.8568197877292087 
3.420000000002793, -0.8562465608495664 
3.430000000002814, -0.8556705027161268 
3.440000000002835, -0.8551493150324955 
3.450000000002856, -0.8547525661270805 
3.460000000002877, -0.8545560556365939 
3.4700000000028983, -0.854631006015212 
3.4800000000029194, -0.8550309261974451 
3.4900000000029405, -0.855781457475917 
3.5000000000029616, -0.8568773663115123 
3.5100000000029827, -0.8582867603770143 
3.520000000003004, -0.8599587999279695 
3.530000000003025, -0.8618300640586286 
3.540000000003046, -0.863826381480625 
3.550000000003067, -0.865860396955239 
3.5600000000030882, -0.8678294256024104 
3.5700000000031094, -0.8696210420582687 
3.5800000000031305, -0.8711310747547556 
3.5900000000031516, -0.8722883934261452 
3.6000000000031727, -0.8730713372791472 
3.6100000000031938, -0.8735046058395121 
3.620000000003215, -0.8736407144953594 
3.630000000003236, -0.873539790225804 
3.640000000003257, -0.8732582021591886 
3.650000000003278, -0.8728487552426671 
3.6600000000032993, -0.8723711057099763 
3.6700000000033204, -0.8719105013452741 
3.6800000000033415, -0.8716017411145994 
3.6900000000033626, -0.8716503135002993 
3.7000000000033837, -0.8723353150253701 
3.710000000003405, -0.8739768125968146 
3.720000000003426, -0.876863223783136 
3.730000000003447, -0.8811586022816001 
3.740000000003468, -0.8868247556213286 
3.750000000003489, -0.8935851234227018 
3.7600000000035103, -0.900941248261349 
3.7700000000035314, -0.9082494473466074 
3.7800000000035525, -0.9148621787061973 
3.7900000000035736, -0.9203011059643718 
3.8000000000035947, -0.9243745347756137 
3.810000000003616, -0.9271658648208889 
3.820000000003637, -0.9289176675992834 
3.830000000003658, -0.9299037168001856 
3.840000000003679, -0.9303523815881467 
3.8500000000037002, -0.9304241623527133 
3.8600000000037213, -0.9302192275739207 
3.8700000000037424, -0.9297956829268138 
3.8800000000037635, -0.9291924704443065 
3.8900000000037847, -0.9284612941206658 
3.9000000000038058, -0.927718158610905 
3.910000000003827, -0.9272232549479362 
3.920000000003848, -0.9274763703748465 
3.930000000003869, -0.9292636041832483 
3.94000000000389, -0.9335372709563083 
3.9500000000039113, -0.9410455237066445 
3.9600000000039324, -0.9518213677146715 
3.9700000000039535, -0.964873442083821 
3.9800000000039746, -0.9784134835871408 
3.9900000000039957, -0.9905839135980561 
4.000000000004016, -1.0002018417978744 
4.010000000003993, -1.0070145908255532 
4.02000000000397, -1.0114315019064422 
4.030000000003946, -1.0140923682777412 
4.040000000003923, -1.0155762433610023 
4.0500000000039, -1.0163006769803133 
4.0600000000038765, -1.0165296999896682 
4.070000000003853, -1.0164146059568677 
4.08000000000383, -1.0160337270125748 
4.090000000003807, -1.0154265670761258 
4.100000000003783, -1.0146325012445028 
4.11000000000376, -1.0137526313617797 
4.120000000003737, -1.0130524750140324 
4.130000000003713, -1.0130908979329598 
4.14000000000369, -1.0147734681099854 
4.150000000003667, -1.0191445973177444 
4.1600000000036434, -1.0268471026344614 
4.17000000000362, -1.0375525843611917 
4.180000000003597, -1.0498810826341216 
4.1900000000035735, -1.0619696249366435 
4.20000000000355, -1.0722764059464736 
4.210000000003527, -1.080069169945788 
4.220000000003504, -1.085396135342536 
4.23000000000348, -1.088741874406577 
4.240000000003457, -1.090681112823749 
4.250000000003434, -1.0916891004698361 
4.26000000000341, -1.092094034152223 
4.270000000003387, -1.092099210654779 
4.280000000003364, -1.0918236664377807 
4.2900000000033405, -1.0913436658974431 
4.300000000003317, -1.0907382140299142 
4.310000000003294, -1.090147833484679 
4.320000000003271, -1.0898418356437245 
4.330000000003247, -1.090247346143933 
4.340000000003224, -1.0918563485531165 
4.350000000003201, -1.094992791906474 
4.360000000003177, -1.0995943133609347 
4.370000000003154, -1.1052049266192958 
4.380000000003131, -1.1111705836594705 
4.390000000003107, -1.116863200007513 
4.400000000003084, -1.1218161493925023 
4.410000000003061, -1.1257712051034292 
4.4200000000030375, -1.1286701579246772 
4.430000000003014, -1.1306081149740344 
4.440000000002991, -1.1317632495440761 
4.450000000002968, -1.1323290059060942 
4.460000000002944, -1.1324715294084418 
4.470000000002921, -1.1323173745369235 
4.480000000002898, -1.131963715763235 
4.490000000002874, -1.131501724137649 
4.500000000002851, -1.1310444945693758 
4.510000000002828, -1.130744675912711 
4.520000000002804, -1.130778573230211 
4.530000000002781, -1.1312871222840788 
4.540000000002758, -1.132308714509781 
4.5500000000027345, -1.1337613969073943 
4.560000000002711, -1.1354863689986565 
4.570000000002688, -1.1373097352346206 
4.580000000002665, -1.1390824873530174 
4.590000000002641, -1.1406926359823568 
4.600000000002618, -1.1420619695586631 
4.610000000002595, -1.1431396924411306 
4.620000000002571, -1.1438990164973935 
4.630000000002548, -1.14433671840753 
4.640000000002525, -1.1444720597445923 
4.6500000000025015, -1.144342392146282 
4.660000000002478, -1.1439970648718054 
4.670000000002455, -1.1434939934305537 
4.6800000000024315, -1.1429011061696464 
4.690000000002408, -1.1422991941186802 
4.700000000002385, -1.1417780092124397 
4.710000000002362, -1.1414200322802226 
4.720000000002338, -1.1412777858964493 
4.730000000002315, -1.141359139209385 
4.740000000002292, -1.1416285600553302 
4.750000000002268, -1.142020116542421 
4.760000000002245, -1.1424546554857995 
4.770000000002222, -1.1428555263599074 
4.7800000000021985, -1.1431586946881132 
4.790000000002175, -1.1433161462871033 
4.800000000002152, -1.1432950768124257 
4.810000000002129, -1.1430758927990676 
4.820000000002105, -1.1426503297714619 
4.830000000002082, -1.1420199947956475 
4.840000000002059, -1.1411959038753279 
4.850000000002035, -1.140199685501076 
4.860000000002012, -1.1390664296915856 
4.870000000001989, -1.1378480967639082 
4.880000000001965, -1.1366152143805974 
4.890000000001942, -1.1354537487380711 
4.900000000001919, -1.1344543993651843 
4.9100000000018955, -1.1336932672356617 
4.920000000001872, -1.1332071058641247 
4.930000000001849, -1.1329749576162056 
