t, s[1].omega / s[0].omega 
0, -1.3800544789486051 
0.009999999999999995, -1.3846027284131828 
0.019999999999999934, -1.3875691329051147 
0.029999999999999874, -1.3893202663134265 
0.04000000000000012, -1.3902056623229924 
0.050000000000000405, -1.3904988517805854 
0.06000000000000069, -1.3903936976865814 
0.07000000000000098, -1.3900286197095562 
0.08000000000000126, -1.3895214833748752 
0.09000000000000155, -1.388997783597458 
0.10000000000000184, -1.3885883077394063 
0.11000000000000212, -1.3883888375177595 
0.12000000000000241, -1.388421279714949 
0.130000000000002, -1.388638255739855 
0.1400000000000009, -1.3889538788820848 
0.1499999999999998, -1.3892684112950426 
0.1599999999999987, -1.3894850508300893 
0.1699999999999976, -1.389520264451692 
0.1799999999999965, -1.3893032496864803 
0.1899999999999954, -1.3887688089564567 
0.1999999999999943, -1.387852564563567 
0.2099999999999932, -1.3864924775520118 
0.2199999999999921, -1.3846360353978662 
0.229999999999991, -1.3822538491624634 
0.2399999999999899, -1.3793664060765476 
0.2499999999999888, -1.3760946030115642 
0.2599999999999877, -1.3727288319769755 
0.2699999999999866, -1.3697471180949252 
0.2799999999999855, -1.3676453043143697 
0.2899999999999844, -1.3666017954258045 
0.2999999999999833, -1.3663466604020411 
0.3099999999999822, -1.3664254452447717 
0.3199999999999811, -1.3664947761737196 
0.32999999999998, -1.3663746002501183 
0.3399999999999789, -1.3659567461640774 
0.3499999999999778, -1.3651018311307603 
0.35999999999997667, -1.3635441379723394 
0.36999999999997557, -1.3607797373557826 
0.37999999999997447, -1.3559541206445969 
0.38999999999997337, -1.3479506564156545 
0.39999999999997227, -1.336276482763965 
0.40999999999997117, -1.3232078029344636 
0.41999999999997006, -1.314774922978373 
0.42999999999996896, -1.3158278380188952 
0.43999999999996786, -1.3240950689212967 
0.44999999999996676, -1.3335160736339775 
0.45999999999996566, -1.3405449122564095 
0.46999999999996456, -1.3448101161082138 
0.47999999999996346, -1.347101382313063 
0.48999999999996235, -1.3481872634309868 
0.49999999999996125, -1.348556775909585 
0.5099999999999602, -1.3484735478648338 
0.519999999999959, -1.3480692305684603 
0.529999999999958, -1.347429197731217 
0.5399999999999568, -1.3466954317849562 
0.5499999999999557, -1.3461974090192097 
0.5599999999999546, -1.3465000987381885 
0.5699999999999535, -1.3481430429042698 
0.5799999999999524, -1.3511666400292277 
0.5899999999999513, -1.3550153816862587 
0.5999999999999502, -1.3589565595676623 
0.6099999999999491, -1.362465162299724 
0.619999999999948, -1.3652957137819528 
0.6299999999999469, -1.3673939055741025 
0.6399999999999458, -1.368805803967344 
0.6499999999999447, -1.3696228610109982 
0.6599999999999436, -1.369951321343408 
0.6699999999999425, -1.3698944743838588 
0.6799999999999414, -1.3695453155961 
0.6899999999999403, -1.3689901762142074 
0.6999999999999392, -1.3683193938691716 
0.7099999999999381, -1.367633317014319 
0.719999999999937, -1.3670316854082425 
0.7299999999999359, -1.3665910715886045 
0.7399999999999348, -1.3663477803957478 
0.7499999999999337, -1.3662892629695824 
0.7599999999999326, -1.3663513337299074 
0.7699999999999315, -1.3664328805517487 
0.7799999999999304, -1.366424787621257 
0.7899999999999293, -1.366226754250081 
0.7999999999999282, -1.365741226557878 
0.8099999999999271, -1.364857636022778 
0.819999999999926, -1.3634428983450775 
0.8299999999999249, -1.3613464804749809 
0.8399999999999238, -1.3584225871147415 
0.8499999999999227, -1.3545722831317015 
0.8599999999999216, -1.3498166195540269 
0.8699999999999205, -1.3444147039780758 
0.8799999999999194, -1.338987647557088 
0.8899999999999183, -1.3344597036881285 
0.8999999999999172, -1.3315974839386595 
0.9099999999999161, -1.3304421457262123 
0.919999999999915, -1.330361468370439 
0.9299999999999139, -1.3306430602738943 
0.9399999999999128, -1.3308642499960552 
0.9499999999999117, -1.330855973455714 
0.9599999999999106, -1.3305464805322884 
0.9699999999999095, -1.3298452206311226 
0.9799999999999084, -1.328563543670748 
0.9899999999999073, -1.3263390242678548 
0.9999999999999062, -1.3225799061764039 
1.0099999999999052, -1.3166029857333716 
1.019999999999904, -1.3084318718844208 
1.029999999999903, -1.3005148557252015 
1.039999999999902, -1.298212037881381 
1.0499999999999008, -1.3052244176788677 
1.0599999999998997, -1.3184904132142594 
1.0699999999998986, -1.3316207208575885 
1.0799999999998975, -1.341082576136897 
1.0899999999998964, -1.3467883142991492 
1.0999999999998953, -1.349881401645939 
1.1099999999998942, -1.3514063800694494 
1.119999999999893, -1.3520260993171502 
1.129999999999892, -1.3521047606193428 
1.1399999999998909, -1.3518312650555213 
1.1499999999998898, -1.3513185023650176 
1.1599999999998887, -1.3506964722449504 
1.1699999999998876, -1.3502112183831856 
1.1799999999998865, -1.35026208318309 
1.1899999999998854, -1.351237738887863 
1.1999999999998843, -1.353206761953297 
1.2099999999998832, -1.3558308463046729 
1.219999999999882, -1.3586177402699642 
1.229999999999881, -1.3611838450467533 
1.2399999999998799, -1.363323054865559 
1.2499999999998788, -1.364960075597429 
1.2599999999998777, -1.366092846940332 
1.2699999999998766, -1.3667565488581568 
1.2799999999998755, -1.3670048382276323 
1.2899999999998744, -1.3668994112928559 
1.2999999999998733, -1.3665043398685512 
1.3099999999998722, -1.3658861040200783 
1.319999999999871, -1.3651192651679849 
1.32999999999987, -1.3642918577723329 
1.3399999999998689, -1.3635014569978314 
1.3499999999998678, -1.3628407344352886 
1.3599999999998666, -1.3623790214512106 
1.3699999999998655, -1.362139742118761 
1.3799999999998644, -1.362079735916783 
1.3899999999998633, -1.362096976791509 
1.3999999999998622, -1.3620686587097708 
1.4099999999998611, -1.361880454347289 
1.41999999999986, -1.3614231118724258 
1.429999999999859, -1.36056890067924 
1.4399999999998578, -1.3591488268644194 
1.4499999999998567, -1.3569450066355446 
1.4599999999998556, -1.3537091979262024 
1.4699999999998545, -1.3492191071303126 
1.4799999999998534, -1.3433888948086963 
1.4899999999998523, -1.3364518045284481 
1.4999999999998512, -1.3291720694645286 
1.5099999999998501, -1.322835686182105 
1.519999999999849, -1.3186530372022045 
1.529999999999848, -1.3168706834997568 
1.5399999999998468, -1.3166949441285243 
1.5499999999998457, -1.3171202745395605 
1.5599999999998446, -1.3175336019478456 
1.5699999999998435, -1.317705143130736 
1.5799999999998424, -1.317574215086629 
1.5899999999998413, -1.3170964784761356 
1.5999999999998402, -1.3161626433732228 
1.6099999999998391, -1.3145423899054887 
1.619999999999838, -1.311847472433535 
1.629999999999837, -1.3076175127855936 
1.6399999999998358, -1.3018492091290894 
1.6499999999998347, -1.2962926792392062 
1.6599999999998336, -1.2953315942917907 
1.6699999999998325, -1.303028540208142 
1.6799999999998314, -1.3177871952491953 
1.6899999999998303, -1.3334230288094493 
1.6999999999998292, -1.345402110413052 
1.709999999999828, -1.3529638944505442 
1.719999999999827, -1.3572145133524436 
1.729999999999826, -1.3594082868598607 
1.7399999999998248, -1.3604106916307024 
1.7499999999998237, -1.3607210523114837 
1.7599999999998226, -1.3606060810529694 
1.7699999999998215, -1.3602139731999732 
1.7799999999998204, -1.359667018900785 
1.7899999999998193, -1.3591490151368728 
1.7999999999998182, -1.3589561707506885 
1.809999999999817, -1.3594142253547523 
1.819999999999816, -1.3606555718318725 
1.8299999999998149, -1.362496409802848 
1.8399999999998138, -1.3645776283641633 
1.8499999999998127, -1.3665774898305756 
1.8599999999998116, -1.3682983680234186 
1.8699999999998105, -1.3696484238172606 
1.8799999999998094, -1.3705998632970524 
1.8899999999998083, -1.3711589577586951 
1.8999999999998072, -1.3713500252816675 
1.909999999999806, -1.3712077267557314 
1.919999999999805, -1.3707735396220682 
1.9299999999998039, -1.370095681733842 
1.9399999999998028, -1.3692331300012002 
1.9499999999998017, -1.368261540858822 
1.9599999999998006, -1.3672750915723701 
1.9699999999997995, -1.3663800996373818 
1.9799999999997984, -1.3656788978172933 
1.9899999999997973, -1.3652373211625428 
1.9999999999997962, -1.3650430368613424 
2.0099999999998173, -1.3649978025930234 
2.0199999999998384, -1.3649626233196734 
2.0299999999998595, -1.3648057870194563 
2.0399999999998806, -1.3644084399108642 
2.0499999999999017, -1.3636353412678162 
2.059999999999923, -1.3622961635718212 
2.069999999999944, -1.3601148845701962 
2.079999999999965, -1.3567249031152595 
2.089999999999986, -1.3517193538092818 
2.100000000000007, -1.3448005055613546 
2.1100000000000283, -1.336071967274806 
2.1200000000000494, -1.3264272493075522 
2.1300000000000705, -1.317665980558044 
2.1400000000000916, -1.311696094862323 
2.1500000000001127, -1.3091078899226487 
2.160000000000134, -1.308870030191421 
2.170000000000155, -1.3095371588901723 
2.180000000000176, -1.3102223459275162 
2.190000000000197, -1.3106148207116592 
2.2000000000002182, -1.3106661723398245 
2.2100000000002393, -1.3103762035187834 
2.2200000000002604, -1.309699240527653 
2.2300000000002815, -1.3085015354693827 
2.2400000000003026, -1.3065453437584182 
2.2500000000003237, -1.303565045690796 
2.260000000000345, -1.2996556125340424 
2.270000000000366, -1.2962232838491017 
2.280000000000387, -1.2967639472543424 
2.290000000000408, -1.3048925031849328 
2.3000000000004293, -1.3198661750100664 
2.3100000000004504, -1.3364076394716835 
2.3200000000004715, -1.349812500856627 
2.3300000000004926, -1.3587325651885251 
2.3400000000005137, -1.3639778075468123 
2.3500000000005348, -1.3668051995000234 
2.360000000000556, -1.3681872715138819 
2.370000000000577, -1.368725977358287 
2.380000000000598, -1.3687586485883947 
2.390000000000619, -1.3684729500649317 
2.4000000000006403, -1.3679995506365075 
2.4100000000006614, -1.3674912955115197 
2.4200000000006825, -1.367173581277185 
2.4300000000007036, -1.3673029426314245 
2.4400000000007247, -1.3680162548756185 
2.450000000000746, -1.3692220838482496 
2.460000000000767, -1.3706744576073444 
2.470000000000788, -1.3721253225289207 
2.480000000000809, -1.3734034934353045 
2.49000000000083, -1.3744142856663513 
2.5000000000008513, -1.3751142861349896 
2.5100000000008724, -1.3754896367350165 
2.5200000000008935, -1.3755428237017693 
2.5300000000009146, -1.375286200506972 
2.5400000000009357, -1.374739830339049 
2.550000000000957, -1.373932515495992 
2.560000000000978, -1.3729062370403293 
2.570000000000999, -1.371723541589667 
2.58000000000102, -1.370474932015309 
2.5900000000010412, -1.3692816526074072 
2.6000000000010624, -1.3682844221896189 
2.6100000000010835, -1.367599732233463 
2.6200000000011046, -1.3672500870144613 
2.6300000000011257, -1.3671359679726185 
2.6400000000011468, -1.3670923816865435 
2.650000000001168, -1.366963100836084 
2.660000000001189, -1.3666183404456416 
2.67000000000121, -1.3659200055409895 
2.680000000001231, -1.3646668234164354 
2.6900000000012523, -1.3625363041313892 
2.7000000000012734, -1.3590387262688082 
2.7100000000012945, -1.3535282419494716 
2.7200000000013156, -1.3453709591599097 
2.7300000000013367, -1.3344051293680945 
2.740000000001358, -1.3216757098790848 
2.750000000001379, -1.3098016523315952 
2.7600000000014, -1.3017612228827042 
2.770000000001421, -1.2985225578665065 
2.780000000001442, -1.298543907549196 
2.7900000000014633, -1.2997188587664275 
2.8000000000014844, -1.3008345501892553 
2.8100000000015055, -1.3015247679402435 
2.8200000000015266, -1.3017830335418485 
2.8300000000015477, -1.3016670806755468 
2.840000000001569, -1.301191581284627 
2.85000000000159, -1.300297994060553 
2.860000000001611, -1.2988568779070413 
2.870000000001632, -1.296741742848198 
2.8800000000016532, -1.2941205644390448 
2.8900000000016743, -1.2921205263883617 
2.9000000000016954, -1.29337493853192 
2.9100000000017165, -1.300723355199628 
2.9200000000017377, -1.313981826183262 
2.9300000000017588, -1.3292842595620167 
2.94000000000178, -1.3425286585369345 
2.950000000001801, -1.3519833201075622 
2.960000000001822, -1.3579186882764793 
2.970000000001843, -1.3613152596032028 
2.9800000000018643, -1.3630910157531075 
2.9900000000018854, -1.3638840479369074 
3.0000000000019065, -1.3640819260315364 
3.0100000000019276, -1.3639087667535563 
3.0200000000019487, -1.3635080590151287 
3.03000000000197, -1.3630140555665449 
3.040000000001991, -1.36260324732335 
3.050000000002012, -1.3624861090927347 
3.060000000002033, -1.3628113566998148 
3.070000000002054, -1.3635653727970116 
3.0800000000020753, -1.3645899267871664 
3.0900000000020964, -1.3656880116759538 
3.1000000000021175, -1.3667008579876883 
3.1100000000021386, -1.3675245888112892 
3.1200000000021597, -1.368099034172683 
3.130000000002181, -1.3683928176274285 
3.140000000002202, -1.3683919446354156 
3.150000000002223, -1.3680931056960304 
3.160000000002244, -1.3675010470905744 
3.1700000000022652, -1.3666292035181433 
3.1800000000022863, -1.3655037063280133 
3.1900000000023074, -1.3641712624480775 
3.2000000000023285, -1.362710148364669 
3.2100000000023496, -1.3612409346107106 
3.2200000000023707, -1.3599261936024747 
3.230000000002392, -1.3589336970880956 
3.240000000002413, -1.3583510453504117 
3.250000000002434, -1.3581172118443434 
3.260000000002455, -1.3580587558212982 
3.2700000000024763, -1.3579896085743353 
3.2800000000024974, -1.357763058616492 
3.2900000000025185, -1.3572502653561318 
3.3000000000025396, -1.356283387364095 
3.3100000000025607, -1.354587901183177 
3.3200000000025818, -1.3517111509946367 
3.330000000002603, -1.3469735856165335 
3.340000000002624, -1.3395348439857835 
3.350000000002645, -1.3287605098075113 
3.360000000002666, -1.315047969509527 
3.3700000000026873, -1.3007176110880305 
3.3800000000027084, -1.2895008176906702 
3.3900000000027295, -1.2838348254312808 
3.4000000000027506, -1.2829027335304113 
3.4100000000027717, -1.2841610559200256 
3.420000000002793, -1.2857084043113525 
3.430000000002814, -1.2868183405642015 
3.440000000002835, -1.2874022725417262 
3.450000000002856, -1.2875463851949585 
3.460000000002877, -1.2873217773964738 
3.4700000000028983, -1.286733219331889 
3.4800000000029194, -1.2857131552142618 
3.4900000000029405, -1.2841502586726092 
3.5000000000029616, -1.2820245519687148 
3.5100000000029827, -1.279801056493445 
3.520000000003004, -1.2790701462224328 
3.530000000003025, -1.2825429050563202 
3.540000000003046, -1.2920214088898365 
3.550000000003067, -1.3059320303571567 
3.5600000000030882, -1.320306253761164 
3.5700000000031094, -1.3320148291782494 
3.5800000000031305, -1.3401244012136493 
3.5900000000031516, -1.3451445289547193 
3.6000000000031727, -1.3479905087009572 
3.6100000000031938, -1.3494518804463183 
3.620000000003215, -1.3500658915075683 
3.630000000003236, -1.3501585989420195 
3.640000000003257, -1.3499225638742396 
3.650000000003278, -1.3494905347701733 
3.6600000000032993, -1.348999922484818 
3.6700000000033204, -1.3486333015471432 
3.6800000000033415, -1.3485929707284345 
3.6900000000033626, -1.348999026282003 
3.7000000000033837, -1.349808819032032 
3.710000000003405, -1.3508555669081124 
3.720000000003426, -1.3519504018773223 
3.730000000003447, -1.352945842491641 
3.740000000003468, -1.3537462089638606 
3.750000000003489, -1.354296240571251 
3.7600000000035103, -1.3545673830860174 
3.7700000000035314, -1.3545475055300087 
3.7800000000035525, -1.354235024148568 
3.7900000000035736, -1.353636759418169 
3.8000000000035947, -1.3527688094772414 
3.810000000003616, -1.3516605813984328 
3.820000000003637, -1.3503622396461543 
3.830000000003658, -1.348954291209644 
3.840000000003679, -1.3475554918185437 
3.8500000000037002, -1.346319169286719 
3.8600000000037213, -1.3453965690453704 
3.8700000000037424, -1.3448601081413503 
3.8800000000037635, -1.3446462063083096 
3.8900000000037847, -1.3445909764076813 
3.9000000000038058, -1.344519337269973 
3.910000000003827, -1.3442907187001933 
3.920000000003848, -1.3437793736894434 
3.930000000003869, -1.3428230350463 
3.94000000000389, -1.341163588883239 
3.9500000000039113, -1.3383896549169 
3.9600000000039324, -1.3339072957029856 
3.9700000000039535, -1.3270127917245274 
3.9800000000039746, -1.3171976976019781 
3.9900000000039957, -1.3047821063542009 
4.000000000004016, -1.2916034817597788 
4.010000000003993, -1.2807466752200667 
4.02000000000397, -1.2745618770420597 
4.030000000003946, -1.2728131557616313 
4.040000000003923, -1.2734645021795505 
4.0500000000039, -1.274699720027465 
4.0600000000038765, -1.275683942848267 
4.070000000003853, -1.2762290123548172 
4.08000000000383, -1.2763687536224195 
4.090000000003807, -1.276151155478144 
4.100000000003783, -1.275568287229444 
4.11000000000376, -1.2745346826538186 
4.120000000003737, -1.2728914872798869 
4.130000000003713, -1.270491201040364 
4.14000000000369, -1.2675254332255632 
4.150000000003667, -1.2652466614126323 
4.1600000000036434, -1.2665133053208804 
4.17000000000362, -1.2743324380506493 
4.180000000003597, -1.2884290900070137 
4.1900000000035735, -1.3046075247482802 
4.20000000000355, -1.3184744767094647 
4.210000000003527, -1.3282435375708184 
4.220000000003504, -1.3342890374104026 
4.23000000000348, -1.3377048938941147 
4.240000000003457, -1.339473978190362 
4.250000000003434, -1.3402592245844551 
4.26000000000341, -1.3404531728029885 
4.270000000003387, -1.3402771729596963 
4.280000000003364, -1.3398692821247657 
4.2900000000033405, -1.3393598016097885 
4.300000000003317, -1.3389327289510105 
4.310000000003294, -1.3388322290441517 
4.320000000003271, -1.3392631368489023 
4.330000000003247, -1.340249561941263 
4.340000000003224, -1.3416170832754208 
4.350000000003201, -1.3431155427227828 
4.360000000003177, -1.3445357200084236 
4.370000000003154, -1.345744556519174 
4.380000000003131, -1.346671407011678 
4.390000000003107, -1.3472856410891363 
4.400000000003084, -1.3475801073916909 
4.410000000003061, -1.347561764808972 
4.4200000000030375, -1.3472474191889225 
4.430000000003014, -1.346662595359438 
4.440000000002991, -1.3458430662477956 
4.450000000002968, -1.3448393523882936 
4.460000000002944, -1.3437226993409475 
4.470000000002921, -1.3425883464000228 
4.480000000002898, -1.3415516433926746 
4.490000000002874, -1.3407303092570875 
4.500000000002851, -1.3402028616417463 
4.510000000002828, -1.3399583340811698 
4.520000000002804, -1.3398902631206162 
4.530000000002781, -1.3398502531911043 
4.540000000002758, -1.3397014950310435 
4.5500000000027345, -1.3393249204082314 
4.560000000002711, -1.3385883478210068 
4.570000000002688, -1.3373051304107995 
4.580000000002665, -1.3351990617983038 
4.590000000002641, -1.3318926311567387 
4.600000000002618, -1.3269496598736774 
4.610000000002595, -1.3200183408917245 
4.620000000002571, -1.3111171930719754 
4.630000000002548, -1.3010257075283318 
4.640000000002525, -1.2914661536540866 
4.6500000000025015, -1.2844693112289096 
4.660000000002478, -1.280979599073465 
4.670000000002455, -1.2802381877599103 
4.6800000000024315, -1.2807675331990833 
4.690000000002408, -1.2815036315928048 
4.700000000002385, -1.282005888476761 
4.710000000002362, -1.282176655505395 
4.720000000002338, -1.2820145464564567 
4.730000000002315, -1.2814959851208205 
4.740000000002292, -1.2805222196143178 
4.750000000002268, -1.2788866025746355 
4.760000000002245, -1.2762769706321315 
4.770000000002222, -1.2724389385731625 
4.7800000000021985, -1.2677832655031913 
4.790000000002175, -1.2644976404432469 
4.800000000002152, -1.266684139077937 
4.810000000002129, -1.2770654053412138 
4.820000000002105, -1.293068248198971 
4.830000000002082, -1.3089191010321675 
4.840000000002059, -1.3208511825616291 
4.850000000002035, -1.3284102219867662 
4.860000000002012, -1.332708745456808 
4.870000000001989, -1.3349602401263738 
4.880000000001965, -1.3360113437183025 
4.890000000001942, -1.3363594561515044 
4.900000000001919, -1.3362748920198 
4.9100000000018955, -1.3359082462489558 
4.920000000001872, -1.33537750224014 
4.930000000001849, -1.334850220143311 
4.940000000001826, -1.3345992682087138 
