t, s[1].omega / s[0].omega 
0, -0.34010580387350897 
0.009999999999999995, -0.3479809208948856 
0.019999999999999934, -0.35030878487677763 
0.029999999999999874, -0.34906004657751105 
0.04000000000000012, -0.3467438695659819 
0.050000000000000405, -0.34470069766213873 
0.06000000000000069, -0.34326902712285395 
0.07000000000000098, -0.3423714338158629 
0.08000000000000126, -0.34184588624609846 
0.09000000000000155, -0.3415560131339569 
0.10000000000000184, -0.3414087919740013 
0.11000000000000212, -0.34134642959766953 
0.12000000000000241, -0.3413355064468365 
0.130000000000002, -0.34135914517118726 
0.1400000000000009, -0.3414127408243432 
0.1499999999999998, -0.34150256321157946 
0.1599999999999987, -0.34164620355046227 
0.1699999999999976, -0.3418734292198649 
0.1799999999999965, -0.3422255127045343 
0.1899999999999954, -0.3427508953593389 
0.1999999999999943, -0.34349537123777635 
0.2099999999999932, -0.3444859225183462 
0.2199999999999921, -0.3457100337361269 
0.229999999999991, -0.3470987367877814 
0.2399999999999899, -0.3485287877857779 
0.2499999999999888, -0.3498543907857155 
0.2599999999999877, -0.35095522426345693 
0.2699999999999866, -0.3517689199980834 
0.2799999999999855, -0.3522898877234349 
0.2899999999999844, -0.352545286235514 
0.2999999999999833, -0.3525687684797569 
0.3099999999999822, -0.35238255550358655 
0.3199999999999811, -0.35198720959659197 
0.32999999999998, -0.35135454134225147 
0.3399999999999789, -0.3504202585489612 
0.3499999999999778, -0.34907684360268293 
0.35999999999997667, -0.34717446033113664 
0.36999999999997557, -0.344548768158342 
0.37999999999997447, -0.3410982274393088 
0.38999999999997337, -0.33689898829692133 
0.39999999999997227, -0.3322676817392712 
0.40999999999997117, -0.32766936391566154 
0.41999999999997006, -0.32351596060965004 
0.42999999999996896, -0.3200263699017151 
0.43999999999996786, -0.3172281828944308 
0.44999999999996676, -0.3150368992692224 
0.45999999999996566, -0.3133313043506161 
0.46999999999996456, -0.3119965846388454 
0.47999999999996346, -0.310941319361644 
0.48999999999996235, -0.3101007910364747 
0.49999999999996125, -0.3094351752857768 
0.5099999999999602, -0.30892717049469653 
0.519999999999959, -0.3085814346038229 
0.529999999999958, -0.30842736458976205 
0.5399999999999568, -0.30852681533688486 
0.5499999999999557, -0.30898907597969133 
0.5599999999999546, -0.30999650164866693 
0.5699999999999535, -0.31184444217202667 
0.5799999999999524, -0.3149939386193122 
0.5899999999999513, -0.3201108130697987 
0.5999999999999502, -0.32798901511812095 
0.6099999999999491, -0.3391181939492684 
0.619999999999948, -0.35269760776926273 
0.6299999999999469, -0.3658454060616023 
0.6399999999999458, -0.37499352179563805 
0.6499999999999447, -0.3789519335063333 
0.6599999999999436, -0.3793792370042357 
0.6699999999999425, -0.37846158941838637 
0.6799999999999414, -0.3774402596340484 
0.6899999999999403, -0.3767065963442335 
0.6999999999999392, -0.3762721130081298 
0.7099999999999381, -0.3760492679792867 
0.719999999999937, -0.3759532327515685 
0.7299999999999359, -0.3759240082083496 
0.7399999999999348, -0.37592398835978147 
0.7499999999999337, -0.3759313142749055 
0.7599999999999326, -0.37593477262949765 
0.7699999999999315, -0.3759312826726016 
0.7799999999999304, -0.37592571726835267 
0.7899999999999293, -0.375932239126315 
0.7999999999999282, -0.37597564995236576 
0.8099999999999271, -0.37609062427801954 
0.819999999999926, -0.37631686233808775 
0.8299999999999249, -0.37668950360848497 
0.8399999999999238, -0.3772260414536389 
0.8499999999999227, -0.37791311608416595 
0.8599999999999216, -0.37869932898137626 
0.8699999999999205, -0.37950165695551774 
0.8799999999999194, -0.3802275509242041 
0.8899999999999183, -0.3808024256188152 
0.8999999999999172, -0.381185959661437 
0.9099999999999161, -0.3813698421369468 
0.919999999999915, -0.381363451485401 
0.9299999999999139, -0.38117781957639274 
0.9399999999999128, -0.38081296265036035 
0.9499999999999117, -0.38024772845932453 
0.9599999999999106, -0.3794284904941069 
0.9699999999999095, -0.378252581098847 
0.9799999999999084, -0.3765441213373978 
0.9899999999999073, -0.3740279948517867 
0.9999999999999062, -0.3703315842953137 
1.0099999999999052, -0.3650836340568842 
1.019999999999904, -0.3581718271145587 
1.029999999999903, -0.3500352656983379 
1.039999999999902, -0.3416306251529975 
1.0499999999999008, -0.333957185917795 
1.0599999999998997, -0.3275954525464441 
1.0699999999998986, -0.3226428222237645 
1.0799999999998975, -0.31891437732835615 
1.0899999999998964, -0.3161431500724928 
1.0999999999998953, -0.3140851257080497 
1.1099999999998942, -0.3125521134172239 
1.119999999999893, -0.31141180624108267 
1.129999999999892, -0.3105782491392826 
1.1399999999998909, -0.3100024041188872 
1.1499999999998898, -0.30966602058275094 
1.1599999999998887, -0.3095797476618556 
1.1699999999998876, -0.30978606194123615 
1.1799999999998865, -0.3103680575401586 
1.1899999999998854, -0.31146598771539025 
1.1999999999998843, -0.313304121469622 
1.2099999999998832, -0.3162292966621717 
1.219999999999882, -0.3207541388055589 
1.229999999999881, -0.32756863774513123 
1.2399999999998799, -0.3374137224839643 
1.2499999999998788, -0.35063004977284035 
1.2599999999998777, -0.366361825123186 
1.2699999999998766, -0.3821753682385725 
1.2799999999998755, -0.39524944509146803 
1.2899999999998744, -0.4042871311270545 
1.2999999999998733, -0.4098130968651498 
1.3099999999998722, -0.41302002029657386 
1.319999999999871, -0.4148874291767378 
1.32999999999987, -0.4160056746184341 
1.3399999999998689, -0.4166895525499312 
1.3499999999998678, -0.41710192970781634 
1.3599999999998666, -0.4173278748921116 
1.3699999999998655, -0.41741191757833523 
1.3799999999998644, -0.4173760070025412 
1.3899999999998633, -0.4172288557685878 
1.3999999999998622, -0.41697233899349007 
1.4099999999998611, -0.41660795093971076 
1.41999999999986, -0.41614431190370765 
1.429999999999859, -0.41560418393830484 
1.4399999999998578, -0.41502701123166796 
1.4499999999998567, -0.41446331407002013 
1.4599999999998556, -0.4139618023191657 
1.4699999999998545, -0.4135552478427849 
1.4799999999998534, -0.41325176394381974 
1.4899999999998523, -0.41303447261497384 
1.4999999999998512, -0.41286872909731487 
1.5099999999998501, -0.4127136564011507 
1.519999999999849, -0.41253325550154624 
1.529999999999848, -0.4123028185460014 
1.5399999999998468, -0.4120093892108515 
1.5499999999998457, -0.41164827464662024 
1.5599999999998446, -0.41121859118208504 
1.5699999999998435, -0.41071970284773424 
1.5799999999998424, -0.41014880103744994 
1.5899999999998413, -0.4094985073057809 
1.5999999999998402, -0.40875151048802927 
1.6099999999998391, -0.40786473439225646 
1.619999999999838, -0.4067247257749824 
1.629999999999837, -0.4050371922594641 
1.6399999999998358, -0.4021116041318079 
1.6499999999998347, -0.3966356601428404 
1.6599999999998336, -0.3869646802700775 
1.6699999999998325, -0.3725755829356402 
1.6799999999998314, -0.35553306942424723 
1.6899999999998303, -0.3393718722012027 
1.6999999999998292, -0.32647017165790876 
1.709999999999828, -0.3172357366991639 
1.719999999999827, -0.3109940320384224 
1.729999999999826, -0.3068749802333427 
1.7399999999998248, -0.30417541337661935 
1.7499999999998237, -0.3024102027019509 
1.7599999999998226, -0.3012662932468101 
1.7699999999998215, -0.3005483377629986 
1.7799999999998204, -0.3001382138599954 
1.7899999999998193, -0.2999690993414369 
1.7999999999998182, -0.30001042050422244 
1.809999999999817, -0.30026040334795245 
1.819999999999816, -0.30074412234162373 
1.8299999999998149, -0.30151578737775 
1.8399999999998138, -0.30266418713594 
1.8499999999998127, -0.3043192231835843 
1.8599999999998116, -0.30665417158062047 
1.8699999999998105, -0.3098708651557095 
1.8799999999998094, -0.3141439009236817 
1.8899999999998083, -0.319499551136702 
1.8999999999998072, -0.3256559490075529 
1.909999999999806, -0.3319688156297403 
1.919999999999805, -0.337650915117264 
1.9299999999998039, -0.34215721196271126 
1.9399999999998028, -0.34537573247667697 
1.9499999999998017, -0.34750504953547284 
1.9599999999998006, -0.34883559024995603 
1.9699999999997995, -0.34961744514101134 
1.9799999999997984, -0.35002476317734527 
1.9899999999997973, -0.35016475187150975 
1.9999999999997962, -0.35009586146819754 
2.0099999999998173, -0.34984291482246677 
2.0199999999998384, -0.349408318836915 
2.0299999999998595, -0.34878230660733867 
2.0399999999998806, -0.347955656922316 
2.0499999999999017, -0.34693600110443734 
2.059999999999923, -0.3457630181872436 
2.069999999999944, -0.34451201207155646 
2.079999999999965, -0.3432783728608587 
2.089999999999986, -0.3421494320071502 
2.100000000000007, -0.3411807779878459 
2.1100000000000283, -0.3403884660841457 
2.1200000000000494, -0.3397554845111545 
2.1300000000000705, -0.3392447548119898 
2.1400000000000916, -0.3388125081581138 
2.1500000000001127, -0.3384186818155347 
2.160000000000134, -0.3380327039272667 
2.170000000000155, -0.33763466328993874 
2.180000000000176, -0.33721339624318725 
2.190000000000197, -0.33676350952868817 
2.2000000000002182, -0.33628267894447555 
2.2100000000002393, -0.3357693595630122 
2.2200000000002604, -0.3352195134780045 
2.2300000000002815, -0.33461809666184766 
2.2400000000003026, -0.3339141098552884 
2.2500000000003237, -0.3329525969814898 
2.260000000000345, -0.33131505129415634 
2.270000000000366, -0.32804352294479383 
2.280000000000387, -0.3214819694881733 
2.290000000000408, -0.31002507587391837 
2.3000000000004293, -0.2940871799164415 
2.3100000000004504, -0.2768560825983655 
2.3200000000004715, -0.26185832832642925 
2.3300000000004926, -0.2506087117473829 
2.3400000000005137, -0.24283334153471955 
2.3500000000005348, -0.23763939921195468 
2.360000000000556, -0.23419385048192182 
2.370000000000577, -0.23189786860398026 
2.380000000000598, -0.23036207188381108 
2.390000000000619, -0.22934478718762114 
2.4000000000006403, -0.22870167819606652 
2.4100000000006614, -0.2283530874247512 
2.4200000000006825, -0.22826556849339846 
2.4300000000007036, -0.22844379469501336 
2.4400000000007247, -0.22893072247479282 
2.450000000000746, -0.2298156377766373 
2.460000000000767, -0.23125106360978392 
2.470000000000788, -0.23347968123643134 
2.480000000000809, -0.23686846442694054 
2.49000000000083, -0.24193059896833297 
2.5000000000008513, -0.24927027705178192 
2.5100000000008724, -0.2593129920256932 
2.5200000000008935, -0.2717221828332466 
2.5300000000009146, -0.28488652235103623 
2.5400000000009357, -0.2964614274891272 
2.550000000000957, -0.3049192216679982 
2.560000000000978, -0.3102820353888203 
2.570000000000999, -0.31342380872202746 
2.58000000000102, -0.3152209281453354 
2.5900000000010412, -0.3162559949827469 
2.6000000000010624, -0.3168568965034755 
2.6100000000010835, -0.3171972141079032 
2.6200000000011046, -0.31736782353265885 
2.6300000000011257, -0.31741654430110555 
2.6400000000011468, -0.31736875150556304 
2.650000000001168, -0.3172388363208247 
2.660000000001189, -0.31703806410948315 
2.67000000000121, -0.3167813363663504 
2.680000000001231, -0.3164929515471103 
2.6900000000012523, -0.3162094673167751 
2.7000000000012734, -0.3159772289579422 
2.7100000000012945, -0.3158440144875546 
2.7200000000013156, -0.31584722525641096 
2.7300000000013367, -0.3160023917739988 
2.740000000001358, -0.3162952989822733 
2.750000000001379, -0.3166810005973514 
2.7600000000014, -0.31709277430314464 
2.770000000001421, -0.3174598812581667 
2.780000000001442, -0.3177259394481469 
2.7900000000014633, -0.3178580340818188 
2.8000000000014844, -0.3178436404125744 
2.8100000000015055, -0.3176801411268072 
2.8200000000015266, -0.31736294890613814 
2.8300000000015477, -0.3168746410671496 
2.840000000001569, -0.31617379443105464 
2.85000000000159, -0.31518036014214373 
2.860000000001611, -0.31375479767762393 
2.870000000001632, -0.3116733471537827 
2.8800000000016532, -0.3086192384965628 
2.8900000000016743, -0.3042443232885826 
2.9000000000016954, -0.29836937280141607 
2.9100000000017165, -0.2912670666244159 
2.9200000000017377, -0.283726998274207 
2.9300000000017588, -0.2766904332699519 
2.94000000000178, -0.2707786355549052 
2.950000000001801, -0.26615190679413975 
2.960000000001822, -0.2626684810119352 
2.970000000001843, -0.26008344126601657 
2.9800000000018643, -0.25816293720596817 
2.9900000000018854, -0.2567234607643118 
3.0000000000019065, -0.2556348351482313 
3.0100000000019276, -0.25481181541291814 
3.0200000000019487, -0.25420504315533543 
3.03000000000197, -0.2537950806568823 
3.040000000001991, -0.25359081379743736 
3.050000000002012, -0.25363319884894275 
3.060000000002033, -0.2540060333961123 
3.070000000002054, -0.2548567260417254 
3.0800000000020753, -0.2564312360099159 
3.0900000000020964, -0.2591255280752711 
3.1000000000021175, -0.263540306040071 
3.1100000000021386, -0.27046649801071776 
3.1200000000021597, -0.28058316775737147 
3.130000000002181, -0.29353421876732766 
3.140000000002202, -0.30671854499583806 
3.150000000002223, -0.3159878539298154 
3.160000000002244, -0.31924737713832874 
3.1700000000022652, -0.3181568463165173 
3.1800000000022863, -0.3155463811404758 
3.1900000000023074, -0.3131065753326193 
3.2000000000023285, -0.3113318285323539 
3.2100000000023496, -0.31017654322339233 
3.2200000000023707, -0.3094679574832806 
3.230000000002392, -0.309052097223229 
3.240000000002413, -0.3088216298411167 
3.250000000002434, -0.308709155688044 
3.260000000002455, -0.30867564426338245 
3.2700000000024763, -0.3087017222877654 
3.2800000000024974, -0.30878275647233416 
3.2900000000025185, -0.308927060514487 
3.3000000000025396, -0.30915620903735086 
3.3100000000025607, -0.30950613369346824 
3.3200000000025818, -0.3100271914096445 
3.330000000002603, -0.3107808469356329 
3.340000000002624, -0.31183004090463484 
3.350000000002645, -0.31322003380558155 
3.360000000002666, -0.31494889170154067 
3.3700000000026873, -0.31693656434983764 
3.3800000000027084, -0.3190171330388684 
3.3900000000027295, -0.3209788808030919 
3.4000000000027506, -0.3226398108552623 
3.4100000000027717, -0.32390545651233865 
3.420000000002793, -0.32477157183200206 
3.430000000002814, -0.3252869767338103 
3.440000000002835, -0.32551293820343047 
3.450000000002856, -0.3254979641251607 
3.460000000002877, -0.32526701156983434 
3.4700000000028983, -0.3248179506151263 
3.4800000000029194, -0.3241204655078339 
3.4900000000029405, -0.3231172142855321 
3.5000000000029616, -0.32173223844419835 
3.5100000000029827, -0.31989571790517346 
3.520000000003004, -0.3175901472864412 
3.530000000003025, -0.31490106395276485 
3.540000000003046, -0.3120276009352503 
3.550000000003067, -0.30922213620819733 
3.5600000000030882, -0.306695100759132 
3.5700000000031094, -0.30455617339441365 
3.5800000000031305, -0.30281763130515094 
3.5900000000031516, -0.301431426753654 
3.6000000000031727, -0.30032626433258475 
3.6100000000031938, -0.29943143000094025 
3.620000000003215, -0.2986883689466733 
3.630000000003236, -0.2980545458706378 
3.640000000003257, -0.29750340583163004 
3.650000000003278, -0.29702314354459913 
3.6600000000032993, -0.2966161995842794 
3.6700000000033204, -0.29630087429266105 
3.6800000000033415, -0.29611618734832057 
3.6900000000033626, -0.2961309306968859 
3.7000000000033837, -0.29645677215875077 
3.710000000003405, -0.29725994654663535 
3.720000000003426, -0.2987472439200303 
3.730000000003447, -0.3010512735672214 
3.740000000003468, -0.30385903714857315 
3.750000000003489, -0.30571199203959576 
3.7600000000035103, -0.30374089012673944 
3.7700000000035314, -0.2956315565640652 
3.7800000000035525, -0.2827530519785046 
3.7900000000035736, -0.26929147887176125 
3.8000000000035947, -0.25834140970554603 
3.810000000003616, -0.25059196755750557 
3.820000000003637, -0.24545765963784713 
3.830000000003658, -0.2421375508346694 
3.840000000003679, -0.240001336857953 
3.8500000000037002, -0.23862914586156697 
3.8600000000037213, -0.23775963106153278 
3.8700000000037424, -0.23723630470631885 
3.8800000000037635, -0.23697034590359256 
3.8900000000037847, -0.23691839680173893 
3.9000000000038058, -0.23707109518705477 
3.910000000003827, -0.237449233769249 
3.920000000003848, -0.23810588225250284 
3.930000000003869, -0.23913372316720208 
3.94000000000389, -0.24067676227235726 
3.9500000000039113, -0.24294319308506104 
3.9600000000039324, -0.24620831932093434 
3.9700000000039535, -0.2507784927409288 
3.9800000000039746, -0.2568641554576121 
3.9900000000039957, -0.2643322572989615 
4.000000000004016, -0.27247464731176363 
4.010000000003993, -0.28014485595807 
4.02000000000397, -0.2863596907503039 
4.030000000003946, -0.29079141259856434 
4.040000000003923, -0.2936824011592939 
4.0500000000039, -0.29547096382668975 
4.0600000000038765, -0.29654004996755723 
4.070000000003853, -0.2971510259712119 
4.08000000000383, -0.29746298343451594 
4.090000000003807, -0.29756683806096584 
4.100000000003783, -0.29751166523440786 
4.11000000000376, -0.2973219679263949 
4.120000000003737, -0.2970096414211115 
4.130000000003713, -0.29658410773143007 
4.14000000000369, -0.2960620992818617 
4.150000000003667, -0.2954756013116582 
4.1600000000036434, -0.2948739472386575 
4.17000000000362, -0.29431694482312826 
4.180000000003597, -0.29386098147181977 
4.1900000000035735, -0.2935446331623863 
4.20000000000355, -0.29337951453205535 
4.210000000003527, -0.2933481359387484 
4.220000000003504, -0.2934084751553364 
4.23000000000348, -0.2935046337356961 
4.240000000003457, -0.29358086617680884 
4.250000000003434, -0.2935932747036198 
4.26000000000341, -0.29351410281838203 
4.270000000003387, -0.2933282012161202 
4.280000000003364, -0.2930249947637598 
4.2900000000033405, -0.2925891081777595 
4.300000000003317, -0.2919901950768519 
4.310000000003294, -0.291169824653278 
4.320000000003271, -0.2900214356578155 
4.330000000003247, -0.28835944832624316 
4.340000000003224, -0.2858810594189486 
4.350000000003201, -0.2821532047612382 
4.360000000003177, -0.2767160055716954 
4.370000000003154, -0.2694040036049983 
4.380000000003131, -0.2607386619297877 
4.390000000003107, -0.25188161879352416 
4.400000000003084, -0.2439918216848294 
4.410000000003061, -0.23765729003847755 
4.4200000000030375, -0.23288680385937668 
4.430000000003014, -0.22940164629756735 
4.440000000002991, -0.22687371567986042 
4.450000000002968, -0.22502854450963197 
4.460000000002944, -0.22366611932970817 
4.470000000002921, -0.22265146352354 
4.480000000002898, -0.22189984805156698 
4.490000000002874, -0.2213650507201704 
4.500000000002851, -0.22103274616178786 
4.510000000002828, -0.22091954775677097 
4.520000000002804, -0.22107854221843853 
4.530000000002781, -0.22161330636433693 
4.540000000002758, -0.22270385706893578 
4.5500000000027345, -0.22464822681835428 
4.560000000002711, -0.22791602862427185 
4.570000000002688, -0.23317437706784605 
4.580000000002665, -0.24113438385281244 
4.590000000002641, -0.2518761301018078 
4.600000000002618, -0.2635206797767239 
4.610000000002595, -0.2718653301417476 
4.620000000002571, -0.2736151344859994 
4.630000000002548, -0.26991110802419116 
4.640000000002525, -0.26437203625207195 
4.6500000000025015, -0.259475144677057 
4.660000000002478, -0.2559240974812985 
4.670000000002455, -0.2535636860420124 
4.6800000000024315, -0.252053699958639 
4.690000000002408, -0.25110704949745066 
4.700000000002385, -0.25052769687283305 
4.710000000002362, -0.2501932390099652 
4.720000000002338, -0.25003220320025465 
4.730000000002315, -0.2500076562182566 
4.740000000002292, -0.25010770028500073 
4.750000000002268, -0.2503413481608111 
4.760000000002245, -0.2507383684673581 
4.770000000002222, -0.25135194112837655 
4.7800000000021985, -0.2522627442645255 
4.790000000002175, -0.2535819312804156 
4.800000000002152, -0.25544742746090454 
4.810000000002129, -0.25800217086482746 
4.820000000002105, -0.2613375142745685 
4.830000000002082, -0.2653962437542474 
4.840000000002059, -0.26988265388047 
4.850000000002035, -0.27429269996021305 
4.860000000002012, -0.2781182533489589 
