t, s[1].omega / s[0].omega 
0, -0.6399977136248689 
0.009999999999999995, -0.6397657484938181 
0.019999999999999934, -0.6395226174483074 
0.029999999999999874, -0.6392569989817235 
0.04000000000000012, -0.6389563874467686 
0.050000000000000405, -0.6386125940154875 
0.06000000000000069, -0.6382247748170602 
0.07000000000000098, -0.6377999233422665 
0.08000000000000126, -0.6373524888660647 
0.09000000000000155, -0.6369049497133628 
0.10000000000000184, -0.6364904254921205 
0.11000000000000212, -0.636157650735411 
0.12000000000000241, -0.6359781246701163 
0.130000000000002, -0.636054781304661 
0.1400000000000009, -0.6365307479991513 
0.1499999999999998, -0.6375953107410828 
0.1599999999999987, -0.6394816034440831 
0.1699999999999976, -0.6424463787132312 
0.1799999999999965, -0.6467175953937246 
0.1899999999999954, -0.6523970717325254 
0.1999999999999943, -0.6593292991480859 
0.2099999999999932, -0.6670066905858884 
0.2199999999999921, -0.6746338811072331 
0.229999999999991, -0.6813999113760165 
0.2399999999999899, -0.686794882465465 
0.2499999999999888, -0.6907261623637773 
0.2599999999999877, -0.6933967550095306 
0.2699999999999866, -0.6951120495862086 
0.2799999999999855, -0.6961517339032134 
0.2899999999999844, -0.6967243802360372 
0.2999999999999833, -0.6969678056991186 
0.3099999999999822, -0.6969631804828273 
0.3199999999999811, -0.6967478871225731 
0.32999999999998, -0.6963225024645153 
0.3399999999999789, -0.6956511852453882 
0.3499999999999778, -0.6946559599894102 
0.35999999999997667, -0.6932069273043395 
0.36999999999997557, -0.6911150721247267 
0.37999999999997447, -0.688144177799928 
0.38999999999997337, -0.6840688386104881 
0.39999999999997227, -0.6787943693453984 
0.40999999999997117, -0.6724932938254043 
0.41999999999997006, -0.665640268720342 
0.42999999999996896, -0.6588694131683546 
0.43999999999996786, -0.6527433994318537 
0.44999999999996676, -0.6476003451415829 
0.45999999999996566, -0.6435406745806788 
0.46999999999996456, -0.6404980559430373 
0.47999999999996346, -0.6383216430210831 
0.48999999999996235, -0.63683539996654 
0.49999999999996125, -0.6358715191557257 
0.5099999999999602, -0.6352856480557209 
0.519999999999959, -0.6349615076083126 
0.529999999999958, -0.6348098692033796 
0.5399999999999568, -0.6347648161343912 
0.5499999999999557, -0.6347790721359751 
0.5599999999999546, -0.6348195659712716 
0.5699999999999535, -0.6348639936117791 
0.5799999999999524, -0.6348987306361703 
0.5899999999999513, -0.6349178822502198 
0.5999999999999502, -0.6349225322527385 
0.6099999999999491, -0.6349187604362954 
0.619999999999948, -0.6349134770975253 
0.6299999999999469, -0.6349088384103097 
0.6399999999999458, -0.6348978975865107 
0.6499999999999447, -0.6348643985682595 
0.6599999999999436, -0.6347874506428388 
0.6699999999999425, -0.6346486274096506 
0.6799999999999414, -0.6344375460420485 
0.6899999999999403, -0.634153607312161 
0.6999999999999392, -0.6338046365551346 
0.7099999999999381, -0.6334049262866717 
0.719999999999937, -0.6329749320741997 
0.7299999999999359, -0.6325438351070063 
0.7399999999999348, -0.6321554796630832 
0.7499999999999337, -0.6318779531190858 
0.7599999999999326, -0.6318168186224608 
0.7699999999999315, -0.6321310566903726 
0.7799999999999304, -0.6330482572946631 
0.7899999999999293, -0.6348703676596588 
0.7999999999999282, -0.6379524564630978 
0.8099999999999271, -0.6426271617387201 
0.819999999999926, -0.6490514738305826 
0.8299999999999249, -0.6570030711359327 
0.8399999999999238, -0.6657635964487001 
0.8499999999999227, -0.6742819213844238 
0.8599999999999216, -0.6816092907527161 
0.8699999999999205, -0.6872735122550364 
0.8799999999999194, -0.6913054172535613 
0.8899999999999183, -0.6940121734975133 
0.8999999999999172, -0.6957516732046087 
0.9099999999999161, -0.6968202779873633 
0.919999999999915, -0.6974283309663513 
0.9299999999999139, -0.6977119873826554 
0.9399999999999128, -0.6977514439940377 
0.9499999999999117, -0.6975848190063955 
0.9599999999999106, -0.6972155093419576 
0.9699999999999095, -0.696613471692695 
0.9799999999999084, -0.6957117529067361 
0.9899999999999073, -0.6944012969830217 
0.9999999999999062, -0.6925313958758703 
1.0099999999999052, -0.6899300045474033 
1.019999999999904, -0.6864603149699071 
1.029999999999903, -0.6821104569507902 
1.039999999999902, -0.6770671719117304 
1.0499999999999008, -0.6717003862307827 
1.0599999999998997, -0.6664458773865191 
1.0699999999998986, -0.6616662718217547 
1.0799999999998975, -0.6575770011190052 
1.0899999999998964, -0.6542504536112865 
1.0999999999998953, -0.65165924039265 
1.1099999999998942, -0.6497214968078686 
1.119999999999893, -0.6483332256043113 
1.129999999999892, -0.647387511710544 
1.1399999999998909, -0.6467848669074178 
1.1499999999998898, -0.6464383746777712 
1.1599999999998887, -0.6462757526221419 
1.1699999999998876, -0.6462394264776021 
1.1799999999998865, -0.6462853294535161 
1.1899999999998854, -0.6463810868759187 
1.1999999999998843, -0.6465042073321635 
1.2099999999998832, -0.6466406797789546 
1.219999999999882, -0.6467838894589393 
1.229999999999881, -0.6469331309536827 
1.2399999999998799, -0.6470906761807055 
1.2499999999998788, -0.6472569923795507 
1.2599999999998777, -0.6474253851108842 
1.2699999999998766, -0.6475789437426723 
1.2799999999998755, -0.6476924347730643 
1.2899999999998744, -0.6477390488400008 
1.2999999999998733, -0.6476984594154842 
1.3099999999998722, -0.6475617408155852 
1.319999999999871, -0.6473313871917126 
1.32999999999987, -0.6470182390454707 
1.3399999999998689, -0.6466384958635649 
1.3499999999998678, -0.6462131339463703 
1.3599999999998666, -0.6457707612684761 
1.3699999999998655, -0.6453543400324144 
1.3799999999998644, -0.6450321687184928 
1.3899999999998633, -0.6449133458642766 
1.3999999999998622, -0.6451667687988917 
1.4099999999998611, -0.6460394192944321 
1.41999999999986, -0.647862798088313 
1.429999999999859, -0.6510252074415932 
1.4399999999998578, -0.6558770970560116 
1.4499999999998567, -0.6625481117675925 
1.4599999999998556, -0.6707265414033422 
1.4699999999998545, -0.6795782800369317 
1.4799999999998534, -0.6879951966079527 
1.4899999999998523, -0.695077601689817 
1.4999999999998512, -0.7004572555998456 
1.5099999999998501, -0.704243488250328 
1.519999999999849, -0.7067700045280649 
1.529999999999848, -0.7083881146697025 
1.5399999999998468, -0.7093775733527877 
1.5499999999998457, -0.7099334932102188 
1.5599999999998446, -0.7101808744997175 
1.5699999999998435, -0.710192131217486 
1.5799999999998424, -0.7099995616015766 
1.5899999999998413, -0.7096014099278399 
1.5999999999998402, -0.7089620845919532 
1.6099999999998391, -0.7080079143705778 
1.619999999999838, -0.7066218223348328 
1.629999999999837, -0.7046451552113653 
1.6399999999998358, -0.7019019590982426 
1.6499999999998347, -0.6982616093765162 
1.6599999999998336, -0.693732124435835 
1.6699999999998325, -0.688528541749978 
1.6799999999998314, -0.6830443383149881 
1.6899999999998303, -0.6777243850492118 
1.6999999999998292, -0.6729272042582095 
1.709999999999828, -0.6688581959444225 
1.719999999999827, -0.6655792469008814 
1.729999999999826, -0.663053646910363 
1.7399999999998248, -0.6611911661764832 
1.7499999999998237, -0.6598801192784409 
1.7599999999998226, -0.6590067898467821 
1.7699999999998215, -0.6584662463650677 
1.7799999999998204, -0.6581678327845235 
1.7899999999998193, -0.6580372253852084 
1.7999999999998182, -0.6580161565053817 
1.809999999999817, -0.6580606852460761 
1.819999999999816, -0.6581388828844459 
1.8299999999998149, -0.6582287106769333 
1.8399999999998138, -0.6583165479842562 
1.8499999999998127, -0.6583962315579562 
1.8599999999998116, -0.6584677525176362 
1.8699999999998105, -0.6585344610384998 
1.8799999999998094, -0.6585984150605625 
1.8899999999998083, -0.6586553001063608 
1.8999999999998072, -0.6586917810088676 
1.909999999999806, -0.6586875399362593 
1.919999999999805, -0.6586214448286932 
1.9299999999998039, -0.658478410327265 
1.9399999999998028, -0.6582532879494514 
1.9499999999998017, -0.6579507832488238 
1.9599999999998006, -0.6575832711172414 
1.9699999999997995, -0.6571692196391623 
1.9799999999997984, -0.6567340750943194 
1.9899999999997973, -0.6563143847774461 
1.9999999999997962, -0.6559653609911203 
2.0099999999998173, -0.6557717814706872 
2.0199999999998384, -0.655861483527611 
2.0299999999998595, -0.6564191258419197 
2.0399999999998806, -0.6576947293170158 
2.0499999999999017, -0.6599961807012562 
2.059999999999923, -0.6636478567868803 
2.069999999999944, -0.668894040968331 
2.079999999999965, -0.6757424586467242 
2.089999999999986, -0.6838039757915225 
2.100000000000007, -0.6922708816747981 
2.1100000000000283, -0.7001588273106372 
2.1200000000000494, -0.7067080687742019 
2.1300000000000705, -0.7116328928476924 
2.1400000000000916, -0.71506161556254 
2.1500000000001127, -0.7173150044075502 
2.160000000000134, -0.7187243438913483 
2.170000000000155, -0.7195513369458102 
2.180000000000176, -0.7199762457328569 
2.190000000000197, -0.7201115759346146 
2.2000000000002182, -0.7200183850176499 
2.2100000000002393, -0.7197172786660093 
2.2200000000002604, -0.7191924983831912 
2.2300000000002815, -0.7183893198789609 
2.2400000000003026, -0.7172058228923446 
2.2500000000003237, -0.7154826500047669 
2.260000000000345, -0.7130013159449017 
2.270000000000366, -0.7095132678255448 
2.280000000000387, -0.7048268670250335 
2.290000000000408, -0.6989479585881148 
2.3000000000004293, -0.6921912920327383 
2.3100000000004504, -0.685140919026529 
2.3200000000004715, -0.6784475030393913 
2.3300000000004926, -0.6726078307177328 
2.3400000000005137, -0.6678661925901785 
2.3500000000005348, -0.6642436633058415 
2.360000000000556, -0.6616215783617988 
2.370000000000577, -0.6598194213491608 
2.380000000000598, -0.6586466923289475 
2.390000000000619, -0.6579308824027634 
2.4000000000006403, -0.6575292706911229 
2.4100000000006614, -0.6573310692840153 
2.4200000000006825, -0.6572543194806766 
2.4300000000007036, -0.6572404424912801 
2.4400000000007247, -0.6572484000745468 
2.450000000000746, -0.6572497587361992 
2.460000000000767, -0.6572254145975671 
2.470000000000788, -0.6571641690348352 
2.480000000000809, -0.6570625817657324 
2.49000000000083, -0.6569246678846106 
2.5000000000008513, -0.6567597211423088 
2.5100000000008724, -0.6565776599531826 
2.5200000000008935, -0.6563835047340306 
2.5300000000009146, -0.656174067833937 
2.5400000000009357, -0.6559390311983389 
2.550000000000957, -0.6556658019015178 
2.560000000000978, -0.6553452044599832 
2.570000000000999, -0.6549751508348349 
2.58000000000102, -0.654561577763307 
2.5900000000010412, -0.6541180279558285 
2.6000000000010624, -0.6536658103261905 
2.6100000000010835, -0.6532360215169031 
2.6200000000011046, -0.6528738302286544 
2.6300000000011257, -0.6526447830686333 
2.6400000000011468, -0.652642371789353 
2.650000000001168, -0.6529954278502983 
2.660000000001189, -0.6538728417469561 
2.67000000000121, -0.6554813766300173 
2.680000000001231, -0.6580496552035882 
2.6900000000012523, -0.6617881413013597 
2.7000000000012734, -0.6668147145158803 
2.7100000000012945, -0.6730486696780057 
2.7200000000013156, -0.6801155848452528 
2.7300000000013367, -0.6873558653698966 
2.740000000001358, -0.6940103069787948 
2.750000000001379, -0.6995058661950588 
2.7600000000014, -0.7036322490678556 
2.770000000001421, -0.7064986628088634 
2.780000000001442, -0.7083680747373127 
2.7900000000014633, -0.7095145678367663 
2.8000000000014844, -0.710156428122018 
2.8100000000015055, -0.7104438452890036 
2.8200000000015266, -0.7104685437320561 
2.8300000000015477, -0.7102761858149377 
2.840000000001569, -0.7098742191556052 
2.85000000000159, -0.7092332256151485 
2.860000000001611, -0.7082814924911519 
2.870000000001632, -0.7068935224710546 
2.8800000000016532, -0.7048764434857425 
2.8900000000016743, -0.7019672540941323 
2.9000000000016954, -0.697869422392584 
2.9100000000017165, -0.6923647124906871 
2.9200000000017377, -0.6854935473553521 
2.9300000000017588, -0.6776892718922987 
2.94000000000178, -0.6697032097533366 
2.950000000001801, -0.6623216872367477 
2.960000000001822, -0.6560887276107789 
2.970000000001843, -0.6512120107222252 
2.9800000000018643, -0.6476332265687343 
2.9900000000018854, -0.6451507595110038 
3.0000000000019065, -0.643518986588591 
3.0100000000019276, -0.6425059301392709 
3.0200000000019487, -0.641918313226271 
3.03000000000197, -0.6416072209895576 
3.040000000001991, -0.6414640653427902 
3.050000000002012, -0.6414127034326758 
3.060000000002033, -0.6414009731562011 
3.070000000002054, -0.6413933769780571 
3.0800000000020753, -0.6413657721478667 
3.0900000000020964, -0.6413023899197106 
3.1000000000021175, -0.6411949873820031 
3.1100000000021386, -0.6410431837790143 
3.1200000000021597, -0.6408542232045489 
3.130000000002181, -0.6406403689160537 
3.140000000002202, -0.6404136499366607 
3.150000000002223, -0.6401800756867907 
3.160000000002244, -0.6399366111441055 
3.1700000000022652, -0.6396728122988569 
3.1800000000022863, -0.6393760643631505 
3.1900000000023074, -0.6390372927897155 
3.2000000000023285, -0.6386544545746031 
3.2100000000023496, -0.6382333637439193 
3.2200000000023707, -0.6377873344874821 
3.230000000002392, -0.6373375239128232 
3.240000000002413, -0.636915188065917 
3.250000000002434, -0.6365662694017435 
3.260000000002455, -0.6363581898939412 
3.2700000000024763, -0.6363882672880087 
3.2800000000024974, -0.6367924705664625 
3.2900000000025185, -0.6377519314415554 
3.3000000000025396, -0.6394922835298842 
3.3100000000025607, -0.6422670525308168 
3.3200000000025818, -0.6463116298697364 
3.330000000002603, -0.651754116134242 
3.340000000002624, -0.6584880528930545 
3.350000000002645, -0.6660654760656043 
3.360000000002666, -0.6737281893451212 
3.3700000000026873, -0.6806495552170864 
3.3800000000027084, -0.6862594796695128 
3.3900000000027295, -0.690402098532344 
3.4000000000027506, -0.6932449527550218 
3.4100000000027717, -0.6950863737144862 
3.420000000002793, -0.6962137418407722 
3.430000000002814, -0.6968469053310573 
3.440000000002835, -0.6971336647155145 
3.450000000002856, -0.6971629399438803 
3.460000000002877, -0.6969782221824721 
3.4700000000028983, -0.6965855315451718 
3.4800000000029194, -0.6959547874089458 
3.4900000000029405, -0.6950149151711768 
3.5000000000029616, -0.6936443167068559 
3.5100000000029827, -0.6916623000390923 
3.520000000003004, -0.6888361404767449 
3.530000000003025, -0.6849299407144291 
3.540000000003046, -0.6798162286089452 
3.550000000003067, -0.6736181160949578 
3.5600000000030882, -0.6667701991351396 
3.5700000000031094, -0.6599022440763274 
3.5800000000031305, -0.6536080483152051 
3.5900000000031516, -0.6482692780356032 
3.6000000000031727, -0.6440212019395765 
3.6100000000031938, -0.6408166669266405 
3.620000000003215, -0.6385111765623269 
3.630000000003236, -0.6369274970773391 
3.640000000003257, -0.6358932173929397 
3.650000000003278, -0.6352584233056707 
3.6600000000032993, -0.6349015461061553 
3.6700000000033204, -0.6347288674649174 
3.6800000000033415, -0.6346709288892326 
3.6900000000033626, -0.6346777982420299 
3.7000000000033837, -0.6347144523839513 
3.710000000003405, -0.634757098179488 
3.720000000003426, -0.6347908516087883 
3.730000000003447, -0.6348086594455378 
3.740000000003468, -0.6348106317479758 
3.750000000003489, -0.6348023747684559 
3.7600000000035103, -0.6347911941553396 
3.7700000000035314, -0.6347805958079533 
3.7800000000035525, -0.6347655030769698 
3.7900000000035736, -0.6347312250848614 
3.8000000000035947, -0.6346573957397633 
3.810000000003616, -0.6345249077848852 
3.820000000003637, -0.6343219487978241 
3.830000000003658, -0.6340463991952703 
3.840000000003679, -0.6337048628606577 
3.8500000000037002, -0.6333106779713907 
3.8600000000037213, -0.632883278093171 
3.8700000000037424, -0.6324502730706076 
3.8800000000037635, -0.6320528299534287 
3.8900000000037847, -0.6317546373465122 
3.9000000000038058, -0.6316545156587221 
3.910000000003827, -0.6319019396385939 
3.920000000003848, -0.6327125541868054 
3.930000000003869, -0.6343760877501159 
3.94000000000389, -0.6372408741108916 
3.9500000000039113, -0.6416491436547255 
3.9600000000039324, -0.6477972777705403 
3.9700000000039535, -0.6555355704630605 
3.9800000000039746, -0.6642247933622841 
3.9900000000039957, -0.6728454602405471 
4.000000000004016, -0.6804031130122333 
4.010000000003993, -0.6863380204267218 
4.02000000000397, -0.6906115775115488 
4.030000000003946, -0.6935034539638736 
4.040000000003923, -0.695373625950664 
4.0500000000039, -0.6965314507429127 
4.0600000000038765, -0.6972006843238592 
4.070000000003853, -0.6975280690353076 
4.08000000000383, -0.6976015970315363 
4.090000000003807, -0.6974653557056849 
4.100000000003783, -0.6971279232419022 
4.11000000000376, -0.6965645332024261 
4.120000000003737, -0.6957141883138034 
4.130000000003713, -0.6944743399007549 
4.14000000000369, -0.6926996031050422 
4.150000000003667, -0.690217695329184 
4.1600000000036434, -0.6868797346148015 
4.17000000000362, -0.682647125862771 
4.180000000003597, -0.6776735702851251 
4.1900000000035735, -0.6723075342615554 
4.20000000000355, -0.6669869857466451 
4.210000000003527, -0.6620956814679176 
4.220000000003504, -0.6578750587652303 
4.23000000000348, -0.6544179195200254 
4.240000000003457, -0.6517088459847449 
4.250000000003434, -0.6496711553188683 
4.26000000000341, -0.6482018462146029 
4.270000000003387, -0.6471927993162077 
4.280000000003364, -0.646542305109054 
4.2900000000033405, -0.6461608553517258 
4.300000000003317, -0.64597357042137 
4.310000000003294, -0.6459204905617311 
4.320000000003271, -0.6459554880485335 
4.330000000003247, -0.6460444694362497 
4.340000000003224, -0.646163506961903 
4.350000000003201, -0.6462973504719178 
4.360000000003177, -0.6464383236937417 
4.370000000003154, -0.6465849752796626 
4.380000000003131, -0.6467394395617916 
4.390000000003107, -0.6469029161498271 
4.400000000003084, -0.6470702359290725 
4.410000000003061, -0.6472262157216914 
4.4200000000030375, -0.6473466615659893 
4.430000000003014, -0.6474044918302178 
4.440000000002991, -0.6473779032391347 
4.450000000002968, -0.6472560125124525 
4.460000000002944, -0.6470396233915835 
4.470000000002921, -0.6467384472047102 
4.480000000002898, -0.6463679171673334 
4.490000000002874, -0.6459481276455566 
4.500000000002851, -0.6455061024350611 
4.510000000002828, -0.6450818687680461 
4.520000000002804, -0.6447387247586052 
4.530000000002781, -0.6445779947304097 
4.540000000002758, -0.6447576269578927 
4.5500000000027345, -0.645511123251008 
4.560000000002711, -0.6471570676317738 
4.570000000002688, -0.6500789395667581 
4.580000000002665, -0.6546434149480859 
4.590000000002641, -0.661030861313814 
4.600000000002618, -0.6690119695522202 
4.610000000002595, -0.677828661368575 
4.620000000002571, -0.6863858661347694 
4.630000000002548, -0.6937199427435847 
4.640000000002525, -0.69937255295394 
4.6500000000025015, -0.7033926049047421 
4.660000000002478, -0.7060950321104094 
4.670000000002455, -0.7078370651274204 
4.6800000000024315, -0.7089119177665958 
4.690000000002408, -0.7095274350936555 
4.700000000002385, -0.709818495794351 
4.710000000002362, -0.7098648866354355 
4.720000000002338, -0.7097047574041481 
4.730000000002315, -0.7093416920686277 
4.740000000002292, -0.7087458067631252 
4.750000000002268, -0.7078501042714052 
4.760000000002245, -0.7065449939637312 
4.770000000002222, -0.7046782114929422 
4.7800000000021985, -0.7020743215813899 
4.790000000002175, -0.6985906175803267 
4.800000000002152, -0.6942075377536124 
4.810000000002129, -0.6891057166157271 
4.820000000002105, -0.6836553748409008 
4.830000000002082, -0.6783010741078783 
4.840000000002059, -0.6734196381869986 
4.850000000002035, -0.669240414825695 
4.860000000002012, -0.6658451682032567 
4.870000000001989, -0.6632100226065987 
4.880000000001965, -0.6612515651912468 
4.890000000001942, -0.65986087605635 
4.900000000001919, -0.6589245233574462 
4.9100000000018955, -0.6583363923026685 
4.920000000001872, -0.6580038347249357 
