t, s[1].omega / s[0].omega 
0, -1.0199972875606966 
0.009999999999999995, -1.0196633886346305 
0.019999999999999934, -1.0194357250649408 
0.029999999999999874, -1.0191033553649165 
0.04000000000000012, -1.0188284941575823 
0.050000000000000405, -1.0185149479245508 
0.06000000000000069, -1.018175714933262 
0.07000000000000098, -1.0178897961708475 
0.08000000000000126, -1.0174911386286343 
0.09000000000000155, -1.0172243267114927 
0.10000000000000184, -1.0167915347579861 
0.11000000000000212, -1.0165071719082313 
0.12000000000000241, -1.0160771580312276 
0.130000000000002, -1.0157270825406661 
0.1400000000000009, -1.0153362251616382 
0.1499999999999998, -1.0148903035989258 
0.1599999999999987, -1.0145579883936175 
0.1699999999999976, -1.0140220142400642 
0.1799999999999965, -1.0137238901543522 
0.1899999999999954, -1.0131492833316582 
0.1999999999999943, -1.0128085806741276 
0.2099999999999932, -1.0122690241392416 
0.2199999999999921, -1.0118104156337993 
0.229999999999991, -1.0113623412815653 
0.2399999999999899, -1.0107503953239343 
0.2499999999999888, -1.0104041547588372 
0.2599999999999877, -1.0096757376984982 
0.2699999999999866, -1.0093534589319233 
0.2799999999999855, -1.0086258668268222 
0.2899999999999844, -1.0081972896392175 
0.2999999999999833, -1.0075832143452579 
0.3099999999999822, -1.0069600172835873 
0.3199999999999811, -1.00651028766532 
0.32999999999998, -1.0056860251001785 
0.3399999999999789, -1.005354749597017 
0.3499999999999778, -1.0044549592001026 
0.35999999999997667, -1.0040837381241703 
0.36999999999997557, -1.0032921463784574 
0.37999999999997447, -1.0027290512960951 
0.38999999999997337, -1.0021446919790216 
0.39999999999997227, -1.001337968072447 
0.40999999999997117, -1.0009511645871512 
0.41999999999997006, -0.9999888459679273 
0.42999999999996896, -0.9996603009404673 
0.43999999999996786, -0.9987592609350447 
0.44999999999996676, -0.9982951752381246 
0.45999999999996566, -0.9976060069182717 
0.46999999999996456, -0.9969127213835774 
0.47999999999996346, -0.9964552726897974 
0.48999999999996235, -0.9955756138591105 
0.49999999999996125, -0.9952524669055763 
0.5099999999999602, -0.9943707849889947 
0.519999999999959, -0.9939953627816075 
0.529999999999958, -0.9932852693002135 
0.5399999999999568, -0.9927360961475015 
0.5499999999999557, -0.9922408551203786 
0.5599999999999546, -0.9915262237479382 
0.5699999999999535, -0.9911901830541776 
0.5799999999999524, -0.9904339535032667 
0.5899999999999513, -0.9901139399016122 
0.5999999999999502, -0.9894672278517654 
0.6099999999999491, -0.9890400241910737 
0.619999999999948, -0.9885593640047589 
0.6299999999999469, -0.9880097292785043 
0.6399999999999458, -0.9876709928955971 
0.6499999999999447, -0.9870719350014462 
0.6599999999999436, -0.9867831474487074 
0.6699999999999425, -0.9862416161878745 
0.6799999999999414, -0.9859001204814304 
0.6899999999999403, -0.9854715506188572 
0.6999999999999392, -0.9850486285061932 
0.7099999999999381, -0.9847291696263731 
0.719999999999937, -0.9842645750768315 
0.7299999999999359, -0.9840012072602291 
0.7399999999999348, -0.9835646096040914 
0.7499999999999337, -0.9832830912917712 
0.7599999999999326, -0.9829206252224395 
0.7699999999999315, -0.9825869922819365 
0.7799999999999304, -0.9823059809909194 
0.7899999999999293, -0.9819391772233825 
0.7999999999999282, -0.9817096065802027 
0.8099999999999271, -0.981357754170138 
0.819999999999926, -0.9811280132820195 
0.8299999999999249, -0.9808314328118575 
0.8399999999999238, -0.9805656648462828 
0.8499999999999227, -0.9803384450111007 
0.8599999999999216, -0.9800411184321295 
0.8699999999999205, -0.9798650393246024 
0.8799999999999194, -0.9795758946579358 
0.8899999999999183, -0.9794096333370702 
0.8999999999999172, -0.9791755626457409 
0.9099999999999161, -0.9789766547028216 
0.919999999999915, -0.9788223013940747 
0.9299999999999139, -0.9785809161978198 
0.9399999999999128, -0.9784961601743705 
0.9499999999999117, -0.9782528343985569 
0.9599999999999106, -0.9781917658195693 
0.9699999999999095, -0.9780207446643133 
0.9799999999999084, -0.9779167981889044 
0.9899999999999073, -0.9778702596678187 
0.9999999999999062, -0.9776897540028551 
1.0099999999999052, -0.9777754508579708 
1.019999999999904, -0.9775656653029726 
1.029999999999903, -0.9777161957892545 
1.039999999999902, -0.9776143281104873 
1.0499999999999008, -0.9776932831500675 
1.0599999999998997, -0.9778232957533812 
1.0699999999998986, -0.9777399688101979 
1.0799999999998975, -0.9781690940078313 
1.0899999999998964, -0.9779818169661978 
1.0999999999998953, -0.9786078519590795 
1.1099999999998942, -0.9785764755123094 
1.119999999999893, -0.9790769632529046 
1.129999999999892, -0.9794988490115333 
1.1399999999998909, -0.9796203755704993 
1.1499999999998898, -0.9807392952801086 
1.1599999999998887, -0.9805642816203278 
1.1699999999998876, -0.9822376236289749 
1.1799999999998865, -0.9822369038589369 
1.1899999999998854, -0.9837191026835351 
1.1999999999998843, -0.984497417760808 
1.2099999999998832, -0.9850907466243615 
1.219999999999882, -0.9872804053699532 
1.229999999999881, -0.9871313329122751 
1.2399999999998799, -0.9904549746424277 
1.2499999999998788, -0.9903815057279788 
1.2599999999998777, -0.9934541485039167 
1.2699999999998766, -0.994245261974289 
1.2799999999998755, -0.9957330199320121 
1.2899999999998744, -0.9983790189099769 
1.2999999999998733, -0.9984126505944166 
1.3099999999998722, -1.002502788518153 
1.319999999999871, -1.002305878738569 
1.32999999999987, -1.006102463034288 
1.3399999999998689, -1.0064021682428814 
1.3499999999998678, -1.0086015936237989 
1.3599999999998666, -1.0101280104113484 
1.3699999999998655, -1.0106564841921823 
1.3799999999998644, -1.0133077362442569 
1.3899999999998633, -1.0131410667706913 
1.3999999999998622, -1.0157958526237738 
1.4099999999998611, -1.0156981009735928 
1.41999999999986, -1.0174487872557856 
1.429999999999859, -1.0178134391793066 
1.4399999999998578, -1.0185189731028963 
1.4499999999998567, -1.019412721910352 
1.4599999999998556, -1.0194479275422106 
1.4699999999998545, -1.0205431532014275 
1.4799999999998534, -1.020352919573778 
1.4899999999998523, -1.0212358361291258 
1.4999999999998512, -1.021135417004595 
1.5099999999998501, -1.0215854017672699 
1.519999999999849, -1.0216910781900153 
1.529999999999848, -1.0217657762458818 
1.5399999999998468, -1.0220149674764893 
1.5499999999998457, -1.0218656740170708 
1.5599999999998446, -1.0221313906161411 
1.5699999999998435, -1.02191411619966 
1.5799999999998424, -1.0220726873497377 
1.5899999999998413, -1.0219055733315632 
1.5999999999998402, -1.0219020205475344 
1.6099999999998391, -1.0218110753703395 
1.619999999999838, -1.0216663152610248 
1.629999999999837, -1.0216180341724348 
1.6399999999998358, -1.0213848563928285 
1.6499999999998347, -1.0213314243580274 
1.6599999999998336, -1.0210728379551466 
1.6699999999998325, -1.0209719643226671 
1.6799999999998314, -1.0207338318526704 
1.6899999999998303, -1.0205621079502056 
1.6999999999998292, -1.020354274478353 
1.709999999999828, -1.020110738071362 
1.719999999999827, -1.0199224762845758 
1.729999999999826, -1.019627265729898 
1.7399999999998248, -1.0194399715986235 
1.7499999999998237, -1.0191242274893921 
1.7599999999998226, -1.0189148799346872 
1.7699999999998215, -1.0186039956698196 
1.7799999999998204, -1.0183477162456807 
1.7899999999998193, -1.0180562225933367 
1.7999999999998182, -1.0177391663826678 
1.809999999999817, -1.0174718741202484 
1.819999999999816, -1.017101827065176 
1.8299999999998149, -1.0168492948090413 
1.8399999999998138, -1.0164509873541634 
1.8499999999998127, -1.0161821503518877 
1.8599999999998116, -1.015786902048627 
1.8699999999998105, -1.0154611439652355 
1.8799999999998094, -1.0150983104060824 
1.8899999999998083, -1.0146913710793324 
1.8999999999998072, -1.0143760509185509 
1.909999999999806, -1.0138951255188107 
1.919999999999805, -1.0136080703807824 
1.9299999999998039, -1.0130945987141085 
1.9399999999998028, -1.0127741871398728 
1.9499999999998017, -1.01228619180076 
1.9599999999998006, -1.0118703612075148 
1.9699999999997995, -1.0114540464029234 
1.9799999999997984, -1.0109146777163716 
1.9899999999997973, -1.0105807643974816 
1.9999999999997962, -1.009946649599993 
2.0099999999998173, -1.009635843509678 
2.0199999999998384, -1.008995762791896 
2.0299999999998595, -1.0086029951750217 
2.0399999999998806, -1.00804697362003 
2.0499999999999017, -1.0074992321902048 
2.059999999999923, -1.0070730137208443 
2.069999999999944, -1.0063623547658278 
2.079999999999965, -1.006036814031503 
2.089999999999986, -1.005255685897399 
2.100000000000007, -1.004905347071526 
2.1100000000000283, -1.0041976654395872 
2.1200000000000494, -1.0036954414790804 
2.1300000000000705, -1.003148839307811 
2.1400000000000916, -1.0024459913595822 
2.1500000000001127, -1.0020651577744926 
2.160000000000134, -1.0012221857752073 
2.170000000000155, -1.000901354552732 
2.180000000000176, -1.0000882484113547 
2.190000000000197, -0.999662501061849 
2.2000000000002182, -0.9990136947326792 
2.2100000000002393, -0.9983937235831207 
2.2200000000002604, -0.9979417589272083 
2.2300000000002815, -0.9971497898984152 
2.2400000000003026, -0.9968261804851536 
2.2500000000003237, -0.9960079784505518 
2.260000000000345, -0.9956525168823426 
2.270000000000366, -0.9949672031322137 
2.280000000000387, -0.9944601987082904 
2.290000000000408, -0.9939633285379887 
2.3000000000004293, -0.9932968999965036 
2.3100000000004504, -0.9929538889330937 
2.3200000000004715, -0.9922268317275578 
2.3300000000004926, -0.9919148778037873 
2.3400000000005137, -0.9912704116214138 
2.3500000000005348, -0.9908646061795606 
2.360000000000556, -0.9903713360733681 
2.370000000000577, -0.9898422214106074 
2.380000000000598, -0.9894902770554268 
2.390000000000619, -0.9888957187925452 
2.4000000000006403, -0.9886066397885569 
2.4100000000006614, -0.9880515222900351 
2.4200000000006825, -0.9877195564906374 
2.4300000000007036, -0.987269992441152 
2.4400000000007247, -0.9868536089606146 
2.450000000000746, -0.9865158966335759 
2.460000000000767, -0.9860446131438668 
2.470000000000788, -0.9857742948013541 
2.480000000000809, -0.9853179565706682 
2.49000000000083, -0.9850383422341378 
2.5000000000008513, -0.9846510512803501 
2.5100000000008724, -0.9843178447796973 
2.5200000000008935, -0.9840146701824137 
2.5300000000009146, -0.9836384240452093 
2.5400000000009357, -0.9833955784844789 
2.550000000000957, -0.9830235362985185 
2.560000000000978, -0.9827888497648061 
2.570000000000999, -0.9824655363795644 
2.58000000000102, -0.9821968055830251 
2.5900000000010412, -0.9819421419879493 
2.6000000000010624, -0.9816362056798482 
2.6100000000010835, -0.9814377256672528 
2.6200000000011046, -0.981129659254912 
2.6300000000011257, -0.9809488198611257 
2.6400000000011468, -0.9806840219780587 
2.650000000001168, -0.9804778479766648 
2.660000000001189, -0.9802843183945977 
2.67000000000121, -0.9800364217245489 
2.680000000001231, -0.9799098754500837 
2.6900000000012523, -0.9796491685909565 
2.7000000000012734, -0.9795534394149938 
2.7100000000012945, -0.9793415766753086 
2.7200000000013156, -0.9792200596301328 
2.7300000000013367, -0.9791068692650695 
2.740000000001358, -0.9789223843032935 
2.750000000001379, -0.9789187310719413 
2.7600000000014, -0.9786949936012471 
2.770000000001421, -0.9787590122131476 
2.780000000001442, -0.978596268203346 
2.7900000000014633, -0.9786274878417144 
2.8000000000014844, -0.9786296177879992 
2.8100000000015055, -0.9785442528635618 
2.8200000000015266, -0.9787654972398159 
2.8300000000015477, -0.9785754803207583 
2.840000000001569, -0.978972573097549 
2.85000000000159, -0.9788513378598661 
2.860000000001611, -0.9792124913911003 
2.870000000001632, -0.9793851407305617 
2.8800000000016532, -0.9795029199015206 
2.8900000000016743, -0.9801464011014596 
2.9000000000016954, -0.9799991588110901 
2.9100000000017165, -0.9811045988570253 
2.9200000000017377, -0.9809980661369484 
2.9300000000017588, -0.9821125107905082 
2.94000000000178, -0.9824901412567539 
2.950000000001801, -0.983073694878512 
2.960000000001822, -0.9844082006539359 
2.970000000001843, -0.9843471808778618 
2.9800000000018643, -0.9867129450309974 
2.9900000000018854, -0.9865671348006676 
3.0000000000019065, -0.9890893435058673 
3.0100000000019276, -0.9895249669769758 
3.0200000000019487, -0.9910421510423826 
3.03000000000197, -0.9929296987996954 
3.040000000001991, -0.9931137487597386 
3.050000000002012, -0.9966061818899249 
3.060000000002033, -0.9963936589695741 
3.070000000002054, -1.0001456505728472 
3.0800000000020753, -1.0003250848901757 
3.0900000000020964, -1.0028373884105561 
3.1000000000021175, -1.0042337046883176 
3.1100000000021386, -1.004971600726906 
3.1200000000021597, -1.007865245575484 
3.130000000002181, -1.0077162444432177 
3.140000000002202, -1.0109775665851475 
3.150000000002223, -1.0108641349004182 
3.160000000002244, -1.0132408596228357 
3.1700000000022652, -1.0136747461088471 
3.1800000000022863, -1.0147330555379417 
3.1900000000023074, -1.0159558587809068 
3.2000000000023285, -1.0160802424426996 
3.2100000000023496, -1.0177021366682397 
3.2200000000023707, -1.0175144905491706 
3.230000000002392, -1.018898076145431 
3.240000000002413, -1.018830027364557 
3.250000000002434, -1.0196008078727778 
3.260000000002455, -1.0198384896719854 
3.2700000000024763, -1.0200547279735044 
3.2800000000024974, -1.0205320959166293 
3.2900000000025185, -1.020421163159322 
3.3000000000025396, -1.0209427527429966 
3.3100000000025607, -1.0207397049170484 
3.3200000000025818, -1.0211026634118208 
3.330000000002603, -1.020979745778682 
3.340000000002624, -1.0210965831136696 
3.350000000002645, -1.0210929187999707 
3.360000000002666, -1.021005080097352 
3.3700000000026873, -1.0210693496494805 
3.3800000000027084, -1.0208609090083762 
3.3900000000027295, -1.0209180582728856 
3.4000000000027506, -1.0206826328027014 
3.4100000000027717, -1.0206658885265043 
3.420000000002793, -1.02046906741148 
3.430000000002814, -1.0203500827220666 
3.440000000002835, -1.0202000300803442 
3.450000000002856, -1.0199892160749702 
3.460000000002877, -1.019863426467092 
3.4700000000028983, -1.019595189330662 
3.4800000000029194, -1.0194628751260897 
3.4900000000029405, -1.019180745303205 
3.5000000000029616, -1.019013127799427 
3.5100000000029827, -1.0187466398617004 
3.520000000003004, -1.0185226776753382 
3.530000000003025, -1.0182799705065884 
3.540000000003046, -1.0179951856425364 
3.550000000003067, -1.0177713726920223 
3.5600000000030882, -1.0174423012617615 
3.5700000000031094, -1.0172224651329873 
3.5800000000031305, -1.0168763276310187 
3.5900000000031516, -1.016634277452796 
3.6000000000031727, -1.016295945664587 
3.6100000000031938, -1.016002145556628 
3.620000000003215, -1.0156897643432363 
3.630000000003236, -1.0153307372567348 
3.640000000003257, -1.0150503643152011 
3.650000000003278, -1.0146383662478535 
3.6600000000032993, -1.0143727535798712 
3.6700000000033204, -1.0139398115650653 
3.6800000000033415, -1.0136445699613754 
3.6900000000033626, -1.0132299606390682 
3.7000000000033837, -1.0128609544150673 
3.710000000003405, -1.012496066407165 
3.720000000003426, -1.0120363196947564 
3.730000000003447, -1.0117276197250287 
3.740000000003468, -1.011200825171048 
3.750000000003489, -1.0109058138514295 
3.7600000000035103, -1.0103716685055462 
3.7700000000035314, -1.0100147113743119 
3.7800000000035525, -1.0095360513845353 
3.7900000000035736, -1.0090632769424555 
3.8000000000035947, -1.008676044965736 
3.810000000003616, -1.0080817905457338 
3.820000000003637, -1.007768655610343 
3.830000000003658, -1.0071161998954723 
3.840000000003679, -1.006785569056791 
3.8500000000037002, -1.0061763585592503 
3.8600000000037213, -1.0057300656976222 
3.8700000000037424, -1.0052351981996002 
3.8800000000037635, -1.004630773387601 
3.8900000000037847, -1.0042640611705278 
3.9000000000038058, -1.0035399068847728 
3.910000000003827, -1.0032267073044288 
3.920000000003848, -1.0025072251395688 
3.930000000003869, -1.0021142182739329 
3.94000000000389, -1.001512787319375 
3.9500000000039113, -1.000957660939223 
3.9600000000039324, -1.0005158244954588 
3.9700000000039535, -0.9998032463442972 
3.9800000000039746, -0.99947895601129 
3.9900000000039957, -0.9987187695593679 
4.000000000004016, -0.9983789085956523 
4.010000000003993, -0.9977138187049253 
4.02000000000397, -0.9972411974671819 
4.030000000003946, -0.9967383784866675 
4.040000000003923, -0.9961085687010084 
4.0500000000039, -0.9957543484431952 
4.0600000000038765, -0.9950414935724623 
4.070000000003853, -0.9947335039211315 
4.08000000000383, -0.9940743998028871 
4.090000000003807, -0.9936841810029053 
4.100000000003783, -0.9931631796356053 
4.11000000000376, -0.9926432880857909 
4.120000000003737, -0.9922671209968373 
4.130000000003713, -0.9916581872739776 
4.14000000000369, -0.9913624744201345 
4.150000000003667, -0.9907695580693321 
4.1600000000036434, -0.9904424266467375 
4.17000000000362, -0.9899491955775207 
4.180000000003597, -0.9895300423474609 
4.1900000000035735, -0.9891569819568329 
4.20000000000355, -0.9886615907701706 
4.210000000003527, -0.9883741715212981 
4.220000000003504, -0.9878736524068134 
4.23000000000348, -0.9875903540569685 
4.240000000003457, -0.9871536747336171 
4.250000000003434, -0.986813158137524 
4.26000000000341, -0.9864675956282185 
4.270000000003387, -0.9860681261873844 
4.280000000003364, -0.9857981889211145 
4.2900000000033405, -0.9853858567534187 
4.300000000003317, -0.9851378253714117 
4.310000000003294, -0.9847658665704726 
4.320000000003271, -0.9844861375435068 
4.330000000003247, -0.9841835789654194 
4.340000000003224, -0.9838582389983821 
4.350000000003201, -0.9836207224350222 
4.360000000003177, -0.9832793382611438 
4.370000000003154, -0.9830711085845064 
4.380000000003131, -0.9827588058034614 
4.390000000003107, -0.9825342343980998 
4.400000000003084, -0.9822830713963827 
4.410000000003061, -0.9820183929022297 
4.4200000000030375, -0.981831651617524 
4.430000000003014, -0.9815446024692865 
4.440000000002991, -0.9813951688603242 
4.450000000002968, -0.9811328203522053 
4.460000000002944, -0.9809752985704197 
4.470000000002921, -0.9807822697261017 
4.480000000002898, -0.9805794210494054 
4.490000000002874, -0.9804698589066287 
4.500000000002851, -0.9802276095591713 
4.510000000002828, -0.9801784013685264 
4.520000000002804, -0.9799562831874284 
4.530000000002781, -0.9799067820701325 
4.540000000002758, -0.9797821745228549 
4.5500000000027345, -0.9796662018258828 
4.560000000002711, -0.9796793024587855 
4.570000000002688, -0.9794836312926603 
4.580000000002665, -0.9796216368652001 
4.590000000002641, -0.9794296379202063 
4.600000000002618, -0.9795903927122702 
4.610000000002595, -0.9795498881365984 
4.620000000002571, -0.9795951183426335 
4.630000000002548, -0.9798131270120118 
4.640000000002525, -0.9796862046225626 
4.6500000000025015, -0.9801925628447594 
4.660000000002478, -0.9800162745888847 
4.670000000002455, -0.9806287804115934 
4.6800000000024315, -0.9806818634606893 
4.690000000002408, -0.9810789044767754 
4.700000000002385, -0.981629774466441 
4.710000000002362, -0.9816391705317661 
4.720000000002338, -0.9828435862655391 
4.730000000002315, -0.9826630001625968 
4.740000000002292, -0.9842113522189432 
4.750000000002268, -0.9843154747481788 
4.760000000002245, -0.9854825721127025 
4.770000000002222, -0.9864327017689326 
4.7800000000021985, -0.986749506726404 
4.790000000002175, -0.9889562909599944 
4.800000000002152, -0.9887663809555564 
4.810000000002129, -0.991703986600827 
4.820000000002105, -0.9917287463395903 
4.830000000002082, -0.9941250210727924 
4.840000000002059, -0.9951230716785888 
4.850000000002035, -0.9960597379848566 
4.860000000002012, -0.9987073472839286 
4.870000000001989, -0.9986043302948915 
4.880000000001965, -1.0022270998144154 
4.890000000001942, -1.0020880064801743 
4.900000000001919, -1.0051783664539418 
4.9100000000018955, -1.0056549329396436 
4.920000000001872, -1.0072299098395467 
