t, s[1].omega / s[0].omega 
0, -1.0599975205796603 
0.009999999999999995, -1.059664961317868 
0.019999999999999934, -1.059168353887431 
0.029999999999999874, -1.0585189539375852 
0.04000000000000012, -1.0577379212333073 
0.050000000000000405, -1.0568587731782526 
0.06000000000000069, -1.0559290844392837 
0.07000000000000098, -1.0550099551034262 
0.08000000000000126, -1.0541710560045963 
0.09000000000000155, -1.053480071255214 
0.10000000000000184, -1.0529884798755922 
0.11000000000000212, -1.0527183088454248 
0.12000000000000241, -1.0526549685111548 
0.130000000000002, -1.0527499672658582 
0.1400000000000009, -1.0529334349847572 
0.1499999999999998, -1.0531305911873605 
0.1599999999999987, -1.0532742872971101 
0.1699999999999976, -1.0533103480924537 
0.1799999999999965, -1.0531982036079985 
0.1899999999999954, -1.0529106393424852 
0.1999999999999943, -1.052433958804459 
0.2099999999999932, -1.0517674269395925 
0.2199999999999921, -1.050921176454832 
0.229999999999991, -1.0499138089635311 
0.2399999999999899, -1.0487717534029328 
0.2499999999999888, -1.0475310525999004 
0.2599999999999877, -1.0462402528557926 
0.2699999999999866, -1.0449618970155636 
0.2799999999999855, -1.0437699006367276 
0.2899999999999844, -1.0427408639817457 
0.2999999999999833, -1.04193934134842 
0.3099999999999822, -1.0414002510625577 
0.3199999999999811, -1.0411155531393113 
0.32999999999998, -1.0410338068988823 
0.3399999999999789, -1.04107500425691 
0.3499999999999778, -1.0411520615423906 
0.35999999999997667, -1.041186596625434 
0.36999999999997557, -1.0411140122399525 
0.37999999999997447, -1.0408819531190092 
0.38999999999997337, -1.0404488239637022 
0.39999999999997227, -1.0397858518405145 
0.40999999999997117, -1.0388812901202824 
0.41999999999997006, -1.0377426717840665 
0.42999999999996896, -1.036394762814524 
0.43999999999996786, -1.0348751504711649 
0.44999999999996676, -1.0332314190594991 
0.45999999999996566, -1.0315217535389976 
0.46999999999996456, -1.0298172482317307 
0.47999999999996346, -1.0282020573894453 
0.48999999999996235, -1.0267673686152596 
0.49999999999996125, -1.0255967943697644 
0.5099999999999602, -1.024744854619465 
0.519999999999959, -1.024216966308816 
0.529999999999958, -1.023963811019852 
0.5399999999999568, -1.0238964602288365 
0.5499999999999557, -1.0239132610503279 
0.5599999999999546, -1.0239216440432992 
0.5699999999999535, -1.0238458139656204 
0.5799999999999524, -1.0236236755225376 
0.5899999999999513, -1.0232016764749083 
0.5999999999999502, -1.0225342714420864 
0.6099999999999491, -1.0215896308438641 
0.619999999999948, -1.0203578485697118 
0.6299999999999469, -1.0188553085952727 
0.6399999999999458, -1.0171219164861516 
0.6499999999999447, -1.0152141818232197 
0.6599999999999436, -1.0131999519272745 
0.6699999999999425, -1.0111574968335788 
0.6799999999999414, -1.0091766371811741 
0.6899999999999403, -1.007356796834269 
0.6999999999999392, -1.005797101734429 
0.7099999999999381, -1.0045768964309914 
0.719999999999937, -1.0037318189941307 
0.7299999999999359, -1.0032382284459365 
0.7399999999999348, -1.003018450775104 
0.7499999999999337, -1.0029657991642695 
0.7599999999999326, -1.0029734350969668 
0.7699999999999315, -1.0029512450415121 
0.7799999999999304, -1.0028275514746068 
0.7899999999999293, -1.0025428373683822 
0.7999999999999282, -1.002044397464925 
0.8099999999999271, -1.001287349463161 
0.819999999999926, -1.0002422685489072 
0.8299999999999249, -0.9989044791716211 
0.8399999999999238, -0.9972979476872785 
0.8499999999999227, -0.99547083240502 
0.8599999999999216, -0.9934867877576157 
0.8699999999999205, -0.9914185943166723 
0.8799999999999194, -0.9893467329740828 
0.8899999999999183, -0.9873601503333939 
0.8999999999999172, -0.9855539716663138 
0.9099999999999161, -0.9840197626078714 
0.919999999999915, -0.9828275473883392 
0.9299999999999139, -0.9820049709893878 
0.9399999999999128, -0.9815249501417421 
0.9499999999999117, -0.9813118007403938 
0.9599999999999106, -0.9812640716288918 
0.9699999999999095, -0.9812803089126921 
0.9799999999999084, -0.9812744190817939 
0.9899999999999073, -0.9811778933364383 
0.9999999999999062, -0.9809349929674915 
1.0099999999999052, -0.9804986387559929 
1.019999999999904, -0.9798316065441792 
1.029999999999903, -0.9789127680022469 
1.039999999999902, -0.9777436092002073 
1.0499999999999008, -0.976349285798598 
1.0599999999998997, -0.9747728889385593 
1.0699999999998986, -0.9730674072890265 
1.0799999999998975, -0.9712909028314728 
1.0899999999998964, -0.9695063906714332 
1.0999999999998953, -0.9677836140998547 
1.1099999999998942, -0.9661984393318296 
1.119999999999893, -0.9648266378094164 
1.129999999999892, -0.9637313401938588 
1.1399999999998909, -0.9629471173790245 
1.1499999999998898, -0.9624675855795148 
1.1599999999998887, -0.9622443747391817 
1.1699999999998876, -0.9621998228569334 
1.1799999999998865, -0.9622467463607579 
1.1899999999998854, -0.9623047700041688 
1.1999999999998843, -0.9623075067566844 
1.2099999999998832, -0.9622024203270827 
1.219999999999882, -0.9619488117057464 
1.229999999999881, -0.9615180425848013 
1.2399999999998799, -0.9608962652390222 
1.2499999999998788, -0.9600865442575406 
1.2599999999998777, -0.9591071219013407 
1.2699999999998766, -0.9579860827376324 
1.2799999999998755, -0.9567561243990907 
1.2899999999998744, -0.9554527807968588 
1.2999999999998733, -0.9541162002592044 
1.3099999999998722, -0.9527939695686038 
1.319999999999871, -0.9515419796344959 
1.32999999999987, -0.9504211853831886 
1.3399999999998689, -0.9494896042940739 
1.3499999999998678, -0.9487909034446531 
1.3599999999998666, -0.9483430675603802 
1.3699999999998655, -0.9481319309362416 
1.3799999999998644, -0.9481133447281156 
1.3899999999998633, -0.9482237313665193 
1.3999999999998622, -0.9483940562325044 
1.4099999999998611, -0.9485610617280626 
1.41999999999986, -0.9486729370804887 
1.429999999999859, -0.948690772259526 
1.4399999999998578, -0.9485885311880384 
1.4499999999998567, -0.9483527468325168 
1.4599999999998556, -0.9479811668845969 
1.4699999999998545, -0.9474795953520262 
1.4799999999998534, -0.946858118251496 
1.4899999999998523, -0.9461291502893141 
1.4999999999998512, -0.9453085138750336 
1.5099999999998501, -0.9444185111552063 
1.519999999999849, -0.9434909992023789 
1.529999999999848, -0.9425689050730194 
1.5399999999998468, -0.941705014712974 
1.5499999999998457, -0.9409569734907428 
1.5599999999998446, -0.9403783556711174 
1.5699999999998435, -0.9400077567014355 
1.5799999999998424, -0.939859674863289 
1.5899999999998413, -0.9399208262741194 
1.5999999999998402, -0.9401534489152873 
1.6099999999998391, -0.9405042585978585 
1.619999999999838, -0.9409154495872862 
1.629999999999837, -0.9413338489114483 
1.6399999999998358, -0.9417161526119067 
1.6499999999998347, -0.9420303706317938 
1.6599999999998336, -0.9422545442771211 
1.6699999999998325, -0.9423737783583321 
1.6799999999998314, -0.9423769364390017 
1.6899999999998303, -0.9422549576359511 
1.6999999999998292, -0.9420021752781247 
1.709999999999828, -0.9416198797084746 
1.719999999999827, -0.9411197663251963 
1.729999999999826, -0.9405257107890801 
1.7399999999998248, -0.9398742752115155 
1.7499999999998237, -0.9392147882598637 
1.7599999999998226, -0.9386081964324555 
1.7699999999998215, -0.9381222296060902 
1.7799999999998204, -0.9378212599539092 
1.7899999999998193, -0.9377528997567971 
1.7999999999998182, -0.9379368927463358 
1.809999999999817, -0.9383614965782547 
1.819999999999816, -0.9389884277296681 
1.8299999999998149, -0.9397632653635603 
1.8399999999998138, -0.9406266904421177 
1.8499999999998127, -0.9415228486185139 
1.8599999999998116, -0.942403114339214 
1.8699999999998105, -0.9432255642953248 
1.8799999999998094, -0.9439521236698966 
1.8899999999998083, -0.9445464777491059 
1.8999999999998072, -0.9449756698200554 
1.909999999999806, -0.9452157868230158 
1.919999999999805, -0.9452583922202115 
1.9299999999998039, -0.9451132262219272 
1.9399999999998028, -0.9448060459021914 
1.9499999999998017, -0.944374826751625 
1.9599999999998006, -0.9438683871254524 
1.9699999999997995, -0.9433485584006551 
1.9799999999997984, -0.9428929280264603 
1.9899999999997973, -0.9425924649663946 
1.9999999999997962, -0.9425394132108387 
2.0099999999998173, -0.942807018864217 
2.0199999999998384, -0.9434302710579047 
2.0299999999998595, -0.9443981166676911 
2.0399999999998806, -0.9456601355397096 
2.0499999999999017, -0.9471417274469172 
2.059999999999923, -0.9487590544164719 
2.069999999999944, -0.9504281330860852 
2.079999999999965, -0.9520673547176418 
2.089999999999986, -0.9535967174511546 
2.100000000000007, -0.9549391775787834 
2.1100000000000283, -0.956028244394237 
2.1200000000000494, -0.9568203404269617 
2.1300000000000705, -0.9573042433536905 
2.1400000000000916, -0.9575003354264766 
2.1500000000001127, -0.9574504012422256 
2.160000000000134, -0.9572058326716532 
2.170000000000155, -0.9568218419510437 
2.180000000000176, -0.9563603127909823 
2.190000000000197, -0.955899033225735 
2.2000000000002182, -0.95554109231091 
2.2100000000002393, -0.9554149731152647 
2.2200000000002604, -0.9556568647992183 
2.2300000000002815, -0.9563767426553316 
2.2400000000003026, -0.9576243555800217 
2.2500000000003237, -0.9593749208644189 
2.260000000000345, -0.9615401726281606 
2.270000000000366, -0.963992980143424 
2.280000000000387, -0.9665896807090938 
2.290000000000408, -0.9691828146331737 
2.3000000000004293, -0.9716275592204496 
2.3100000000004504, -0.9737904421754848 
2.3200000000004715, -0.9755658400742915 
2.3300000000004926, -0.9768954636973797 
2.3400000000005137, -0.9777776254653157 
2.3500000000005348, -0.9782577818409834 
2.360000000000556, -0.9784062803036366 
2.370000000000577, -0.9782974019624943 
2.380000000000598, -0.9779995605977995 
2.390000000000619, -0.9775784273436738 
2.4000000000006403, -0.9771100698198104 
2.4100000000006614, -0.9766986006152548 
2.4200000000006825, -0.9764884237773304 
2.4300000000007036, -0.9766565555327992 
2.4400000000007247, -0.9773754211685656 
2.450000000000746, -0.9787573810645049 
2.460000000000767, -0.9808129200027672 
2.470000000000788, -0.9834477139165531 
2.480000000000809, -0.9864932783660982 
2.49000000000083, -0.9897457852502836 
2.5000000000008513, -0.9929943412080953 
2.5100000000008724, -0.996038305787787 
2.5200000000008935, -0.9987038862736126 
2.5300000000009146, -1.0008663253351635 
2.5400000000009357, -1.0024704140245402 
2.550000000000957, -1.0035339143835886 
2.560000000000978, -1.0041279183814367 
2.570000000000999, -1.0043457628975159 
2.58000000000102, -1.00427797166529 
2.5900000000010412, -1.004002452146599 
2.6000000000010624, -1.0035896455349653 
2.6100000000010835, -1.0031184735324086 
2.6200000000011046, -1.0026971683310133 
2.6300000000011257, -1.0024781072869169 
2.6400000000011468, -1.0026495908745907 
2.650000000001168, -1.0033927989728273 
2.660000000001189, -1.0048179753191706 
2.67000000000121, -1.0069194114650395 
2.680000000001231, -1.0095784356436321 
2.6900000000012523, -1.012604380856146 
2.7000000000012734, -1.0157810303258545 
2.7100000000012945, -1.0188974792659409 
2.7200000000013156, -1.0217645152231583 
2.7300000000013367, -1.0242281357582783 
2.740000000001358, -1.0261866126819839 
2.750000000001379, -1.02760456284436 
2.7600000000014, -1.0285113510508253 
2.770000000001421, -1.028980583688788 
2.780000000001442, -1.029102128799423 
2.7900000000014633, -1.0289616091729499 
2.8000000000014844, -1.028634516391978 
2.8100000000015055, -1.0281939563133047 
2.8200000000015266, -1.0277271381446433 
2.8300000000015477, -1.027352279605969 
2.840000000001569, -1.0272220287095266 
2.85000000000159, -1.0274988187379186 
2.860000000001611, -1.0283040293087586 
2.870000000001632, -1.029669961932856 
2.8800000000016532, -1.0315285387932362 
2.8900000000016743, -1.0337404409481825 
2.9000000000016954, -1.03613847114568 
2.9100000000017165, -1.0385596295927086 
2.9200000000017377, -1.0408593978029397 
2.9300000000017588, -1.042915875439396 
2.94000000000178, -1.0446339243420435 
2.950000000001801, -1.0459535284508994 
2.960000000001822, -1.046857683360891 
2.970000000001843, -1.0473713077924383 
2.9800000000018643, -1.047548719019057 
2.9900000000018854, -1.0474567475167011 
3.0000000000019065, -1.0471633489613845 
3.0100000000019276, -1.046736770775824 
3.0200000000019487, -1.0462538994823116 
3.03000000000197, -1.0458110852429294 
3.040000000001991, -1.0455262421540445 
3.050000000002012, -1.0455213774270709 
3.060000000002033, -1.0458871400414216 
3.070000000002054, -1.0466499181301236 
3.0800000000020753, -1.047764752884934 
3.0900000000020964, -1.049136302873252 
3.1000000000021175, -1.0506500026252281 
3.1100000000021386, -1.052195970450807 
3.1200000000021597, -1.053680075424906 
3.130000000002181, -1.055025385441492 
3.140000000002202, -1.0561700557515095 
3.150000000002223, -1.0570669246416065 
3.160000000002244, -1.0576867987631742 
3.1700000000022652, -1.0580228822044648 
3.1800000000022863, -1.0580916065420802 
3.1900000000023074, -1.0579280409063458 
3.2000000000023285, -1.0575792782504474 
3.2100000000023496, -1.0571010338419868 
3.2200000000023707, -1.056559510741847 
3.230000000002392, -1.0560350607354099 
3.240000000002413, -1.0556198977144258 
3.250000000002434, -1.0554034436595745 
3.260000000002455, -1.055448432437689 
3.2700000000024763, -1.0557715816008977 
3.2800000000024974, -1.0563411992654406 
3.2900000000025185, -1.0570909863737343 
3.3000000000025396, -1.0579398419377088 
3.3100000000025607, -1.0588085987024929 
3.3200000000025818, -1.0596298867270486 
3.330000000002603, -1.0603512415554996 
3.340000000002624, -1.0609336652525427 
3.350000000002645, -1.0613486266815335 
3.360000000002666, -1.0615761916805038 
3.3700000000026873, -1.0616056357045003 
3.3800000000027084, -1.061437768630713 
3.3900000000027295, -1.0610868147707058 
3.4000000000027506, -1.0605806432620257 
3.4100000000027717, -1.0599603281265468 
3.420000000002793, -1.059280363243532 
3.430000000002814, -1.0586083112602158 
3.440000000002835, -1.058019881284204 
3.450000000002856, -1.0575865622476757 
3.460000000002877, -1.0573588559199096 
3.4700000000028983, -1.0573532089250655 
3.4800000000029194, -1.0575489125726438 
3.4900000000029405, -1.0578951508921082 
3.5000000000029616, -1.0583242970106046 
3.5100000000029827, -1.0587663035071573 
3.520000000003004, -1.0591595119803892 
3.530000000003025, -1.059455820750006 
3.540000000003046, -1.0596213110217414 
3.550000000003067, -1.0596345487054035 
3.5600000000030882, -1.0594840965559444 
3.5700000000031094, -1.0591662532857646 
3.5800000000031305, -1.058684073171114 
3.5900000000031516, -1.0580482256664256 
3.6000000000031727, -1.0572791747060033 
3.6100000000031938, -1.0564096279154351 
3.620000000003215, -1.0554862867808512 
3.630000000003236, -1.0545694909284868 
3.640000000003257, -1.0537285782025274 
3.650000000003278, -1.0530316390825039 
3.6600000000032993, -1.0525314143904492 
3.6700000000033204, -1.0522518966066479 
3.6800000000033415, -1.0521807547785231 
3.6900000000033626, -1.052271434310044 
3.7000000000033837, -1.0524551370612738 
3.710000000003405, -1.0526571929077853 
3.720000000003426, -1.0528099619426103 
3.730000000003447, -1.0528586151554973 
3.740000000003468, -1.0527619737840874 
3.750000000003489, -1.0524922366015486 
3.7600000000035103, -1.0520350668990814 
3.7700000000035314, -1.0513890307286122 
3.7800000000035525, -1.0505635417220134 
3.7900000000035736, -1.0495764558536207 
3.8000000000035947, -1.0484533576537474 
3.810000000003616, -1.0472292698963683 
3.820000000003637, -1.0459515430405077 
3.830000000003658, -1.0446814897573806 
3.840000000003679, -1.0434920685000508 
3.8500000000037002, -1.0424596252714486 
3.8600000000037213, -1.0416495974794704 
3.8700000000037424, -1.0410991255424638 
3.8800000000037635, -1.0408033419395024 
3.8900000000037847, -1.0407138728711494 
3.9000000000038058, -1.040752589987403 
3.910000000003827, -1.0408328260274828 
3.920000000003848, -1.040875723698774 
3.930000000003869, -1.040816065757333 
3.94000000000389, -1.0406010984045346 
3.9500000000039113, -1.0401889700901121 
3.9600000000039324, -1.0395505117592092 
3.9700000000039535, -1.0386732425802816 
3.9800000000039746, -1.0375636463295188 
3.9900000000039957, -1.0362452745693507 
4.000000000004016, -1.0347544184547757 
4.010000000003993, -1.033137231982206 
4.02000000000397, -1.0314502474644034 
4.030000000003946, -1.0297627161444463 
4.040000000003923, -1.0281570293153577 
4.0500000000039, -1.0267232533859487 
4.0600000000038765, -1.0255452937794594 
4.070000000003853, -1.0246799793639874 
4.08000000000383, -1.0241368045883978 
4.090000000003807, -1.0238708924770112 
4.100000000003783, -1.0237963918336428 
4.11000000000376, -1.0238126510298438 
4.120000000003737, -1.0238266472201627 
4.130000000003713, -1.0237617755774424 
4.14000000000369, -1.0235554817663233 
4.150000000003667, -1.0231541863903533 
4.1600000000036434, -1.0225123985739573 
4.17000000000362, -1.0215979638859547 
4.180000000003597, -1.0204000131762425 
4.1900000000035735, -1.018933416317135 
4.20000000000355, -1.017236292535617 
4.210000000003527, -1.0153632762521057 
4.220000000003504, -1.0133802343091545 
4.23000000000348, -1.0113632815045954 
4.240000000003457, -1.009400013362722 
4.250000000003434, -1.0075880013672411 
4.26000000000341, -1.0060256935399365 
4.270000000003387, -1.0047938209618288 
4.280000000003364, -1.0039317641592698 
4.2900000000033405, -1.003420988786126 
4.300000000003317, -1.0031883184030415 
4.310000000003294, -1.0031294237856936 
4.320000000003271, -1.0031376601477404 
4.330000000003247, -1.0031220285624023 
4.340000000003224, -1.0030099882933499 
4.350000000003201, -1.0027416749509999 
4.360000000003177, -1.0022644419019051 
4.370000000003154, -1.001533419615093 
4.380000000003131, -1.0005186746525747 
4.390000000003107, -0.9992143072436109 
4.400000000003084, -0.9976425392989784 
4.410000000003061, -0.9958496291510233 
4.4200000000030375, -0.993897385690613 
4.430000000003014, -0.9918567728778344 
4.440000000002991, -0.9898064098877422 
4.450000000002968, -0.9878334461111216 
4.460000000002944, -0.9860316911186591 
4.470000000002921, -0.9844925604395736 
4.480000000002898, -0.9832877542241159 
4.490000000002874, -0.982448490318351 
4.500000000002851, -0.9819521867000903 
4.510000000002828, -0.9817269473285212 
4.520000000002804, -0.9816732229877176 
4.530000000002781, -0.9816896314183227 
4.540000000002758, -0.9816892345110405 
4.5500000000027345, -0.9816026624101886 
4.560000000002711, -0.9813736877105986 
4.570000000002688, -0.980955003217048 
4.580000000002665, -0.9803090490507683 
4.590000000002641, -0.9794139278918728 
4.600000000002618, -0.9782698852003128 
4.610000000002595, -0.976900627423937 
4.620000000002571, -0.9753478981471202 
4.630000000002548, -0.9736635430850349 
4.640000000002525, -0.9719045852564406 
4.6500000000025015, -0.970132994146655 
4.660000000002478, -0.9684175080263284 
4.670000000002455, -0.9668332822600363 
4.6800000000024315, -0.9654560729980067 
4.690000000002408, -0.964350079056581 
4.700000000002385, -0.9635521257921547 
4.710000000002362, -0.9630588245929793 
4.720000000002338, -0.9628246075514731 
4.730000000002315, -0.9627735402849655 
4.740000000002292, -0.9628188472071726 
4.750000000002268, -0.962879663186761 
4.760000000002245, -0.9628888294593951 
4.770000000002222, -0.9627931273307639 
4.7800000000021985, -0.9625512871265967 
4.790000000002175, -0.9621340408611901 
4.800000000002152, -0.9615267243619405 
4.810000000002129, -0.9607314656996827 
4.820000000002105, -0.9597656569880865 
4.830000000002082, -0.9586567623007293 
4.840000000002059, -0.9574370463862627 
4.850000000002035, -0.9561416460683109 
4.860000000002012, -0.9548102409024846 
4.870000000001989, -0.9534899005686805 
4.880000000001965, -0.9522361038230545 
4.890000000001942, -0.9511097295577565 
4.900000000001919, -0.950169275206545 
4.9100000000018955, -0.9494595379212072 
4.920000000001872, -0.9490001487843813 
4.930000000001849, -0.9487787191511197 
