t, s[1].omega / s[0].omega 
0, -1.7199822664817082 
0.009999999999999995, -1.7177671173123514 
0.019999999999999934, -1.7145168702255638 
0.029999999999999874, -1.7100728860843717 
0.04000000000000012, -1.7047247886518442 
0.050000000000000405, -1.699748198985136 
0.06000000000000069, -1.696909602115528 
0.07000000000000098, -1.6964745769893823 
0.08000000000000126, -1.6970823302573455 
0.09000000000000155, -1.697626819097863 
0.10000000000000184, -1.6977772418246844 
0.11000000000000212, -1.6975129746419213 
0.12000000000000241, -1.6968226588480568 
0.130000000000002, -1.695668366150247 
0.1400000000000009, -1.6942157836251517 
0.1499999999999998, -1.693419156279899 
0.1599999999999987, -1.695076170030129 
0.1699999999999976, -1.699754541304367 
0.1799999999999965, -1.7055939733999606 
0.1899999999999954, -1.7106232869192521 
0.1999999999999943, -1.7141894070955161 
0.2099999999999932, -1.7164281840864792 
0.2199999999999921, -1.7176548264358638 
0.229999999999991, -1.7181425832668757 
0.2399999999999899, -1.718085567122634 
0.2499999999999888, -1.7176126412828192 
0.2599999999999877, -1.7168142474577628 
0.2699999999999866, -1.715772702273675 
0.2799999999999855, -1.7145906487111493 
0.2899999999999844, -1.713423835240737 
0.2999999999999833, -1.7124964029959784 
0.3099999999999822, -1.711985635623463 
0.3199999999999811, -1.7118282767639887 
0.32999999999998, -1.7117646485847717 
0.3399999999999789, -1.7115451727208437 
0.3499999999999778, -1.7109729750526945 
0.35999999999997667, -1.7097813361767962 
0.36999999999997557, -1.7074386762139184 
0.37999999999997447, -1.7029197223386088 
0.38999999999997337, -1.69487059299339 
0.39999999999997227, -1.6840356506844603 
0.40999999999997117, -1.6783373148699734 
0.41999999999997006, -1.6865791269661188 
0.42999999999996896, -1.702292414081817 
0.43999999999996786, -1.7147961853204055 
0.44999999999996676, -1.7218683994975923 
0.45999999999996566, -1.7252955764094313 
0.46999999999996456, -1.7267624455103587 
0.47999999999996346, -1.7272124127199504 
0.48999999999996235, -1.7271107132081691 
0.49999999999996125, -1.7267037172510917 
0.5099999999999602, -1.7261829682795142 
0.519999999999959, -1.7257494700027671 
0.529999999999958, -1.7255483023544405 
0.5399999999999568, -1.7255819029619968 
0.5499999999999557, -1.7257559216522254 
0.5599999999999546, -1.7259569968917283 
0.5699999999999535, -1.7260643986117752 
0.5799999999999524, -1.7259530892475639 
0.5899999999999513, -1.7254896063255252 
0.5999999999999502, -1.724491288025104 
0.6099999999999491, -1.7226581085038526 
0.619999999999948, -1.7194948813680753 
0.6299999999999469, -1.7142685985847987 
0.6399999999999458, -1.7062064086903646 
0.6499999999999447, -1.6954957721348483 
0.6599999999999436, -1.6851368059584069 
0.6699999999999425, -1.67984825376671 
0.6799999999999414, -1.6800668778688717 
0.6899999999999403, -1.6821414130424863 
0.6999999999999392, -1.6837447117589925 
0.7099999999999381, -1.68451418330264 
0.719999999999937, -1.6846566798738891 
0.7299999999999359, -1.6843546491196182 
0.7399999999999348, -1.683710606626598 
0.7499999999999337, -1.6828796657199239 
0.7599999999999326, -1.6823085842514782 
0.7699999999999315, -1.6827528177795865 
0.7799999999999304, -1.68456913597295 
0.7899999999999293, -1.6871680246700405 
0.7999999999999282, -1.6896862350522954 
0.8099999999999271, -1.6916643814158525 
0.819999999999926, -1.6930085691321661 
0.8299999999999249, -1.6937670530799458 
0.8399999999999238, -1.6940112119288357 
0.8499999999999227, -1.6937969288392254 
0.8599999999999216, -1.6931570106181877 
0.8699999999999205, -1.6921057432547495 
0.8799999999999194, -1.6906541613497719 
0.8899999999999183, -1.688845380697161 
0.8999999999999172, -1.68683028125634 
0.9099999999999161, -1.6849628667504113 
0.919999999999915, -1.6837110585763146 
0.9299999999999139, -1.6832404018744875 
0.9399999999999128, -1.6832293388205088 
0.9499999999999117, -1.6832478609062016 
0.9599999999999106, -1.6830370673345616 
0.9699999999999095, -1.6824359224319416 
0.9799999999999084, -1.6812135501123826 
0.9899999999999073, -1.6789333439826604 
0.9999999999999062, -1.6750065037340722 
1.0099999999999052, -1.6697177029577894 
1.019999999999904, -1.66704859236333 
1.029999999999903, -1.6736740546305398 
1.039999999999902, -1.6883125506487666 
1.0499999999999008, -1.7024377881874984 
1.0599999999998997, -1.7118230315561735 
1.0699999999998986, -1.7170282785501645 
1.0799999999998975, -1.719617560750553 
1.0899999999998964, -1.72073065095585 
1.0999999999998953, -1.7210163967366785 
1.1099999999998942, -1.7208205083628871 
1.119999999999893, -1.7203454765759456 
1.129999999999892, -1.7197536813627845 
1.1399999999998909, -1.7191985357252932 
1.1499999999998898, -1.718786144194107 
1.1599999999998887, -1.7185516600949722 
1.1699999999998876, -1.7184789664098656 
1.1799999999998865, -1.718491381294753 
1.1899999999998854, -1.7184507764368877 
1.1999999999998843, -1.7181997161704712 
1.2099999999998832, -1.717564137291267 
1.219999999999882, -1.7162803012058578 
1.229999999999881, -1.7138644124878373 
1.2399999999998799, -1.7094376604220283 
1.2499999999998788, -1.7016226221439066 
1.2599999999998777, -1.6891362040416027 
1.2699999999998766, -1.673464227645851 
1.2799999999998755, -1.6617206125330877 
1.2899999999998744, -1.6597806335108998 
1.2999999999998733, -1.6636946791788705 
1.3099999999998722, -1.6676352892465502 
1.319999999999871, -1.6699446734385923 
1.32999999999987, -1.670974346233003 
1.3399999999998689, -1.6712314470821916 
1.3499999999998678, -1.6710145009278516 
1.3599999999998666, -1.6704885690108657 
1.3699999999998655, -1.669839749921889 
1.3799999999998644, -1.6694304768806183 
1.3899999999998633, -1.6697253548300672 
1.3999999999998622, -1.6708493429378428 
1.4099999999998611, -1.6724123742428507 
1.41999999999986, -1.6739278796081465 
1.429999999999859, -1.675124583821717 
1.4399999999998578, -1.6759130906383817 
1.4499999999998567, -1.6762794885014138 
1.4599999999998556, -1.6762258329758417 
1.4699999999998545, -1.6757453696392286 
1.4799999999998534, -1.674813760357352 
1.4899999999998523, -1.6733900510227468 
1.4999999999998512, -1.6714319312375718 
1.5099999999998501, -1.6689468482122045 
1.519999999999849, -1.666118434343446 
1.529999999999848, -1.663469525603165 
1.5399999999998468, -1.6617194509317013 
1.5499999999998457, -1.6611194759545398 
1.5599999999998446, -1.661192552762925 
1.5699999999998435, -1.6613437990905724 
1.5799999999998424, -1.661264720477814 
1.5899999999998413, -1.6608239282344424 
1.5999999999998402, -1.6598740317192657 
1.6099999999998391, -1.6581452360574112 
1.619999999999838, -1.655335114019163 
1.629999999999837, -1.6519024321015674 
1.6399999999998358, -1.6508816292936423 
1.6499999999998347, -1.6568504803117032 
1.6599999999998336, -1.668912803938586 
1.6699999999998325, -1.6810163769548088 
1.6799999999998314, -1.6896461645439298 
1.6899999999998303, -1.6948112050898279 
1.6999999999998292, -1.697582769086896 
1.709999999999828, -1.69888755244619 
1.719999999999827, -1.6993167212372509 
1.729999999999826, -1.6992117553958306 
1.7399999999998248, -1.6987746877715026 
1.7499999999998237, -1.69815431904405 
1.7599999999998226, -1.6974904694496977 
1.7699999999998215, -1.6969037585116962 
1.7799999999998204, -1.696473079064488 
1.7899999999998193, -1.6962361407015543 
1.7999999999998182, -1.69616244199081 
1.809999999999817, -1.6961284485396864 
1.819999999999816, -1.695966871902034 
1.8299999999998149, -1.6955075518255747 
1.8399999999998138, -1.6945305568085107 
1.8499999999998127, -1.6926460005686252 
1.8599999999998116, -1.6891123756529105 
1.8699999999998105, -1.6826356443499944 
1.8799999999998094, -1.6715392335577337 
1.8899999999998083, -1.655650962944336 
1.8999999999998072, -1.6404154643194029 
1.909999999999806, -1.6346526334880864 
1.919999999999805, -1.6381234439614338 
1.9299999999998039, -1.6435215131314902 
1.9399999999998028, -1.6471711021318005 
1.9499999999998017, -1.649019151553404 
1.9599999999998006, -1.6497436143712538 
1.9699999999997995, -1.6498181124335538 
1.9799999999997984, -1.6494899606394324 
1.9899999999997973, -1.6489178391919108 
1.9999999999997962, -1.648330432694443 
2.0099999999998173, -1.6481209985054754 
2.0199999999998384, -1.6486473700262274 
2.0299999999998595, -1.6498489411583617 
2.0399999999998806, -1.6513041050779045 
2.0499999999999017, -1.6526277341666564 
2.059999999999923, -1.6536292015297849 
2.069999999999944, -1.654245314665744 
2.079999999999965, -1.6544613201237606 
2.089999999999986, -1.6542702993112968 
2.100000000000007, -1.653655549317234 
2.1100000000000283, -1.652584754915038 
2.1200000000000494, -1.65101352226772 
2.1300000000000705, -1.648905850593204 
2.1400000000000916, -1.6462964743430875 
2.1500000000001127, -1.6434282208910225 
2.160000000000134, -1.640881233222099 
2.170000000000155, -1.63932624364667 
2.180000000000176, -1.6388700570253487 
2.190000000000197, -1.6389792136602863 
2.2000000000002182, -1.639106857370513 
2.2100000000002393, -1.6389871063132353 
2.2200000000002604, -1.6384963604491403 
2.2300000000002815, -1.6374746353572243 
2.2400000000003026, -1.635627339817518 
2.2500000000003237, -1.6326199888899076 
2.260000000000345, -1.6288976305045821 
2.270000000000366, -1.6275870100296834 
2.280000000000387, -1.6335843432775956 
2.290000000000408, -1.6462445724514254 
2.3000000000004293, -1.65919971715848 
2.3100000000004504, -1.6685115444841763 
2.3200000000004715, -1.6740901947253768 
2.3300000000004926, -1.6770837815403645 
2.3400000000005137, -1.6785061654285478 
2.3500000000005348, -1.6790036967680888 
2.360000000000556, -1.6789465170080207 
2.370000000000577, -1.6785499708177354 
2.380000000000598, -1.6779693479454139 
2.390000000000619, -1.6773508577403327 
2.4000000000006403, -1.6768211304993383 
2.4100000000006614, -1.6764531247505576 
2.4200000000006825, -1.6762672778241907 
2.4300000000007036, -1.6762288164256294 
2.4400000000007247, -1.6762294105578008 
2.450000000000746, -1.6761176506046744 
2.460000000000767, -1.6757369206127966 
2.470000000000788, -1.6748969078639857 
2.480000000000809, -1.6732835204703267 
2.49000000000083, -1.67032648353223 
2.5000000000008513, -1.6650509118816035 
2.5100000000008724, -1.6561075505574165 
2.5200000000008935, -1.6427192856122612 
2.5300000000009146, -1.6274758767880761 
2.5400000000009357, -1.6174839161771857 
2.550000000000957, -1.6165107749426604 
2.560000000000978, -1.620081017544924 
2.570000000000999, -1.6234479550236334 
2.58000000000102, -1.6254064856598265 
2.5900000000010412, -1.626266837190185 
2.6000000000010624, -1.6264428259544499 
2.6100000000010835, -1.626177747322582 
2.6200000000011046, -1.6256075298077874 
2.6300000000011257, -1.624904433988694 
2.6400000000011468, -1.62444863937184 
2.650000000001168, -1.6247922844849292 
2.660000000001189, -1.6261716654392113 
2.67000000000121, -1.6281843369479507 
2.680000000001231, -1.630215236218378 
2.6900000000012523, -1.6318873596095185 
2.7000000000012734, -1.6330775158438287 
2.7100000000012945, -1.633782474275041 
2.7200000000013156, -1.6340328544852454 
2.7300000000013367, -1.6338583866743857 
2.740000000001358, -1.63327719798226 
2.750000000001379, -1.6322960519537788 
2.7600000000014, -1.6309195977391209 
2.770000000001421, -1.6291742814448782 
2.780000000001442, -1.6271607015673382 
2.7900000000014633, -1.6251374644986936 
2.8000000000014844, -1.6235324185827777 
2.8100000000015055, -1.6226779006187386 
2.8200000000015266, -1.6224720616495827 
2.8300000000015477, -1.6225106098969664 
2.840000000001569, -1.622454830387302 
2.85000000000159, -1.622116577517291 
2.860000000001611, -1.6213316645495126 
2.870000000001632, -1.6198090962176477 
2.8800000000016532, -1.6170004418426427 
2.8900000000016743, -1.6121698507481608 
2.9000000000016954, -1.6055273563936807 
2.9100000000017165, -1.601285021845456 
2.9200000000017377, -1.6069363317792178 
2.9300000000017588, -1.6220945345806146 
2.94000000000178, -1.63764540422887 
2.950000000001801, -1.6482474280003256 
2.960000000001822, -1.6541640778120077 
2.970000000001843, -1.6571168810551207 
2.9800000000018643, -1.658419492416257 
2.9900000000018854, -1.6588195601796403 
3.0000000000019065, -1.6587075687731272 
3.0100000000019276, -1.6583028206519228 
3.0200000000019487, -1.6577775975013758 
3.03000000000197, -1.6573097780688841 
3.040000000001991, -1.6570383100198367 
3.050000000002012, -1.6569917009816986 
3.060000000002033, -1.6571072365784711 
3.070000000002054, -1.65728848075138 
3.0800000000020753, -1.657421376298594 
3.0900000000020964, -1.6573839506434045 
3.1000000000021175, -1.6570533331546702 
3.1100000000021386, -1.6562814698196946 
3.1200000000021597, -1.6548464136119274 
3.130000000002181, -1.6523986979795644 
3.140000000002202, -1.6484258163365322 
3.150000000002223, -1.6423133101211236 
3.160000000002244, -1.6337456587859887 
3.1700000000022652, -1.6237755817574027 
3.1800000000022863, -1.6156571369507753 
3.1900000000023074, -1.6123537368257335 
3.2000000000023285, -1.6128891727182157 
3.2100000000023496, -1.614439232117785 
3.2200000000023707, -1.6155595653393369 
3.230000000002392, -1.6160467303272714 
3.240000000002413, -1.6160282422407017 
3.250000000002434, -1.6156050952312069 
3.260000000002455, -1.614822098139515 
3.2700000000024763, -1.6137982117545584 
3.2800000000024974, -1.6130230998047583 
3.2900000000025185, -1.6135176098708832 
3.3000000000025396, -1.6160408747737187 
3.3100000000025607, -1.6200065831659753 
3.3200000000025818, -1.6240912137964234 
3.330000000002603, -1.627440531413728 
3.340000000002624, -1.6298385321753812 
3.350000000002645, -1.6313710070412615 
3.360000000002666, -1.6321945416978523 
3.3700000000026873, -1.632452816100876 
3.3800000000027084, -1.632257671465874 
3.3900000000027295, -1.631692286969098 
3.4000000000027506, -1.630824636511533 
3.4100000000027717, -1.6297272731222687 
3.420000000002793, -1.6284993363609064 
3.430000000002814, -1.6272916961417523 
3.440000000002835, -1.626313448509265 
3.450000000002856, -1.6257366287923625 
3.460000000002877, -1.625531215413006 
3.4700000000028983, -1.6254744045753746 
3.4800000000029194, -1.625325364573208 
3.4900000000029405, -1.624898571483861 
3.5000000000029616, -1.623986724794441 
3.5100000000029827, -1.6222129568651351 
3.520000000003004, -1.618824626246973 
3.530000000003025, -1.6124923815341183 
3.540000000003046, -1.6017444411559736 
3.550000000003067, -1.587875828470851 
3.5600000000030882, -1.579170959315034 
3.5700000000031094, -1.5836845508924047 
3.5800000000031305, -1.5960379427283569 
3.5900000000031516, -1.6067705008864404 
3.6000000000031727, -1.6131734068646164 
3.6100000000031938, -1.6163892646218028 
3.620000000003215, -1.6178082295108052 
3.630000000003236, -1.6182677101314897 
3.640000000003257, -1.6181921860039268 
3.650000000003278, -1.617804689024874 
3.6600000000032993, -1.617284406189127 
3.6700000000033204, -1.6168663055285069 
3.6800000000033415, -1.6168051823887848 
3.6900000000033626, -1.617190956774064 
3.7000000000033837, -1.61787420958691 
3.710000000003405, -1.6186227892288276 
3.720000000003426, -1.6192603690507563 
3.730000000003447, -1.6196776931271546 
3.740000000003468, -1.619803446609673 
3.750000000003489, -1.6195795990136006 
3.7600000000035103, -1.6189418999867544 
3.7700000000035314, -1.617806868812955 
3.7800000000035525, -1.6160675761414425 
3.7900000000035736, -1.613603840431558 
3.8000000000035947, -1.610330539188285 
3.810000000003616, -1.6063400431121078 
3.820000000003637, -1.6021630645414071 
3.830000000003658, -1.5988439081524628 
3.840000000003679, -1.5972201969943292 
3.8500000000037002, -1.5970318231859257 
3.8600000000037213, -1.5973748601009023 
3.8700000000037424, -1.5976268736945307 
3.8800000000037635, -1.5975715770466592 
3.8900000000037847, -1.5971390428827394 
3.9000000000038058, -1.5962268957786336 
3.910000000003827, -1.5946474535951736 
3.920000000003848, -1.5922822340061384 
3.930000000003869, -1.589807326062928 
3.94000000000389, -1.5898698146420467 
3.9500000000039113, -1.5957215570342413 
3.9600000000039324, -1.606385752524409 
3.9700000000039535, -1.6172865540319006 
3.9800000000039746, -1.6255016631313424 
3.9900000000039957, -1.630741824032091 
4.000000000004016, -1.6337431151519894 
4.010000000003993, -1.6352742707776309 
4.02000000000397, -1.6358831766916009 
4.030000000003946, -1.6359124525186761 
4.040000000003923, -1.6355714042647738 
4.0500000000039, -1.6350069646696983 
4.0600000000038765, -1.634353408873089 
4.070000000003853, -1.6337389271309608 
4.08000000000383, -1.633258256206929 
4.090000000003807, -1.6329606387926874 
4.100000000003783, -1.6328450602333533 
4.11000000000376, -1.6328350286136755 
4.120000000003737, -1.6327905899247477 
4.130000000003713, -1.632558649665667 
4.14000000000369, -1.6319788055639965 
4.150000000003667, -1.6308235854936943 
4.1600000000036434, -1.6286977555739663 
4.17000000000362, -1.6249126670067375 
4.180000000003597, -1.618400927495174 
4.1900000000035735, -1.6079838782389886 
4.20000000000355, -1.5937756426169916 
4.210000000003527, -1.579705909905479 
4.220000000003504, -1.5722081359023463 
4.23000000000348, -1.5724245375089307 
4.240000000003457, -1.5756428734788748 
4.250000000003434, -1.578373691553587 
4.26000000000341, -1.5799143172352919 
4.270000000003387, -1.5805526171331388 
4.280000000003364, -1.580607531064325 
4.2900000000033405, -1.58026008109062 
4.300000000003317, -1.5796138433990587 
4.310000000003294, -1.578835521762144 
4.320000000003271, -1.5783475459944225 
4.330000000003247, -1.5788162639715022 
4.340000000003224, -1.58059344501658 
4.350000000003201, -1.5832416598255334 
4.360000000003177, -1.5859793585942046 
4.370000000003154, -1.5882904734227616 
4.380000000003131, -1.5900020670678898 
4.390000000003107, -1.5911193179634038 
4.400000000003084, -1.5917037641100218 
4.410000000003061, -1.5918223669860045 
4.4200000000030375, -1.5915318079301974 
4.430000000003014, -1.590877066439522 
4.440000000002991, -1.5898982617259834 
4.450000000002968, -1.5886454923882152 
4.460000000002944, -1.5872024559867275 
4.470000000002921, -1.585720534641765 
4.480000000002898, -1.5844396556749984 
4.490000000002874, -1.5836032435969745 
4.500000000002851, -1.583256417971655 
4.510000000002828, -1.5831891819029713 
4.520000000002804, -1.583123793177959 
4.530000000002781, -1.5828552855226188 
4.540000000002758, -1.5822133833676424 
4.5500000000027345, -1.5809393204259217 
4.560000000002711, -1.5785224622707363 
4.570000000002688, -1.5740004799357818 
4.580000000002665, -1.5659669017373041 
4.590000000002641, -1.5539012385701871 
4.600000000002618, -1.5420852194527637 
4.610000000002595, -1.5399765908089607 
4.620000000002571, -1.5498499531625956 
4.630000000002548, -1.5628324905828823 
4.640000000002525, -1.5722302317084271 
4.6500000000025015, -1.577490983473822 
4.660000000002478, -1.5800689075797023 
4.670000000002455, -1.5811678066490988 
4.6800000000024315, -1.581464651295918 
4.690000000002408, -1.5813011793893854 
4.700000000002385, -1.5808687440281912 
4.710000000002362, -1.5803457436011463 
4.720000000002338, -1.5799779613712905 
4.730000000002315, -1.580015875524976 
4.740000000002292, -1.580523225862886 
4.750000000002268, -1.581326093737051 
4.760000000002245, -1.582181108106358 
4.770000000002222, -1.5829092625113552 
4.7800000000021985, -1.5834046077871693 
4.790000000002175, -1.5836037661790088 
4.800000000002152, -1.5834608754215416 
4.810000000002129, -1.5829302341116787 
4.820000000002105, -1.5819564544744424 
4.830000000002082, -1.5804724603702547 
4.840000000002059, -1.5784080164518777 
4.850000000002035, -1.5757221287195482 
4.860000000002012, -1.5724905646186662 
4.870000000001989, -1.5690668349427506 
4.880000000001965, -1.5661652685190002 
4.890000000001942, -1.5644813741298693 
4.900000000001919, -1.564022501713718 
4.9100000000018955, -1.5641715568947359 
4.920000000001872, -1.5643550945924427 
4.930000000001849, -1.5643048870214145 
4.940000000001826, -1.563910673999309 
