t, s[1].omega / s[0].omega 
0, -0.38000580742741785 
0.009999999999999995, -0.3806610084190165 
0.019999999999999934, -0.38142835737432396 
0.029999999999999874, -0.3822306416734377 
0.04000000000000012, -0.3829754956805764 
0.050000000000000405, -0.38358297733671187 
0.06000000000000069, -0.38400527778631977 
0.07000000000000098, -0.38422827631302325 
0.08000000000000126, -0.3842589541178939 
0.09000000000000155, -0.38410914807017354 
0.10000000000000184, -0.3837821358538013 
0.11000000000000212, -0.38326223667489495 
0.12000000000000241, -0.3825041070837978 
0.130000000000002, -0.38141750549627196 
0.1400000000000009, -0.37984428339643456 
0.1499999999999998, -0.37753014247126504 
0.1599999999999987, -0.37411310989008983 
0.1699999999999976, -0.36919025565827646 
0.1799999999999965, -0.36254213820814196 
0.1899999999999954, -0.3544573484845052 
0.1999999999999943, -0.3458191674543476 
0.2099999999999932, -0.33770310735357734 
0.2199999999999921, -0.3308384470167031 
0.229999999999991, -0.3254338526960529 
0.2399999999999899, -0.32134723009001 
0.2499999999999888, -0.3183100623933791 
0.2599999999999877, -0.3160601267026666 
0.2699999999999866, -0.3143891681770556 
0.2799999999999855, -0.3131480129203442 
0.2899999999999844, -0.31223763043031993 
0.2999999999999833, -0.3115987823932097 
0.3099999999999822, -0.31120460657838894 
0.3199999999999811, -0.31105735366993736 
0.32999999999998, -0.3111897725796845 
0.3399999999999789, -0.31167194511548213 
0.3499999999999778, -0.3126251251269633 
0.35999999999997667, -0.3142448904094727 
0.36999999999997557, -0.3168354660695022 
0.37999999999997447, -0.3208515313912271 
0.38999999999997337, -0.32692267568232786 
0.39999999999997227, -0.33578017645255964 
0.40999999999997117, -0.3479215924627364 
0.41999999999997006, -0.36290539927498233 
0.42999999999996896, -0.3787549979380057 
0.43999999999996786, -0.39264349979631186 
0.44999999999996676, -0.402764806508224 
0.45999999999996566, -0.40918697528971676 
0.46999999999996456, -0.41298130902767693 
0.47999999999996346, -0.4151957210483041 
0.48999999999996235, -0.41651365875515234 
0.49999999999996125, -0.41731434697424385 
0.5099999999999602, -0.4177975597752049 
0.519999999999959, -0.41806841181184196 
0.529999999999958, -0.4181823559443604 
0.5399999999999568, -0.41816735717397135 
0.5499999999999557, -0.41803523151611666 
0.5599999999999546, -0.41778880730381907 
0.5699999999999535, -0.4174285525057311 
0.5799999999999524, -0.4169602633450678 
0.5899999999999513, -0.4164029193614299 
0.5999999999999502, -0.4157929930034168 
0.6099999999999491, -0.4151808448511872 
0.619999999999948, -0.41461871983329485 
0.6299999999999469, -0.414145763046702 
0.6399999999999458, -0.4137774243288212 
0.6499999999999447, -0.41350327308614976 
0.6599999999999436, -0.41329287306149987 
0.6699999999999425, -0.41310669278406625 
0.6799999999999414, -0.41290756700330283 
0.6899999999999403, -0.4126682995931204 
0.6999999999999392, -0.412373482046159 
0.7099999999999381, -0.4120169120040395 
0.719999999999937, -0.41159750306029064 
0.7299999999999359, -0.4111158628350589 
0.7399999999999348, -0.4105722179278901 
0.7499999999999337, -0.40996507772293816 
0.7599999999999326, -0.40928855476236725 
0.7699999999999315, -0.40852281288956693 
0.7799999999999304, -0.40760317702004434 
0.7899999999999293, -0.40633490370951125 
0.7999999999999282, -0.40420309437773677 
0.8099999999999271, -0.40009619725355405 
0.819999999999926, -0.39231902426607085 
0.8299999999999249, -0.37969455262304813 
0.8399999999999238, -0.3633990859388715 
0.8499999999999227, -0.3468214294329716 
0.8599999999999216, -0.33294690933726023 
0.8699999999999205, -0.32275834066403114 
0.8799999999999194, -0.31580240249206726 
0.8899999999999183, -0.3112092154495831 
0.8999999999999172, -0.3082111367526668 
0.9099999999999161, -0.3062609440933267 
0.919999999999915, -0.30500084127785754 
0.9299999999999139, -0.30420602754796333 
0.9399999999999128, -0.303739200208687 
0.9499999999999117, -0.3035204140948747 
0.9599999999999106, -0.3035090153668586 
0.9699999999999095, -0.3036940134508277 
0.9799999999999084, -0.30409037759056373 
0.9899999999999073, -0.3047397135578677 
0.9999999999999062, -0.3057141577000947 
1.0099999999999052, -0.30712177361060633 
1.019999999999904, -0.3091094748279939 
1.029999999999903, -0.31185412877734525 
1.039999999999902, -0.31552362333894063 
1.0499999999999008, -0.320185413044073 
1.0599999999998997, -0.3256691958118162 
1.0699999999998986, -0.33147987445423455 
1.0799999999998975, -0.3369189118001704 
1.0899999999998964, -0.34140595838280147 
1.0999999999998953, -0.3447212994572367 
1.1099999999998942, -0.34697182197637294 
1.119999999999893, -0.34840456620534427 
1.129999999999892, -0.34926023407981743 
1.1399999999998909, -0.34971735380909125 
1.1499999999998898, -0.3498901813589269 
1.1599999999998887, -0.3498429534809838 
1.1699999999998876, -0.34960407853606423 
1.1799999999998865, -0.34917706426357287 
1.1899999999998854, -0.348550296459739 
1.1999999999998843, -0.347709266811726 
1.2099999999998832, -0.3466534067200926 
1.219999999999882, -0.3454141871123818 
1.229999999999881, -0.34406368505453444 
1.2399999999998799, -0.3427027075162426 
1.2499999999998788, -0.34143133663766745 
1.2599999999998777, -0.3403199036657655 
1.2699999999998766, -0.3393963173676602 
1.2799999999998755, -0.33865073339014173 
1.2899999999998744, -0.33804903731393476 
1.2999999999998733, -0.3375473458088491 
1.3099999999998722, -0.33710351307556835 
1.319999999999871, -0.336684016218928 
1.32999999999987, -0.3362661558990741 
1.3399999999998689, -0.33583692350826666 
1.3499999999998678, -0.33539052954176984 
1.3599999999998666, -0.33492615974828677 
1.3699999999998655, -0.3344465260689306 
1.3799999999998644, -0.3339565491970555 
1.3899999999998633, -0.33345938364008365 
1.3999999999998622, -0.33294166773449396 
1.4099999999998611, -0.33232661324882823 
1.41999999999986, -0.3313482118723712 
1.429999999999859, -0.3292875746897378 
1.4399999999998578, -0.32466213576577 
1.4499999999998567, -0.3155132827610704 
1.4599999999998556, -0.3011636482451817 
1.4699999999998545, -0.28398109994535614 
1.4799999999998534, -0.2678892056981522 
1.4899999999998523, -0.25529540157223296 
1.4999999999998512, -0.2464298476092507 
1.5099999999998501, -0.24048873866972134 
1.519999999999849, -0.23656621599289437 
1.529999999999848, -0.23397257259195076 
1.5399999999998468, -0.23224972025457807 
1.5499999999998457, -0.2311106155830837 
1.5599999999998446, -0.23038175664578545 
1.5699999999998435, -0.2299639267667577 
1.5799999999998424, -0.22980893838499045 
1.5899999999998413, -0.22990800650189888 
1.5999999999998402, -0.2302888300134963 
1.6099999999998391, -0.23102025713752733 
1.619999999999838, -0.23222485426554013 
1.629999999999837, -0.23410028686960552 
1.6399999999998358, -0.23694832936002977 
1.6499999999998347, -0.24119990177624837 
1.6599999999998336, -0.2473935796110729 
1.6699999999998325, -0.2560057845844593 
1.6799999999998314, -0.2670122474380171 
1.6899999999998303, -0.2793368877946331 
1.6999999999998292, -0.2909467940580832 
1.709999999999828, -0.30005056640850286 
1.719999999999827, -0.3061701931039926 
1.729999999999826, -0.30989791273288303 
1.7399999999998248, -0.3120735281827559 
1.7499999999998237, -0.3133350367800252 
1.7599999999998226, -0.3140680817602368 
1.7699999999998215, -0.31448510233873084 
1.7799999999998204, -0.3146997318943414 
1.7899999999998193, -0.31477238775210503 
1.7999999999998182, -0.3147350376919818 
1.809999999999817, -0.31460495416404044 
1.819999999999816, -0.3143937362957105 
1.8299999999998149, -0.3141147974456092 
1.8399999999998138, -0.3137899736226115 
1.8499999999998127, -0.31345362585433645 
1.8599999999998116, -0.3131515425718993 
1.8699999999998105, -0.31293346725516413 
1.8799999999998094, -0.3128413830236786 
1.8899999999998083, -0.31289765779883905 
1.8999999999998072, -0.31309658001586305 
1.909999999999806, -0.3134020421493405 
1.919999999999805, -0.31375405074769697 
1.9299999999998039, -0.3140840933645502 
1.9399999999998028, -0.31433320400018044 
1.9499999999998017, -0.3144632527881463 
1.9599999999998006, -0.31445675648882665 
1.9699999999997995, -0.31430822955990206 
1.9799999999997984, -0.3140128658932919 
1.9899999999997973, -0.3135557191878994 
1.9999999999997962, -0.31290079347904726 
2.0099999999998173, -0.3119771289765781 
2.0199999999998384, -0.3106585587429624 
2.0299999999998595, -0.30873716027212234 
2.0399999999998806, -0.3059043299589699 
2.0499999999999017, -0.3017868563757126 
2.059999999999923, -0.2961169002370849 
2.069999999999944, -0.2890334675903429 
2.079999999999965, -0.2812506100968664 
2.089999999999986, -0.2737733098577093 
2.100000000000007, -0.26736598731945593 
2.1100000000000283, -0.262300293196964 
2.1200000000000494, -0.2584763922719183 
2.1300000000000705, -0.25564535143752104 
2.1400000000000916, -0.25355281603196095 
2.1500000000001127, -0.2519938741697926 
2.160000000000134, -0.25082099891782994 
2.170000000000155, -0.249935941997005 
2.180000000000176, -0.24927956017678826 
2.190000000000197, -0.2488244663979949 
2.2000000000002182, -0.24857203755620888 
2.2100000000002393, -0.24855464522211887 
2.2200000000002604, -0.2488445253811425 
2.2300000000002815, -0.24957192586875449 
2.2400000000003026, -0.2509565343298651 
2.2500000000003237, -0.25335553867829413 
2.260000000000345, -0.2573206504724127 
2.270000000000366, -0.2636098309559761 
2.280000000000387, -0.27297139403466075 
2.290000000000408, -0.28535871258569395 
2.3000000000004293, -0.29864733028294105 
2.3100000000004504, -0.30872206727986923 
2.3200000000004715, -0.31277888731288783 
2.3300000000004926, -0.3119217772157306 
2.3400000000005137, -0.30909732290182224 
2.3500000000005348, -0.3063130790835952 
2.360000000000556, -0.3042360768417103 
2.370000000000577, -0.30286120725596494 
2.380000000000598, -0.3020047157735764 
2.390000000000619, -0.3014923243568712 
2.4000000000006403, -0.301199943705366 
2.4100000000006614, -0.30104868099928467 
2.4200000000006825, -0.3009921468359664 
2.4300000000007036, -0.3010063604278529 
2.4400000000007247, -0.3010837628932248 
2.450000000000746, -0.3012307063242091 
2.460000000000767, -0.3014673961964488 
2.470000000000788, -0.30182903691287416 
2.480000000000809, -0.3023664915568092 
2.49000000000083, -0.30314414240567145 
2.5000000000008513, -0.30423181547641237 
2.5100000000008724, -0.30568678067409855 
2.5200000000008935, -0.3075231003087775 
2.5300000000009146, -0.30967454301563213 
2.5400000000009357, -0.31197574834443803 
2.550000000000957, -0.3141945438870115 
2.560000000000978, -0.31611410715722293 
2.570000000000999, -0.3176088483063929 
2.58000000000102, -0.31866003320846387 
2.5900000000010412, -0.31931812578182156 
2.6000000000010624, -0.31965467049383 
2.6100000000010835, -0.31973079377769753 
2.6200000000011046, -0.3195838179632016 
2.6300000000011257, -0.3192237706917921 
2.6400000000011468, -0.3186334190769712 
2.650000000001168, -0.3177703289860333 
2.660000000001189, -0.31657433157683074 
2.67000000000121, -0.31498744821480157 
2.680000000001231, -0.31299095868787347 
2.6900000000012523, -0.3106483331656929 
2.7000000000012734, -0.3081199013968241 
2.7100000000012945, -0.3056204769520564 
2.7200000000013156, -0.30334104433905507 
2.7300000000013367, -0.3013918928781665 
2.740000000001358, -0.2997967219109575 
2.750000000001379, -0.2985203195328907 
2.7600000000014, -0.2975009929043672 
2.770000000001421, -0.2966735660739087 
2.780000000001442, -0.29598181118181277 
2.7900000000014633, -0.295383415217775 
2.8000000000014844, -0.2948506020109197 
2.8100000000015055, -0.2943688925107584 
2.8200000000015266, -0.29393591658738455 
2.8300000000015477, -0.29356162374579153 
2.840000000001569, -0.2932707309824444 
2.85000000000159, -0.2931076572804805 
2.860000000001611, -0.29314253476983904 
2.870000000001632, -0.29347099242768504 
2.8800000000016532, -0.2941821826132608 
2.8900000000016743, -0.2952254248254781 
2.9000000000016954, -0.29605015784673344 
2.9100000000017165, -0.2950277137699713 
2.9200000000017377, -0.2894744708260985 
2.9300000000017588, -0.277795615904579 
2.94000000000178, -0.26216444537006584 
2.950000000001801, -0.2469923918398779 
2.960000000001822, -0.235085208382915 
2.970000000001843, -0.2267864404843082 
2.9800000000018643, -0.22130238467113275 
2.9900000000018854, -0.21773491694675567 
3.0000000000019065, -0.21541158251997689 
3.0100000000019276, -0.21389371380527122 
3.0200000000019487, -0.21291118416543053 
3.03000000000197, -0.21230378008288384 
3.040000000001991, -0.2119824227210409 
3.050000000002012, -0.21190686427304656 
3.060000000002033, -0.212075089791119 
3.070000000002054, -0.21252144133486595 
3.0800000000020753, -0.213322389033956 
3.0900000000020964, -0.21461026955899287 
3.1000000000021175, -0.21659556523790444 
3.1100000000021386, -0.2195950423788761 
3.1200000000021597, -0.2240494639469023 
3.130000000002181, -0.23047788716432857 
3.140000000002202, -0.2392573882881516 
3.150000000002223, -0.25014420189208897 
3.160000000002244, -0.2618279516776438 
3.1700000000022652, -0.2723121594177798 
3.1800000000022863, -0.28017909930974916 
3.1900000000023074, -0.285306645814919 
3.2000000000023285, -0.28838004946605883 
3.2100000000023496, -0.2901624939948219 
3.2200000000023707, -0.291191613192816 
3.230000000002392, -0.29178301749438923 
3.240000000002413, -0.29210906977642176 
3.250000000002434, -0.29226198095168565 
3.260000000002455, -0.29229104083597857 
3.2700000000024763, -0.2922229786783376 
3.2800000000024974, -0.2920738355378061 
3.2900000000025185, -0.2918573544369411 
3.3000000000025396, -0.2915920547411019 
3.3100000000025607, -0.2913067363085701 
3.3200000000025818, -0.29104236756132046 
3.330000000002603, -0.29084831471896827 
3.340000000002624, -0.290773124777579 
3.350000000002645, -0.2908526181103851 
3.360000000002666, -0.29109858530740196 
3.3700000000026873, -0.2914909314636799 
3.3800000000027084, -0.2919769966653992 
3.3900000000027295, -0.29248196496855916 
3.4000000000027506, -0.29292895724921364 
3.4100000000027717, -0.2932589825250488 
3.420000000002793, -0.2934397119955746 
3.430000000002814, -0.2934607405323083 
3.440000000002835, -0.29332144210993605 
3.450000000002856, -0.29301811189156424 
3.460000000002877, -0.29253277323007904 
3.4700000000028983, -0.2918222992670291 
3.4800000000029194, -0.2908053959161837 
3.4900000000029405, -0.2893470477133724 
3.5000000000029616, -0.2872478014098027 
3.5100000000029827, -0.28426272790485674 
3.520000000003004, -0.2801933297914396 
3.530000000003025, -0.275064819815946 
3.540000000003046, -0.2692693161321543 
3.550000000003067, -0.2634689284722852 
3.5600000000030882, -0.25827542131315984 
3.5700000000031094, -0.25400520356976597 
3.5800000000031305, -0.25067956358481946 
3.5900000000031516, -0.24815832524786666 
3.6000000000031727, -0.24625913694129506 
3.6100000000031938, -0.2448182030632482 
3.620000000003215, -0.2437092186818183 
3.630000000003236, -0.24284341459439548 
3.640000000003257, -0.2421639737947427 
3.650000000003278, -0.24164058526482807 
3.6600000000032993, -0.24126645216786105 
3.6700000000033204, -0.24105895750103007 
3.6800000000033415, -0.24106519433958962 
3.6900000000033626, -0.2413741211850143 
3.7000000000033837, -0.24213754145049812 
3.710000000003405, -0.2436001634125109 
3.720000000003426, -0.246126751258555 
3.730000000003447, -0.2501694653550788 
3.740000000003468, -0.25600498251943454 
3.750000000003489, -0.26296158060544544 
3.7600000000035103, -0.26837311357227256 
3.7700000000035314, -0.26831630425906644 
3.7800000000035525, -0.26153340136208425 
3.7900000000035736, -0.2512760368300474 
3.8000000000035947, -0.24159520397104767 
3.810000000003616, -0.2342863242434489 
3.820000000003637, -0.2293230291052725 
3.830000000003658, -0.226096778475748 
3.840000000003679, -0.22402863480727753 
3.8500000000037002, -0.22270926888936807 
3.8600000000037213, -0.22187855180770027 
3.8700000000037424, -0.221379707687987 
3.8800000000037635, -0.22112341299398106 
3.8900000000037847, -0.2210654126393608 
3.9000000000038058, -0.22119462971043355 
3.910000000003827, -0.221528851382827 
3.920000000003848, -0.2221162779180384 
3.930000000003869, -0.22304212102677373 
3.94000000000389, -0.22443948126472205 
3.9500000000039113, -0.22650179316203167 
3.9600000000039324, -0.22948733174404867 
3.9700000000039535, -0.2336901559145616 
3.9800000000039746, -0.23932944203343554 
3.9900000000039957, -0.2463225137823925 
4.000000000004016, -0.2540504443370853 
4.010000000003993, -0.26144217066007097 
4.02000000000397, -0.2675193642937486 
4.030000000003946, -0.27190300760521824 
4.040000000003923, -0.2747833993032416 
4.0500000000039, -0.27657135407174516 
4.0600000000038765, -0.2776408637806299 
4.070000000003853, -0.2782520669667134 
4.08000000000383, -0.2785649249615533 
4.090000000003807, -0.27867155682520767 
4.100000000003783, -0.2786223456958886 
4.11000000000376, -0.2784433875082083 
4.120000000003737, -0.2781486346740601 
4.130000000003713, -0.2777500005607255 
4.14000000000369, -0.2772667444128708 
4.150000000003667, -0.2767326570184531 
4.1600000000036434, -0.27619743054290946 
4.17000000000362, -0.2757197116566233 
4.180000000003597, -0.2753539699315364 
4.1900000000035735, -0.2751370266352634 
4.20000000000355, -0.2750790343769085 
4.210000000003527, -0.2751604600673661 
4.220000000003504, -0.2753355954924433 
4.23000000000348, -0.2755431530542942 
4.240000000003457, -0.2757216458619546 
4.250000000003434, -0.2758229184197222 
4.26000000000341, -0.2758173983619298 
4.270000000003387, -0.27569019779986687 
4.280000000003364, -0.2754319889908866 
4.2900000000033405, -0.27502859515823774 
4.300000000003317, -0.2744503088790756 
4.310000000003294, -0.2736392108698766 
4.320000000003271, -0.27249164743624293 
4.330000000003247, -0.2708350140519069 
4.340000000003224, -0.26840807586535487 
4.350000000003201, -0.26488043149227153 
4.360000000003177, -0.25997895963844164 
4.370000000003154, -0.2537449322230256 
4.380000000003131, -0.24673301076549298 
4.390000000003107, -0.23983753643592104 
4.400000000003084, -0.2338194212624874 
4.410000000003061, -0.2290068542406825 
4.4200000000030375, -0.22535508719394035 
4.430000000003014, -0.22264846368266422 
4.440000000002991, -0.22064854954713392 
4.450000000002968, -0.21915676630589678 
4.460000000002944, -0.21802712974662325 
4.470000000002921, -0.21716035821573212 
4.480000000002898, -0.21649442378842637 
4.490000000002874, -0.21599702724699585 
4.500000000002851, -0.215661738523555 
4.510000000002828, -0.21550861512525482 
4.520000000002804, -0.21559034530863075 
4.530000000002781, -0.21600562884730934 
4.540000000002758, -0.21692164544391787 
4.5500000000027345, -0.2186037340751572 
4.560000000002711, -0.22143153342009966 
4.570000000002688, -0.225817376039521 
4.580000000002665, -0.2318032395577116 
4.590000000002641, -0.2380819489493975 
4.600000000002618, -0.24117179018420004 
4.610000000002595, -0.23742225051543878 
4.620000000002571, -0.22742567011188433 
4.630000000002548, -0.21568736491275362 
4.640000000002525, -0.20583115622815845 
4.6500000000025015, -0.19881476386705443 
4.660000000002478, -0.1941696372398731 
4.670000000002455, -0.19116811685681406 
4.6800000000024315, -0.18923520780725814 
4.690000000002408, -0.18799182167692258 
4.700000000002385, -0.1872056323752048 
4.710000000002362, -0.186741042447499 
4.720000000002338, -0.1865255112903886 
4.730000000002315, -0.18653051003940402 
4.740000000002292, -0.18676317508947018 
4.750000000002268, -0.18726617933374318 
4.760000000002245, -0.18812505220320053 
4.770000000002222, -0.1894833625538239 
4.7800000000021985, -0.19156590505343274 
4.790000000002175, -0.19470515081776174 
4.800000000002152, -0.19934840850442836 
4.810000000002129, -0.20598008966965234 
4.820000000002105, -0.2148430966549116 
4.830000000002082, -0.22543938884993153 
4.840000000002059, -0.2362567611095328 
4.850000000002035, -0.24544453375839517 
4.860000000002012, -0.252016121602194 
