t, s[1].omega / s[0].omega 
0, -0.4200139229682193 
0.009999999999999995, -0.4215044721314756 
0.019999999999999934, -0.4231173617014242 
0.029999999999999874, -0.42471044716274176 
0.04000000000000012, -0.42613242608104523 
0.050000000000000405, -0.4272727029347916 
0.06000000000000069, -0.4280868896507126 
0.07000000000000098, -0.4285865876654622 
0.08000000000000126, -0.42881059089418977 
0.09000000000000155, -0.4287984078046737 
0.10000000000000184, -0.42857383574348684 
0.11000000000000212, -0.4281357293507825 
0.12000000000000241, -0.4274502066687945 
0.130000000000002, -0.42643957817535405 
0.1400000000000009, -0.4249658876314092 
0.1499999999999998, -0.42281323729114123 
0.1599999999999987, -0.419688932119786 
0.1699999999999976, -0.41528940395608804 
0.1799999999999965, -0.409477053011053 
0.1899999999999954, -0.4025068625942869 
0.1999999999999943, -0.3950685380214908 
0.2099999999999932, -0.3879958808606965 
0.2199999999999921, -0.38188366450914035 
0.229999999999991, -0.37694384056407143 
0.2399999999999899, -0.3731072281742502 
0.2499999999999888, -0.3701840931944548 
0.2599999999999877, -0.3679714713136185 
0.2699999999999866, -0.36629923451890073 
0.2799999999999855, -0.36504080429882774 
0.2899999999999844, -0.3641097186997108 
0.2999999999999833, -0.36345294757993696 
0.3099999999999822, -0.36304539449315937 
0.3199999999999811, -0.3628871287812467 
0.32999999999998, -0.3630039257397405 
0.3399999999999789, -0.3634516136360767 
0.3499999999999778, -0.36432498919529993 
0.35999999999997667, -0.3657722369611128 
0.36999999999997557, -0.3680150541576588 
0.37999999999997447, -0.371370928484593 
0.38999999999997337, -0.3762623730624108 
0.39999999999997227, -0.38317098482429246 
0.40999999999997117, -0.39245607257463133 
0.41999999999997006, -0.403975995291011 
0.42999999999996896, -0.41668814090756034 
0.43999999999996786, -0.4287865541726438 
0.44999999999996676, -0.43864183275784974 
0.45999999999996566, -0.4456704278332915 
0.46999999999996456, -0.45024983639559435 
0.47999999999996346, -0.4530942881945731 
0.48999999999996235, -0.4548245011024193 
0.49999999999996125, -0.455858715646961 
0.5099999999999602, -0.45644922446124986 
0.519999999999959, -0.4567402322746054 
0.529999999999958, -0.4568098026047419 
0.5399999999999568, -0.4566946956474391 
0.5499999999999557, -0.45640438240815484 
0.5599999999999546, -0.4559302028477951 
0.5699999999999535, -0.4552545887427552 
0.5799999999999524, -0.4543639941874578 
0.5899999999999513, -0.4532657159591265 
0.5999999999999502, -0.4520021811878897 
0.6099999999999491, -0.45065138133839994 
0.619999999999948, -0.44930793686436515 
0.6299999999999469, -0.4480544220409888 
0.6399999999999458, -0.44694041861853046 
0.6499999999999447, -0.4459784349754939 
0.6599999999999436, -0.44515310289727583 
0.6699999999999425, -0.44443519685757815 
0.6799999999999414, -0.4437940851323585 
0.6899999999999403, -0.4432058066640064 
0.6999999999999392, -0.4426567811669927 
0.7099999999999381, -0.4421448823880712 
0.719999999999937, -0.4416801570007588 
0.7299999999999359, -0.4412872055133141 
0.7399999999999348, -0.44101088482643436 
0.7499999999999337, -0.4409270784167286 
0.7599999999999326, -0.4411608812893359 
0.7699999999999315, -0.44191520135695433 
0.7799999999999304, -0.44351184857399095 
0.7899999999999293, -0.44643968715160387 
0.7999999999999282, -0.4513779363688136 
0.8099999999999271, -0.4590982968263019 
0.819999999999926, -0.47006707812680704 
0.8299999999999249, -0.48368073428828035 
0.8399999999999238, -0.4977565228794246 
0.8499999999999227, -0.5094908644663708 
0.8599999999999216, -0.5174498488922991 
0.8699999999999205, -0.522139222886774 
0.8799999999999194, -0.5248148026015136 
0.8899999999999183, -0.5264465320374195 
0.8999999999999172, -0.527539981926502 
0.9099999999999161, -0.5283155332243654 
0.919999999999915, -0.5288681367731924 
0.9299999999999139, -0.5292447103030046 
0.9399999999999128, -0.5294725069409492 
0.9499999999999117, -0.5295675387482677 
0.9599999999999106, -0.5295365384823494 
0.9699999999999095, -0.5293775574613195 
0.9799999999999084, -0.5290813682523519 
0.9899999999999073, -0.5286352410477286 
0.9999999999999062, -0.528030280550281 
1.0099999999999052, -0.5272716893014545 
1.019999999999904, -0.5263876195891722 
1.029999999999903, -0.5254295868592005 
1.039999999999902, -0.5244607648333905 
1.0499999999999008, -0.5235373599256669 
1.0599999999998997, -0.5226937651616992 
1.0699999999998986, -0.5219384880299803 
1.0799999999998975, -0.5212600906039225 
1.0899999999998964, -0.520637849174694 
1.0999999999998953, -0.5200518135671778 
1.1099999999998942, -0.5194893263554815 
1.119999999999893, -0.5189479051497932 
1.129999999999892, -0.5184362945702732 
1.1399999999998909, -0.5179759251916883 
1.1499999999998898, -0.5176045433527194 
1.1599999999998887, -0.5173832849201425 
1.1699999999998876, -0.517408384731948 
1.1799999999998865, -0.5178289303664654 
1.1899999999998854, -0.5188720471983659 
1.1999999999998843, -0.520875341087242 
1.2099999999998832, -0.5243201391190018 
1.219999999999882, -0.529841382559202 
1.229999999999881, -0.5381527349788859 
1.2399999999998799, -0.5497808805185544 
1.2499999999998788, -0.5645488294443476 
1.2599999999998777, -0.5810742834421883 
1.2699999999998766, -0.5969912549650298 
1.2799999999998755, -0.61015686926383 
1.2899999999998744, -0.6197387220772328 
1.2999999999998733, -0.6261313071910497 
1.3099999999998722, -0.6301988030633472 
1.319999999999871, -0.6327294354343137 
1.32999999999987, -0.6342773268865899 
1.3399999999998689, -0.6351916785182757 
1.3499999999998678, -0.6356814403267929 
1.3599999999998666, -0.6358654460283428 
1.3699999999998655, -0.6358027906099413 
1.3799999999998644, -0.6355085012983578 
1.3899999999998633, -0.6349596540064096 
1.3999999999998622, -0.6340964616471573 
1.4099999999998611, -0.6328243639277359 
1.41999999999986, -0.6310270539565056 
1.429999999999859, -0.6286025959628061 
1.4399999999998578, -0.6255241482443835 
1.4499999999998567, -0.6218964053835435 
1.4599999999998556, -0.6179560078666073 
1.4699999999998545, -0.6139974693948043 
1.4799999999998534, -0.6102750148246916 
1.4899999999998523, -0.606946351488885 
1.4999999999998512, -0.604074064306457 
1.5099999999998501, -0.6016572631819969 
1.519999999999849, -0.5996645189104132 
1.529999999999848, -0.5980557744592152 
1.5399999999998468, -0.5967930860790084 
1.5499999999998457, -0.5958441048487193 
1.5599999999998446, -0.5951820310960891 
1.5699999999998435, -0.594784492043248 
1.5799999999998424, -0.5946326474322188 
1.5899999999998413, -0.5947110557668548 
1.5999999999998402, -0.595008360225113 
1.6099999999998391, -0.5955185610130413 
1.619999999999838, -0.5962424066163119 
1.629999999999837, -0.5971881108907908 
1.6399999999998358, -0.598370061310953 
1.6499999999998347, -0.5998035174118984 
1.6599999999998336, -0.6014931334262336 
1.6699999999998325, -0.603414892231484 
1.6799999999998314, -0.6054964345094836 
1.6899999999998303, -0.6076089866372576 
1.6999999999998292, -0.6095867558534979 
1.709999999999828, -0.6112743309708674 
1.719999999999827, -0.612575488855193 
1.729999999999826, -0.6134705791852435 
1.7399999999998248, -0.6139971762258852 
1.7499999999998237, -0.6142159500070811 
1.7599999999998226, -0.6141833146199588 
1.7699999999998215, -0.6139370450451064 
1.7799999999998204, -0.6134907093051847 
1.7899999999998193, -0.612830868432973 
1.7999999999998182, -0.6119124176856179 
1.809999999999817, -0.6106483062433232 
1.819999999999816, -0.6088888078866426 
1.8299999999998149, -0.6063824971762994 
1.8399999999998138, -0.6027097433728447 
1.8499999999998127, -0.5971987747245416 
1.8599999999998116, -0.5889239029913114 
1.8699999999998105, -0.577053665638463 
1.8799999999998094, -0.5617214920426411 
1.8899999999998083, -0.5447103848492195 
1.8999999999998072, -0.528730390205728 
1.909999999999806, -0.5157822923419486 
1.919999999999805, -0.5064067130878134 
1.9299999999998039, -0.5001250304972639 
1.9399999999998028, -0.49613147303495975 
1.9499999999998017, -0.4936888544001067 
1.9599999999998006, -0.4922463053588392 
1.9699999999997995, -0.49142906703377953 
1.9799999999997984, -0.4909941700615336 
1.9899999999997973, -0.49078817519987233 
1.9999999999997962, -0.49071571250552326 
2.0099999999998173, -0.4907183248191432 
2.0199999999998384, -0.49076116609920195 
2.0299999999998595, -0.4908253501459736 
2.0399999999998806, -0.49090428401320174 
2.0499999999999017, -0.4910024725654578 
2.059999999999923, -0.4911349149576963 
2.069999999999944, -0.49132475796953445 
2.079999999999965, -0.49159722565096853 
2.089999999999986, -0.4919696097845119 
2.100000000000007, -0.4924398190960468 
2.1100000000000283, -0.49297849831543444 
2.1200000000000494, -0.4935305189112237 
2.1300000000000705, -0.4940283350361403 
2.1400000000000916, -0.49441188204533126 
2.1500000000001127, -0.4946437442830815 
2.160000000000134, -0.49471181155046173 
2.170000000000155, -0.49462125687124814 
2.180000000000176, -0.49438308590828467 
2.190000000000197, -0.49400465756766837 
2.2000000000002182, -0.49348326950217347 
2.2100000000002393, -0.49280109407148176 
2.2200000000002604, -0.49191846542707074 
2.2300000000002815, -0.4907609714110162 
2.2400000000003026, -0.48919205020072926 
2.2500000000003237, -0.48695585909573325 
2.260000000000345, -0.48357158496714536 
2.270000000000366, -0.4781973046043692 
2.280000000000387, -0.46964683319148837 
2.290000000000408, -0.4569883692361393 
2.3000000000004293, -0.4407693730280829 
2.3100000000004504, -0.42347144552005134 
2.3200000000004715, -0.4080067419530507 
2.3300000000004926, -0.3959472363184642 
2.3400000000005137, -0.3873407913140132 
2.3500000000005348, -0.3814955000934305 
2.360000000000556, -0.377621701609457 
2.370000000000577, -0.37508530824656716 
2.380000000000598, -0.373440837071742 
2.390000000000619, -0.3723933954770576 
2.4000000000006403, -0.37175346164545947 
2.4100000000006614, -0.3714019638489866 
2.4200000000006825, -0.3712668864413538 
2.4300000000007036, -0.3713087958306404 
2.4400000000007247, -0.37151265572934516 
2.450000000000746, -0.3718840063125177 
2.460000000000767, -0.37244807617403 
2.470000000000788, -0.37325038502828206 
2.480000000000809, -0.37435672526538366 
2.49000000000083, -0.37584893710046285 
2.5000000000008513, -0.3778106752881617 
2.5100000000008724, -0.380295917807221 
2.5200000000008935, -0.38327806822511107 
2.5300000000009146, -0.3865983706703156 
2.5400000000009357, -0.3899626293555353 
2.550000000000957, -0.39302737407732813 
2.560000000000978, -0.3955353488028069 
2.570000000000999, -0.39739457597072003 
2.58000000000102, -0.3986536385370866 
2.5900000000010412, -0.3994252340914535 
2.6000000000010624, -0.3998232139319095 
2.6100000000010835, -0.39993282362557514 
2.6200000000011046, -0.3998033598021953 
2.6300000000011257, -0.3994491677900316 
2.6400000000011468, -0.3988513591190553 
2.650000000001168, -0.3979588284419431 
2.660000000001189, -0.3966923456620922 
2.67000000000121, -0.394960693622045 
2.680000000001231, -0.3926994218605793 
2.6900000000012523, -0.3899295641000053 
2.7000000000012734, -0.38680122355076285 
2.7100000000012945, -0.38357040617614657 
2.7200000000013156, -0.38050615803513227 
2.7300000000013367, -0.3777965046995576 
2.740000000001358, -0.37551593635721325 
2.750000000001379, -0.37365042732141207 
2.7600000000014, -0.3721405332905886 
2.770000000001421, -0.37091546961453215 
2.780000000001442, -0.3699122253760815 
2.7900000000014633, -0.3690835713461753 
2.8000000000014844, -0.36840011249865395 
2.8100000000015055, -0.367850265771939 
2.8200000000015266, -0.3674407330865207 
2.8300000000015477, -0.3671992353516691 
2.840000000001569, -0.36718105663257333 
2.85000000000159, -0.3674813126151758 
2.860000000001611, -0.3682556678318276 
2.870000000001632, -0.36975289691649277 
2.8800000000016532, -0.3723610375355174 
2.8900000000016743, -0.37665798355814684 
2.9000000000016954, -0.38341994099139526 
2.9100000000017165, -0.39345400498167854 
2.9200000000017377, -0.4070337295053424 
2.9300000000017588, -0.4229725698934724 
2.94000000000178, -0.4383608265852283 
2.950000000001801, -0.45023376012859595 
2.960000000001822, -0.45770171250277614 
2.970000000001843, -0.4618230297677335 
2.9800000000018643, -0.4640427293004762 
2.9900000000018854, -0.4653236649019915 
3.0000000000019065, -0.4661401650343153 
3.0100000000019276, -0.4666965055073108 
3.0200000000019487, -0.4670795620848411 
3.03000000000197, -0.4673294622861797 
3.040000000001991, -0.4674666508536907 
3.050000000002012, -0.4675012367836369 
3.060000000002033, -0.4674363088886121 
3.070000000002054, -0.4672699898527733 
3.0800000000020753, -0.46699841678296333 
3.0900000000020964, -0.46662073254548336 
3.1000000000021175, -0.46614577187879186 
3.1100000000021386, -0.46559781342678697 
3.1200000000021597, -0.4650169543434243 
3.130000000002181, -0.4644512425012782 
3.140000000002202, -0.463943014686374 
3.150000000002223, -0.4635162613018086 
3.160000000002244, -0.463171001714102 
3.1700000000022652, -0.4628862996026196 
3.1800000000022863, -0.4626296069164316 
3.1900000000023074, -0.4623679521347636 
3.2000000000023285, -0.46207633751980204 
3.2100000000023496, -0.46174095664704096 
3.2200000000023707, -0.46135813862296765 
3.230000000002392, -0.4609318146193081 
3.240000000002413, -0.4604720924411746 
3.250000000002434, -0.4599964898071477 
3.260000000002455, -0.45953476527941106 
3.2700000000024763, -0.45913828322426326 
3.2800000000024974, -0.45889465639450566 
3.2900000000025185, -0.45894582579515814 
3.3000000000025396, -0.45949722746506333 
3.3100000000025607, -0.46077643038027716 
3.3200000000025818, -0.46284776807190176 
3.330000000002603, -0.46519258422798915 
3.340000000002624, -0.46630085598945836 
3.350000000002645, -0.4642139846624674 
3.360000000002666, -0.4583773976626187 
3.3700000000026873, -0.45055040590630313 
3.3800000000027084, -0.44316579958082825 
3.3900000000027295, -0.43754533175543403 
3.4000000000027506, -0.4337988180187133 
3.4100000000027717, -0.43150044581182695 
3.420000000002793, -0.43016943673648556 
3.430000000002814, -0.42943676655979734 
3.440000000002835, -0.42905736741114164 
3.450000000002856, -0.4288790943297262 
3.460000000002877, -0.4288106631413776 
3.4700000000028983, -0.42879844550638174 
3.4800000000029194, -0.42881184103511505 
3.4900000000029405, -0.42883503170499715 
3.5000000000029616, -0.4288632042581636 
3.5100000000029827, -0.42890170864717536 
3.520000000003004, -0.4289664947185344 
3.530000000003025, -0.4290836652923968 
3.540000000003046, -0.4292858366814462 
3.550000000003067, -0.42960399727445503 
3.5600000000030882, -0.4300556513603989 
3.5700000000031094, -0.4306325077004807 
3.5800000000031305, -0.4312933346452688 
3.5900000000031516, -0.4319684041460297 
3.6000000000031727, -0.4325774952562423 
3.6100000000031938, -0.433053526077342 
3.620000000003215, -0.43335798897704453 
3.630000000003236, -0.43348081560216833 
3.640000000003257, -0.4334289681455935 
3.650000000003278, -0.43321252727835324 
3.6600000000032993, -0.4328333248277351 
3.6700000000033204, -0.43227591735698906 
3.6800000000033415, -0.4314976120527276 
3.6900000000033626, -0.4304126707941694 
3.7000000000033837, -0.42886433139684915 
3.710000000003405, -0.4265781381317256 
3.720000000003426, -0.4231005044007473 
3.730000000003447, -0.4177724486250747 
3.740000000003468, -0.4098876655740343 
3.750000000003489, -0.3992027572003701 
3.7600000000035103, -0.3865473123006308 
3.7700000000035314, -0.37370335930509746 
3.7800000000035525, -0.36238015083494346 
3.7900000000035736, -0.3533923881542652 
3.8000000000035947, -0.3467080824382837 
3.810000000003616, -0.3418997956937185 
3.820000000003637, -0.33848577646962485 
3.830000000003658, -0.3360693226959103 
3.840000000003679, -0.33436258103365957 
3.8500000000037002, -0.3331696405371555 
3.8600000000037213, -0.33236318120784686 
3.8700000000037424, -0.33186558458695614 
3.8800000000037635, -0.33163639655609956 
3.8900000000037847, -0.3316655252512949 
3.9000000000038058, -0.33197134773201614 
3.910000000003827, -0.3326033183535489 
3.920000000003848, -0.33364907576782016 
3.930000000003869, -0.3352459438421779 
3.94000000000389, -0.3375951171571253 
3.9500000000039113, -0.3409713667336731 
3.9600000000039324, -0.34570760460869504 
3.9700000000039535, -0.3521104830538079 
3.9800000000039746, -0.36025346697535565 
3.9900000000039957, -0.36968075273283685 
4.000000000004016, -0.37929532594476256 
4.010000000003993, -0.3877753048876094 
4.02000000000397, -0.3942886686663759 
4.030000000003946, -0.39877835251398713 
4.040000000003923, -0.4016638139555089 
4.0500000000039, -0.40344451377394847 
4.0600000000038765, -0.4045091452878995 
4.070000000003853, -0.4051111636707937 
4.08000000000383, -0.40540162000097296 
4.090000000003807, -0.4054643237056907 
4.100000000003783, -0.4053400850554435 
4.11000000000376, -0.4050416744567845 
4.120000000003737, -0.40456415579519983 
4.130000000003713, -0.40389515176198776 
4.14000000000369, -0.4030282499112167 
4.150000000003667, -0.40197897383776693 
4.1600000000036434, -0.4007964516821313 
4.17000000000362, -0.3995605617967063 
4.180000000003597, -0.3983615658799552 
4.1900000000035735, -0.39727319822988166 
4.20000000000355, -0.3963350352706388 
4.210000000003527, -0.3955506759919447 
4.220000000003504, -0.3948973429183412 
4.23000000000348, -0.3943394049709097 
4.240000000003457, -0.3938404381735977 
4.250000000003434, -0.39337112658272344 
4.26000000000341, -0.3929125412847022 
4.270000000003387, -0.39245615514010657 
4.280000000003364, -0.3920028083414704 
4.2900000000033405, -0.3915626296289786 
4.300000000003317, -0.3911573191104412 
4.310000000003294, -0.3908258375460802 
4.320000000003271, -0.3906343672010893 
4.330000000003247, -0.39069031619596195 
4.340000000003224, -0.3911548319321791 
4.350000000003201, -0.3922304722298379 
4.360000000003177, -0.3940566880568605 
4.370000000003154, -0.39638798499523675 
4.380000000003131, -0.3980331260868096 
4.390000000003107, -0.39669906797394666 
4.400000000003084, -0.39051858190415667 
4.410000000003061, -0.3803795045258827 
4.4200000000030375, -0.36943982395177044 
4.430000000003014, -0.3602926328823705 
4.440000000002991, -0.35372287340773173 
4.450000000002968, -0.3493826815829645 
4.460000000002944, -0.34663592967912316 
4.470000000002921, -0.34493666667876427 
4.480000000002898, -0.3439036719888038 
4.490000000002874, -0.34329233879686544 
4.500000000002851, -0.3429519414818155 
4.510000000002828, -0.34279231153276657 
4.520000000002804, -0.34276212456964916 
4.530000000002781, -0.3428360723707709 
4.540000000002758, -0.3430081193324847 
4.5500000000027345, -0.34328877737466595 
4.560000000002711, -0.34370475818863155 
4.570000000002688, -0.34429925608426387 
4.580000000002665, -0.3451305406348811 
4.590000000002641, -0.34626562497897745 
4.600000000002618, -0.34776481182868524 
4.610000000002595, -0.3496535065598848 
4.620000000002571, -0.351884487237178 
4.630000000002548, -0.3543107493576675 
4.640000000002525, -0.35670319241118004 
4.6500000000025015, -0.3588253071860803 
4.660000000002478, -0.3605197962758957 
4.670000000002455, -0.3617429449209779 
4.6800000000024315, -0.3625360147674609 
4.690000000002408, -0.36297397652485 
4.700000000002385, -0.363127065566838 
4.710000000002362, -0.36304248559069513 
4.720000000002338, -0.3627385497655164 
4.730000000002315, -0.36220310190582194 
4.740000000002292, -0.36139255983360474 
4.750000000002268, -0.3602330580540869 
4.760000000002245, -0.35863087693071904 
4.770000000002222, -0.35650371327902286 
4.7800000000021985, -0.35383760433722433 
4.790000000002175, -0.3507449308794746 
4.800000000002152, -0.34746740706021356 
4.810000000002129, -0.3442951749610138 
4.820000000002105, -0.34145649267224937 
4.830000000002082, -0.33906024775282295 
4.840000000002059, -0.337109412709368 
4.850000000002035, -0.3355464258136123 
4.860000000002012, -0.3342938424978781 
4.870000000001989, -0.3332785974596456 
4.880000000001965, -0.3324427802640738 
