t, s[1].omega / s[0].omega 
0, -0.49999775740522673 
0.009999999999999995, -0.4997945687797893 
0.019999999999999934, -0.4996252809082396 
0.029999999999999874, -0.49946957555628063 
0.04000000000000012, -0.49930210282557735 
0.050000000000000405, -0.499100514513516 
0.06000000000000069, -0.4988504608142197 
0.07000000000000098, -0.49854639415142155 
0.08000000000000126, -0.4981896266636797 
0.09000000000000155, -0.49778597793646256 
0.10000000000000184, -0.4973447202762761 
0.11000000000000212, -0.4968796247417263 
0.12000000000000241, -0.49641246279657764 
0.130000000000002, -0.49597921345321805 
0.1400000000000009, -0.49563878354650015 
0.1499999999999998, -0.4954819369641056 
0.1599999999999987, -0.495631937385623 
0.1699999999999976, -0.4962157122793772 
0.1799999999999965, -0.4972715794164658 
0.1899999999999954, -0.4985860440931149 
0.1999999999999943, -0.49958667965584913 
0.2099999999999932, -0.49957046209403655 
0.2199999999999921, -0.49827342122004126 
0.229999999999991, -0.49614830852406006 
0.2399999999999899, -0.49395082586157557 
0.2499999999999888, -0.4921953714732865 
0.2599999999999877, -0.49101868113678176 
0.2699999999999866, -0.49033128763134315 
0.2799999999999855, -0.48998040757638284 
0.2899999999999844, -0.4898310539900256 
0.2999999999999833, -0.48978700427786387 
0.3099999999999822, -0.4897864548860307 
0.3199999999999811, -0.48979168050992705 
0.32999999999998, -0.4897798706954076 
0.3399999999999789, -0.48973684423291103 
0.3499999999999778, -0.4896535988066663 
0.35999999999997667, -0.4895253283721831 
0.36999999999997557, -0.4893524240213673 
0.37999999999997447, -0.48914249186912084 
0.38999999999997337, -0.48891159207986173 
0.39999999999997227, -0.48868252934810413 
0.40999999999997117, -0.48847918042134647 
0.41999999999997006, -0.4883183956824439 
0.42999999999996896, -0.48820311382791415 
0.43999999999996786, -0.4881202566336005 
0.44999999999996676, -0.48804473707727575 
0.45999999999996566, -0.48794774097872173 
0.46999999999996456, -0.4878051282246978 
0.47999999999996346, -0.4876021396937717 
0.48999999999996235, -0.487333424565125 
0.49999999999996125, -0.48700018608880713 
0.5099999999999602, -0.486606980381796 
0.519999999999959, -0.4861598044891692 
0.529999999999958, -0.4856660110371684 
0.5399999999999568, -0.48513599690636794 
0.5499999999999557, -0.48458629274970927 
0.5599999999999546, -0.48404281210804384 
0.5699999999999535, -0.4835402112693152 
0.5799999999999524, -0.4831066613688826 
0.5899999999999513, -0.48271346821564765 
0.5999999999999502, -0.482171969834687 
0.6099999999999491, -0.48102603519057496 
0.619999999999948, -0.4786401827718282 
0.6299999999999469, -0.47466963460270534 
0.6399999999999458, -0.4695536877131736 
0.6499999999999447, -0.4643233325887827 
0.6599999999999436, -0.45988043531117073 
0.6699999999999425, -0.4565855192236915 
0.6799999999999414, -0.45436246672811065 
0.6899999999999403, -0.4529589689123389 
0.6999999999999392, -0.45211698173259895 
0.7099999999999381, -0.4516350085994776 
0.719999999999937, -0.45137356622896607 
0.7299999999999359, -0.45124201105760253 
0.7399999999999348, -0.4511835453529051 
0.7499999999999337, -0.45116350729420673 
0.7599999999999326, -0.4511615598525677 
0.7699999999999315, -0.45116716311193794 
0.7799999999999304, -0.4511775476869707 
0.7899999999999293, -0.4511973353593858 
0.7999999999999282, -0.45123863640939044 
0.8099999999999271, -0.45132002742549454 
0.819999999999926, -0.45146284180498164 
0.8299999999999249, -0.4516842432595142 
0.8399999999999238, -0.4519884887090213 
0.8499999999999227, -0.4523597936728083 
0.8599999999999216, -0.4527611463451152 
0.8699999999999205, -0.45314178989497167 
0.8799999999999194, -0.4534512061130969 
0.8899999999999183, -0.45365237174667444 
0.8999999999999172, -0.45372730430295444 
0.9099999999999161, -0.453673771739747 
0.919999999999915, -0.45349731040513586 
0.9299999999999139, -0.4532031228918984 
0.9399999999999128, -0.452789749365336 
0.9499999999999117, -0.4522438724146086 
0.9599999999999106, -0.4515342770756653 
0.9699999999999095, -0.45060222537980554 
0.9799999999999084, -0.44934472446536 
0.9899999999999073, -0.447587289179058 
0.9999999999999062, -0.44504891498923166 
1.0099999999999052, -0.4413265729334128 
1.019999999999904, -0.4359770271323603 
1.029999999999903, -0.4287874543497628 
1.039999999999902, -0.4201362035010128 
1.0499999999999008, -0.4110335614025484 
1.0599999999998997, -0.4026303057811885 
1.0699999999998986, -0.3956570279085741 
1.0799999999998975, -0.39028752287164403 
1.0899999999998964, -0.38634040180651424 
1.0999999999998953, -0.383513891461905 
1.1099999999998942, -0.3815195498081528 
1.119999999999893, -0.3801285438603418 
1.129999999999892, -0.37917476999160904 
1.1399999999998909, -0.3785437636939784 
1.1499999999998898, -0.37816009037258835 
1.1599999999998887, -0.37797730699797744 
1.1699999999998876, -0.37797117261776025 
1.1799999999998865, -0.37813574273189265 
1.1899999999998854, -0.37848177637069036 
1.1999999999998843, -0.3790368114713801 
1.2099999999998832, -0.3798459576849703 
1.219999999999882, -0.38097163442099574 
1.229999999999881, -0.3824889120675563 
1.2399999999998799, -0.3844709658678975 
1.2499999999998788, -0.38695828558794776 
1.2599999999998777, -0.38991133041534254 
1.2699999999998766, -0.39316637193355863 
1.2799999999998755, -0.39643930413252926 
1.2899999999998744, -0.39940963776115773 
1.2999999999998733, -0.4018432751839257 
1.3099999999998722, -0.40366047964507523 
1.319999999999871, -0.404910921602772 
1.32999999999987, -0.40570365753475024 
1.3399999999998689, -0.40614991844993187 
1.3499999999998678, -0.4063363384534707 
1.3599999999998666, -0.40631915798999174 
1.3699999999998655, -0.4061268086575701 
1.3799999999998644, -0.40576387886953214 
1.3899999999998633, -0.40521450807338233 
1.3999999999998622, -0.4044464700420841 
1.4099999999998611, -0.403419397631783 
1.41999999999986, -0.4021011957567177 
1.429999999999859, -0.40049268737822385 
1.4399999999998578, -0.3986500533408779 
1.4499999999998567, -0.39668583520488504 
1.4599999999998556, -0.394738875722637 
1.4699999999998545, -0.3929297540784205 
1.4799999999998534, -0.3913306224856329 
1.4899999999998523, -0.3899621036006237 
1.4999999999998512, -0.38880844038238577 
1.5099999999998501, -0.3878365384255563 
1.519999999999849, -0.3870106084643583 
1.529999999999848, -0.3863006682229978 
1.5399999999998468, -0.3856863318837956 
1.5499999999998457, -0.3851580764440739 
1.5599999999998446, -0.38471792265482196 
1.5699999999998435, -0.3843809716608055 
1.5799999999998424, -0.384178872738368 
1.5899999999998413, -0.3841661885158075 
1.5999999999998402, -0.38443065154806766 
1.6099999999998391, -0.3851079828024325 
1.619999999999838, -0.38639995389586834 
1.629999999999837, -0.3885875865845748 
1.6399999999998358, -0.3920142276778088 
1.6499999999998347, -0.3969838233961047 
1.6599999999998336, -0.4035105512586802 
1.6699999999998325, -0.4109817899695055 
1.6799999999998314, -0.4181178618219783 
1.6899999999998303, -0.4236269126144948 
1.6999999999998292, -0.4270565551763993 
1.709999999999828, -0.42884502955174364 
1.719999999999827, -0.4296971192700679 
1.729999999999826, -0.4301243595993459 
1.7399999999998248, -0.4303820312853646 
1.7499999999998237, -0.4305675954988037 
1.7599999999998226, -0.4307091464721486 
1.7699999999998215, -0.43081103498180334 
1.7799999999998204, -0.4308715749840781 
1.7899999999998193, -0.4308882906130934 
1.7999999999998182, -0.4308588856862423 
1.809999999999817, -0.4307814204610593 
1.819999999999816, -0.4306550896793106 
1.8299999999998149, -0.4304820940996792 
1.8399999999998138, -0.4302703719470375 
1.8499999999998127, -0.4300359909113989 
1.8599999999998116, -0.4298031745643792 
1.8699999999998105, -0.4296002830722482 
1.8799999999998094, -0.42945208396298373 
1.8899999999998083, -0.429371125606424 
1.8999999999998072, -0.4293520687544613 
1.909999999999806, -0.4293718643015506 
1.919999999999805, -0.4293962372418676 
1.9299999999998039, -0.4293897834289333 
1.9399999999998028, -0.4293248357646891 
1.9499999999998017, -0.4291852431743508 
1.9599999999998006, -0.42896472958331816 
1.9699999999997995, -0.4286622944882155 
1.9799999999997984, -0.42827728156557177 
1.9899999999997973, -0.4278052538673741 
1.9999999999997962, -0.4272342813548648 
2.0099999999998173, -0.42654013627823273 
2.0199999999998384, -0.4256776912744965 
2.0299999999998595, -0.4245638333241268 
2.0399999999998806, -0.4230448447181666 
2.0499999999999017, -0.4208438900383271 
2.059999999999923, -0.4175107480139622 
2.069999999999944, -0.41247172161402607 
2.079999999999965, -0.40534038282452994 
2.089999999999986, -0.3964276326878827 
2.100000000000007, -0.38688360466847155 
2.1100000000000283, -0.37808540859002 
2.1200000000000494, -0.3708918794183533 
2.1300000000000705, -0.3654748213107508 
2.1400000000000916, -0.3615926686087828 
2.1500000000001127, -0.3588843167422301 
2.160000000000134, -0.3570219151805333 
2.170000000000155, -0.3557554387100454 
2.180000000000176, -0.35490937614003487 
2.190000000000197, -0.3543663451992283 
2.2000000000002182, -0.3540511970179529 
2.2100000000002393, -0.3539192027733083 
2.2200000000002604, -0.3539484199452078 
2.2300000000002815, -0.35413547511708765 
2.2400000000003026, -0.35449394653744315 
2.2500000000003237, -0.3550545258512282 
2.260000000000345, -0.35586582304978626 
2.270000000000366, -0.3569937821343139 
2.280000000000387, -0.35851598677463103 
2.290000000000408, -0.3605049523570059 
2.3000000000004293, -0.36299417625201424 
2.3100000000004504, -0.3659287584838341 
2.3200000000004715, -0.3691252481652497 
2.3300000000004926, -0.37228826542950655 
2.3400000000005137, -0.3751071212171873 
2.3500000000005348, -0.3773755151872983 
2.360000000000556, -0.3790420163991624 
2.370000000000577, -0.38017155133551617 
2.380000000000598, -0.38087487001452613 
2.390000000000619, -0.38125759902496215 
2.4000000000006403, -0.381398980746834 
2.4100000000006614, -0.3813487636530064 
2.4200000000006825, -0.381130638704157 
2.4300000000007036, -0.3807465396145016 
2.4400000000007247, -0.3801807520136018 
2.450000000000746, -0.3794055722976951 
2.460000000000767, -0.37839173921098956 
2.470000000000788, -0.3771258982880719 
2.480000000000809, -0.3756315971535843 
2.49000000000083, -0.37398127654584107 
2.5000000000008513, -0.3722851728320259 
2.5100000000008724, -0.37065839061711875 
2.5200000000008935, -0.3691865748204254 
2.5300000000009146, -0.3679101154720853 
2.5400000000009357, -0.36682916024985873 
2.550000000000957, -0.3659189460572924 
2.560000000000978, -0.3651452057838143 
2.570000000000999, -0.3644749968540135 
2.58000000000102, -0.36388250922323 
2.5900000000010412, -0.36335124889300363 
2.6000000000010624, -0.362874446454528 
2.6100000000010835, -0.36245533996883594 
2.6200000000011046, -0.36210856952471737 
2.6300000000011257, -0.3618636012166186 
2.6400000000011468, -0.36177094003925886 
2.650000000001168, -0.36191158717824046 
2.660000000001189, -0.36240875154879065 
2.67000000000121, -0.3634357648292817 
2.680000000001231, -0.3652006811363889 
2.6900000000012523, -0.3678628597320784 
2.7000000000012734, -0.3713233151311444 
2.7100000000012945, -0.3749335008162954 
2.7200000000013156, -0.37748770847869645 
2.7300000000013367, -0.37794711973019013 
2.740000000001358, -0.37636145862010906 
2.750000000001379, -0.37374920435010983 
2.7600000000014, -0.3711533541076352 
2.770000000001421, -0.36909409585085273 
2.780000000001442, -0.3676501122782952 
2.7900000000014633, -0.3667082050295169 
2.8000000000014844, -0.36612186063559227 
2.8100000000015055, -0.3657704653606503 
2.8200000000015266, -0.3655693146856964 
2.8300000000015477, -0.3654635553741129 
2.840000000001569, -0.36541981448821015 
2.85000000000159, -0.36541967459988534 
2.860000000001611, -0.36545565664357615 
2.870000000001632, -0.36552935557742505 
2.8800000000016532, -0.3656510612270787 
2.8900000000016743, -0.36583989440798187 
2.9000000000016954, -0.36612307507621955 
2.9100000000017165, -0.36653265416171726 
2.9200000000017377, -0.3670982637509841 
2.9300000000017588, -0.367835518275849 
2.94000000000178, -0.3687321144834009 
2.950000000001801, -0.36973769136847573 
2.960000000001822, -0.37076665032509826 
2.970000000001843, -0.37171893998952665 
2.9800000000018643, -0.3725103308867902 
2.9900000000018854, -0.37309372313806144 
3.0000000000019065, -0.37346027412474336 
3.0100000000019276, -0.3736253568327047 
3.0200000000019487, -0.37361139270658883 
3.03000000000197, -0.37343499547328624 
3.040000000001991, -0.37309911304008603 
3.050000000002012, -0.37258770065065233 
3.060000000002033, -0.37186052714181955 
3.070000000002054, -0.37084753189151426 
3.0800000000020753, -0.3694457945504238 
3.0900000000020964, -0.3675285257597535 
3.1000000000021175, -0.3649817400845246 
3.1100000000021386, -0.36177650514530424 
3.1200000000021597, -0.3580452620615237 
3.130000000002181, -0.3540867581705033 
3.140000000002202, -0.3502609544840056 
3.150000000002223, -0.34684794667923724 
3.160000000002244, -0.3439782557100307 
3.1700000000022652, -0.3416536821230266 
3.1800000000022863, -0.33980560547238803 
3.1900000000023074, -0.33834447036887183 
3.2000000000023285, -0.33718746586853043 
3.2100000000023496, -0.33626951549549655 
3.2200000000023707, -0.3355455230978631 
3.230000000002392, -0.33498941215996436 
3.240000000002413, -0.334593004384068 
3.250000000002434, -0.3343663142310089 
3.260000000002455, -0.3343402145847105 
3.2700000000024763, -0.3345723233672649 
3.2800000000024974, -0.33515704482511344 
3.2900000000025185, -0.3362404401443507 
3.3000000000025396, -0.338038705833613 
3.3100000000025607, -0.34085237067265356 
3.3200000000025818, -0.34505108406314433 
3.330000000002603, -0.3509731831837484 
3.340000000002624, -0.35867070893162767 
3.350000000002645, -0.367550285780229 
3.360000000002666, -0.3762887882854624 
3.3700000000026873, -0.3834546142891011 
3.3800000000027084, -0.38839536153655835 
3.3900000000027295, -0.39139041356409704 
3.4000000000027506, -0.393096947554821 
3.4100000000027717, -0.39407258190089267 
3.420000000002793, -0.3946546166804409 
3.430000000002814, -0.3950169522867763 
3.440000000002835, -0.39524397674303335 
3.450000000002856, -0.39537675690363083 
3.460000000002877, -0.3954359041989599 
3.4700000000028983, -0.39543191207080913 
3.4800000000029194, -0.3953699940344853 
3.4900000000029405, -0.3952530440489742 
3.5000000000029616, -0.3950844652496327 
3.5100000000029827, -0.3948714773086086 
3.520000000003004, -0.39462840775730124 
3.530000000003025, -0.39437834083656503 
3.540000000003046, -0.39415112504547467 
3.550000000003067, -0.3939770253672817 
3.5600000000030882, -0.3938777752127407 
3.5700000000031094, -0.39385857669924784 
3.5800000000031305, -0.3939045710311054 
3.5900000000031516, -0.39398381162861296 
3.6000000000031727, -0.3940561629867661 
3.6100000000031938, -0.3940843418136081 
3.620000000003215, -0.3940418300157408 
3.630000000003236, -0.39391458876886615 
3.640000000003257, -0.39369749456620085 
3.650000000003278, -0.3933885250569469 
3.6600000000032993, -0.39298298642827895 
3.6700000000033204, -0.39246817464859557 
3.6800000000033415, -0.3918172483639834 
3.6900000000033626, -0.39097987969305026 
3.7000000000033837, -0.3898660499775724 
3.710000000003405, -0.38831878817178334 
3.720000000003426, -0.38607620802129655 
3.730000000003447, -0.3827455838971347 
3.740000000003468, -0.3778649013975008 
3.750000000003489, -0.3711586248709543 
3.7600000000035103, -0.3629234965568765 
3.7700000000035314, -0.3541270315052615 
3.7800000000035525, -0.34593292190796443 
3.7900000000035736, -0.33910143158165923 
3.8000000000035947, -0.3338234703129379 
3.810000000003616, -0.3299241890677648 
3.820000000003637, -0.32710697511443965 
3.830000000003658, -0.3250906002527559 
3.840000000003679, -0.32365496707308294 
3.8500000000037002, -0.32264310231578075 
3.8600000000037213, -0.32194957067313623 
3.8700000000037424, -0.32150805602357746 
3.8800000000037635, -0.3212820312237866 
3.8900000000037847, -0.32125912303502585 
3.9000000000038058, -0.3214488815283067 
3.910000000003827, -0.3218835913349365 
3.920000000003848, -0.3226217850893237 
3.930000000003869, -0.3237537466119729 
3.94000000000389, -0.32540683242389495 
3.9500000000039113, -0.3277447030543723 
3.9600000000039324, -0.3309472890538986 
3.9700000000039535, -0.33514986486906506 
3.9800000000039746, -0.3403260785855187 
3.9900000000039957, -0.34615516484005604 
4.000000000004016, -0.3520108291347594 
4.010000000003993, -0.3571914472082721 
4.02000000000397, -0.3612530086612997 
4.030000000003946, -0.3641401643457472 
4.040000000003923, -0.36605547044111364 
4.0500000000039, -0.36726719850341805 
4.0600000000038765, -0.36800060935654655 
4.070000000003853, -0.36841216889978745 
4.08000000000383, -0.3686001795399909 
4.090000000003807, -0.36862195540544423 
4.100000000003783, -0.3685075486242585 
4.11000000000376, -0.3682692383202331 
4.120000000003737, -0.3679087042557681 
4.130000000003713, -0.3674240904546797 
4.14000000000369, -0.36681828821820106 
4.150000000003667, -0.3661076010049678 
4.1600000000036434, -0.36532702895964675 
4.17000000000362, -0.36452746205768594 
4.180000000003597, -0.3637639391835509 
4.1900000000035735, -0.36308053449921796 
4.20000000000355, -0.36249974786870454 
4.210000000003527, -0.36202039998729074 
4.220000000003504, -0.36162283426504005 
4.23000000000348, -0.36127780343640037 
4.240000000003457, -0.36095535397864575 
4.250000000003434, -0.3606309609209209 
4.26000000000341, -0.3602878110749273 
4.270000000003387, -0.3599159290539893 
4.280000000003364, -0.3595097557249877 
4.2900000000033405, -0.3590655158237067 
4.300000000003317, -0.35857881134792513 
4.310000000003294, -0.3580418541639693 
4.320000000003271, -0.357438459893361 
4.330000000003247, -0.3567325877465489 
4.340000000003224, -0.3558419052153915 
4.350000000003201, -0.35458307112413623 
4.360000000003177, -0.3525836909596028 
4.370000000003154, -0.34921829864892995 
4.380000000003131, -0.3437668395552297 
4.390000000003107, -0.3359856693367763 
4.400000000003084, -0.32668521688357155 
4.410000000003061, -0.3174259770308205 
4.4200000000030375, -0.3095078984332082 
4.430000000003014, -0.303416943430308 
4.440000000002991, -0.29901695892265123 
4.450000000002968, -0.2959376771605928 
4.460000000002944, -0.29381110893771684 
4.470000000002921, -0.29235111587784623 
4.480000000002898, -0.2913576851822629 
4.490000000002874, -0.29069905521505107 
4.500000000002851, -0.29029294974148095 
4.510000000002828, -0.29009268469411115 
4.520000000002804, -0.2900785530409795 
4.530000000002781, -0.29025364214521765 
4.540000000002758, -0.29064325601874735 
4.5500000000027345, -0.29129729323803677 
4.560000000002711, -0.2922947318014457 
4.570000000002688, -0.2937481978251947 
4.580000000002665, -0.2958034342586416 
4.590000000002641, -0.2986222256817145 
4.600000000002618, -0.30232983336549957 
4.610000000002595, -0.3069128777013749 
4.620000000002571, -0.3121004814347725 
4.630000000002548, -0.31734690744759536 
4.640000000002525, -0.32202529643126404 
4.6500000000025015, -0.32572248875428716 
4.660000000002478, -0.32836798369104037 
4.670000000002455, -0.3301294530517408 
4.6800000000024315, -0.3312430986272247 
4.690000000002408, -0.3319122228827485 
4.700000000002385, -0.33228007438806706 
4.710000000002362, -0.33243739403678624 
4.720000000002338, -0.3324373486064935 
4.730000000002315, -0.3323081066178588 
4.740000000002292, -0.33206197437198953 
4.750000000002268, -0.33170270238498695 
4.760000000002245, -0.33123278066876133 
4.770000000002222, -0.33066143271539017 
4.7800000000021985, -0.33001177058679976 
4.790000000002175, -0.3293233192583983 
4.800000000002152, -0.32864657160513755 
4.810000000002129, -0.3280307057386026 
4.820000000002105, -0.32751045237456694 
4.830000000002082, -0.32709828276520647 
4.840000000002059, -0.32678410490813314 
4.850000000002035, -0.3265410374231984 
4.860000000002012, -0.3263344038189523 
