t, s[1].omega / s[0].omega 
0, -1.0099980634411434 
0.009999999999999995, -1.0097225208431164 
0.019999999999999934, -1.009464361865484 
0.029999999999999874, -1.0093803772927556 
0.04000000000000012, -1.0091722287114258 
0.050000000000000405, -1.008843443910596 
0.06000000000000069, -1.0086825571228 
0.07000000000000098, -1.0085483156949744 
0.08000000000000126, -1.0082479745134845 
0.09000000000000155, -1.0079518900329543 
0.10000000000000184, -1.007845872365688 
0.11000000000000212, -1.0076161069773681 
0.12000000000000241, -1.0072603573582573 
0.130000000000002, -1.007063801138192 
0.1400000000000009, -1.0069176973538634 
0.1499999999999998, -1.0065960437316503 
0.1599999999999987, -1.006263897458864 
0.1699999999999976, -1.0061396273154288 
0.1799999999999965, -1.0058972754586144 
0.1899999999999954, -1.005517919390783 
0.1999999999999943, -1.0052863433596568 
0.2099999999999932, -1.0051363991340398 
0.2199999999999921, -1.0048001234234378 
0.229999999999991, -1.0044354660028048 
0.2399999999999899, -1.0042941166208446 
0.2499999999999888, -1.0040495318742075 
0.2599999999999877, -1.0036529801831513 
0.2699999999999866, -1.003386976446897 
0.2799999999999855, -1.0032391620746135 
0.2899999999999844, -1.0028980074537668 
0.2999999999999833, -1.0025070826148028 
0.3099999999999822, -1.002347785019013 
0.3199999999999811, -1.0021115579051956 
0.32999999999998, -1.0017073513070576 
0.3399999999999789, -1.0014088581243838 
0.3499999999999778, -1.0012664983227175 
0.35999999999997667, -1.0009323398572092 
0.36999999999997557, -1.000524502045497 
0.37999999999997447, -1.0003452866053848 
0.38999999999997337, -1.0001268451863365 
0.39999999999997227, -0.9997269821241296 
0.40999999999997117, -0.9994005316715048 
0.41999999999997006, -0.9992640549548057 
0.42999999999996896, -0.9989493298262656 
0.43999999999996786, -0.9985365828361562 
0.44999999999996676, -0.9983357016275902 
0.45999999999996566, -0.9981420162753306 
0.46999999999996456, -0.9977596138371774 
0.47999999999996346, -0.997412936266831 
0.48999999999996235, -0.9972802401201718 
0.49999999999996125, -0.9969962041064457 
0.5099999999999602, -0.9965919268563863 
0.519999999999959, -0.9963692745619877 
0.529999999999958, -0.9962040735034402 
0.5399999999999568, -0.9958517703114972 
0.5499999999999557, -0.995495329246897 
0.5599999999999546, -0.9953628588842841 
0.5699999999999535, -0.9951182668947754 
0.5799999999999524, -0.9947356434023964 
0.5899999999999513, -0.9944937357063974 
0.5999999999999502, -0.994357462553646 
0.6099999999999491, -0.9940461254400177 
0.619999999999948, -0.9936916605566593 
0.6299999999999469, -0.9935559521022957 
0.6399999999999458, -0.9933565474309892 
0.6499999999999447, -0.9930073870242748 
0.6599999999999436, -0.9927513644775617 
0.6699999999999425, -0.9926419200594444 
0.6799999999999414, -0.992380085270606 
0.6899999999999403, -0.9920389508627918 
0.6999999999999392, -0.991897961701028 
0.7099999999999381, -0.9917467851774591 
0.719999999999937, -0.9914411487559779 
0.7299999999999359, -0.9911776931749178 
0.7399999999999348, -0.9910918225391041 
0.7499999999999337, -0.9908859864974078 
0.7599999999999326, -0.9905683409369341 
0.7699999999999315, -0.9904217713817434 
0.7799999999999304, -0.9903200601120759 
0.7899999999999293, -0.990066684875424 
0.7999999999999282, -0.9898024633982945 
0.8099999999999271, -0.9897372785222557 
0.819999999999926, -0.989592863461503 
0.8299999999999249, -0.9893081631885428 
0.8399999999999238, -0.9891564900673372 
0.8499999999999227, -0.9891049334658233 
0.8599999999999216, -0.9889122479389235 
0.8699999999999205, -0.9886531067239293 
0.8799999999999194, -0.9886067239367107 
0.8899999999999183, -0.9885294288366153 
0.8999999999999172, -0.9882877453919879 
0.9099999999999161, -0.9881305805537667 
0.919999999999915, -0.9881306776784275 
0.9299999999999139, -0.9880082479339877 
0.9399999999999128, -0.9877601708835675 
0.9499999999999117, -0.9877304763312041 
0.9599999999999106, -0.9877277780833958 
0.9699999999999095, -0.987541197000029 
0.9799999999999084, -0.9873762681582373 
0.9899999999999073, -0.9874310541031124 
0.9999999999999062, -0.9873913700602572 
1.0099999999999052, -0.9871629457689578 
1.019999999999904, -0.9871446650253684 
1.029999999999903, -0.9872272628449331 
1.039999999999902, -0.9871112419868534 
1.0499999999999008, -0.9869353988589883 
1.0599999999998997, -0.987048018106713 
1.0699999999998986, -0.9871084638631926 
1.0799999999998975, -0.9869132513488734 
1.0899999999998964, -0.9868951997155837 
1.0999999999998953, -0.9870777848539067 
1.1099999999998942, -0.9870528946033622 
1.119999999999893, -0.9868657636973418 
1.129999999999892, -0.9870345241374759 
1.1399999999998909, -0.9872190875679012 
1.1499999999998898, -0.9870765284187252 
1.1599999999998887, -0.9870416843692038 
1.1699999999998876, -0.9873412122269055 
1.1799999999998865, -0.9874352567042758 
1.1899999999998854, -0.9872440800372463 
1.1999999999998843, -0.9874551755800328 
1.2099999999998832, -0.9877946469085841 
1.219999999999882, -0.9877300425118665 
1.229999999999881, -0.9876601961141365 
1.2399999999998799, -0.9880886023530598 
1.2499999999998788, -0.9883378127347358 
1.2599999999998777, -0.9881597039965095 
1.2699999999998766, -0.9883828102650134 
1.2799999999998755, -0.9889105579518348 
1.2899999999998744, -0.988955147141091 
1.2999999999998733, -0.9888396203903862 
1.3099999999998722, -0.9893897857173269 
1.319999999999871, -0.9898359482012437 
1.32999999999987, -0.989695207890371 
1.3399999999998689, -0.9898879653851969 
1.3499999999998678, -0.9906268616413137 
1.3599999999998666, -0.9908164307461039 
1.3699999999998655, -0.9906600360981255 
1.3799999999998644, -0.9912919654201102 
1.3899999999998633, -0.991970716410981 
1.3999999999998622, -0.9918936665761532 
1.4099999999998611, -0.9920159545314565 
1.41999999999986, -0.9929553453406447 
1.429999999999859, -0.9933228239989375 
1.4399999999998578, -0.9931452282331608 
1.4499999999998567, -0.9937874924077749 
1.4599999999998556, -0.9947050765841872 
1.4699999999998545, -0.9947151381885508 
1.4799999999998534, -0.9947461301669434 
1.4899999999998523, -0.99582120265753 
1.4999999999998512, -0.9963799325435697 
1.5099999999998501, -0.9962057387410861 
1.519999999999849, -0.9967790747703534 
1.529999999999848, -0.9978864092571984 
1.5399999999998468, -0.9979978704314643 
1.5499999999998457, -0.9979431481274303 
1.5599999999998446, -0.9990414755127136 
1.5699999999998435, -0.9997649335454283 
1.5799999999998424, -0.9996135173926026 
1.5899999999998413, -1.000061677034092 
1.5999999999998402, -1.0012502768168554 
1.6099999999998391, -1.0014598898065195 
1.619999999999838, -1.0013424708893515 
1.629999999999837, -1.0023450671261436 
1.6399999999998358, -1.003160836029343 
1.6499999999998347, -1.0030419098091683 
1.6599999999998336, -1.003346580622555 
1.6699999999998325, -1.0044834239479563 
1.6799999999998314, -1.00476547776935 
1.6899999999998303, -1.0046106056197437 
1.6999999999998292, -1.0054369465966366 
1.709999999999828, -1.0062483579727164 
1.719999999999827, -1.0061618431446766 
1.729999999999826, -1.0063350009674785 
1.7399999999998248, -1.0073147461883971 
1.7499999999998237, -1.0076269338105188 
1.7599999999998226, -1.0074529428897157 
1.7699999999998215, -1.0080763179173728 
1.7799999999998204, -1.0087990863127987 
1.7899999999998193, -1.0087370706444208 
1.7999999999998182, -1.008803760208985 
1.809999999999817, -1.0095775049282474 
1.819999999999816, -1.0098756499524155 
1.8299999999998149, -1.0096925477738232 
1.8399999999998138, -1.0101261894144 
1.8499999999998127, -1.010712457227611 
1.8599999999998116, -1.010662508657487 
1.8699999999998105, -1.0106478551806641 
1.8799999999998094, -1.0112165656074574 
1.8899999999998083, -1.0114676581894972 
1.8999999999998072, -1.0112791802416556 
1.909999999999806, -1.0115542575843628 
1.919999999999805, -1.0119929717543803 
1.9299999999998039, -1.0119418408309722 
1.9399999999998028, -1.0118656331705482 
1.9499999999998017, -1.0122574123371701 
1.9599999999998006, -1.0124439862536696 
1.9699999999997995, -1.012249995430459 
1.9799999999997984, -1.0123998902667266 
1.9899999999997973, -1.0127035676684333 
1.9999999999997962, -1.012639910690372 
2.0099999999998173, -1.0125159181774515 
2.0199999999998384, -1.0127664698478593 
2.0299999999998595, -1.0128839212115064 
2.0399999999998806, -1.0126821662694785 
2.0499999999999017, -1.012735210403529 
2.059999999999923, -1.0129261981459503 
2.069999999999944, -1.0128417054690642 
2.079999999999965, -1.0126787324813822 
2.089999999999986, -1.012820883556358 
2.100000000000007, -1.0128725477460632 
2.1100000000000283, -1.0126597761176714 
2.1200000000000494, -1.012637400259704 
2.1300000000000705, -1.0127392311489054 
2.1400000000000916, -1.012628551746718 
2.1500000000001127, -1.0124317513079415 
2.160000000000134, -1.0124918230939595 
2.170000000000155, -1.0124849169772474 
2.180000000000176, -1.0122575658104962 
2.190000000000197, -1.0121748408908293 
2.2000000000002182, -1.012208404054488 
2.2100000000002393, -1.0120686114643125 
2.2200000000002604, -1.0118406171875842 
2.2300000000002815, -1.011838198758502 
2.2400000000003026, -1.0117814381558528 
2.2500000000003237, -1.011536121624062 
2.260000000000345, -1.011403013814574 
2.270000000000366, -1.0113855436736012 
2.280000000000387, -1.0112156927465703 
2.290000000000408, -1.0109575577272407 
2.3000000000004293, -1.0109064580088254 
2.3100000000004504, -1.0108090182360887 
2.3200000000004715, -1.0105429796257617 
2.3300000000004926, -1.0103656544803494 
2.3400000000005137, -1.0103108944116856 
2.3500000000005348, -1.0101118932346151 
2.360000000000556, -1.0098239422832063 
2.370000000000577, -1.0097333151095802 
2.380000000000598, -1.0096045416939738 
2.390000000000619, -1.0093161783693805 
2.4000000000006403, -1.009098205188735 
2.4100000000006614, -1.0090168275600715 
2.4200000000006825, -1.0087915969671808 
2.4300000000007036, -1.0084742908821267 
2.4400000000007247, -1.0083496277723596 
2.450000000000746, -1.0081989837548784 
2.460000000000767, -1.0078884728420525 
2.470000000000788, -1.0076319809393899 
2.480000000000809, -1.0075318839579435 
2.49000000000083, -1.0072856127986645 
2.5000000000008513, -1.0069404561923427 
2.5100000000008724, -1.0067844623647426 
2.5200000000008935, -1.0066213558203616 
2.5300000000009146, -1.0062913003683593 
2.5400000000009357, -1.005998168063529 
2.550000000000957, -1.0058845922282895 
2.560000000000978, -1.005624808592697 
2.570000000000999, -1.00525522585046 
2.58000000000102, -1.0050687131168012 
2.5900000000010412, -1.004902025768885 
2.6000000000010624, -1.0045579228618084 
2.6100000000010835, -1.004230999850706 
2.6200000000011046, -1.0041065863963572 
2.6300000000011257, -1.003842781974073 
2.6400000000011468, -1.0034547692578895 
2.650000000001168, -1.0032377019334602 
2.660000000001189, -1.0030750343705217 
2.67000000000121, -1.002725298035334 
2.680000000001231, -1.0023695064757336 
2.6900000000012523, -1.002234503938312 
2.7000000000012734, -1.0019772038336092 
2.7100000000012945, -1.00157950591102 
2.7200000000013156, -1.0013322392498583 
2.7300000000013367, -1.0011790690480016 
2.740000000001358, -1.0008344059048917 
2.750000000001379, -1.000457409202598 
2.7600000000014, -1.0003102317855068 
2.770000000001421, -1.0000696575727663 
2.780000000001442, -0.9996732971105705 
2.7900000000014633, -0.999397856924767 
2.8000000000014844, -0.9992569110295989 
2.8100000000015055, -0.9989290797732394 
2.8200000000015266, -0.9985411937583838 
2.8300000000015477, -0.9983794259781638 
2.840000000001569, -0.9981641214685646 
2.85000000000159, -0.9977813395251269 
2.860000000001611, -0.9974823716113836 
2.870000000001632, -0.9973535066876289 
2.8800000000016532, -0.9970537967604897 
2.8900000000016743, -0.9966670730107079 
2.9000000000016954, -0.9964887809414479 
2.9100000000017165, -0.9963046136885967 
2.9200000000017377, -0.9959475500155304 
2.9300000000017588, -0.9956324829255938 
2.94000000000178, -0.9955132559702383 
2.950000000001801, -0.9952511944001106 
2.960000000001822, -0.9948780501925892 
2.970000000001843, -0.9946829761355834 
2.9800000000018643, -0.994532776277372 
2.9900000000018854, -0.9942123489019656 
3.0000000000019065, -0.9938905611476047 
3.0100000000019276, -0.9937774422467144 
3.0200000000019487, -0.9935601410626591 
3.03000000000197, -0.993212198620635 
3.040000000001991, -0.9930022948265257 
3.050000000002012, -0.9928861873310467 
3.060000000002033, -0.9926115398731948 
3.070000000002054, -0.9922929210949898 
3.0800000000020753, -0.9921827169775893 
3.0900000000020964, -0.9920149759723711 
3.1000000000021175, -0.9917026109598411 
3.1100000000021386, -0.991481595477298 
3.1200000000021597, -0.9913979503963944 
3.130000000002181, -0.9911766051314953 
3.140000000002202, -0.9908704555008425 
3.150000000002223, -0.9907611594029708 
3.160000000002244, -0.9906461642096102 
3.1700000000022652, -0.9903788077188608 
3.1800000000022863, -0.990150968820589 
3.1900000000023074, -0.9900977306608054 
3.2000000000023285, -0.989936364925471 
3.2100000000023496, -0.9896514645580539 
3.2200000000023707, -0.9895418749309068 
3.230000000002392, -0.9894822492119483 
3.240000000002413, -0.9892692045590693 
3.250000000002434, -0.9890383073399449 
3.260000000002455, -0.9890140467606682 
3.2700000000024763, -0.9889196927190569 
3.2800000000024974, -0.9886655009420158 
3.2900000000025185, -0.988553727753686 
3.3000000000025396, -0.9885527423970333 
3.3100000000025607, -0.9884043564929406 
3.3200000000025818, -0.9881738021770431 
3.330000000002603, -0.9881773870269464 
3.340000000002624, -0.9881588448619438 
3.350000000002645, -0.987946990817604 
3.360000000002666, -0.9878288979523807 
3.3700000000026873, -0.9878914659421583 
3.3800000000027084, -0.9878206579947599 
3.3900000000027295, -0.9875954773337573 
3.4000000000027506, -0.9876236107007575 
3.4100000000027717, -0.9876928762416943 
3.420000000002793, -0.9875382953595296 
3.430000000002814, -0.9874073594820987 
3.440000000002835, -0.9875397514654063 
3.450000000002856, -0.987563841432979 
3.460000000002877, -0.9873536263396151 
3.4700000000028983, -0.987397096753906 
3.4800000000029194, -0.9875703988967723 
3.4900000000029405, -0.9874923741851185 
3.5000000000029616, -0.9873421433287319 
3.5100000000029827, -0.9875486356289941 
3.520000000003004, -0.9876910790494758 
3.530000000003025, -0.987511805083248 
3.540000000003046, -0.9875531593554095 
3.550000000003067, -0.9878503984375502 
3.5600000000030882, -0.9878739974736143 
3.5700000000031094, -0.9877031087318745 
3.5800000000031305, -0.9879786794382824 
3.5900000000031516, -0.9882696379293958 
3.6000000000031727, -0.9881433200534548 
3.6100000000031938, -0.9881588975970022 
3.620000000003215, -0.9885988769363817 
3.630000000003236, -0.9887561309527826 
3.640000000003257, -0.9885732517862128 
3.650000000003278, -0.9888953572861621 
3.6600000000032993, -0.9893687855683029 
3.6700000000033204, -0.9893221394443672 
3.6800000000033415, -0.9892895055846422 
3.6900000000033626, -0.9898781333184951 
3.7000000000033837, -0.9902064407284067 
3.710000000003405, -0.9900306122046658 
3.720000000003426, -0.9903574154386149 
3.730000000003447, -0.9910409637630674 
3.740000000003468, -0.9911038234443699 
3.750000000003489, -0.9910122588455944 
3.7600000000035103, -0.9917259086449721 
3.7700000000035314, -0.9922596501572185 
3.7800000000035525, -0.9921149606733421 
3.7900000000035736, -0.9923955148258935 
3.8000000000035947, -0.9932910123450982 
3.810000000003616, -0.9934920099146842 
3.820000000003637, -0.9933489760581606 
3.830000000003658, -0.9941256475539647 
3.840000000003679, -0.9948781954197103 
3.8500000000037002, -0.9947871041234917 
3.8600000000037213, -0.994980084387832 
3.8700000000037424, -0.9960416698517903 
3.8800000000037635, -0.9963976615724361 
3.8900000000037847, -0.9962243909522726 
3.9000000000038058, -0.9969774431705523 
3.910000000003827, -0.9979187236797726 
3.920000000003848, -0.9978969801108116 
3.930000000003869, -0.9979861286211382 
3.94000000000389, -0.9991163780836917 
3.9500000000039113, -0.9996174243894159 
3.9600000000039324, -0.9994372815233853 
3.9700000000039535, -1.000087577682397 
3.9800000000039746, -1.0011350319149617 
3.9900000000039957, -1.0011871562689703 
4.000000000004016, -1.0011820842744805 
4.010000000003993, -1.0022612292833706 
4.02000000000397, -1.0028621699960663 
4.030000000003946, -1.002691854954544 
4.040000000003923, -1.0031943163530297 
4.0500000000039, -1.0042342965708038 
4.0600000000038765, -1.004350074205092 
4.070000000003853, -1.0042738927713324 
4.08000000000383, -1.0052051701566054 
4.090000000003807, -1.0058356553872585 
4.100000000003783, -1.005682864387433 
4.11000000000376, -1.0060303417731165 
4.120000000003737, -1.006960486668498 
4.130000000003713, -1.0071161503160069 
4.14000000000369, -1.0069921479076978 
4.150000000003667, -1.0077284659821206 
4.1600000000036434, -1.0083178596852196 
4.17000000000362, -1.0081826848849746 
4.180000000003597, -1.0083924755425775 
4.1900000000035735, -1.0091533101589143 
4.20000000000355, -1.0093188044465018 
4.210000000003527, -1.0091639960626844 
4.220000000003504, -1.0097038645060927 
4.23000000000348, -1.0102030129089132 
4.240000000003457, -1.0100804302291087 
4.250000000003434, -1.0101784038970703 
4.26000000000341, -1.010756386421725 
4.270000000003387, -1.0109044588037601 
4.280000000003364, -1.0107290024126176 
4.2900000000033405, -1.0110969093102196 
4.300000000003317, -1.01148451983399 
4.310000000003294, -1.0113669162528214 
4.320000000003271, -1.0113776272124964 
4.330000000003247, -1.011789264941471 
4.340000000003224, -1.0119010294218465 
4.350000000003201, -1.011709909878911 
4.360000000003177, -1.0119383626746388 
4.370000000003154, -1.0122148517576774 
4.380000000003131, -1.012094107886215 
4.390000000003107, -1.0120370020076002 
4.400000000003084, -1.0123110660266057 
4.410000000003061, -1.0123767187083512 
4.4200000000030375, -1.012171566382594 
4.430000000003014, -1.0122909148349641 
4.440000000002991, -1.0124686522881825 
4.450000000002968, -1.0123374830194922 
4.460000000002944, -1.012226502880569 
4.470000000002921, -1.0123926001885306 
4.480000000002898, -1.0124093342062443 
4.490000000002874, -1.0121897675340936 
4.500000000002851, -1.0122243953327084 
4.510000000002828, -1.0123200692384906 
4.520000000002804, -1.0121726335893315 
4.530000000002781, -1.0120170996031768 
4.540000000002758, -1.0121006250170697 
4.5500000000027345, -1.0120700657264334 
4.560000000002711, -1.0118345956174326 
4.570000000002688, -1.0118024931467167 
4.580000000002665, -1.011832854777615 
4.590000000002641, -1.0116649049404711 
4.600000000002618, -1.0114706552294415 
4.610000000002595, -1.0114915182796334 
4.620000000002571, -1.0114178372519116 
4.630000000002548, -1.011164517250281 
4.640000000002525, -1.0110781569472298 
4.6500000000025015, -1.0110582723156545 
4.660000000002478, -1.0108671645302958 
4.670000000002455, -1.0106376261844756 
4.6800000000024315, -1.0106105830953194 
4.690000000002408, -1.0104994786255508 
4.700000000002385, -1.0102264652723196 
4.710000000002362, -1.0100939833213682 
4.720000000002338, -1.010036804467808 
4.730000000002315, -1.0098215940748063 
4.740000000002292, -1.0095587588230026 
4.750000000002268, -1.0094941829222752 
4.760000000002245, -1.0093524800057319 
4.770000000002222, -1.0090586112102504 
4.7800000000021985, -1.0088849599699017 
4.790000000002175, -1.008801366024371 
4.800000000002152, -1.0085630578979654 
4.810000000002129, -1.0082684225755503 
4.820000000002105, -1.0081730589911606 
4.830000000002082, -1.0080085771265623 
4.840000000002059, -1.0076940063976956 
4.850000000002035, -1.0074820482953446 
4.860000000002012, -1.007380898387446 
4.870000000001989, -1.0071227752466105 
4.880000000001965, -1.006798287900434 
4.890000000001942, -1.006675914448739 
4.900000000001919, -1.006497286473797 
4.9100000000018955, -1.0061641245724346 
4.920000000001872, -1.0059157373317027 
4.930000000001849, -1.0058037747204376 
