t, s[1].omega / s[0].omega 
0, -1.5799127558775992 
0.009999999999999995, -1.570907005244345 
0.019999999999999934, -1.5613483788300127 
0.029999999999999874, -1.551243468666751 
0.04000000000000012, -1.5405992350795028 
0.050000000000000405, -1.5294230039818884 
0.06000000000000069, -1.5177224639626794 
0.07000000000000098, -1.5055056631388286 
0.08000000000000126, -1.492781005750834 
0.09000000000000155, -1.479557248476283 
0.10000000000000184, -1.465843496437718 
0.11000000000000212, -1.4516491988813696 
0.12000000000000241, -1.4369841445040883 
0.130000000000002, -1.4218584564066352 
0.1400000000000009, -1.4062825866526483 
0.1499999999999998, -1.3902673104138965 
0.1599999999999987, -1.373823719683981 
0.1699999999999976, -1.3569632165443157 
0.1799999999999965, -1.339697505968158 
0.1899999999999954, -1.3220385881504908 
0.1999999999999943, -1.3039987503538144 
0.2099999999999932, -1.285590558262264 
0.2199999999999921, -1.266826846838995 
0.229999999999991, -1.2477207106843822 
0.2399999999999899, -1.2282854938953172 
0.2499999999999888, -1.2085347794286765 
0.2599999999999877, -1.188482377974888 
0.2699999999999866, -1.1681423163504363 
0.2799999999999855, -1.1475288254210068 
0.2899999999999844, -1.1266563275699242 
0.2999999999999833, -1.1055394237293634 
0.3099999999999822, -1.0841928799946325 
0.3199999999999811, -1.062631613844567 
0.32999999999998, -1.0408706799937 
0.3399999999999789, -1.0189252559043758 
0.3499999999999778, -0.9968106269893336 
0.35999999999997667, -0.9745421715375165 
0.36999999999997557, -0.9521353453978112 
0.37999999999997447, -0.9296056664573008 
0.38999999999997337, -0.9069686989521616 
0.39999999999997227, -0.884240037650702 
0.40999999999997117, -0.8614352919491687 
0.41999999999997006, -0.838570069921788 
0.42999999999996896, -0.8156599623671188 
0.43999999999996786, -0.7927205268931156 
0.44999999999996676, -0.7697672720833691 
0.45999999999996566, -0.7468156417867701 
0.46999999999996456, -0.7238809995723645 
0.47999999999996346, -0.7009786133904414 
0.48999999999996235, -0.6781236404798607 
0.49999999999996125, -0.6553311125604177 
0.5099999999999602, -0.6326159213475443 
0.519999999999959, -0.6099928044249203 
0.529999999999958, -0.5874763315087014 
0.5399999999999568, -0.5650808911349225 
0.5499999999999557, -0.5428206777994018 
0.5599999999999546, -0.5207096795770066 
0.5699999999999535, -0.4987616662446355 
0.5799999999999524, -0.4769901779295622 
0.5899999999999513, -0.45540851430206475 
0.5999999999999502, -0.4340297243284411 
0.6099999999999491, -0.4128665965976505 
0.619999999999948, -0.3919316502319535 
0.6299999999999469, -0.37123712638903794 
0.6399999999999458, -0.35079498036027845 
0.6499999999999447, -0.3306168742669579 
0.6599999999999436, -0.31071417035354326 
0.6699999999999425, -0.2910979248744413 
0.6799999999999414, -0.27177888256809507 
0.6899999999999403, -0.2527674717098302 
0.6999999999999392, -0.2340737997325395 
0.7099999999999381, -0.2157076494021031 
0.719999999999937, -0.19767847553242424 
0.7299999999999359, -0.17999540222307578 
0.7399999999999348, -0.16266722060085603 
0.7499999999999337, -0.14570238704502653 
0.7599999999999326, -0.12910902187464934 
0.7699999999999315, -0.11289490847527765 
0.7799999999999304, -0.09706749284126717 
0.7899999999999293, -0.08163388350917304 
0.7999999999999282, -0.06660085185707885 
0.8099999999999271, -0.051974832744259195 
0.819999999999926, -0.03776192546531435 
0.8299999999999249, -0.023967894992817353 
0.8399999999999238, -0.010598173482582305 
0.8499999999999227, 0.0000458793684828156 
0.8599999999999216, -0.0000026255409456241467 
0.8699999999999205, 0.000042633185477289225 
0.8799999999999194, 0.000010574410750119902 
0.8899999999999183, 0.00002077987123689904 
0.8999999999999172, 0.000018427278310901392 
0.9099999999999161, 0.000006825113193336538 
0.919999999999915, -0.000010720677181486866 
0.9299999999999139, -0.000030906742719114406 
0.9399999999999128, 0.00000770125873297408 
0.9499999999999117, -0.000007863246119677851 
0.9599999999999106, -0.00001616885891988859 
0.9699999999999095, -0.000013919141220404979 
0.9799999999999084, 0.000002181354443453466 
0.9899999999999073, -0.00002270615369686745 
0.9999999999999062, -0.00002715416801259516 
1.0099999999999052, -0.00000786894796160137 
1.019999999999904, -0.000019690409656989652 
1.029999999999903, -0.000001191852061917956 
1.039999999999902, -0.000007211690710489813 
1.0499999999999008, -0.000005387836495146196 
1.0599999999998997, -0.000050556645629845534 
1.0699999999998986, -0.000052220715222537274 
1.0799999999998975, -0.000007082424897783244 
1.0899999999998964, -0.000028111050578825635 
1.0999999999998953, -0.000024807975243491434 
1.1099999999998942, -0.000022937418719572382 
1.119999999999893, -0.00001919377089374484 
1.129999999999892, -0.00006840229884870669 
1.1399999999998909, -0.00002192090707759224 
1.1499999999998898, -0.00005083979735720898 
1.1599999999998887, -0.0000065103683260926316 
1.1699999999998876, -0.0000018810966589605955 
1.1799999999998865, -0.000004570746034730293 
1.1899999999998854, -0.0000112608158511725 
1.1999999999998843, -0.0002511477606697411 
1.2099999999998832, -0.0008079619561343076 
1.219999999999882, -0.0016780471287967873 
1.229999999999881, -0.0028575621643607404 
1.2399999999998799, -0.0043424841649957555 
1.2499999999998788, -0.006128611587150407 
1.2599999999998777, -0.008211567464119964 
1.2699999999998766, -0.010586802717599143 
1.2799999999998755, -0.013249599562377855 
1.2899999999998744, -0.01619507500821982 
1.2999999999998733, -0.019418184462800837 
1.3099999999998722, -0.022913725439375924 
1.319999999999871, -0.02667634137259482 
1.32999999999987, -0.030700525545593497 
1.3399999999998689, -0.03498062513115877 
1.3499999999998678, -0.039510845349394336 
1.3599999999998666, -0.044285253743912775 
1.3699999999998655, -0.049297784578141886 
1.3799999999998644, -0.054542243352865644 
1.3899999999998633, -0.0600123114456275 
1.3999999999998622, -0.06570155087210348 
1.4099999999998611, -0.07160340916901367 
1.41999999999986, -0.07771122439758336 
1.429999999999859, -0.08401823026599188 
1.4399999999998578, -0.0905175613686655 
1.4499999999998567, -0.0972022585396811 
1.4599999999998556, -0.10406527431695248 
1.4699999999998545, -0.11109947851327923 
1.4799999999998534, -0.11829766388974952 
1.4899999999998523, -0.1256525519264059 
1.4999999999998512, -0.13315679868451405 
1.5099999999998501, -0.14080300075422078 
1.519999999999849, -0.1485837012808504 
1.529999999999848, -0.1564913960625762 
1.5399999999998468, -0.1645185397117153 
1.5499999999998457, -0.17265755187143766 
1.5599999999998446, -0.18090082347924652 
1.5699999999998435, -0.18924072306820192 
1.5799999999998424, -0.19766960309649623 
1.5899999999998413, -0.20617980629567448 
1.5999999999998402, -0.21476367202751656 
1.6099999999998391, -0.2234135426393649 
1.619999999999838, -0.23212176980748772 
1.629999999999837, -0.24088072085792703 
1.6399999999998358, -0.24968278505418362 
1.6499999999998347, -0.25852037984103327 
1.6599999999998336, -0.2673859570337697 
1.6699999999998325, -0.276272008942207 
1.6799999999998314, -0.28517107441886624 
1.6899999999998303, -0.29407574482090026 
1.6999999999998292, -0.3029786698754903 
1.709999999999828, -0.3118725634386694 
1.719999999999827, -0.32075020913778984 
1.729999999999826, -0.32960446588815395 
1.7399999999998248, -0.33842827327466757 
1.7499999999998237, -0.34721465678975144 
1.7599999999998226, -0.3559567329191515 
1.7699999999998215, -0.3646477140677355 
1.7799999999998204, -0.37328091331782104 
1.7899999999998193, -0.3818497490130737 
1.7999999999998182, -0.3903477491615331 
1.809999999999817, -0.39876855565184677 
1.819999999999816, -0.4071059282773473 
1.8299999999998149, -0.4153537485631603 
1.8399999999998138, -0.4235060233921069 
1.8499999999998127, -0.43155688842573536 
1.8599999999998116, -0.43950061131739676 
1.8699999999998105, -0.44733159471485306 
1.8799999999998094, -0.4550443790504947 
1.8899999999998083, -0.4626336451177984 
1.8999999999998072, -0.4700942164332313 
1.909999999999806, -0.4774210613833559 
1.919999999999805, -0.4846092951574237 
1.9299999999998039, -0.491654181466277 
1.9399999999998028, -0.4985511340488798 
1.9499999999998017, -0.5052957179682871 
1.9599999999998006, -0.5118836506993271 
1.9699999999997995, -0.5183108030107214 
1.9799999999997984, -0.524573199644776 
1.9899999999997973, -0.5306670197981889 
1.9999999999997962, -0.5365885974078733 
2.0099999999998173, -0.5423344212460589 
2.0199999999998384, -0.5479011348292288 
2.0299999999998595, -0.5532855361457657 
2.0399999999998806, -0.5584845772074198 
2.0499999999999017, -0.5634953634299654 
2.059999999999923, -0.568315152848615 
2.069999999999944, -0.5729413551739394 
2.079999999999965, -0.5773715306941987 
2.089999999999986, -0.5816033890301299 
2.100000000000007, -0.5856347877483253 
2.1100000000000283, -0.589463730839424 
2.1200000000000494, -0.5930883670674028 
2.1300000000000705, -0.5965069881962674 
2.1400000000000916, -0.5997180271004855 
2.1500000000001127, -0.602720055765467 
2.160000000000134, -0.6055117831843885 
2.170000000000155, -0.608092053157609 
2.180000000000176, -0.6104598420008599 
2.190000000000197, -0.6126142561683148 
2.2000000000002182, -0.6145545297965537 
2.2100000000002393, -0.6162800221753291 
2.2200000000002604, -0.6177902151509274 
2.2300000000002815, -0.6190847104677802 
2.2400000000003026, -0.6201632270538576 
2.2500000000003237, -0.6210255982552139 
2.260000000000345, -0.6216717690249126 
2.270000000000366, -0.6221017930713852 
2.280000000000387, -0.6223158299711306 
2.290000000000408, -0.622314142250472 
2.3000000000004293, -0.6220970924409254 
2.3100000000004504, -0.6216651401125657 
2.3200000000004715, -0.6210188388895733 
2.3300000000004926, -0.6201588334520041 
2.3400000000005137, -0.6190858565276051 
2.3500000000005348, -0.61780072587736 
2.360000000000556, -0.6163043412782465 
2.370000000000577, -0.6145976815065256 
2.380000000000598, -0.612681801324705 
2.390000000000619, -0.6105578284751594 
2.4000000000006403, -0.6082269606832166 
2.4100000000006614, -0.6056904626723597 
2.4200000000006825, -0.6029496631940366 
2.4300000000007036, -0.6000059520744304 
2.4400000000007247, -0.5968607772803632 
2.450000000000746, -0.5935156420064043 
2.460000000000767, -0.5899721017850728 
2.470000000000788, -0.5862317616219316 
2.480000000000809, -0.5822962731572102 
2.49000000000083, -0.5781673318554871 
2.5000000000008513, -0.5738466742248449 
2.5100000000008724, -0.5693360750667923 
2.5200000000008935, -0.5646373447581426 
2.5300000000009146, -0.5597523265659455 
2.5400000000009357, -0.5546828939964557 
2.550000000000957, -0.5494309481790511 
2.560000000000978, -0.5439984152859081 
2.570000000000999, -0.5383872439881711 
2.58000000000102, -0.5325994029492798 
2.5900000000010412, -0.5266368783560337 
2.6000000000010624, -0.5205016714879188 
2.6100000000010835, -0.5141957963251524 
2.6200000000011046, -0.5077212771958406 
2.6300000000011257, -0.5010801464626019 
2.6400000000011468, -0.4942744422489405 
2.650000000001168, -0.48730620620562487 
2.660000000001189, -0.48017748131727267 
2.67000000000121, -0.4728903097493073 
2.680000000001231, -0.4654467307354197 
2.6900000000012523, -0.4578487785056299 
2.7000000000012734, -0.45009848025501525 
2.7100000000012945, -0.44219785415315316 
2.7200000000013156, -0.4341489073942897 
2.7300000000013367, -0.4259536342882386 
2.740000000001358, -0.41761401439198725 
2.750000000001379, -0.4091320106819776 
2.7600000000014, -0.40050956776701235 
2.770000000001421, -0.39174861014173173 
2.780000000001442, -0.3828510404805943 
2.7900000000014633, -0.37381873797229304 
2.8000000000014844, -0.3646535566945316 
2.8100000000015055, -0.3553573240290863 
2.8200000000015266, -0.3459318391170857 
2.8300000000015477, -0.33637887135443406 
2.840000000001569, -0.32670015892731624 
2.85000000000159, -0.316897407387731 
2.860000000001611, -0.3069722882690058 
2.870000000001632, -0.2969264377412621 
2.8800000000016532, -0.2867614553068114 
2.8900000000016743, -0.27647890253548 
2.9000000000016954, -0.26608030183988507 
2.9100000000017165, -0.2555671352906941 
2.9200000000017377, -0.24494084347193504 
2.9300000000017588, -0.23420282437644413 
2.94000000000178, -0.22335443234156813 
2.950000000001801, -0.21239697702527022 
2.960000000001822, -0.20133172242281913 
2.970000000001843, -0.19015988592427976 
2.9800000000018643, -0.17888263741306132 
2.9900000000018854, -0.16750109840582147 
3.0000000000019065, -0.1560163412340659 
3.0100000000019276, -0.14442938826783622 
3.0200000000019487, -0.1327412111819219 
3.03000000000197, -0.12095273026509176 
3.040000000001991, -0.10906481377289272 
3.050000000002012, -0.0970782773246246 
3.060000000002033, -0.08499388334516383 
3.070000000002054, -0.07281234055237254 
3.0800000000020753, -0.060534303490902094 
3.0900000000020964, -0.04816037211327129 
3.1000000000021175, -0.035691091409177325 
3.1100000000021386, -0.023126951084077793 
3.1200000000021597, -0.01046838528816531 
3.130000000002181, 0.000046096161114421575 
3.140000000002202, 0.000045516756875160286 
3.150000000002223, 0.00002449376444218145 
3.160000000002244, 0.00001383662381755021 
3.1700000000022652, 0.00001528935450333712 
3.1800000000022863, 0.0000015310240478562977 
3.1900000000023074, 0.0000033762317531183977 
3.2000000000023285, 0.0000516420443279584 
3.2100000000023496, 0.000002748320663708485 
3.2200000000023707, 0.000003784832745844437 
3.230000000002392, 0.00005651160465893101 
3.240000000002413, 0.00001735925927729203 
3.250000000002434, 0.0000043626319248144465 
3.260000000002455, 0.00001929449210611965 
3.2700000000024763, 0.000005799250937727841 
3.2800000000024974, 0.000023793309520239396 
3.2900000000025185, 0.000016932095600196958 
3.3000000000025396, 0.000016077717289507628 
3.3100000000025607, 0.000023031267233299996 
3.3200000000025818, 0.00003960127577143134 
3.330000000002603, 0.0000676033267329338 
3.340000000002624, 0.000021660751328527167 
3.350000000002645, 0.00004893841722484614 
3.360000000002666, 0.000005943641292287418 
3.3700000000026873, 0.0000689270895462115 
3.3800000000027084, 0.00003628111639078854 
3.3900000000027295, 0.000026140664928243122 
3.4000000000027506, 0.000011318985432263078 
3.4100000000027717, 0.00002277338340764034 
3.420000000002793, 0.000004271368555612805 
3.430000000002814, 0.000015859550157297586 
3.440000000002835, 0.0000013296966852205275 
3.450000000002856, 0.000020752671438377768 
3.460000000002877, 0.00007607948956687439 
3.4700000000028983, 0.000023941157440834356 
3.4800000000029194, 0.000011649558142860695 
3.4900000000029405, 0.00007026517677446276 
3.5000000000029616, 0.00005646057860524365 
3.5100000000029827, 0.00020478998789479533 
3.520000000003004, 0.0005172796172364844 
3.530000000003025, 0.0009959584790584504 
3.540000000003046, 0.001642859889572031 
3.550000000003067, 0.002460022992168508 
3.5600000000030882, 0.0034494942993503817 
3.5700000000031094, 0.004613329252216312 
3.5800000000031305, 0.005953593796445272 
3.5900000000031516, 0.00747236597364539 
3.6000000000031727, 0.00917173752684577 
3.6100000000031938, 0.011053815518814679 
3.620000000003215, 0.013120723961784422 
3.630000000003236, 0.015374605457051469 
3.640000000003257, 0.017817622842799023 
3.650000000003278, 0.020451960848358503 
3.6600000000032993, 0.023279827752984247 
3.6700000000033204, 0.026303457047062967 
3.6800000000033415, 0.029525109093514627 
3.6900000000033626, 0.032947072786963315 
3.7000000000033837, 0.03657166720806565 
3.710000000003405, 0.040401243270179264 
3.720000000003426, 0.04443818535533258 
3.730000000003447, 0.04868491293622097 
3.740000000003468, 0.053143882180701374 
3.750000000003489, 0.05781758753498624 
3.7600000000035103, 0.06270856328144735 
3.7700000000035314, 0.06781938506663278 
3.7800000000035525, 0.0731526713947678 
3.7900000000035736, 0.07871108508166279 
3.8000000000035947, 0.08449733466357383 
3.810000000003616, 0.09051417575516757 
3.820000000003637, 0.09676441235031948 
3.830000000003658, 0.10325089805902692 
3.840000000003679, 0.10997653727324688 
3.8500000000037002, 0.1169442862539664 
3.8600000000037213, 0.12415715413128726 
3.8700000000037424, 0.13161820380874642 
3.8800000000037635, 0.13933055276251124 
3.8900000000037847, 0.1472973737254658 
3.9000000000038058, 0.155521895245565 
3.910000000003827, 0.16400740210714657 
3.920000000003848, 0.17275723560318673 
3.930000000003869, 0.1817747936457436 
3.94000000000389, 0.19106353070105955 
3.9500000000039113, 0.20062695753499468 
3.9600000000039324, 0.21046864075362653 
3.9700000000039535, 0.22059220212300062 
3.9800000000039746, 0.23100131765112095 
3.9900000000039957, 0.2416997164143638 
4.000000000004016, 0.2526911791095669 
4.010000000003993, 0.263979536312087 
4.02000000000397, 0.27556866641916544 
4.030000000003946, 0.28746249325694717 
4.040000000003923, 0.2996649833285328 
4.0500000000039, 0.31218014267945116 
4.0600000000038765, 0.3250120133559783 
4.070000000003853, 0.33816466943075724 
4.08000000000383, 0.3516422125692664 
4.090000000003807, 0.3654487671097676 
4.100000000003783, 0.37958847462854384 
4.11000000000376, 0.39406548796143814 
4.120000000003737, 0.40888396465201504 
4.130000000003713, 0.42404805979605226 
4.14000000000369, 0.43956191825158003 
4.150000000003667, 0.4554296661833126 
4.1600000000036434, 0.47165540191013117 
4.17000000000362, 0.4882431860242343 
4.180000000003597, 0.5051970307507608 
4.1900000000035735, 0.522520888517109 
4.20000000000355, 0.540218639701855 
4.210000000003527, 0.5582940795341501 
4.220000000003504, 0.5767509041157973 
4.23000000000348, 0.5955926955398734 
4.240000000003457, 0.6148229060818656 
4.250000000003434, 0.6344448414418026 
4.26000000000341, 0.6544616430188867 
4.270000000003387, 0.6748762692036715 
4.280000000003364, 0.6956914756769252 
4.2900000000033405, 0.7169097947090446 
4.300000000003317, 0.7385335134592201 
4.310000000003294, 0.7605646512796045 
4.320000000003271, 0.783004936036488 
4.330000000003247, 0.8058557794679542 
4.340000000003224, 0.8291182516057981 
4.350000000003201, 0.8527930542985055 
4.360000000003177, 0.8768804938819632 
4.370000000003154, 0.9013804530552197 
4.380000000003131, 0.9262923620300533 
4.390000000003107, 0.9516151690353147 
4.400000000003084, 0.977347310269955 
4.410000000003061, 1.0034866794122488 
4.4200000000030375, 1.0300305968069547 
4.430000000003014, 1.056975778466872 
4.440000000002991, 1.0843183050404015 
4.450000000002968, 1.1120535909120832 
4.460000000002944, 1.1401763536186202 
4.470000000002921, 1.1686805837783045 
4.480000000002898, 1.1975595157469077 
4.490000000002874, 1.226805599227726 
4.500000000002851, 1.2564104720773284 
4.510000000002828, 1.2863649345613781 
4.520000000002804, 1.316658925326335 
4.530000000002781, 1.3472814993626856 
4.540000000002758, 1.3782208082431855 
4.5500000000027345, 1.4094640829250602 
4.560000000002711, 1.4409976194080574 
4.570000000002688, 1.4728067675401006 
4.580000000002665, 1.5048759232589195 
4.590000000002641, 1.537188524551088 
4.600000000002618, 1.569727051399101 
4.610000000002595, 1.6024730299723218 
4.620000000002571, 1.6354070412985193 
4.630000000002548, 1.6685087346294216 
4.640000000002525, 1.7017568456859473 
4.6500000000025015, 1.7351292199367778 
4.660000000002478, 1.7686028410277157 
4.670000000002455, 1.8021538644391404 
4.6800000000024315, 1.8357576564050453 
4.690000000002408, 1.8693888380801864 
4.700000000002385, 1.9030213348920915 
4.710000000002362, 1.9366284309628852 
4.720000000002338, 1.9701828284326348 
4.730000000002315, 2.0036567114620047 
4.740000000002292, 2.0370218146382704 
4.750000000002268, 2.070249495456065 
4.760000000002245, 2.103310810493456 
4.770000000002222, 2.13617659485602 
4.7800000000021985, 2.1688175444173945 
4.790000000002175, 2.201204300345234 
4.800000000002152, 2.2333075353671643 
4.810000000002129, 2.265098041203274 
4.820000000002105, 2.296546816570169 
4.830000000002082, 2.327625155147339 
