t, s[1].omega / s[0].omega 
0, -0.7299976801341308 
0.009999999999999995, -0.7297468458420331 
0.019999999999999934, -0.7294563184225564 
0.029999999999999874, -0.729120759629761 
0.04000000000000012, -0.7287359622574623 
0.050000000000000405, -0.7283027512646015 
0.06000000000000069, -0.7278290733122289 
0.07000000000000098, -0.7273305630336326 
0.08000000000000126, -0.7268309093312675 
0.09000000000000155, -0.7263630244223944 
0.10000000000000184, -0.7259710386673509 
0.11000000000000212, -0.725712256086708 
0.12000000000000241, -0.72565774806977 
0.130000000000002, -0.7258903483879009 
0.1400000000000009, -0.726499414228096 
0.1499999999999998, -0.7275725061694625 
0.1599999999999987, -0.7291844777203565 
0.1699999999999976, -0.7313838928889276 
0.1799999999999965, -0.7341757171634643 
0.1899999999999954, -0.7374998458546992 
0.1999999999999943, -0.7412101222364624 
0.2099999999999932, -0.7450684946370243 
0.2199999999999921, -0.7487753371088319 
0.229999999999991, -0.752042265309571 
0.2399999999999899, -0.7546761132127437 
0.2499999999999888, -0.7566210397970293 
0.2599999999999877, -0.7579365193673147 
0.2699999999999866, -0.7587394475469309 
0.2799999999999855, -0.7591517103062766 
0.2899999999999844, -0.759271711371226 
0.2999999999999833, -0.7591660183800514 
0.3099999999999822, -0.7588708597702777 
0.3199999999999811, -0.7583960992272856 
0.32999999999998, -0.7577285289214222 
0.3399999999999789, -0.7568342118906192 
0.3499999999999778, -0.7556614634094148 
0.35999999999997667, -0.7541474988188548 
0.36999999999997557, -0.752232444287607 
0.37999999999997447, -0.7498825863489084 
0.38999999999997337, -0.7471191200859024 
0.39999999999997227, -0.7440439703135112 
0.40999999999997117, -0.7408595260337804 
0.41999999999997006, -0.7378778764874997 
0.42999999999996896, -0.735473681632569 
0.43999999999996786, -0.7339345720204082 
0.44999999999996676, -0.7333051130649119 
0.45999999999996566, -0.7333852751714957 
0.46999999999996456, -0.733871309136636 
0.47999999999996346, -0.734495705294515 
0.48999999999996235, -0.7350855830222391 
0.49999999999996125, -0.7355552976652753 
0.5099999999999602, -0.7358752887318816 
0.519999999999959, -0.7360428803058701 
0.529999999999958, -0.7360624263898247 
0.5399999999999568, -0.7359334838916113 
0.5499999999999557, -0.7356438087513 
0.5599999999999546, -0.7351649509213103 
0.5699999999999535, -0.7344502167115297 
0.5799999999999524, -0.7334372384626999 
0.5899999999999513, -0.7320594433009184 
0.5999999999999502, -0.7302695029550184 
0.6099999999999491, -0.7280697877001467 
0.619999999999948, -0.7255328782585109 
0.6299999999999469, -0.7227937975731352 
0.6399999999999458, -0.7200144236157596 
0.6499999999999447, -0.7173422646436026 
0.6599999999999436, -0.7148858011274182 
0.6699999999999425, -0.7127109796424079 
0.6799999999999414, -0.7108498838528239 
0.6899999999999403, -0.7093114735949735 
0.6999999999999392, -0.7080893456586581 
0.7099999999999381, -0.7071660002342242 
0.719999999999937, -0.7065151148728155 
0.7299999999999359, -0.7061034660592631 
0.7399999999999348, -0.7058934041962243 
0.7499999999999337, -0.7058459100548553 
0.7599999999999326, -0.7059236912110608 
0.7699999999999315, -0.7060936919519469 
0.7799999999999304, -0.7063286708288626 
0.7899999999999293, -0.706607829878904 
0.7999999999999282, -0.70691655643403 
0.8099999999999271, -0.7072451039056094 
0.819999999999926, -0.7075858252056182 
0.8299999999999249, -0.7079289803402611 
0.8399999999999238, -0.7082584214973796 
0.8499999999999227, -0.7085497828780254 
0.8599999999999216, -0.7087734678252958 
0.8699999999999205, -0.7089019206957587 
0.8799999999999194, -0.708917306117359 
0.8899999999999183, -0.7088152499732548 
0.8999999999999172, -0.708603498594314 
0.9099999999999161, -0.7082979688403732 
0.919999999999915, -0.7079196487452568 
0.9299999999999139, -0.7074945641184003 
0.9399999999999128, -0.7070575575287716 
0.9499999999999117, -0.7066598840568107 
0.9599999999999106, -0.7063802451654201 
0.9699999999999095, -0.7063380830701268 
0.9799999999999084, -0.7067061613058281 
0.9899999999999073, -0.7077164733782373 
0.9999999999999062, -0.7096496694439798 
1.0099999999999052, -0.7127947024355885 
1.019999999999904, -0.7173660055223889 
1.029999999999903, -0.723379504867532 
1.039999999999902, -0.7305286865397971 
1.0499999999999008, -0.7381575928590082 
1.0599999999998997, -0.7454254279201595 
1.0699999999998986, -0.7516172382274405 
1.0799999999998975, -0.7563866376499304 
1.0899999999998964, -0.7597661903674593 
1.0999999999998953, -0.7620060396342548 
1.1099999999998942, -0.7634040519997414 
1.119999999999893, -0.7642122701225761 
1.129999999999892, -0.7646110346110595 
1.1399999999998909, -0.7647152101688562 
1.1499999999998898, -0.7645878351725882 
1.1599999999998887, -0.7642505989229329 
1.1699999999998876, -0.7636879971382642 
1.1799999999998865, -0.7628445239493666 
1.1899999999998854, -0.7616149276847408 
1.1999999999998843, -0.7598289684921868 
1.2099999999998832, -0.7572373756299743 
1.219999999999882, -0.7535187211268342 
1.229999999999881, -0.7483462984957703 
1.2399999999998799, -0.7415540435359051 
1.2499999999998788, -0.7333644465257243 
1.2599999999998777, -0.7244969392087364 
1.2699999999998766, -0.7159677515755922 
1.2799999999998755, -0.7086711095341821 
1.2899999999998744, -0.7030683340554352 
1.2999999999998733, -0.6991653631827984 
1.3099999999998722, -0.6966816571850831 
1.319999999999871, -0.6952393675434398 
1.32999999999987, -0.6944860229663667 
1.3399999999998689, -0.6941460368304219 
1.3499999999998678, -0.6940266265742201 
1.3599999999998666, -0.694002925190395 
1.3699999999998655, -0.6939977966778323 
1.3799999999998644, -0.6939637388268924 
1.3899999999998633, -0.6938693277226229 
1.3999999999998622, -0.6936904370057526 
1.4099999999998611, -0.6934059279105698 
1.41999999999986, -0.6929976170340686 
1.429999999999859, -0.6924540603791145 
1.4399999999998578, -0.6917763052266991 
1.4499999999998567, -0.6909818039944514 
1.4599999999998556, -0.6901025415295264 
1.4699999999998545, -0.6891769352500055 
1.4799999999998534, -0.6882398554130295 
1.4899999999998523, -0.687316356436501 
1.4999999999998512, -0.6864214206372199 
1.5099999999998501, -0.6855639726641419 
1.519999999999849, -0.6847519463332375 
1.529999999999848, -0.6839961949419735 
1.5399999999998468, -0.6833126643982734 
1.5499999999998457, -0.6827231604964296 
1.5599999999998446, -0.6822551236104113 
1.5699999999998435, -0.6819406003845894 
1.5799999999998424, -0.6818145128351756 
1.5899999999998413, -0.6819124576755263 
1.5999999999998402, -0.6822684452590208 
1.6099999999998391, -0.682912957966933 
1.619999999999838, -0.6838713158677632 
1.629999999999837, -0.6851616139656267 
1.6399999999998358, -0.6867906910138519 
1.6499999999998347, -0.6887462534878241 
1.6599999999998336, -0.6909844236445942 
1.6699999999998325, -0.6934158842262176 
1.6799999999998314, -0.6959001981909525 
1.6899999999998303, -0.698261422438907 
1.6999999999998292, -0.7003290153400472 
1.709999999999828, -0.7019861786666628 
1.719999999999827, -0.703195408010206 
1.729999999999826, -0.7039877659974325 
1.7399999999998248, -0.70443041119907 
1.7499999999998237, -0.7045953954362161 
1.7599999999998226, -0.7045412113327216 
1.7699999999998215, -0.7043060334816025 
1.7799999999998204, -0.7039072428498535 
1.7899999999998193, -0.7033429589322968 
1.7999999999998182, -0.7025936360435797 
1.809999999999817, -0.7016235581541356 
1.819999999999816, -0.7003831168709067 
1.8299999999998149, -0.6988130059102209 
1.8399999999998138, -0.6968504083357724 
1.8499999999998127, -0.6944352625322213 
1.8599999999998116, -0.6915173632135632 
1.8699999999998105, -0.6880828677035048 
1.8799999999998094, -0.6842344987161443 
1.8899999999998083, -0.6802943618800837 
1.8999999999998072, -0.6767698927639176 
1.909999999999806, -0.6741087903799615 
1.919999999999805, -0.6724638149654274 
1.9299999999998039, -0.6716891013596287 
1.9399999999998028, -0.6715010976681143 
1.9499999999998017, -0.6716277091323211 
1.9599999999998006, -0.6718732768264988 
1.9699999999997995, -0.6721207013501839 
1.9799999999997984, -0.6723092135815252 
1.9899999999997973, -0.6724105293392182 
1.9999999999997962, -0.6724110037994554 
2.0099999999998173, -0.6723001266140051 
2.0199999999998384, -0.6720637479286531 
2.0299999999998595, -0.6716808658354295 
2.0399999999998806, -0.6711240419280259 
2.0499999999999017, -0.6703645553495952 
2.059999999999923, -0.6693829754736025 
2.069999999999944, -0.6681826470622528 
2.079999999999965, -0.6667988457127242 
2.089999999999986, -0.6652955896616009 
2.100000000000007, -0.6637495509822091 
2.1100000000000283, -0.6622303910820314 
2.1200000000000494, -0.6607884566826392 
2.1300000000000705, -0.6594534551858351 
2.1400000000000916, -0.6582403770418509 
2.1500000000001127, -0.6571571024467507 
2.160000000000134, -0.6562102134594792 
2.170000000000155, -0.6554080787763765 
2.180000000000176, -0.6547616814496935 
2.190000000000197, -0.6542840219425595 
2.2000000000002182, -0.6539888444530104 
2.2100000000002393, -0.6538892852740372 
2.2200000000002604, -0.6539969022484107 
2.2300000000002815, -0.6543213475830836 
2.2400000000003026, -0.654870638987094 
2.2500000000003237, -0.655651572942172 
2.260000000000345, -0.6566693546124923 
2.270000000000366, -0.657925092059749 
2.280000000000387, -0.6594097168615748 
2.290000000000408, -0.6610938523275028 
2.3000000000004293, -0.6629160998296515 
2.3100000000004504, -0.6647769715713407 
2.3200000000004715, -0.6665484082614908 
2.3300000000004926, -0.668102481415237 
2.3400000000005137, -0.6693471599122408 
2.3500000000005348, -0.6702472367254455 
2.360000000000556, -0.6708191620806756 
2.370000000000577, -0.6711085939129432 
2.380000000000598, -0.671167066604712 
2.390000000000619, -0.6710370747648876 
2.4000000000006403, -0.6707457694177329 
2.4100000000006614, -0.6703037086957566 
2.4200000000006825, -0.669705516435152 
2.4300000000007036, -0.6689308807480476 
2.4400000000007247, -0.6679455751824557 
2.450000000000746, -0.6667027031601026 
2.460000000000767, -0.6651438429416844 
2.470000000000788, -0.6631980094617365 
2.480000000000809, -0.6607757952873828 
2.49000000000083, -0.6577668227210172 
2.5000000000008513, -0.654080457059212 
2.5100000000008724, -0.6497787367540578 
2.5200000000008935, -0.6452281887748933 
2.5300000000009146, -0.6410400806038323 
2.5400000000009357, -0.6377515295028802 
2.550000000000957, -0.6355589589035217 
2.560000000000978, -0.6343309371789276 
2.570000000000999, -0.633786219035475 
2.58000000000102, -0.6336473454548719 
2.5900000000010412, -0.6337070152127005 
2.6000000000010624, -0.6338332099353796 
2.6100000000010835, -0.6339503926529636 
2.6200000000011046, -0.6340180317033736 
2.6300000000011257, -0.6340138764983754 
2.6400000000011468, -0.63392284423958 
2.650000000001168, -0.6337304771021677 
2.660000000001189, -0.6334201009831772 
2.67000000000121, -0.6329735814957016 
2.680000000001231, -0.6323759404225676 
2.6900000000012523, -0.6316231153344303 
2.7000000000012734, -0.6307295778148041 
2.7100000000012945, -0.6297304006713258 
2.7200000000013156, -0.6286743259939017 
2.7300000000013367, -0.6276106441022896 
2.740000000001358, -0.6265774185392228 
2.750000000001379, -0.6255968542567217 
2.7600000000014, -0.6246779773664131 
2.770000000001421, -0.6238229514507069 
2.780000000001442, -0.6230332705386716 
2.7900000000014633, -0.6223140115053052 
2.8000000000014844, -0.6216761311204513 
2.8100000000015055, -0.621137545674959 
2.8200000000015266, -0.6207236444522066 
2.8300000000015477, -0.6204675300398759 
2.840000000001569, -0.6204100253869569 
2.85000000000159, -0.6205994131407558 
2.860000000001611, -0.621090857495637 
2.870000000001632, -0.6219453018053175 
2.8800000000016532, -0.6232271256994959 
2.8900000000016743, -0.6249988524462329 
2.9000000000016954, -0.6273098957933871 
2.9100000000017165, -0.6301757439835575 
2.9200000000017377, -0.6335467338227818 
2.9300000000017588, -0.6372753908308997 
2.94000000000178, -0.641107087342091 
2.950000000001801, -0.6447236406120175 
2.960000000001822, -0.6478382031677774 
2.970000000001843, -0.6502865739650272 
2.9800000000018643, -0.6520525005986946 
2.9900000000018854, -0.6532235681016424 
3.0000000000019065, -0.6539253484078431 
3.0100000000019276, -0.6542742230510664 
3.0200000000019487, -0.6543569221471286 
3.03000000000197, -0.6542268094017922 
3.040000000001991, -0.65390593267666 
3.050000000002012, -0.6533863012907821 
3.060000000002033, -0.6526272626389672 
3.070000000002054, -0.6515474228590817 
3.0800000000020753, -0.6500107044185929 
3.0900000000020964, -0.6478095038992773 
3.1000000000021175, -0.644657880875068 
3.1100000000021386, -0.6402273596806338 
3.1200000000021597, -0.6342723821583074 
3.130000000002181, -0.6268464702882076 
3.140000000002202, -0.6184680941671629 
3.150000000002223, -0.6100186024350742 
3.160000000002244, -0.6023773211346344 
3.1700000000022652, -0.5960911286065432 
3.1800000000022863, -0.5913009683234951 
3.1900000000023074, -0.5878656775226895 
3.2000000000023285, -0.5855218555539519 
3.2100000000023496, -0.5839929808856698 
3.2200000000023707, -0.5830407292780152 
3.230000000002392, -0.5824794353647096 
3.240000000002413, -0.5821730078701922 
3.250000000002434, -0.5820256534010617 
3.260000000002455, -0.581971803409398 
3.2700000000024763, -0.5819674270029116 
3.2800000000024974, -0.5819834480153927 
3.2900000000025185, -0.5820013827865779 
3.3000000000025396, -0.5820110116836589 
3.3100000000025607, -0.5820095323984623 
3.3200000000025818, -0.5820010857258647 
3.330000000002603, -0.5819950941246117 
3.340000000002624, -0.5820022200450072 
3.350000000002645, -0.5820283469859427 
3.360000000002666, -0.5820690399059208 
3.3700000000026873, -0.5821077721892508 
3.3800000000027084, -0.582119669195704 
3.3900000000027295, -0.582079219578205 
3.4000000000027506, -0.5819677824008582 
3.4100000000027717, -0.5817771970314014 
3.420000000002793, -0.5815089474362903 
3.430000000002814, -0.5811711210581663 
3.440000000002835, -0.5807758980739156 
3.450000000002856, -0.580339278372333 
3.460000000002877, -0.5798837864492348 
3.4700000000028983, -0.5794446445000289 
3.4800000000029194, -0.579080104813344 
3.4900000000029405, -0.578886597673503 
3.5000000000029616, -0.5790179602798229 
3.5100000000029827, -0.579703238080065 
3.520000000003004, -0.5812464983990522 
3.530000000003025, -0.5839748272935082 
3.540000000003046, -0.5880941690724224 
3.550000000003067, -0.5934679848606369 
3.5600000000030882, -0.5994845070568757 
3.5700000000031094, -0.6052542212814417 
3.5800000000031305, -0.6100773116904643 
3.5900000000031516, -0.6137327857777355 
3.6000000000031727, -0.616365595797733 
3.6100000000031938, -0.618229670388923 
3.620000000003215, -0.619541475404156 
3.630000000003236, -0.620452532111607 
3.640000000003257, -0.6210648260005314 
3.650000000003278, -0.6214475834979227 
3.6600000000032993, -0.6216471796979497 
3.6700000000033204, -0.6216921051743237 
3.6800000000033415, -0.6215953044942399 
3.6900000000033626, -0.6213551860756308 
3.7000000000033837, -0.6209562952098138 
3.710000000003405, -0.6203711247868838 
3.720000000003426, -0.6195653990666333 
3.730000000003447, -0.6185092686516886 
3.740000000003468, -0.6171941622734863 
3.750000000003489, -0.6156487712687791 
3.7600000000035103, -0.6139426413326956 
3.7700000000035314, -0.6121708308364583 
3.7800000000035525, -0.610427281876218 
3.7900000000035736, -0.6087830215523 
3.8000000000035947, -0.6072789909604921 
3.810000000003616, -0.605931450113334 
3.820000000003637, -0.6047423479604634 
3.830000000003658, -0.603708647066701 
3.840000000003679, -0.6028283090785083 
3.8500000000037002, -0.602103156770231 
3.8600000000037213, -0.601539684425634 
3.8700000000037424, -0.6011488151493976 
3.8800000000037635, -0.6009452830389355 
3.8900000000037847, -0.6009470559351627 
3.9000000000038058, -0.6011750340287341 
3.910000000003827, -0.6016530703379079 
3.920000000003848, -0.6024080584186959 
3.930000000003869, -0.6034693392638459 
3.94000000000389, -0.6048659665189534 
3.9500000000039113, -0.6066196073541211 
3.9600000000039324, -0.6087307640696448 
3.9700000000039535, -0.6111582510865994 
3.9800000000039746, -0.6137984693981279 
3.9900000000039957, -0.6164805134677817 
4.000000000004016, -0.6189947850215354 
4.010000000003993, -0.6211527220807016 
4.02000000000397, -0.6228438580278912 
4.030000000003946, -0.6240526867357488 
4.040000000003923, -0.6248324351707131 
4.0500000000039, -0.6252635422299577 
4.0600000000038765, -0.6254219689391752 
4.070000000003853, -0.6253637168149433 
4.08000000000383, -0.6251202115996575 
4.090000000003807, -0.6246975855591544 
4.100000000003783, -0.6240751303407108 
4.11000000000376, -0.6232001659242192 
4.120000000003737, -0.6219775578331006 
4.130000000003713, -0.6202532708991464 
4.14000000000369, -0.6177956285712018 
4.150000000003667, -0.6142908305570941 
4.1600000000036434, -0.6093938004568249 
4.17000000000362, -0.6028878777021599 
4.180000000003597, -0.594932830799644 
4.1900000000035735, -0.586202413331051 
4.20000000000355, -0.5776823970412179 
4.210000000003527, -0.5702335856563372 
4.220000000003504, -0.5642937366237539 
4.23000000000348, -0.5598852649395002 
4.240000000003457, -0.5567887411452054 
4.250000000003434, -0.5547080141873275 
4.26000000000341, -0.5533645111148926 
4.270000000003387, -0.5525327695979129 
4.280000000003364, -0.552044410515147 
4.2900000000033405, -0.5517796580607901 
4.300000000003317, -0.5516560143135005 
4.310000000003294, -0.5516179693899923 
4.320000000003271, -0.5516289505233407 
4.330000000003247, -0.5516656641630286 
4.340000000003224, -0.5517146181376975 
4.350000000003201, -0.5517703878891812 
4.360000000003177, -0.5518348276762428 
4.370000000003154, -0.5519159395784768 
4.380000000003131, -0.5520249392485118 
4.390000000003107, -0.5521708382998689 
4.400000000003084, -0.5523536946265628 
4.410000000003061, -0.5525595830556458 
4.4200000000030375, -0.5527607217997111 
4.430000000003014, -0.5529219860755825 
4.440000000002991, -0.5530110229084361 
4.450000000002968, -0.5530065118149489 
4.460000000002944, -0.5529006376428706 
4.470000000002921, -0.5526961456475288 
4.480000000002898, -0.5524012612639696 
4.490000000002874, -0.5520255484944024 
4.500000000002851, -0.5515781004693727 
4.510000000002828, -0.5510682366680305 
4.520000000002804, -0.5505085904248531 
4.530000000002781, -0.5499205884623193 
4.540000000002758, -0.5493419975501626 
4.5500000000027345, -0.5488341725965877 
4.560000000002711, -0.5484809789424732 
4.570000000002688, -0.5483614102575284 
4.580000000002665, -0.5484733715358195 
4.590000000002641, -0.5486224648201661 
4.600000000002618, -0.548398590026888 
4.610000000002595, -0.5474129202493502 
4.620000000002571, -0.5456751523107419 
4.630000000002548, -0.5436440831872313 
4.640000000002525, -0.5418537635685121 
4.6500000000025015, -0.5405825758717734 
4.660000000002478, -0.5398337313032056 
4.670000000002455, -0.5394753708027186 
4.6800000000024315, -0.5393577777968345 
4.690000000002408, -0.5393634456122688 
4.700000000002385, -0.5394143358720862 
4.710000000002362, -0.5394631082624609 
4.720000000002338, -0.5394820165294187 
4.730000000002315, -0.539454104557168 
4.740000000002292, -0.5393674966502787 
4.750000000002268, -0.5392125436366803 
4.760000000002245, -0.5389815756956262 
4.770000000002222, -0.5386710055101369 
4.7800000000021985, -0.538284911552857 
4.790000000002175, -0.5378379941542653 
4.800000000002152, -0.5373550276434986 
4.810000000002129, -0.5368652797917253 
4.820000000002105, -0.5363937599658055 
4.830000000002082, -0.5359537754750505 
4.840000000002059, -0.5355445925283698 
4.850000000002035, -0.5351547890157359 
4.860000000002012, -0.5347688418104755 
4.870000000001989, -0.5343734628396495 
4.880000000001965, -0.5339613741934104 
4.890000000001942, -0.5335323911346332 
4.900000000001919, -0.5330932448786685 
4.9100000000018955, -0.5326578626118652 
4.920000000001872, -0.5322493562753412 
