t, s[1].omega / s[0].omega 
0, -1.3599702861272676 
0.009999999999999995, -1.356553903286869 
0.019999999999999934, -1.3522619424227145 
0.029999999999999874, -1.3472555306629275 
0.04000000000000012, -1.3420010110756009 
0.050000000000000405, -1.3373004170940417 
0.06000000000000069, -1.3339924138547377 
0.07000000000000098, -1.3323801535692623 
0.08000000000000126, -1.3320304835584627 
0.09000000000000155, -1.3322325566219126 
0.10000000000000184, -1.332478178627497 
0.11000000000000212, -1.3325363490116762 
0.12000000000000241, -1.3323162976235456 
0.130000000000002, -1.3317379633979938 
0.1400000000000009, -1.3306445685314272 
0.1499999999999998, -1.3287245670605794 
0.1599999999999987, -1.3254354500245982 
0.1699999999999976, -1.320035824604108 
0.1799999999999965, -1.312103889680346 
0.1899999999999954, -1.3030484503628574 
0.1999999999999943, -1.2975318189545666 
0.2099999999999932, -1.3007056595732622 
0.2199999999999921, -1.3119578905719342 
0.229999999999991, -1.3252385226661156 
0.2399999999999899, -1.33571469209246 
0.2499999999999888, -1.3423536250624926 
0.2599999999999877, -1.346065181532004 
0.2699999999999866, -1.3479565778997393 
0.2799999999999855, -1.3487909115291863 
0.2899999999999844, -1.3490024540068792 
0.2999999999999833, -1.3488177442934846 
0.3099999999999822, -1.3483598044357366 
0.3199999999999811, -1.3477395989159289 
0.32999999999998, -1.347157645112112 
0.3399999999999789, -1.346981901919168 
0.3499999999999778, -1.347662820529417 
0.35999999999997667, -1.3494247161843245 
0.36999999999997557, -1.3520429233412876 
0.37999999999997447, -1.3550100632729964 
0.38999999999997337, -1.3578576333973391 
0.39999999999997227, -1.3603037817273544 
0.40999999999997117, -1.3622303751653224 
0.41999999999997006, -1.3636174286345655 
0.42999999999996896, -1.364495712827379 
0.43999999999996786, -1.364921050808244 
0.44999999999996676, -1.3649602050618672 
0.45999999999996566, -1.3646825283058734 
0.46999999999996456, -1.3641574594285009 
0.47999999999996346, -1.363458835005576 
0.48999999999996235, -1.3626718520083956 
0.49999999999996125, -1.361892892589927 
0.5099999999999602, -1.3612168741382629 
0.519999999999959, -1.3607189527413484 
0.529999999999958, -1.3604357565697238 
0.5399999999999568, -1.3603456606770001 
0.5499999999999557, -1.3603653815922325 
0.5599999999999546, -1.3603783172458406 
0.5699999999999535, -1.3602691018651334 
0.5799999999999524, -1.3599316823448229 
0.5899999999999513, -1.359252326813381 
0.5999999999999502, -1.3580875698440413 
0.6099999999999491, -1.3562531356456202 
0.619999999999948, -1.3535337950429835 
0.6299999999999469, -1.349721912636364 
0.6399999999999458, -1.3446947883924953 
0.6499999999999447, -1.3385477090173745 
0.6599999999999436, -1.3317797631355925 
0.6699999999999425, -1.325400260447386 
0.6799999999999414, -1.3206269548875214 
0.6899999999999403, -1.3181018183696247 
0.6999999999999392, -1.3174253528051179 
0.7099999999999381, -1.3176604747819902 
0.719999999999937, -1.3180684259925177 
0.7299999999999359, -1.3183070417324587 
0.7399999999999348, -1.3182688436930952 
0.7499999999999337, -1.3179068563352323 
0.7599999999999326, -1.317133233862507 
0.7699999999999315, -1.3157538404250286 
0.7799999999999304, -1.3134117116549908 
0.7899999999999293, -1.3095880112538278 
0.7999999999999282, -1.3038928680642985 
0.8099999999999271, -1.2970887019440076 
0.819999999999926, -1.2925789904673268 
0.8299999999999249, -1.2954509823545268 
0.8399999999999238, -1.3070696820737504 
0.8499999999999227, -1.3224922517362976 
0.8599999999999216, -1.335827104668844 
0.8699999999999205, -1.344831728817728 
0.8799999999999194, -1.3500929039550753 
0.8899999999999183, -1.3528944254670452 
0.8999999999999172, -1.3542473911609405 
0.9099999999999161, -1.354765410008897 
0.919999999999915, -1.3547814544935197 
0.9299999999999139, -1.3544716478381233 
0.9399999999999128, -1.3539526883586417 
0.9499999999999117, -1.3533729558966443 
0.9599999999999106, -1.3529944149970972 
0.9699999999999095, -1.353183224680074 
0.9799999999999084, -1.3542160569602153 
0.9899999999999073, -1.3560462644926399 
0.9999999999999062, -1.3583282717282013 
1.0099999999999052, -1.3606599781462365 
1.019999999999904, -1.3627569455077082 
1.029999999999903, -1.364473128861891 
1.039999999999902, -1.3657560926982983 
1.0499999999999008, -1.366604788997087 
1.0599999999998997, -1.3670448779491997 
1.0699999999998986, -1.3671163127900539 
1.0799999999998975, -1.3668668306883462 
1.0899999999998964, -1.3663491162411419 
1.0999999999998953, -1.3656225026679818 
1.1099999999998942, -1.3647586017832067 
1.119999999999893, -1.3638452053901102 
1.129999999999892, -1.362981709850617 
1.1399999999998909, -1.3622658491502952 
1.1499999999998898, -1.3617723019707964 
1.1599999999998887, -1.3615203712489596 
1.1699999999998876, -1.361450644503887 
1.1799999999998865, -1.3614445371388804 
1.1899999999998854, -1.3613716039643597 
1.1999999999998843, -1.3611144353749214 
1.2099999999998832, -1.3605557198637264 
1.219999999999882, -1.3595473612798101 
1.229999999999881, -1.3578826091056553 
1.2399999999998799, -1.3552860858334659 
1.2499999999998788, -1.3514384756528766 
1.2599999999998777, -1.346058569719191 
1.2699999999998766, -1.3390713195613828 
1.2799999999998755, -1.330874822282359 
1.2899999999998744, -1.3225878100996338 
1.2999999999998733, -1.315861391848772 
1.3099999999998722, -1.3119152023097498 
1.319999999999871, -1.3106049697550666 
1.32999999999987, -1.3107825226242589 
1.3399999999998689, -1.3113703352141501 
1.3499999999998678, -1.3118269821051816 
1.3599999999998666, -1.3119900792725616 
1.3699999999998655, -1.3118307318053497 
1.3799999999998644, -1.311313992033463 
1.3899999999998633, -1.3103317078657784 
1.3999999999998622, -1.3086599860186354 
1.4099999999998611, -1.3059525834359678 
1.41999999999986, -1.3019070914410058 
1.429999999999859, -1.2969319934814922 
1.4399999999998578, -1.2934001920042173 
1.4499999999998567, -1.2957476144163738 
1.4599999999998556, -1.3066329510961843 
1.4699999999998545, -1.322866798787481 
1.4799999999998534, -1.3383684499625397 
1.4899999999998523, -1.3496589857279935 
1.4999999999998512, -1.3566246125207446 
1.5099999999998501, -1.3604998900736986 
1.519999999999849, -1.3624812242546687 
1.529999999999848, -1.3633643307458427 
1.5399999999998468, -1.3636046147351926 
1.5499999999998457, -1.3634475215380661 
1.5599999999998446, -1.3630362773260036 
1.5699999999998435, -1.3625007408314633 
1.5799999999998424, -1.3620357955246976 
1.5899999999998413, -1.3619261807724818 
1.5999999999998402, -1.3624371355869302 
1.6099999999998391, -1.3636209979854543 
1.619999999999838, -1.3652679086739246 
1.629999999999837, -1.3670625339863391 
1.6399999999998358, -1.368746738930581 
1.6499999999998347, -1.3701671387148744 
1.6599999999998336, -1.3712519257112388 
1.6699999999998325, -1.3719778270717946 
1.6799999999998314, -1.3723477508706445 
1.6899999999998303, -1.3723790030629976 
1.6999999999998292, -1.3720979508730597 
1.709999999999828, -1.371538307735277 
1.719999999999827, -1.3707426555373914 
1.729999999999826, -1.3697675030003045 
1.7399999999998248, -1.3686895344364465 
1.7499999999998237, -1.3676080451538255 
1.7599999999998226, -1.3666395267919578 
1.7699999999998215, -1.36589751914586 
1.7799999999998204, -1.3654476040686832 
1.7899999999998193, -1.3652592737607487 
1.7999999999998182, -1.365211474029605 
1.809999999999817, -1.3651532624491667 
1.819999999999816, -1.3649503528556235 
1.8299999999998149, -1.3644797187191657 
1.8399999999998138, -1.3635910140215406 
1.8499999999998127, -1.3620604163093972 
1.8599999999998116, -1.3595524412675934 
1.8699999999998105, -1.3556120170271542 
1.8799999999998094, -1.3497327510095547 
1.8899999999998083, -1.3415731693456343 
1.8999999999998072, -1.3313785161159337 
1.909999999999806, -1.320473669093522 
1.919999999999805, -1.3111949856841074 
1.9299999999998039, -1.305554651445553 
1.9399999999998028, -1.30364342894103 
1.9499999999998017, -1.3039214429494477 
1.9599999999998006, -1.3048315528334968 
1.9699999999997995, -1.3055900345998137 
1.9799999999997984, -1.3059846649607394 
1.9899999999997973, -1.306014128888488 
1.9999999999997962, -1.3056940070120224 
2.0099999999998173, -1.3049829952180703 
2.0199999999998384, -1.3037543098478648 
2.0299999999998595, -1.301801388524202 
2.0399999999998806, -1.2989647707523777 
2.0499999999999017, -1.2956036146775545 
2.059999999999923, -1.2935151261447395 
2.069999999999944, -1.2962064748901088 
2.079999999999965, -1.306292808526889 
2.089999999999986, -1.3218463669135723 
2.100000000000007, -1.3376936380279443 
2.1100000000000283, -1.3500564184327994 
2.1200000000000494, -1.358168969783355 
2.1300000000000705, -1.3629272175868599 
2.1400000000000916, -1.3654901164557232 
2.1500000000001127, -1.3667313626848903 
2.160000000000134, -1.3671922611310259 
2.170000000000155, -1.3671796780013614 
2.180000000000176, -1.3668694692839813 
2.190000000000197, -1.3663920913443663 
2.2000000000002182, -1.3659047342023212 
2.2100000000002393, -1.3656274470148506 
2.2200000000002604, -1.3657863267842183 
2.2300000000002815, -1.366474210491989 
2.2400000000003026, -1.3675805102469822 
2.2500000000003237, -1.3688787097430422 
2.260000000000345, -1.370154391510626 
2.270000000000366, -1.3712610899275401 
2.280000000000387, -1.372115657036843 
2.290000000000408, -1.3726774698440658 
2.3000000000004293, -1.3729310154906846 
2.3100000000004504, -1.3728751274737003 
2.3200000000004715, -1.3725177740841974 
2.3300000000004926, -1.3718747276865644 
2.3400000000005137, -1.3709714054356952 
2.3500000000005348, -1.3698481907298938 
2.360000000000556, -1.3685688044495865 
2.370000000000577, -1.3672290963964941 
2.380000000000598, -1.3659610065830583 
2.390000000000619, -1.364918005545904 
2.4000000000006403, -1.3642205033069184 
2.4100000000006614, -1.3638784200416558 
2.4200000000006825, -1.3637726442365312 
2.4300000000007036, -1.363726576031746 
2.4400000000007247, -1.363582030524126 
2.450000000000746, -1.3632092574443775 
2.460000000000767, -1.362465616411157 
2.470000000000788, -1.3611361678868499 
2.480000000000809, -1.358870158379692 
2.49000000000083, -1.355128695019856 
2.5000000000008513, -1.3491971773531128 
2.5100000000008724, -1.3403850291633446 
2.5200000000008935, -1.328574196790314 
2.5300000000009146, -1.3150580842911435 
2.5400000000009357, -1.302828763090373 
2.550000000000957, -1.2949857670052372 
2.560000000000978, -1.2921922179942353 
2.570000000000999, -1.2925654712937593 
2.58000000000102, -1.293918040722129 
2.5900000000010412, -1.2951010706803499 
2.6000000000010624, -1.2958110940137166 
2.6100000000010835, -1.2960725681932312 
2.6200000000011046, -1.29595523970998 
2.6300000000011257, -1.2954789403556788 
2.6400000000011468, -1.2945901756401699 
2.650000000001168, -1.2931701185137008 
2.660000000001189, -1.2911163818622402 
2.67000000000121, -1.2886405703274573 
2.680000000001231, -1.2869091492066664 
2.6900000000012523, -1.2884989796438844 
2.7000000000012734, -1.296041462014235 
2.7100000000012945, -1.309195399684088 
2.7200000000013156, -1.324205962071727 
2.7300000000013367, -1.3371842668645786 
2.740000000001358, -1.346488461198373 
2.750000000001379, -1.3523663716671628 
2.7600000000014, -1.3557521677166442 
2.770000000001421, -1.3575335700009923 
2.780000000001442, -1.3583354780255112 
2.7900000000014633, -1.3585414380352352 
2.8000000000014844, -1.3583749598141748 
2.8100000000015055, -1.3579792790264216 
2.8200000000015266, -1.3574869753411019 
2.8300000000015477, -1.3570709387929543 
2.840000000001569, -1.3569385632299398 
2.85000000000159, -1.3572406455722874 
2.860000000001611, -1.3579712275365172 
2.870000000001632, -1.358979525060134 
2.8800000000016532, -1.3600714748665603 
2.8900000000016743, -1.3610875680739243 
2.9000000000016954, -1.3619218395773698 
2.9100000000017165, -1.3625120646448061 
2.9200000000017377, -1.3628253301757403 
2.9300000000017588, -1.3628466634834968 
2.94000000000178, -1.3625722006316285 
2.950000000001801, -1.36200637711528 
2.960000000001822, -1.3611623266413186 
2.970000000001843, -1.3600655204703893 
2.9800000000018643, -1.3587611101140427 
2.9900000000018854, -1.35732425206836 
3.0000000000019065, -1.3558702406919676 
3.0100000000019276, -1.3545551446141082 
3.0200000000019487, -1.3535441258414056 
3.03000000000197, -1.352932586051037 
3.040000000001991, -1.352674741855889 
3.050000000002012, -1.3526078455433375 
3.060000000002033, -1.3525471720255315 
3.070000000002054, -1.3523440265223403 
3.0800000000020753, -1.3518712826604156 
3.0900000000020964, -1.3509706501834793 
3.1000000000021175, -1.3493887223020795 
3.1100000000021386, -1.3467102961621005 
3.1200000000021597, -1.3423112876242211 
3.130000000002181, -1.3354079328470978 
3.140000000002202, -1.3253585962984564 
3.150000000002223, -1.3123695418853447 
3.160000000002244, -1.2983494277496583 
3.1700000000022652, -1.2867212836986548 
3.1800000000022863, -1.280178376624635 
3.1900000000023074, -1.278485795984312 
3.2000000000023285, -1.279362463985896 
3.2100000000023496, -1.2808048297675922 
3.2200000000023707, -1.2819265834415363 
3.230000000002392, -1.282553193166263 
3.240000000002413, -1.2827427944496774 
3.250000000002434, -1.282563050214835 
3.260000000002455, -1.2820224939570755 
3.2700000000024763, -1.281055209289617 
3.2800000000024974, -1.279534440781426 
3.2900000000025185, -1.2773701957828536 
3.3000000000025396, -1.2748413364876532 
3.3100000000025607, -1.2732595031186802 
3.3200000000025818, -1.275326690464095 
3.330000000002603, -1.283561576333962 
3.340000000002624, -1.2972983456877545 
3.350000000002645, -1.312584293666184 
3.360000000002666, -1.3255815999404073 
3.3700000000026873, -1.3347875165646979 
3.3800000000027084, -1.3405497027528241 
3.3900000000027295, -1.3438440741397635 
3.4000000000027506, -1.3455648572521801 
3.4100000000027717, -1.3463301436401518 
3.420000000002793, -1.3465147682698695 
3.430000000002814, -1.3463354641316772 
3.440000000002835, -1.3459313744485968 
3.450000000002856, -1.3454343432710514 
3.460000000002877, -1.345021911440103 
3.4700000000028983, -1.3449133899435697 
3.4800000000029194, -1.3452746428488767 
3.4900000000029405, -1.346106079130427 
3.5000000000029616, -1.3472475346912633 
3.5100000000029827, -1.3484869919029832 
3.520000000003004, -1.3496497611527372 
3.530000000003025, -1.3506219477265398 
3.540000000003046, -1.3513392611385968 
3.550000000003067, -1.351770149054454 
3.5600000000030882, -1.351902888743846 
3.5700000000031094, -1.351737981855713 
3.5800000000031305, -1.3512848634478807 
3.5900000000031516, -1.3505617312835265 
3.6000000000031727, -1.3495982551110772 
3.6100000000031938, -1.3484414051178473 
3.620000000003215, -1.3471632081288503 
3.630000000003236, -1.3458669751672556 
3.640000000003257, -1.3446859008779515 
3.650000000003278, -1.3437601238330068 
3.6600000000032993, -1.343178617574822 
3.6700000000033204, -1.3429172138452103 
3.6800000000033415, -1.342843870996787 
3.6900000000033626, -1.3427917756791716 
3.7000000000033837, -1.3426171287931994 
3.710000000003405, -1.3421967553879124 
3.720000000003426, -1.3413870312734824 
3.730000000003447, -1.339972107690036 
3.740000000003468, -1.3376150062409895 
3.750000000003489, -1.333830939972011 
3.7600000000035103, -1.3280318361065027 
3.7700000000035314, -1.3197284262364932 
3.7800000000035525, -1.30897249756603 
3.7900000000035736, -1.2969414698394923 
3.8000000000035947, -1.2860608875967166 
3.810000000003616, -1.2788050809391156 
3.820000000003637, -1.275816315695877 
3.830000000003658, -1.275696976181867 
3.840000000003679, -1.2766368107992836 
3.8500000000037002, -1.277572698271293 
3.8600000000037213, -1.2781554403942073 
3.8700000000037424, -1.2783535859757307 
3.8800000000037635, -1.278199405210724 
3.8900000000037847, -1.2776871867475408 
3.9000000000038058, -1.2767356702112638 
3.910000000003827, -1.275173704367952 
3.920000000003848, -1.2727782575525015 
3.930000000003869, -1.2695035202903926 
3.94000000000389, -1.2661340120354474 
3.9500000000039113, -1.2651704995728532 
3.9600000000039324, -1.2702726865225222 
3.9700000000039535, -1.2827928382186664 
3.9800000000039746, -1.299298938881501 
3.9900000000039957, -1.3145799080061362 
4.000000000004016, -1.325784719025509 
4.010000000003993, -1.3328481012509261 
4.02000000000397, -1.336878553270491 
4.030000000003946, -1.3389958935330095 
4.040000000003923, -1.3399783443944315 
4.0500000000039, -1.3402887166955488 
4.0600000000038765, -1.3401839898204613 
4.070000000003853, -1.3398138216229012 
4.08000000000383, -1.3393024457839373 
4.090000000003807, -1.3388211421100606 
4.100000000003783, -1.3386216076998656 
4.11000000000376, -1.3389618673345844 
4.120000000003737, -1.3399396838714819 
4.130000000003713, -1.3414124075776073 
4.14000000000369, -1.34310365189271 
4.150000000003667, -1.3447571642349097 
4.1600000000036434, -1.3462037149501782 
4.17000000000362, -1.3473535149150317 
4.180000000003597, -1.348168706006329 
4.1900000000035735, -1.348641453266906 
4.20000000000355, -1.3487812847770952 
4.210000000003527, -1.3486089640296721 
4.220000000003504, -1.3481539822391013 
4.23000000000348, -1.3474546867074417 
4.240000000003457, -1.3465615565151006 
4.250000000003434, -1.345542656830909 
4.26000000000341, -1.3444868827681948 
4.270000000003387, -1.343500337538443 
4.280000000003364, -1.3426926954916507 
4.2900000000033405, -1.342146558940213 
4.300000000003317, -1.3418727905217118 
4.310000000003294, -1.3417908524346405 
4.320000000003271, -1.3417651832726205 
4.330000000003247, -1.3416595417328643 
4.340000000003224, -1.3413553133291187 
4.350000000003201, -1.340730165496807 
4.360000000003177, -1.3396217470630551 
4.370000000003154, -1.337795789020395 
4.380000000003131, -1.3349338434893854 
4.390000000003107, -1.3306629338144336 
4.400000000003084, -1.3246587616005274 
4.410000000003061, -1.3168557693007206 
4.4200000000030375, -1.3077608201972324 
4.430000000003014, -1.2986953923157665 
4.440000000002991, -1.2914888294469453 
4.450000000002968, -1.2873684746663114 
4.460000000002944, -1.286058256413087 
4.470000000002921, -1.2862908826371786 
4.480000000002898, -1.2869378956798956 
4.490000000002874, -1.28744565107686 
4.500000000002851, -1.287652941343508 
4.510000000002828, -1.287537294983723 
4.520000000002804, -1.2870743419846318 
4.530000000002781, -1.2861722117923269 
4.540000000002758, -1.2846297043770183 
4.5500000000027345, -1.2821170707873741 
4.560000000002711, -1.2782778631812866 
4.570000000002688, -1.2732258613878142 
4.580000000002665, -1.2686673074618144 
4.590000000002641, -1.2685882226619007 
4.600000000002618, -1.2766747164831576 
4.610000000002595, -1.2916157494276537 
4.620000000002571, -1.3077017076183457 
4.630000000002548, -1.3203648829643486 
4.640000000002525, -1.328573369859476 
4.6500000000025015, -1.3332969671175303 
4.660000000002478, -1.3357957308813786 
4.670000000002455, -1.3369868798991331 
4.6800000000024315, -1.3374168691430244 
4.690000000002408, -1.3373828916288344 
4.700000000002385, -1.3370462685580706 
4.710000000002362, -1.3365227114330216 
4.720000000002338, -1.3359675936082913 
4.730000000002315, -1.3356450814593732 
4.740000000002292, -1.3358994759881484 
4.750000000002268, -1.3369637719267211 
4.760000000002245, -1.3387649834969537 
4.770000000002222, -1.340972632591776 
4.7800000000021985, -1.343218254900039 
4.790000000002175, -1.345241504933355 
4.800000000002152, -1.3469051100340559 
4.810000000002129, -1.348156047127061 
4.820000000002105, -1.3489891273194143 
4.830000000002082, -1.349425423492216 
4.840000000002059, -1.3495011802225747 
4.850000000002035, -1.3492617025102867 
4.860000000002012, -1.3487583406254022 
4.870000000001989, -1.3480496298021367 
4.880000000001965, -1.3472062909539164 
4.890000000001942, -1.3463147607021653 
4.900000000001919, -1.3454722883665688 
4.9100000000018955, -1.3447731640340959 
4.920000000001872, -1.3442885883938538 
4.930000000001849, -1.3440387598312797 
4.940000000001826, -1.3439715294736057 
