t, s[1].omega / s[0].omega 
0, -1.2799297652122088 
0.009999999999999995, -1.2720311064595848 
0.019999999999999934, -1.2628372966935735 
0.029999999999999874, -1.253568570817063 
0.04000000000000012, -1.2459167951134804 
0.050000000000000405, -1.2411385983187735 
0.06000000000000069, -1.2392085943214302 
0.07000000000000098, -1.2390669526387208 
0.08000000000000126, -1.2395840968014271 
0.09000000000000155, -1.2401041942794673 
0.10000000000000184, -1.240384799419799 
0.11000000000000212, -1.240370094426758 
0.12000000000000241, -1.240036634641998 
0.130000000000002, -1.2393151780738882 
0.1400000000000009, -1.2380395805004716 
0.1499999999999998, -1.2358949182399397 
0.1599999999999987, -1.2323846217097647 
0.1699999999999976, -1.2269457311237504 
0.1799999999999965, -1.219523635096373 
0.1899999999999954, -1.2117950330807914 
0.1999999999999943, -1.2078305681686048 
0.2099999999999932, -1.2115286907540808 
0.2199999999999921, -1.2221997035263172 
0.229999999999991, -1.234932095139426 
0.2399999999999899, -1.245445407535317 
0.2499999999999888, -1.2524655034658558 
0.2599999999999877, -1.2565949186709018 
0.2699999999999866, -1.258819389309227 
0.2799999999999855, -1.259894836271854 
0.2899999999999844, -1.2602810394990873 
0.2999999999999833, -1.2602262167389309 
0.3099999999999822, -1.2598539186197475 
0.3199999999999811, -1.2592341177430484 
0.32999999999998, -1.2584637893181174 
0.3399999999999789, -1.2577841880952438 
0.3499999999999778, -1.2576974853895586 
0.35999999999997667, -1.2589003744042875 
0.36999999999997557, -1.2618733072411108 
0.37999999999997447, -1.2664359928868962 
0.38999999999997337, -1.2718195751940653 
0.39999999999997227, -1.277154194182847 
0.40999999999997117, -1.2818308824661042 
0.41999999999997006, -1.2855624558764776 
0.42999999999996896, -1.288298726288987 
0.43999999999996786, -1.290129678650452 
0.44999999999996676, -1.2912116483976948 
0.45999999999996566, -1.2917148511971162 
0.46999999999996456, -1.2917913626361774 
0.47999999999996346, -1.2915645701140641 
0.48999999999996235, -1.291137248140289 
0.49999999999996125, -1.2906101590784858 
0.5099999999999602, -1.2900965684725936 
0.519999999999959, -1.2897139385633547 
0.529999999999958, -1.2895490429587835 
0.5399999999999568, -1.2896250017501465 
0.5499999999999557, -1.2899008281538529 
0.5599999999999546, -1.2902959071587905 
0.5699999999999535, -1.2907153882595157 
0.5799999999999524, -1.2910684593695876 
0.5899999999999513, -1.291279195301009 
0.5999999999999502, -1.2912889517091999 
0.6099999999999491, -1.291053329093364 
0.619999999999948, -1.2905391152038457 
0.6299999999999469, -1.2897236573041966 
0.6399999999999458, -1.2885960969568395 
0.6499999999999447, -1.2871601185255388 
0.6599999999999436, -1.2854397014295833 
0.6699999999999425, -1.2834900036235637 
0.6799999999999414, -1.2814134547225637 
0.6899999999999403, -1.2793743947895613 
0.6999999999999392, -1.2775907078030493 
0.7099999999999381, -1.2762702777510957 
0.719999999999937, -1.2755008234781349 
0.7299999999999359, -1.2751884209196045 
0.7399999999999348, -1.2751218502291306 
0.7499999999999337, -1.2750906085886093 
0.7599999999999326, -1.2749413600293074 
0.7699999999999315, -1.2745581000028783 
0.7799999999999304, -1.2738101536912008 
0.7899999999999293, -1.2724944759189585 
0.7999999999999282, -1.2702767422336234 
0.8099999999999271, -1.2666426499522854 
0.819999999999926, -1.2609084892175368 
0.8299999999999249, -1.252395562605382 
0.8399999999999238, -1.2408839859914063 
0.8499999999999227, -1.227279003987291 
0.8599999999999216, -1.213934505436351 
0.8699999999999205, -1.203756287245617 
0.8799999999999194, -1.1982824118103672 
0.8899999999999183, -1.1967619873329423 
0.8999999999999172, -1.1972959243608499 
0.9099999999999161, -1.1983581447987455 
0.919999999999915, -1.1992364819065433 
0.9299999999999139, -1.1997441064647925 
0.9399999999999128, -1.1998886818426826 
0.9499999999999117, -1.1996998457946948 
0.9599999999999106, -1.199161336521399 
0.9699999999999095, -1.198178936433371 
0.9799999999999084, -1.196553193815334 
0.9899999999999073, -1.193967211171103 
0.9999999999999062, -1.190071086503267 
1.0099999999999052, -1.1848641103145314 
1.019999999999904, -1.1795527003684312 
1.029999999999903, -1.1772687661901238 
1.039999999999902, -1.181691890482813 
1.0499999999999008, -1.1933268459452042 
1.0599999999998997, -1.2081936285744859 
1.0699999999998986, -1.2214670919313613 
1.0799999999998975, -1.230917487956727 
1.0899999999998964, -1.2367536741047391 
1.0999999999998953, -1.2400419345227949 
1.1099999999998942, -1.2417515410092195 
1.119999999999893, -1.242522942202012 
1.129999999999892, -1.2427231418453633 
1.1399999999998909, -1.242545036624491 
1.1499999999998898, -1.2420875229203558 
1.1599999999998887, -1.2414250360665284 
1.1699999999998876, -1.240694566126861 
1.1799999999998865, -1.240209301633407 
1.1899999999998854, -1.2405190446903698 
1.1999999999998843, -1.2422346958733397 
1.2099999999998832, -1.2456041065988832 
1.219999999999882, -1.2502540527820745 
1.229999999999881, -1.255419416690047 
1.2399999999998799, -1.2603672661657348 
1.2499999999998788, -1.2646240502013952 
1.2599999999998777, -1.267980320703725 
1.2699999999998766, -1.270414572132598 
1.2799999999998755, -1.272018455851164 
1.2899999999998744, -1.2729379993660082 
1.2999999999998733, -1.2733292363112323 
1.3099999999998722, -1.2733308725944883 
1.319999999999871, -1.2730566305361422 
1.32999999999987, -1.2726046648848064 
1.3399999999998689, -1.2720755768020042 
1.3499999999998678, -1.271583794842536 
1.3599999999998666, -1.2712446525032572 
1.3699999999998655, -1.27113749752171 
1.3799999999998644, -1.271275626985212 
1.3899999999998633, -1.2716099319194494 
1.3999999999998622, -1.2720552343412816 
1.4099999999998611, -1.2725159390309624 
1.41999999999986, -1.272903566777295 
1.429999999999859, -1.2731461658112253 
1.4399999999998578, -1.2731897869451358 
1.4499999999998567, -1.2729954679152897 
1.4599999999998556, -1.272536321400799 
1.4699999999998545, -1.2717965102593545 
1.4799999999998534, -1.270771693345083 
1.4899999999998523, -1.2694709711801124 
1.4999999999998512, -1.2679215999436946 
1.5099999999998501, -1.26617765486886 
1.519999999999849, -1.264331805045011 
1.529999999999848, -1.2625247054183317 
1.5399999999998468, -1.260937047319438 
1.5499999999998457, -1.25974177230451 
1.5599999999998446, -1.2590196513673564 
1.5699999999998435, -1.2587042879008137 
1.5799999999998424, -1.2586218975232626 
1.5899999999998413, -1.2585848523471201 
1.5999999999998402, -1.2584467378358626 
1.6099999999998391, -1.2580937545477995 
1.619999999999838, -1.2574037459926901 
1.629999999999837, -1.256199378018917 
1.6399999999998358, -1.2542054545940302 
1.6499999999998347, -1.251023420576962 
1.6599999999998336, -1.2461571072395794 
1.6699999999998325, -1.2391448426697773 
1.6799999999998314, -1.2298408134981478 
1.6899999999998303, -1.2187991426375464 
1.6999999999998292, -1.2075133657198645 
1.709999999999828, -1.19806048207207 
1.719999999999827, -1.1919954998203734 
1.729999999999826, -1.1893724113092918 
1.7399999999998248, -1.1890075286398836 
1.7499999999998237, -1.1895657574552492 
1.7599999999998226, -1.1902266318762391 
1.7699999999998215, -1.190665555281136 
1.7799999999998204, -1.1908069738814027 
1.7899999999998193, -1.1906425583728573 
1.7999999999998182, -1.1901410614002452 
1.809999999999817, -1.1891997807841737 
1.819999999999816, -1.1875993382864445 
1.8299999999998149, -1.1849508959338713 
1.8399999999998138, -1.180674493080556 
1.8499999999998127, -1.1741605144387004 
1.8599999999998116, -1.1654078978847073 
1.8699999999998105, -1.1561686981611006 
1.8799999999998094, -1.1502922738517996 
1.8899999999998083, -1.151240624388613 
1.8999999999998072, -1.1585484796159875 
1.909999999999806, -1.168278179469245 
1.919999999999805, -1.1767988939710101 
1.9299999999998039, -1.1827636418892333 
1.9399999999998028, -1.1864191874003258 
1.9499999999998017, -1.1884612551513205 
1.9599999999998006, -1.1894834243429173 
1.9699999999997995, -1.189867815313433 
1.9799999999997984, -1.189825343573522 
1.9899999999997973, -1.1894533593908714 
1.9999999999997962, -1.1887829926351452 
2.0099999999998173, -1.1878319996578675 
2.0199999999998384, -1.1867028850591155 
2.0299999999998595, -1.1857687988418932 
2.0399999999998806, -1.1858926859421017 
2.0499999999999017, -1.188363938935967 
2.059999999999923, -1.1941799221060847 
2.069999999999944, -1.203087118471289 
2.079999999999965, -1.2135154869899774 
2.089999999999986, -1.2235505493495702 
2.100000000000007, -1.2318742182167823 
2.1100000000000283, -1.2380198575706638 
2.1200000000000494, -1.2421404734629424 
2.1300000000000705, -1.2446688100468843 
2.1400000000000916, -1.2460679347880235 
2.1500000000001127, -1.2467116207680664 
2.160000000000134, -1.2468598238181312 
2.170000000000155, -1.2466817253259213 
2.180000000000176, -1.2462957878126228 
2.190000000000197, -1.2458144655088046 
2.2000000000002182, -1.2453833450014788 
2.2100000000002393, -1.2451887049803925 
2.2200000000002604, -1.2454036539047206 
2.2300000000002815, -1.24609697000967 
2.2400000000003026, -1.2471926045455963 
2.2500000000003237, -1.24852083822654 
2.260000000000345, -1.2499006800920323 
2.270000000000366, -1.2511887818644034 
2.280000000000387, -1.252289149754206 
2.290000000000408, -1.2531446972625422 
2.3000000000004293, -1.2537257914798172 
2.3100000000004504, -1.2540217270554144 
2.3200000000004715, -1.2540361317511601 
2.3300000000004926, -1.253785014835849 
2.3400000000005137, -1.2532959581121808 
2.3500000000005348, -1.2526083584586931 
2.360000000000556, -1.251775468615546 
2.370000000000577, -1.250866986895135 
2.380000000000598, -1.2499676198606804 
2.390000000000619, -1.249167607897101 
2.4000000000006403, -1.2485461719532103 
2.4100000000006614, -1.2481508179601997 
2.4200000000006825, -1.2479769164355692 
2.4300000000007036, -1.247961574227685 
2.4400000000007247, -1.2480037674796092 
2.450000000000746, -1.2479964799291288 
2.460000000000767, -1.2478444840676812 
2.470000000000788, -1.2474610725696944 
2.480000000000809, -1.2467563351670345 
2.49000000000083, -1.2456309720872514 
2.5000000000008513, -1.2439825669066618 
2.5100000000008724, -1.2417237599501534 
2.5200000000008935, -1.2388067541378942 
2.5300000000009146, -1.235249925997573 
2.5400000000009357, -1.2311691879418523 
2.550000000000957, -1.2268166135995517 
2.560000000000978, -1.2226043453191557 
2.570000000000999, -1.219047079261931 
2.58000000000102, -1.216564584071371 
2.5900000000010412, -1.2152425556015145 
2.6000000000010624, -1.2147973621780361 
2.6100000000010835, -1.214797529150499 
2.6200000000011046, -1.2148952486910483 
2.6300000000011257, -1.2148901343971823 
2.6400000000011468, -1.2146744324139604 
2.650000000001168, -1.2141560044960844 
2.660000000001189, -1.2131918068013445 
2.67000000000121, -1.2115218236073046 
2.680000000001231, -1.2086897434866555 
2.6900000000012523, -1.2039649322368553 
2.7000000000012734, -1.1963575453110127 
2.7100000000012945, -1.1849445412959525 
2.7200000000013156, -1.1697257154753726 
2.7300000000013367, -1.1526671408971938 
2.740000000001358, -1.13755734296589 
2.750000000001379, -1.1277553730276757 
2.7600000000014, -1.1238236401204102 
2.770000000001421, -1.1238082000190883 
2.780000000001442, -1.1253401047474405 
2.7900000000014633, -1.1269689533424436 
2.8000000000014844, -1.1281642924839501 
2.8100000000015055, -1.128863309379433 
2.8200000000015266, -1.1291419839552972 
2.8300000000015477, -1.129071544994262 
2.840000000001569, -1.1286710503297326 
2.85000000000159, -1.1278888960794866 
2.860000000001611, -1.126584105264803 
2.870000000001632, -1.1245048367055284 
2.8800000000016532, -1.121296083446925 
2.8900000000016743, -1.116637667236414 
2.9000000000016954, -1.1106911800769632 
2.9100000000017165, -1.1048732653677407 
2.9200000000017377, -1.1021670873859724 
2.9300000000017588, -1.1055240367161532 
2.94000000000178, -1.1149730989945583 
2.950000000001801, -1.1271414047392958 
2.960000000001822, -1.1381833576490366 
2.970000000001843, -1.1462526601349816 
2.9800000000018643, -1.1513939096488817 
2.9900000000018854, -1.154387381345963 
3.0000000000019065, -1.1559977504085852 
3.0100000000019276, -1.1567549499687648 
3.0200000000019487, -1.1569723030269592 
3.03000000000197, -1.156813263980712 
3.040000000001991, -1.1563472632000602 
3.050000000002012, -1.1555939878690558 
3.060000000002033, -1.1545802606478754 
3.070000000002054, -1.1534506214229556 
3.0800000000020753, -1.1526628423230059 
3.0900000000020964, -1.1531805149022767 
3.1000000000021175, -1.1563278101019128 
3.1100000000021386, -1.1630115446787714 
3.1200000000021597, -1.1728202046104672 
3.130000000002181, -1.1840518654294894 
3.140000000002202, -1.1947116206747705 
3.150000000002223, -1.203452026716874 
3.160000000002244, -1.2098303349465596 
3.1700000000022652, -1.2140575243978238 
3.1800000000022863, -1.2166254521677042 
3.1900000000023074, -1.2180372716258432 
3.2000000000023285, -1.2186865496826544 
3.2100000000023496, -1.2188398568070242 
3.2200000000023707, -1.2186662009625135 
3.230000000002392, -1.2182804984991145 
3.240000000002413, -1.2177908357476985 
3.250000000002434, -1.217343668308786 
3.260000000002455, -1.2171436445920023 
3.2700000000024763, -1.2174085922099456 
3.2800000000024974, -1.2182623371940224 
3.2900000000025185, -1.2196563036598742 
3.3000000000025396, -1.2214014738316021 
3.3100000000025607, -1.223268726775895 
3.3200000000025818, -1.225065720193078 
3.330000000002603, -1.22666044984723 
3.340000000002624, -1.2279735329248371 
3.350000000002645, -1.2289635474079654 
3.360000000002666, -1.2296161775993897 
3.3700000000026873, -1.2299384018023383 
3.3800000000027084, -1.2299548964867264 
3.3900000000027295, -1.2297041722744777 
3.4000000000027506, -1.2292350460962713 
3.4100000000027717, -1.2286060313178901 
3.420000000002793, -1.2278879173628208 
3.430000000002814, -1.2271644425602992 
3.440000000002835, -1.2265238101342704 
3.450000000002856, -1.2260406978217742 
3.460000000002877, -1.2257578914157472 
3.4700000000028983, -1.2256754212009107 
3.4800000000029194, -1.2257490231278472 
3.4900000000029405, -1.2259004726954916 
3.5000000000029616, -1.2260383336792757 
3.5100000000029827, -1.2260769177045296 
3.520000000003004, -1.225943109082476 
3.530000000003025, -1.2255737447758235 
3.540000000003046, -1.2249126558033103 
3.550000000003067, -1.2239127313693916 
3.5600000000030882, -1.2225420569577923 
3.5700000000031094, -1.220790425308165 
3.5800000000031305, -1.2186748424826923 
3.5900000000031516, -1.2162468256718688 
3.6000000000031727, -1.213605163387808 
3.6100000000031938, -1.2109122478503536 
3.620000000003215, -1.2083988462742896 
3.630000000003236, -1.2063267075604833 
3.640000000003257, -1.2048904051820235 
3.650000000003278, -1.204109864895837 
3.6600000000032993, -1.2038195122872393 
3.6700000000033204, -1.2037735231212565 
3.6800000000033415, -1.2037589772712125 
3.6900000000033626, -1.203631429708864 
3.7000000000033837, -1.2032864297571495 
3.710000000003405, -1.202610931920863 
3.720000000003426, -1.201435079571362 
3.730000000003447, -1.1994875099495066 
3.740000000003468, -1.1963635591165462 
3.750000000003489, -1.1915407005342151 
3.7600000000035103, -1.184502515285458 
3.7700000000035314, -1.1750203635052263 
3.7800000000035525, -1.1635396123678343 
3.7900000000035736, -1.1514266037851109 
3.8000000000035947, -1.1406943866939987 
3.810000000003616, -1.1330716239796192 
3.820000000003637, -1.1290319933438488 
3.830000000003658, -1.127738477294924 
3.840000000003679, -1.127885141986713 
3.8500000000037002, -1.1284734515765582 
3.8600000000037213, -1.1289995272705091 
3.8700000000037424, -1.1292886398537305 
3.8800000000037635, -1.1293024948869226 
3.8900000000037847, -1.1290235948081422 
3.9000000000038058, -1.1283956096565242 
3.910000000003827, -1.127280651136029 
3.920000000003848, -1.125407109964764 
3.930000000003869, -1.122299179908126 
3.94000000000389, -1.1172165791434048 
3.9500000000039113, -1.109225512289819 
3.9600000000039324, -1.0976558695805294 
3.9700000000039535, -1.0831012957407484 
3.9800000000039746, -1.0682722296124816 
3.9900000000039957, -1.0570769124443293 
4.000000000004016, -1.0518760103870148 
4.010000000003993, -1.0519044735991794 
4.02000000000397, -1.05460707362282 
4.030000000003946, -1.057771014754208 
4.040000000003923, -1.060332317600239 
4.0500000000039, -1.062065500008508 
4.0600000000038765, -1.0630901478528214 
4.070000000003853, -1.0635850010979526 
4.08000000000383, -1.063683767081168 
4.090000000003807, -1.0634523455376406 
4.100000000003783, -1.062886749947935 
4.11000000000376, -1.0619071351786393 
4.120000000003737, -1.0603420040004559 
4.130000000003713, -1.0579119997440618 
4.14000000000369, -1.0542532377023077 
4.150000000003667, -1.0490775052680108 
4.1600000000036434, -1.042599700755235 
4.17000000000362, -1.0361540931694857 
4.180000000003597, -1.0322886637254942 
4.1900000000035735, -1.0333951626953635 
4.20000000000355, -1.0396108012432679 
4.210000000003527, -1.0485192826514793 
4.220000000003504, -1.057163386525158 
4.23000000000348, -1.0638707810474264 
4.240000000003457, -1.0683909113971803 
4.250000000003434, -1.0711643253678729 
4.26000000000341, -1.0727361644968787 
4.270000000003387, -1.0735262928311686 
4.280000000003364, -1.0738001989846426 
4.2900000000033405, -1.0737005690614199 
4.300000000003317, -1.0732802456396153 
4.310000000003294, -1.0725230602319844 
4.320000000003271, -1.0713587147360621 
4.330000000003247, -1.0696940068636287 
4.340000000003224, -1.0675100215764282 
4.350000000003201, -1.065103896357351 
4.360000000003177, -1.063495942325897 
4.370000000003154, -1.0646978675637033 
4.380000000003131, -1.0710692487486875 
4.390000000003107, -1.0834515996549412 
4.400000000003084, -1.0997282359275335 
4.410000000003061, -1.1159575155860306 
4.4200000000030375, -1.1290611481068078 
4.430000000003014, -1.1381242449966231 
4.440000000002991, -1.1437547339793963 
4.450000000002968, -1.1469967678601618 
4.460000000002944, -1.1487351010778384 
4.470000000002921, -1.1495593798264487 
4.480000000002898, -1.1498168360955385 
4.490000000002874, -1.14969501760705 
4.500000000002851, -1.1492879959661633 
4.510000000002828, -1.148649766911442 
4.520000000002804, -1.1478569881740175 
4.530000000002781, -1.1471060744131207 
4.540000000002758, -1.1468368321395066 
4.5500000000027345, -1.1477726657675542 
4.560000000002711, -1.15068266962091 
4.570000000002688, -1.1558787736155764 
4.580000000002665, -1.162888774888279 
4.590000000002641, -1.1706710367283066 
4.600000000002618, -1.1781314335755115 
4.610000000002595, -1.1844982699243505 
4.620000000002571, -1.1894222901779805 
4.630000000002548, -1.1929028541324975 
4.640000000002525, -1.195150580834287 
4.6500000000025015, -1.1964526280071524 
4.660000000002478, -1.1970786820838826 
4.670000000002455, -1.1972388859949168 
4.6800000000024315, -1.1970822819699598 
4.690000000002408, -1.1967182155662504 
4.700000000002385, -1.1962484093911747 
4.710000000002362, -1.1957993111930554 
4.720000000002338, -1.1955349361256136 
4.730000000002315, -1.1956242423147279 
4.740000000002292, -1.1961678873090758 
4.750000000002268, -1.197144013347416 
4.760000000002245, -1.1984254718494534 
4.770000000002222, -1.1998449918372684 
4.7800000000021985, -1.2012507276766144 
4.790000000002175, -1.202528974043386 
4.800000000002152, -1.2036040311247462 
4.810000000002129, -1.2044299084982597 
4.820000000002105, -1.204982303833122 
4.830000000002082, -1.2052538888167983 
4.840000000002059, -1.2052524335577008 
4.850000000002035, -1.204999725087855 
4.860000000002012, -1.204530176636183 
4.870000000001989, -1.203890183897009 
4.880000000001965, -1.2031394489973377 
4.890000000001942, -1.2023521836091196 
4.900000000001919, -1.2016126282387873 
4.9100000000018955, -1.2010016096270357 
4.920000000001872, -1.200578453069088 
4.930000000001849, -1.200365718294122 
4.940000000001826, -1.2003411397681978 
