t, s[1].omega / s[0].omega 
0, -0.9200708683346648 
0.009999999999999995, -0.926689523835725 
0.019999999999999934, -0.932107341970115 
0.029999999999999874, -0.9361467686836595 
0.04000000000000012, -0.9389028588692305 
0.050000000000000405, -0.9406241407465223 
0.06000000000000069, -0.9415857865476628 
0.07000000000000098, -0.9420153779410507 
0.08000000000000126, -0.9420722029344935 
0.09000000000000155, -0.9418558350807705 
0.10000000000000184, -0.9414253121514031 
0.11000000000000212, -0.9408234660899379 
0.12000000000000241, -0.940111237619368 
0.130000000000002, -0.9394220069990483 
0.1400000000000009, -0.9390411434138446 
0.1499999999999998, -0.9394894422423201 
0.1599999999999987, -0.9415373870496548 
0.1699999999999976, -0.946042346639465 
0.1799999999999965, -0.9535725313293881 
0.1899999999999954, -0.9639778126767695 
0.1999999999999943, -0.9762180686199342 
0.2099999999999932, -0.9886572016129328 
0.2199999999999921, -0.9997022330534614 
0.229999999999991, -1.008384519685523 
0.2399999999999899, -1.0145288032557749 
0.2499999999999888, -1.0185137522620133 
0.2599999999999877, -1.0209097011564547 
0.2699999999999866, -1.022232604343303 
0.2799999999999855, -1.0228565319034342 
0.2899999999999844, -1.023019460776893 
0.2999999999999833, -1.0228590106463897 
0.3099999999999822, -1.0224493009623032 
0.3199999999999811, -1.0218357160794587 
0.32999999999998, -1.021078032713414 
0.3399999999999789, -1.0203181431519466 
0.3499999999999778, -1.0198792379132235 
0.35999999999997667, -1.0203580148163995 
0.36999999999997557, -1.0225923983573277 
0.37999999999997447, -1.0273746855364527 
0.38999999999997337, -1.0349756476256975 
0.39999999999997227, -1.0448221580473764 
0.40999999999997117, -1.0556329006011538 
0.41999999999997006, -1.065934417034444 
0.42999999999996896, -1.0746038740203654 
0.43999999999996786, -1.0811445889155966 
0.44999999999996676, -1.085630613539573 
0.45999999999996566, -1.0884567868450619 
0.46999999999996456, -1.0900875155471637 
0.47999999999996346, -1.0909122138553085 
0.48999999999996235, -1.0912046728743254 
0.49999999999996125, -1.0911382509995249 
0.5099999999999602, -1.0908193235517947 
0.519999999999959, -1.0903254001737623 
0.529999999999958, -1.0897499934783177 
0.5399999999999568, -1.0892575287075454 
0.5499999999999557, -1.0891318332607858 
0.5599999999999546, -1.089765118727571 
0.5699999999999535, -1.0915321331195627 
0.5799999999999524, -1.0945915792783336 
0.5899999999999513, -1.0987717785509605 
0.5999999999999502, -1.1036393046356112 
0.6099999999999491, -1.1086721386695195 
0.619999999999948, -1.1134051450761349 
0.6299999999999469, -1.1175012969744775 
0.6399999999999458, -1.1207722594068663 
0.6499999999999447, -1.1231726765098828 
0.6599999999999436, -1.1247719989526601 
0.6699999999999425, -1.1257070555084678 
0.6799999999999414, -1.1261318102426985 
0.6899999999999403, -1.1261832169887578 
0.6999999999999392, -1.125970384068084 
0.7099999999999381, -1.1255831514119816 
0.719999999999937, -1.1251125835287363 
0.7299999999999359, -1.124673745259549 
0.7399999999999348, -1.1244144501542048 
0.7499999999999337, -1.1244905862283099 
0.7599999999999326, -1.1250092794762756 
0.7699999999999315, -1.1259790533132716 
0.7799999999999304, -1.127309410610876 
0.7899999999999293, -1.1288552380881243 
0.7999999999999282, -1.1304666805259693 
0.8099999999999271, -1.1320179308991503 
0.819999999999926, -1.1334146152210018 
0.8299999999999249, -1.1345902243862342 
0.8399999999999238, -1.1355007025810928 
0.8499999999999227, -1.1361218161849547 
0.8599999999999216, -1.1364493233242232 
0.8699999999999205, -1.136498867503428 
0.8799999999999194, -1.1363030924568371 
0.8899999999999183, -1.1359071366887714 
0.8999999999999172, -1.135366171817886 
0.9099999999999161, -1.1347467269982974 
0.919999999999915, -1.1341282994889925 
0.9299999999999139, -1.133597870953785 
0.9399999999999128, -1.1332333143588653 
0.9499999999999117, -1.1330823205849736 
0.9599999999999106, -1.133149703142935 
0.9699999999999095, -1.133399067117789 
0.9799999999999084, -1.1337649958397793 
0.9899999999999073, -1.134169536148065 
0.9999999999999062, -1.134537550068415 
1.0099999999999052, -1.1348064461391714 
1.019999999999904, -1.134929302104221 
1.029999999999903, -1.1348740734009772 
1.039999999999902, -1.1346218090959383 
1.0499999999999008, -1.134164937402395 
1.0599999999998997, -1.1335058096216024 
1.0699999999998986, -1.132656135086192 
1.0799999999998975, -1.1316380962171446 
1.0899999999998964, -1.130487158294363 
1.0999999999998953, -1.129255433896157 
1.1099999999998942, -1.128013288879219 
1.119999999999893, -1.1268461070643214 
1.129999999999892, -1.125843541998608 
1.1399999999998909, -1.1250803607461541 
1.1499999999998898, -1.1245922718496328 
1.1599999999998887, -1.1243582868968063 
1.1699999999998876, -1.124304444053391 
1.1799999999998865, -1.1243294055058035 
1.1899999999998854, -1.1243330078297038 
1.1999999999998843, -1.1242297730764257 
1.2099999999998832, -1.1239466131459819 
1.219999999999882, -1.1234153691382738 
1.229999999999881, -1.122570263444135 
1.2399999999998799, -1.1213543145896714 
1.2499999999998788, -1.1197319708091906 
1.2599999999998777, -1.1177007458343726 
1.2699999999998766, -1.11529629916518 
1.2799999999998755, -1.1125922828367787 
1.2899999999998744, -1.109700770391396 
1.2999999999998733, -1.1067756061975162 
1.3099999999998722, -1.1040116142721534 
1.319999999999871, -1.1016238305742192 
1.32999999999987, -1.0997939472064457 
1.3399999999998689, -1.0985986407158514 
1.3499999999998678, -1.0979708660654284 
1.3599999999998666, -1.097734762962717 
1.3699999999998655, -1.097687477950519 
1.3799999999998644, -1.0976622823791686 
1.3899999999998633, -1.0975419936167183 
1.3999999999998622, -1.0972381140920917 
1.4099999999998611, -1.0966608043711372 
1.41999999999986, -1.095693696413243 
1.429999999999859, -1.094180577519902 
1.4399999999998578, -1.0919325506007795 
1.4499999999998567, -1.0887653144481702 
1.4599999999998556, -1.0845652595483808 
1.4699999999998545, -1.0793615112969845 
1.4799999999998534, -1.0733709518003813 
1.4899999999998523, -1.06699859640892 
1.4999999999998512, -1.060792333696242 
1.5099999999998501, -1.055344836670612 
1.519999999999849, -1.0511361790102471 
1.529999999999848, -1.0483653517396374 
1.5399999999998468, -1.0468859045082828 
1.5499999999998457, -1.046314575690916 
1.5599999999998446, -1.0462289155519582 
1.5699999999998435, -1.0463068357271956 
1.5799999999998424, -1.0463542366352072 
1.5899999999998413, -1.0462648044178304 
1.5999999999998402, -1.0459666976719308 
1.6099999999998391, -1.0453788979218799 
1.619999999999838, -1.0443775469459387 
1.629999999999837, -1.0427692734415954 
1.6399999999998358, -1.0402779892697644 
1.6499999999998347, -1.0365672796581593 
1.6599999999998336, -1.031327897955381 
1.6699999999998325, -1.0244328021112634 
1.6799999999998314, -1.0160967173985802 
1.6899999999998303, -1.0069342665824919 
1.6999999999998292, -0.9978543725987619 
1.709999999999828, -0.9898190368932687 
1.719999999999827, -0.983555283169338 
1.729999999999826, -0.9793393103873758 
1.7399999999998248, -0.9769669135476982 
1.7499999999998237, -0.9759280247024014 
1.7599999999998226, -0.9756605759541606 
1.7699999999998215, -0.9757261341551965 
1.7799999999998204, -0.9758537841836802 
1.7899999999998193, -0.9759002345677944 
1.7999999999998182, -0.9757896751597 
1.809999999999817, -0.975464628316165 
1.819999999999816, -0.9748516090432069 
1.8299999999998149, -0.9738365306684479 
1.8399999999998138, -0.9722484194550989 
1.8499999999998127, -0.9698600871607361 
1.8599999999998116, -0.9664244882535374 
1.8699999999998105, -0.9617605770362949 
1.8799999999998094, -0.9558670837079385 
1.8899999999998083, -0.9489977156942937 
1.8999999999998072, -0.9416381473444778 
1.909999999999806, -0.9343942220749986 
1.919999999999805, -0.927852203831594 
1.9299999999998039, -0.9224591390383111 
1.9399999999998028, -0.9184421557425351 
1.9499999999998017, -0.9157818609208215 
1.9599999999998006, -0.9142546967889713 
1.9699999999997995, -0.913531622291105 
1.9799999999997984, -0.9132853814174536 
1.9899999999997973, -0.9132584546092726 
1.9999999999997962, -0.9132785670687733 
2.0099999999998173, -0.9132397739659448 
2.0199999999998384, -0.9130729441813331 
2.0299999999998595, -0.912719804165192 
2.0399999999998806, -0.9121154565826364 
2.0499999999999017, -0.9111813081066578 
2.059999999999923, -0.9098313738071759 
2.069999999999944, -0.907994240217395 
2.079999999999965, -0.9056451816298956 
2.089999999999986, -0.9028309799402277 
2.100000000000007, -0.8996689423420723 
2.1100000000000283, -0.896319821403339 
2.1200000000000494, -0.8929538344891965 
2.1300000000000705, -0.8897280670637387 
2.1400000000000916, -0.8867779017044791 
2.1500000000001127, -0.8842139121431604 
2.160000000000134, -0.8821158433444394 
2.170000000000155, -0.880522119804479 
2.180000000000176, -0.8794205436003221 
2.190000000000197, -0.8787486073304656 
2.2000000000002182, -0.8784074170093336 
2.2100000000002393, -0.8782843485125202 
2.2200000000002604, -0.8782740343038627 
2.2300000000002815, -0.8782898425438377 
2.2400000000003026, -0.878265158245993 
2.2500000000003237, -0.8781490658116484 
2.260000000000345, -0.8779020185403498 
2.270000000000366, -0.8774951060208291 
2.280000000000387, -0.8769132023012898 
2.290000000000408, -0.8761587743501968 
2.3000000000004293, -0.87525171408441 
2.3100000000004504, -0.87422339571488 
2.3200000000004715, -0.8731082711447848 
2.3300000000004926, -0.8719383495212749 
2.3400000000005137, -0.8707430137323857 
2.3500000000005348, -0.8695525108883684 
2.360000000000556, -0.8684017919573455 
2.370000000000577, -0.8673321245281326 
2.380000000000598, -0.8663892596962327 
2.390000000000619, -0.8656180831794735 
2.4000000000006403, -0.8650548697639084 
2.4100000000006614, -0.8647194701625913 
2.4200000000006825, -0.8646102936599952 
2.4300000000007036, -0.8647041869787252 
2.4400000000007247, -0.8649613968606531 
2.450000000000746, -0.8653336953908104 
2.460000000000767, -0.8657726931943408 
2.470000000000788, -0.8662359356227395 
2.480000000000809, -0.8666898355937731 
2.49000000000083, -0.8671095795239898 
2.5000000000008513, -0.8674765074691402 
2.5100000000008724, -0.8677739472869257 
2.5200000000008935, -0.867983614969492 
2.5300000000009146, -0.8680853300588639 
2.5400000000009357, -0.8680611627451714 
2.550000000000957, -0.8679017602698862 
2.560000000000978, -0.8676108567910334 
2.570000000000999, -0.8672060281762592 
2.58000000000102, -0.8667173320693357 
2.5900000000010412, -0.8661867826945919 
2.6000000000010624, -0.8656698562882953 
2.6100000000010835, -0.865237307168572 
2.6200000000011046, -0.8649735640907166 
2.6300000000011257, -0.8649683974580509 
2.6400000000011468, -0.8653020628452521 
2.650000000001168, -0.8660289872695766 
2.660000000001189, -0.8671671535744301 
2.67000000000121, -0.8686971610400299 
2.680000000001231, -0.8705689885374415 
2.6900000000012523, -0.872710598057758 
2.7000000000012734, -0.8750329924380271 
2.7100000000012945, -0.8774302752901277 
2.7200000000013156, -0.8797787262867347 
2.7300000000013367, -0.8819431268300681 
2.740000000001358, -0.8837967032072898 
2.750000000001379, -0.8852500146600946 
2.7600000000014, -0.8862718602667427 
2.770000000001421, -0.8868875860014803 
2.780000000001442, -0.8871576567650802 
2.7900000000014633, -0.887152465047756 
2.8000000000014844, -0.8869366229907903 
2.8100000000015055, -0.8865664202535763 
2.8200000000015266, -0.8860987192078074 
2.8300000000015477, -0.885609200231108 
2.840000000001569, -0.8852178286629806 
2.85000000000159, -0.8851153696377383 
2.860000000001611, -0.8855761567617637 
2.870000000001632, -0.8869358998399927 
2.8800000000016532, -0.8895219244287464 
2.8900000000016743, -0.8935505367613134 
2.9000000000016954, -0.8990317925669034 
2.9100000000017165, -0.9057202917038761 
2.9200000000017377, -0.9131281838712348 
2.9300000000017588, -0.920602750983279 
2.94000000000178, -0.9274673071077387 
2.950000000001801, -0.9331968302975024 
2.960000000001822, -0.9375489368670369 
2.970000000001843, -0.9405712851121342 
2.9800000000018643, -0.9424945629034831 
2.9900000000018854, -0.9435990071434167 
3.0000000000019065, -0.9441270289024507 
3.0100000000019276, -0.9442531648171284 
3.0200000000019487, -0.9440887188424891 
3.03000000000197, -0.9436998224074815 
3.040000000001991, -0.9431307846974495 
3.050000000002012, -0.9424358274977196 
3.060000000002033, -0.94172868990461 
3.070000000002054, -0.9412573919261609 
3.0800000000020753, -0.9414899531356504 
3.0900000000020964, -0.9431488024561524 
3.1000000000021175, -0.9470882036559027 
3.1100000000021386, -0.9539559001046664 
3.1200000000021597, -0.963759579542014 
3.130000000002181, -0.9756313629261915 
3.140000000002202, -0.9880305833265945 
3.150000000002223, -0.9993294994445524 
3.160000000002244, -1.0084248576836674 
3.1700000000022652, -1.0149952106060807 
3.1800000000022863, -1.0193304309960698 
3.1900000000023074, -1.021977934584487 
3.2000000000023285, -1.0234686523945042 
3.2100000000023496, -1.0242021464825268 
3.2200000000023707, -1.024438896894933 
3.230000000002392, -1.0243326120579817 
3.240000000002413, -1.0239673619106964 
3.250000000002434, -1.0233923188874752 
3.260000000002455, -1.0226624034754224 
3.2700000000024763, -1.0219002505182946 
3.2800000000024974, -1.0213890108167942 
3.2900000000025185, -1.0216677383261243 
3.3000000000025396, -1.0235264556641344 
3.3100000000025607, -1.0277675130622492 
3.3200000000025818, -1.0347583911898266 
3.330000000002603, -1.044077293985112 
3.340000000002624, -1.0545725892638074 
3.350000000002645, -1.0648165192119063 
3.360000000002666, -1.0736381340099646 
3.3700000000026873, -1.0804391931791677 
3.3800000000027084, -1.0851966177760182 
3.3900000000027295, -1.088248650226529 
3.4000000000027506, -1.0900445599249544 
3.4100000000027717, -1.0909822629344288 
3.420000000002793, -1.0913510149162629 
3.430000000002814, -1.091337907573551 
3.440000000002835, -1.091058253089685 
3.450000000002856, -1.0905923034054432 
3.460000000002877, -1.090028004617012 
3.4700000000028983, -1.0895134022817163 
3.4800000000029194, -1.0893066809480918 
3.4900000000029405, -1.0897774920342225 
3.5000000000029616, -1.0913020772655975 
3.5100000000029827, -1.0940748124258446 
3.520000000003004, -1.0979779706482486 
3.530000000003025, -1.1026236498049615 
3.540000000003046, -1.1075136453274754 
3.550000000003067, -1.1121869649559128 
3.5600000000030882, -1.1162967421692382 
3.5700000000031094, -1.1196347404943585 
3.5800000000031305, -1.122130232799123 
3.5900000000031516, -1.123828863181108 
3.6000000000031727, -1.1248515461457262 
3.6100000000031938, -1.1253458877067408 
3.620000000003215, -1.12544917232525 
3.630000000003236, -1.1252731409154821 
3.640000000003257, -1.124908900822491 
3.650000000003278, -1.124445131729691 
3.6600000000032993, -1.1239905951386766 
3.6700000000033204, -1.1236860851793375 
3.6800000000033415, -1.1236863476909371 
3.6900000000033626, -1.1241081768840957 
3.7000000000033837, -1.1249775614715902 
3.710000000003405, -1.1262203507963364 
3.720000000003426, -1.127700449969439 
3.730000000003447, -1.1292698002248627 
3.740000000003468, -1.1308004146421093 
3.750000000003489, -1.132194619485463 
3.7600000000035103, -1.1333827951682314 
3.7700000000035314, -1.1343179398673011 
3.7800000000035525, -1.1349724033759703 
3.7900000000035736, -1.1353377168369039 
3.8000000000035947, -1.1354249575266093 
3.810000000003616, -1.1352627445194616 
3.820000000003637, -1.1348931130933164 
3.830000000003658, -1.1343685750485561 
3.840000000003679, -1.133752767733949 
3.8500000000037002, -1.1331223435486792 
3.8600000000037213, -1.1325632378559247 
3.8700000000037424, -1.1321561237374376 
3.8800000000037635, -1.131955505955366 
3.8900000000037847, -1.131974808435467 
3.9000000000038058, -1.1321852475068344 
3.910000000003827, -1.1325261976403298 
3.920000000003848, -1.1329211019575927 
3.930000000003869, -1.1332934359613103 
3.94000000000389, -1.1335777809091838 
3.9500000000039113, -1.1337241112364702 
3.9600000000039324, -1.1336975196486259 
3.9700000000039535, -1.1334765450343522 
3.9800000000039746, -1.1330514903513897 
3.9900000000039957, -1.1324229023988033 
4.000000000004016, -1.1316007209466157 
4.010000000003993, -1.130604974160581 
4.02000000000397, -1.1294682811452135 
4.030000000003946, -1.1282392652003086 
4.040000000003923, -1.1269847770010202 
4.0500000000039, -1.125787914729711 
4.0600000000038765, -1.1247389523490132 
4.070000000003853, -1.1239177566512706 
4.08000000000383, -1.1233698911608212 
4.090000000003807, -1.1230862984855483 
4.100000000003783, -1.123001997884202 
4.11000000000376, -1.1230184419996068 
4.120000000003737, -1.1230333919680202 
4.130000000003713, -1.1229581364903 
4.14000000000369, -1.1227176912437293 
4.150000000003667, -1.122243397173502 
4.1600000000036434, -1.1214687871083924 
4.17000000000362, -1.1203341644262699 
4.180000000003597, -1.118798488478199 
4.1900000000035735, -1.1168518629104696 
4.20000000000355, -1.1145220976896748 
4.210000000003527, -1.1118751050247409 
4.220000000003504, -1.109014609823433 
4.23000000000348, -1.10608494829942 
4.240000000003457, -1.1032721775907581 
4.250000000003434, -1.100789181585282 
4.26000000000341, -1.0988297240511469 
4.270000000003387, -1.0974980272414125 
4.280000000003364, -1.0967583638215324 
4.2900000000033405, -1.0964532714868542 
4.300000000003317, -1.0963798803365448 
4.310000000003294, -1.096361270667236 
4.320000000003271, -1.0962706304422893 
4.330000000003247, -1.0960158418051713 
4.340000000003224, -1.0955101302985133 
4.350000000003201, -1.0946454020507945 
4.360000000003177, -1.0932760062342899 
4.370000000003154, -1.091220738535518 
4.380000000003131, -1.0882929158553718 
4.390000000003107, -1.0843604991496578 
4.400000000003084, -1.0794179696320794 
4.410000000003061, -1.073637550955606 
4.4200000000030375, -1.0673784648518443 
4.430000000003014, -1.0611524303045328 
4.440000000002991, -1.055541633879665 
4.450000000002968, -1.0510585169221045 
4.460000000002944, -1.0479758841933071 
4.470000000002921, -1.0462288240657096 
4.480000000002898, -1.045480793885871 
4.490000000002874, -1.0453091573710438 
4.500000000002851, -1.0453656905809372 
4.510000000002828, -1.0454294189214592 
4.520000000002804, -1.0453781050841535 
4.530000000002781, -1.0451357786158553 
4.540000000002758, -1.0446268146329372 
4.5500000000027345, -1.0437406839362977 
4.560000000002711, -1.0423041109368723 
4.570000000002688, -1.0400642560008566 
4.580000000002665, -1.0367010828793806 
4.590000000002641, -1.0318975237281374 
4.600000000002618, -1.0254783476787688 
4.610000000002595, -1.0175706908434996 
4.620000000002571, -1.0086876645394498 
4.630000000002548, -0.9996617516491562 
4.640000000002525, -0.9914384314248471 
4.6500000000025015, -0.9848033644602561 
4.660000000002478, -0.9801472759420731 
4.670000000002455, -0.9773835071701618 
4.6800000000024315, -0.9760702000533381 
4.690000000002408, -0.9756512065169982 
4.700000000002385, -0.9756569507670267 
4.710000000002362, -0.9757798337101967 
4.720000000002338, -0.97585089485532 
4.730000000002315, -0.9757821880571974 
4.740000000002292, -0.975514706814729 
4.750000000002268, -0.9749811339271808 
4.760000000002245, -0.9740795359671633 
4.770000000002222, -0.9726552094397414 
4.7800000000021985, -0.9704966362127768 
4.790000000002175, -0.9673620639730325 
4.800000000002152, -0.9630529500138737 
4.810000000002129, -0.9575224533924833 
4.820000000002105, -0.9509616839438231 
4.830000000002082, -0.9437991477621674 
4.840000000002059, -0.9366075273981798 
4.850000000002035, -0.9299712255922137 
4.860000000002012, -0.9243660616825032 
4.870000000001989, -0.920071930809911 
4.880000000001965, -0.9171313212002288 
4.890000000001942, -0.9153712182089724 
4.900000000001919, -0.914486993814438 
4.9100000000018955, -0.9141496496104793 
4.920000000001872, -0.9140853091356419 
4.930000000001849, -0.9141033674648031 
