t, s[1].omega / s[0].omega 
0, -0.1499978260214196 
0.009999999999999995, -0.14989869467347886 
0.019999999999999934, -0.15001720657547146 
0.029999999999999874, -0.1503051123843882 
0.04000000000000012, -0.15068856587039287 
0.050000000000000405, -0.1510828105711003 
0.06000000000000069, -0.15141182775577453 
0.07000000000000098, -0.15162248451801572 
0.08000000000000126, -0.15168598335354488 
0.09000000000000155, -0.15158865862359056 
0.10000000000000184, -0.15131883964083312 
0.11000000000000212, -0.1508545175333858 
0.12000000000000241, -0.1501531550163367 
0.130000000000002, -0.14914445158744316 
0.1400000000000009, -0.14773062470567583 
0.1499999999999998, -0.14580591816683286 
0.1599999999999987, -0.143309720733431 
0.1699999999999976, -0.14030572741431707 
0.1799999999999965, -0.13702734519080623 
0.1899999999999954, -0.13381534550154417 
0.1999999999999943, -0.13097226275110557 
0.2099999999999932, -0.12865608598352124 
0.2199999999999921, -0.12687913077108628 
0.229999999999991, -0.1255672486607809 
0.2399999999999899, -0.12461608291133572 
0.2499999999999888, -0.12392242181521196 
0.2599999999999877, -0.12339681267549359 
0.2699999999999866, -0.12296725194095248 
0.2799999999999855, -0.12257879615003626 
0.2899999999999844, -0.12219032980319164 
0.2999999999999833, -0.12176882007668388 
0.3099999999999822, -0.12128119134458856 
0.3199999999999811, -0.12068290297963 
0.32999999999998, -0.11990006234987056 
0.3399999999999789, -0.11879884637180653 
0.3499999999999778, -0.11713482578715106 
0.35999999999997667, -0.1144878885495672 
0.36999999999997557, -0.11024866447515949 
0.37999999999997447, -0.10384059676471183 
0.38999999999997337, -0.09530988765284928 
0.39999999999997227, -0.08578374583276847 
0.40999999999997117, -0.07691975280530018 
0.41999999999997006, -0.06980694435831368 
0.42999999999996896, -0.06461716340709209 
0.43999999999996786, -0.061002825506634197 
0.44999999999996676, -0.058515950403652914 
0.45999999999996566, -0.05678796104186915 
0.46999999999996456, -0.05555787496935727 
0.47999999999996346, -0.054651282308746184 
0.48999999999996235, -0.05395429084777993 
0.49999999999996125, -0.05339341048201697 
0.5099999999999602, -0.05292138106201405 
0.519999999999959, -0.052506639240199625 
0.529999999999958, -0.05212351017201318 
0.5399999999999568, -0.0517383624520222 
0.5499999999999557, -0.05128154833729505 
0.5599999999999546, -0.050582723301023015 
0.5699999999999535, -0.04922956645349759 
0.5799999999999524, -0.04633032576899429 
0.5899999999999513, -0.04039557596661942 
0.5999999999999502, -0.03010940779071798 
0.6099999999999491, -0.016263663752948743 
0.619999999999948, -0.002147528159438707 
0.6299999999999469, 0.008914587549952663 
0.6399999999999458, 0.016475932725929322 
0.6499999999999447, 0.021280214017022132 
0.6599999999999436, 0.02423068931202119 
0.6699999999999425, 0.026015559177044623 
0.6799999999999414, 0.027079329272469522 
0.6899999999999403, 0.027694763539779326 
0.6999999999999392, 0.028027933579362247 
0.7099999999999381, 0.028180758176978016 
0.719999999999937, 0.028217069617086886 
0.7299999999999359, 0.02817973317179715 
0.7399999999999348, 0.02810521847512474 
0.7499999999999337, 0.028043177928286332 
0.7599999999999326, 0.02809439823975296 
0.7699999999999315, 0.028492307144941116 
0.7799999999999304, 0.029758697499201254 
0.7899999999999293, 0.03288615226785157 
0.7999999999999282, 0.039167922047396025 
0.8099999999999271, 0.04902776914010078 
0.819999999999926, 0.06067640855084443 
0.8299999999999249, 0.07119336324756452 
0.8399999999999238, 0.07895982457848569 
0.8499999999999227, 0.08404579224906794 
0.8599999999999216, 0.08717910658041764 
0.8699999999999205, 0.08904795736448931 
0.8799999999999194, 0.09013138131215231 
0.8899999999999183, 0.09073291526743697 
0.8999999999999172, 0.09104211769599024 
0.9099999999999161, 0.09118005941815319 
0.919999999999915, 0.09122816477744065 
0.9299999999999139, 0.09124743411931324 
0.9399999999999128, 0.09129432243291263 
0.9499999999999117, 0.09143854639428434 
0.9599999999999106, 0.09178815290508238 
0.9699999999999095, 0.09252576695737497 
0.9799999999999084, 0.09394729738141498 
0.9899999999999073, 0.09645096836439794 
0.9999999999999062, 0.10036041156651528 
1.0099999999999052, 0.10554636045227983 
1.019999999999904, 0.1112155083148588 
1.029999999999903, 0.11633089611419054 
1.039999999999902, 0.12026537732778879 
1.0499999999999008, 0.12295457836287209 
1.0599999999998997, 0.12463299459874763 
1.0699999999998986, 0.12558425406102022 
1.0799999999998975, 0.1260408330457962 
1.0899999999998964, 0.1261734293866272 
1.0999999999998953, 0.12610669177600892 
1.1099999999998942, 0.1259343888216948 
1.119999999999893, 0.12572879885399818 
1.129999999999892, 0.1255469046185339 
1.1399999999998909, 0.12543665456698913 
1.1499999999998898, 0.12544456568170131 
1.1599999999998887, 0.12562377082880846 
1.1699999999998876, 0.12603946572120944 
1.1799999999998865, 0.12676548222654577 
1.1899999999998854, 0.12786242567886508 
1.1999999999998843, 0.12933265291014068 
1.2099999999998832, 0.13107221098930008 
1.219999999999882, 0.1328699592680169 
1.229999999999881, 0.1344816284970924 
1.2399999999998799, 0.1357266094110508 
1.2499999999998788, 0.13652921378578473 
1.2599999999998777, 0.1368947069744442 
1.2699999999998766, 0.13686642787131587 
1.2799999999998755, 0.13650010733791879 
1.2899999999998744, 0.13586048659287236 
1.2999999999998733, 0.13502786252949686 
1.3099999999998722, 0.13409885695184126 
1.319999999999871, 0.13317342447125868 
1.32999999999987, 0.13233458573852475 
1.3399999999998689, 0.13163517319359963 
1.3499999999998678, 0.13109871289072103 
1.3599999999998666, 0.13072958708671756 
1.3699999999998655, 0.1305234883806397 
1.3799999999998644, 0.13047245473124386 
1.3899999999998633, 0.1305631172832148 
1.3999999999998622, 0.13076979102243982 
1.4099999999998611, 0.1310466530669106 
1.41999999999986, 0.13132507395165754 
1.429999999999859, 0.1315199558027444 
1.4399999999998578, 0.13154169979375574 
1.4499999999998567, 0.1313047579712821 
1.4599999999998556, 0.13072727663684763 
1.4699999999998545, 0.12972702981860457 
1.4799999999998534, 0.12822844567705302 
1.4899999999998523, 0.12619734345189831 
1.4999999999998512, 0.12370306048443654 
1.5099999999998501, 0.12096292760085045 
1.519999999999849, 0.11829530248221179 
1.529999999999848, 0.1159814348224377 
1.5399999999998468, 0.1141533077014216 
1.5499999999998457, 0.11279492969314205 
1.5599999999998446, 0.1118146271228905 
1.5699999999998435, 0.11110950631751008 
1.5799999999998424, 0.11059410598162714 
1.5899999999998413, 0.11020347067629 
1.5999999999998402, 0.10988557161153537 
1.6099999999998391, 0.10959132528552307 
1.619999999999838, 0.10926528427773237 
1.629999999999837, 0.1088375439597806 
1.6399999999998358, 0.10821564682414331 
1.6499999999998347, 0.10727359309433956 
1.6599999999998336, 0.10583523451499084 
1.6699999999998325, 0.10365586712069656 
1.6799999999998314, 0.10042680706494136 
1.6899999999998303, 0.09586800021754177 
1.6999999999998292, 0.08998604666107547 
1.709999999999828, 0.08339163907564266 
1.719999999999827, 0.07720893156669474 
1.729999999999826, 0.07237428686271202 
1.7399999999998248, 0.06909484039826438 
1.7499999999998237, 0.06703395536432868 
1.7599999999998226, 0.06574664535648575 
1.7699999999998215, 0.06489817553012785 
1.7799999999998204, 0.06428342566750775 
1.7899999999998193, 0.06378395140290326 
1.7999999999998182, 0.06332707858974956 
1.809999999999817, 0.06285837465049773 
1.819999999999816, 0.062323342115187495 
1.8299999999998149, 0.061652805061218355 
1.8399999999998138, 0.06074731960838388 
1.8499999999998127, 0.05945589313737234 
1.8599999999998116, 0.057543917647202646 
1.8699999999998105, 0.05464930137292212 
1.8799999999998094, 0.05024945103655195 
1.8899999999998083, 0.043736087549491064 
1.8999999999998072, 0.034808805610486576 
1.909999999999806, 0.02423600955884211 
1.919999999999805, 0.014098065582286629 
1.9299999999998039, 0.00641487824742263 
1.9399999999998028, 0.0016387936889586522 
1.9499999999998017, -0.000810665384287773 
1.9599999999998006, -0.0018193223686347928 
1.9699999999997995, -0.0022381014801451235 
1.9799999999997984, -0.002388691136326561 
1.9899999999997973, -0.0024273076828031205 
1.9999999999997962, -0.002432290599054918 
2.0099999999998173, -0.0024508146780030378 
2.0199999999998384, -0.0025230943377364456 
2.0299999999998595, -0.002697155690845635 
2.0399999999998806, -0.0030414069486741184 
2.0499999999999017, -0.003659488200250608 
2.059999999999923, -0.004711258754019839 
2.069999999999944, -0.006443093637733747 
2.079999999999965, -0.009224080323199818 
2.089999999999986, -0.013557144702235133 
2.100000000000007, -0.01996364903387521 
2.1100000000000283, -0.028571800006013958 
2.1200000000000494, -0.03848443121245061 
2.1300000000000705, -0.04777536334631454 
2.1400000000000916, -0.05476289651903356 
2.1500000000001127, -0.05912370315862665 
2.160000000000134, -0.06152336387046229 
2.170000000000155, -0.0627553349543723 
2.180000000000176, -0.06336479038855483 
2.190000000000197, -0.06365541429986468 
2.2000000000002182, -0.0637841735786783 
2.2100000000002393, -0.06383342201980702 
2.2200000000002604, -0.06385182705371334 
2.2300000000002815, -0.06387649682700244 
2.2400000000003026, -0.06394620363679214 
2.2500000000003237, -0.06411108805964526 
2.260000000000345, -0.0644414650877093 
2.270000000000366, -0.0650371029040002 
2.280000000000387, -0.06603747887386713 
2.290000000000408, -0.06763049535091514 
2.3000000000004293, -0.07004740744768254 
2.3100000000004504, -0.07351238603180152 
2.3200000000004715, -0.07810345553404177 
2.3300000000004926, -0.0835449837121309 
2.3400000000005137, -0.08913309138044409 
2.3500000000005348, -0.09403096084894881 
2.360000000000556, -0.09773721954482283 
2.370000000000577, -0.10023761557903932 
2.380000000000598, -0.10179585327829473 
2.390000000000619, -0.10271183733967046 
2.4000000000006403, -0.10321453513807743 
2.4100000000006614, -0.10345229097461621 
2.4200000000006825, -0.10351494324784982 
2.4300000000007036, -0.10345711300060371 
2.4400000000007247, -0.10331584993278611 
2.450000000000746, -0.10312354743865837 
2.460000000000767, -0.10291758017564123 
2.470000000000788, -0.10274673652764091 
2.480000000000809, -0.102673658793672 
2.49000000000083, -0.10277316751891494 
2.5000000000008513, -0.10312744034373482 
2.5100000000008724, -0.1038178284296469 
2.5200000000008935, -0.10490898212341433 
2.5300000000009146, -0.10641913346283127 
2.5400000000009357, -0.1082808327535006 
2.550000000000957, -0.11032114054508246 
2.560000000000978, -0.11230012993138486 
2.570000000000999, -0.11400154190226885 
2.58000000000102, -0.1153079122850403 
2.5900000000010412, -0.11620741092002511 
2.6000000000010624, -0.11675058357574113 
2.6100000000010835, -0.11700369004773896 
2.6200000000011046, -0.11702190674717942 
2.6300000000011257, -0.11684091442755366 
2.6400000000011468, -0.11647893599379469 
2.650000000001168, -0.11594435159728593 
2.660000000001189, -0.115247316448149 
2.67000000000121, -0.11441371612167235 
2.680000000001231, -0.11349626620030917 
2.6900000000012523, -0.1125746667471524 
2.7000000000012734, -0.11174107600496397 
2.7100000000012945, -0.11107814956786681 
2.7200000000013156, -0.11064232797792839 
2.7300000000013367, -0.11045778487492805 
2.740000000001358, -0.11051644501971594 
2.750000000001379, -0.11077862328352314 
2.7600000000014, -0.11117572277701315 
2.770000000001421, -0.11162085193444685 
2.780000000001442, -0.11202802172256728 
2.7900000000014633, -0.11233080879241013 
2.8000000000014844, -0.1124897536595663 
2.8100000000015055, -0.11248659116699503 
2.8200000000015266, -0.11231159034100172 
2.8300000000015477, -0.11195073900762856 
2.840000000001569, -0.11137594150145091 
2.85000000000159, -0.11053952522764421 
2.860000000001611, -0.10937619487515651 
2.870000000001632, -0.10781967169287505 
2.8800000000016532, -0.10584130426025282 
2.8900000000016743, -0.10350210538678757 
2.9000000000016954, -0.10097852305111646 
2.9100000000017165, -0.09851817638446295 
2.9200000000017377, -0.0963431514301061 
2.9300000000017588, -0.09457703536155307 
2.94000000000178, -0.09323931184580359 
2.950000000001801, -0.09228200193827155 
2.960000000001822, -0.091627494033891 
2.970000000001843, -0.09119122742982858 
2.9800000000018643, -0.09089270736898637 
2.9900000000018854, -0.09066151279594145 
3.0000000000019065, -0.09044064856113511 
3.0100000000019276, -0.09018639182938898 
3.0200000000019487, -0.08986392420560041 
3.03000000000197, -0.08943930452355812 
3.040000000001991, -0.08886841691987747 
3.050000000002012, -0.08808242106937406 
3.060000000002033, -0.08696876765309688 
3.070000000002054, -0.08535063314539507 
3.0800000000020753, -0.08298224802695672 
3.0900000000020964, -0.07960586677649203 
3.1000000000021175, -0.07512193393606845 
3.1100000000021386, -0.06980879504508652 
3.1200000000021597, -0.06433214471519921 
3.130000000002181, -0.05940879761490554 
3.140000000002202, -0.055445486545427414 
3.150000000002223, -0.05248362633217787 
3.160000000002244, -0.0503601493865367 
3.1700000000022652, -0.048862546968507704 
3.1800000000022863, -0.04780246772096065 
3.1900000000023074, -0.04703341433467957 
3.2000000000023285, -0.046446952485637065 
3.2100000000023496, -0.045964367696186156 
3.2200000000023707, -0.04552839102597397 
3.230000000002392, -0.0450949902034115 
3.240000000002413, -0.0446241809719937 
3.250000000002434, -0.044068166479739365 
3.260000000002455, -0.04335354030712967 
3.2700000000024763, -0.042351972787367936 
3.2800000000024974, -0.04083385470165121 
3.2900000000025185, -0.038414440075749796 
3.3000000000025396, -0.03456084531714018 
3.3100000000025607, -0.028824390944808882 
3.3200000000025818, -0.021363871350251123 
3.330000000002603, -0.013248204715906348 
3.340000000002624, -0.005872716512786194 
3.350000000002645, -0.00006118886778593287 
3.360000000002666, 0.003693231837084135 
3.3700000000026873, 0.006139508725609642 
3.3800000000027084, 0.007665442183293162 
3.3900000000027295, 0.00857715368797192 
3.4000000000027506, 0.009091659695734371 
3.4100000000027717, 0.009357076258349674 
3.420000000002793, 0.00947433397120895 
3.430000000002814, 0.009513704505246027 
3.440000000002835, 0.009527511100313132 
3.450000000002856, 0.009561762534124954 
3.460000000002877, 0.009669754758562467 
3.4700000000028983, 0.009931892359735756 
3.4800000000029194, 0.010487838805876008 
3.4900000000029405, 0.01158529745750043 
3.5000000000029616, 0.013628400610963914 
3.5100000000029827, 0.017138801687775033 
3.520000000003004, 0.022461118161137817 
3.530000000003025, 0.029241898883535726 
3.540000000003046, 0.03631115492861397 
3.550000000003067, 0.042416266307751374 
3.5600000000030882, 0.046972208038742226 
3.5700000000031094, 0.050052816210828265 
3.5800000000031305, 0.05200284796474969 
3.5900000000031516, 0.05317007921244561 
3.6000000000031727, 0.05382102171758392 
3.6100000000031938, 0.05414277964678538 
3.620000000003215, 0.05426478364906599 
3.630000000003236, 0.05427797095766216 
3.640000000003257, 0.0542486814371985 
3.650000000003278, 0.05422980368801476 
3.6600000000032993, 0.05427193435287338 
3.6700000000033204, 0.05443683347013171 
3.6800000000033415, 0.054815209519385774 
3.6900000000033626, 0.055548977840777426 
3.7000000000033837, 0.05684895844122739 
3.710000000003405, 0.058974684723172924 
3.720000000003426, 0.062116382256962796 
3.730000000003447, 0.06617353339073549 
3.740000000003468, 0.07062774893685171 
3.750000000003489, 0.07476410865925501 
3.7600000000035103, 0.07807589489562522 
3.7700000000035314, 0.08042992998717202 
3.7800000000035525, 0.08194444296256327 
3.7900000000035736, 0.08281684083239946 
3.8000000000035947, 0.08323130792099973 
3.810000000003616, 0.08333518126864699 
3.820000000003637, 0.08324316240182365 
3.830000000003658, 0.0830455445608669 
3.840000000003679, 0.08281360435959886 
3.8500000000037002, 0.08260344169854762 
3.8600000000037213, 0.08246100576685297 
3.8700000000037424, 0.08242938708441658 
3.8800000000037635, 0.08255757979188608 
3.8900000000037847, 0.0829084284881722 
3.9000000000038058, 0.08356091834207988 
3.910000000003827, 0.08459743820137285 
3.920000000003848, 0.08606496276798159 
3.930000000003869, 0.08791490516297214 
3.94000000000389, 0.08996565117114977 
3.9500000000039113, 0.09194651671676818 
3.9600000000039324, 0.09361046303511293 
3.9700000000039535, 0.09482109268662099 
3.9800000000039746, 0.09555605497441756 
3.9900000000039957, 0.09586024558968356 
4.000000000004016, 0.09580317136040557 
4.010000000003993, 0.09546073770166108 
4.02000000000397, 0.09491384777085816 
4.030000000003946, 0.09424920406667672 
4.040000000003923, 0.0935532557496001 
4.0500000000039, 0.0929006779182131 
4.0600000000038765, 0.09234559642978238 
4.070000000003853, 0.0919213624085474 
4.08000000000383, 0.09164743955141319 
4.090000000003807, 0.09153784435352669 
4.100000000003783, 0.09160610094155414 
4.11000000000376, 0.09186360124136492 
4.120000000003737, 0.09231007342478015 
4.130000000003713, 0.09291835401743678 
4.14000000000369, 0.09362208348249348 
4.150000000003667, 0.094318897088234 
4.1600000000036434, 0.0948932032338494 
4.17000000000362, 0.09524490158687555 
4.180000000003597, 0.09530469403414056 
4.1900000000035735, 0.09503156953503009 
4.20000000000355, 0.0944048917528331 
4.210000000003527, 0.09342595829865126 
4.220000000003504, 0.09213355869064568 
4.23000000000348, 0.09062151705407485 
4.240000000003457, 0.08903416717095744 
4.250000000003434, 0.0875276302725597 
4.26000000000341, 0.08621929588244215 
4.270000000003387, 0.08516253095508039 
4.280000000003364, 0.08435679905646601 
4.2900000000033405, 0.08377375924092748 
4.300000000003317, 0.08337867069162141 
4.310000000003294, 0.08314002057680853 
4.320000000003271, 0.0830293838643629 
4.330000000003247, 0.08301564122281588 
4.340000000003224, 0.08305753753269911 
4.350000000003201, 0.08309851570877229 
4.360000000003177, 0.08306666722454757 
4.370000000003154, 0.08287908014660329 
4.380000000003131, 0.08244603594084356 
4.390000000003107, 0.08167130810203223 
4.400000000003084, 0.08045199712445358 
4.410000000003061, 0.0786912625898017 
4.4200000000030375, 0.07634187959709322 
4.430000000003014, 0.07348070680366325 
4.440000000002991, 0.0703604153061801 
4.450000000002968, 0.06734974856964902 
4.460000000002944, 0.06476644099649667 
4.470000000002921, 0.06274854615716448 
4.480000000002898, 0.0612644917732203 
4.490000000002874, 0.060202326069958 
4.500000000002851, 0.0594437795538571 
4.510000000002828, 0.058894777856319816 
4.520000000002804, 0.05848736791283813 
4.530000000002781, 0.05817075520191204 
4.540000000002758, 0.05790037437586881 
4.5500000000027345, 0.057628104461823225 
4.560000000002711, 0.057294557652581866 
4.570000000002688, 0.056823296967838624 
4.580000000002665, 0.05611547504223426 
4.590000000002641, 0.055042739985223466 
4.600000000002618, 0.053439490133707024 
4.610000000002595, 0.051106503870409395 
4.620000000002571, 0.047857120854450305 
4.630000000002548, 0.04364483471234882 
4.640000000002525, 0.038742964128405985 
4.6500000000025015, 0.03378219886812213 
4.660000000002478, 0.029461419218436084 
4.670000000002455, 0.02615759131854286 
4.6800000000024315, 0.023841566359494862 
4.690000000002408, 0.022275780728920076 
4.700000000002385, 0.021209263184079792 
4.710000000002362, 0.02045491239290017 
4.720000000002338, 0.01989097398424202 
4.730000000002315, 0.019440010116593465 
4.740000000002292, 0.019048222751184778 
4.750000000002268, 0.018669714310783802 
4.760000000002245, 0.01825472087427866 
4.770000000002222, 0.01774024161216084 
4.7800000000021985, 0.01704160976586478 
4.790000000002175, 0.01604329171683433 
4.800000000002152, 0.014587864540964326 
4.810000000002129, 0.012467479324943374 
4.820000000002105, 0.009437524576873269 
4.830000000002082, 0.00529673721526626 
4.840000000002059, 0.00007416630154465503 
4.850000000002035, -0.0053354289992359385 
