t, s[1].omega / s[0].omega 
0, -1.679959262692071 
0.009999999999999995, -1.6749061009199107 
0.019999999999999934, -1.6677306533350922 
0.029999999999999874, -1.6590401248021387 
0.04000000000000012, -1.651366746733362 
0.050000000000000405, -1.647673184406583 
0.06000000000000069, -1.6477317874910706 
0.07000000000000098, -1.6490385746158704 
0.08000000000000126, -1.6500592269043903 
0.09000000000000155, -1.650498610481095 
0.10000000000000184, -1.6504467622450356 
0.11000000000000212, -1.6499881778665348 
0.12000000000000241, -1.6491597097896666 
0.130000000000002, -1.6480959610921957 
0.1400000000000009, -1.6473632191498333 
0.1499999999999998, -1.6480744403734793 
0.1599999999999987, -1.6508837008982393 
0.1699999999999976, -1.654956786327491 
0.1799999999999965, -1.658916841376668 
0.1899999999999954, -1.662024264074385 
0.1999999999999943, -1.6641635302917055 
0.2099999999999932, -1.6654635644252842 
0.2199999999999921, -1.6660896657651858 
0.229999999999991, -1.666179615623545 
0.2399999999999899, -1.6658343316929627 
0.2499999999999888, -1.6651261981801444 
0.2599999999999877, -1.6641163925416156 
0.2699999999999866, -1.6628785105029358 
0.2799999999999855, -1.6615292548239402 
0.2899999999999844, -1.6602659719852184 
0.2999999999999833, -1.6593449546818242 
0.3099999999999822, -1.658901033453354 
0.3199999999999811, -1.658791888777511 
0.32999999999998, -1.6587324864415567 
0.3399999999999789, -1.6584894552281557 
0.3499999999999778, -1.6578785606555406 
0.35999999999997667, -1.656634246066104 
0.36999999999997557, -1.6542271243324795 
0.37999999999997447, -1.649657310048347 
0.38999999999997337, -1.6416107930786024 
0.39999999999997227, -1.6305821137915757 
0.40999999999997117, -1.6235035237554025 
0.41999999999997006, -1.6294821201864191 
0.42999999999996896, -1.6444351032421856 
0.43999999999996786, -1.6576578783074827 
0.44999999999996676, -1.6656207564230172 
0.45999999999996566, -1.669647590340507 
0.46999999999996456, -1.6714625934336502 
0.47999999999996346, -1.6721159149107205 
0.48999999999996235, -1.6721410049560563 
0.49999999999996125, -1.6718102972967936 
0.5099999999999602, -1.6713121487823686 
0.519999999999959, -1.6708506704402115 
0.529999999999958, -1.6706244982105318 
0.5399999999999568, -1.6707030197029493 
0.5499999999999557, -1.67099541401246 
0.5599999999999546, -1.671357112932458 
0.5699999999999535, -1.671658533583916 
0.5799999999999524, -1.6717870125947525 
0.5899999999999513, -1.671639845899211 
0.5999999999999502, -1.6711067399266395 
0.6099999999999491, -1.6700374080887421 
0.619999999999948, -1.6682073538814641 
0.6299999999999469, -1.6652951821667723 
0.6399999999999458, -1.6609043383275814 
0.6499999999999447, -1.6547447889015507 
0.6599999999999436, -1.6472053890725746 
0.6699999999999425, -1.6401473597569356 
0.6799999999999414, -1.636142609720991 
0.6899999999999403, -1.6355807888301768 
0.6999999999999392, -1.636531548138154 
0.7099999999999381, -1.6374411771808357 
0.719999999999937, -1.637868624592841 
0.7299999999999359, -1.6378314103102571 
0.7399999999999348, -1.637385651343258 
0.7499999999999337, -1.6365383389879735 
0.7599999999999326, -1.635353938109868 
0.7699999999999315, -1.634301117106877 
0.7799999999999304, -1.6346021250656861 
0.7899999999999293, -1.637427521695889 
0.7999999999999282, -1.6422315569830466 
0.8099999999999271, -1.6472657541116633 
0.819999999999926, -1.6513531083635045 
0.8299999999999249, -1.6542235321274348 
0.8399999999999238, -1.6560270603934384 
0.8499999999999227, -1.6569965225806569 
0.8599999999999216, -1.6573332585236584 
0.8699999999999205, -1.6571866948001936 
0.8799999999999194, -1.6566630141253822 
0.8899999999999183, -1.6558449308393697 
0.8999999999999172, -1.6548156641445424 
0.9099999999999161, -1.653680370827799 
0.919999999999915, -1.6525872430434447 
0.9299999999999139, -1.6517296461669801 
0.9399999999999128, -1.6512495126599336 
0.9499999999999117, -1.6510892218984345 
0.9599999999999106, -1.6510240996946155 
0.9699999999999095, -1.6508264029957114 
0.9799999999999084, -1.6503106612048224 
0.9899999999999073, -1.6492391417419825 
0.9999999999999062, -1.6471562551169008 
1.0099999999999052, -1.6431566199600751 
1.019999999999904, -1.635723889048387 
1.029999999999903, -1.6236103370543347 
1.039999999999902, -1.6098278464380638 
1.0499999999999008, -1.6045135438339226 
1.0599999999998997, -1.6125826203873104 
1.0699999999998986, -1.6251757302986842 
1.0799999999998975, -1.6344320622436048 
1.0899999999998964, -1.6395179190483842 
1.0999999999998953, -1.6419372692456018 
1.1099999999998942, -1.6429181572723888 
1.119999999999893, -1.6431304165314942 
1.129999999999892, -1.642906454270874 
1.1399999999998909, -1.6424415333422828 
1.1499999999998898, -1.6419350108151285 
1.1599999999998887, -1.641641484819632 
1.1699999999998876, -1.6417523879182003 
1.1799999999998865, -1.6422335664806025 
1.1899999999998854, -1.642882927626833 
1.1999999999998843, -1.6435022197612454 
1.2099999999998832, -1.6439572954866475 
1.219999999999882, -1.6441583437272644 
1.229999999999881, -1.644034735420315 
1.2399999999998799, -1.6435126295275837 
1.2499999999998788, -1.6424953816684487 
1.2599999999998777, -1.640851484195927 
1.2699999999998766, -1.6384154261823103 
1.2799999999998755, -1.63502229080193 
1.2899999999998744, -1.630640295421486 
1.2999999999998733, -1.6256873996846153 
1.3099999999998722, -1.6213277277044287 
1.319999999999871, -1.6188770433249702 
1.32999999999987, -1.6184072216695415 
1.3399999999998689, -1.6188366231787312 
1.3499999999998678, -1.6192654799078567 
1.3599999999998666, -1.6193736566378707 
1.3699999999998655, -1.6191023149578936 
1.3799999999998644, -1.6184032796973309 
1.3899999999998633, -1.617166708625879 
1.3999999999998622, -1.6153410799857144 
1.4099999999998611, -1.6134788855488165 
1.41999999999986, -1.6135859772204824 
1.429999999999859, -1.6181011814106765 
1.4399999999998578, -1.6263712286255796 
1.4499999999998567, -1.635025950039374 
1.4599999999998556, -1.6417777655389358 
1.4699999999998545, -1.6462610398029802 
1.4799999999998534, -1.6489340113409923 
1.4899999999998523, -1.6503440427945868 
1.4999999999998512, -1.6509115883222751 
1.5099999999998501, -1.6509175418316775 
1.519999999999849, -1.6505429819659867 
1.529999999999848, -1.6499178079541206 
1.5399999999998468, -1.6491603901271759 
1.5499999999998457, -1.6483899539761455 
1.5599999999998446, -1.6477167298158342 
1.5699999999998435, -1.64723459533745 
1.5799999999998424, -1.6469878565436944 
1.5899999999998413, -1.6469096237898573 
1.5999999999998402, -1.6468376798281787 
1.6099999999998391, -1.6465954433555468 
1.619999999999838, -1.6460075898309179 
1.629999999999837, -1.6448233822622114 
1.6399999999998358, -1.6425780441805127 
1.6499999999998347, -1.6383965787959283 
1.6599999999998336, -1.6308267402807766 
1.6699999999998325, -1.6182694486561036 
1.6799999999998314, -1.6014684107480666 
1.6899999999998303, -1.5872144761314808 
1.6999999999998292, -1.5834631244579584 
1.709999999999828, -1.5880437311859532 
1.719999999999827, -1.593739872857111 
1.729999999999826, -1.5974778344358342 
1.7399999999998248, -1.59938551822399 
1.7499999999998237, -1.6001599311264052 
1.7599999999998226, -1.6002761368201348 
1.7699999999998215, -1.5999820957644193 
1.7799999999998204, -1.5994268216818237 
1.7899999999998193, -1.5988079780821354 
1.7999999999998182, -1.5984916813433467 
1.809999999999817, -1.5988984131015962 
1.819999999999816, -1.6001088323073347 
1.8299999999998149, -1.6017511251206937 
1.8399999999998138, -1.6033686359380197 
1.8499999999998127, -1.6046909328672139 
1.8599999999998116, -1.605618196879826 
1.8699999999998105, -1.6061317386562437 
1.8799999999998094, -1.6062382795212629 
1.8899999999998083, -1.6059454280510674 
1.8999999999998072, -1.605253009654951 
1.909999999999806, -1.6041532639073233 
1.919999999999805, -1.6026400139864958 
1.9299999999998039, -1.6007340101043095 
1.9399999999998028, -1.5985397368078682 
1.9499999999998017, -1.5963341474661055 
1.9599999999998006, -1.5945750312464677 
1.9699999999997995, -1.5936223805274279 
1.9799999999997984, -1.5933820276353345 
1.9899999999997973, -1.5934331401144046 
1.9999999999997962, -1.5934159205264857 
2.0099999999998173, -1.5931362800924835 
2.0199999999998384, -1.5924454305263216 
2.0299999999998595, -1.591094004600578 
2.0399999999998806, -1.5886033208168342 
2.0499999999999017, -1.5842604343544051 
2.059999999999923, -1.577864833780135 
2.069999999999944, -1.5723045938763593 
2.079999999999965, -1.5747766819991553 
2.089999999999986, -1.588033145283274 
2.100000000000007, -1.6044415075133274 
2.1100000000000283, -1.6168294806583272 
2.1200000000000494, -1.6241460769191398 
2.1300000000000705, -1.6279467426751495 
2.1400000000000916, -1.6297257747673224 
2.1500000000001127, -1.6303974153131953 
2.160000000000134, -1.630449075243768 
2.170000000000155, -1.630141165430656 
2.180000000000176, -1.62965036758618 
2.190000000000197, -1.629153981058754 
2.2000000000002182, -1.6288249519509492 
2.2100000000002393, -1.6287469441352367 
2.2200000000002604, -1.6288795233819786 
2.2300000000002815, -1.6291209657634884 
2.2400000000003026, -1.6293578995192444 
2.2500000000003237, -1.6294749522273335 
2.260000000000345, -1.6293613088823655 
2.270000000000366, -1.6289032633722438 
2.280000000000387, -1.6279547999781283 
2.290000000000408, -1.6263016262755123 
2.3000000000004293, -1.623634060128706 
2.3100000000004504, -1.619552360736463 
2.3200000000004715, -1.6136823380036112 
2.3300000000004926, -1.6060890459293007 
2.3400000000005137, -1.5980647368310343 
2.3500000000005348, -1.592214131303289 
2.360000000000556, -1.5901403399063674 
2.370000000000577, -1.5906286322259156 
2.380000000000598, -1.5916900279716317 
2.390000000000619, -1.592400934068558 
2.4000000000006403, -1.592624605075382 
2.4100000000006614, -1.5924211776554669 
2.4200000000006825, -1.591819955403528 
2.4300000000007036, -1.590811145357368 
2.4400000000007247, -1.5895109319886387 
2.450000000000746, -1.588575839621158 
2.460000000000767, -1.5894485865673806 
2.470000000000788, -1.5931937864698948 
2.480000000000809, -1.5988953832015331 
2.49000000000083, -1.6046151880719814 
2.5000000000008513, -1.6091797493273474 
2.5100000000008724, -1.6123652264765966 
2.5200000000008935, -1.6143677070800606 
2.5300000000009146, -1.6154619978779798 
2.5400000000009357, -1.6158849116644276 
2.550000000000957, -1.615813493786979 
2.560000000000978, -1.6153747773395175 
2.570000000000999, -1.6146680538866267 
2.58000000000102, -1.613789660283085 
2.5900000000010412, -1.6128476418078925 
2.6000000000010624, -1.6119651605679164 
2.6100000000010835, -1.611276435890368 
2.6200000000011046, -1.6108764090815533 
2.6300000000011257, -1.610728257233843 
2.6400000000011468, -1.6106640987663845 
2.650000000001168, -1.6104897489139955 
2.660000000001189, -1.6100325912543216 
2.67000000000121, -1.6090814935109183 
2.680000000001231, -1.6072607536575756 
2.6900000000012523, -1.6038458715527824 
2.7000000000012734, -1.5975523955126558 
2.7100000000012945, -1.5866604877720292 
2.7200000000013156, -1.570731203004163 
2.7300000000013367, -1.5546132999397335 
2.740000000001358, -1.5475230785171235 
2.750000000001379, -1.55115883328897 
2.7600000000014, -1.5582071435575193 
2.770000000001421, -1.5635385785402287 
2.780000000001442, -1.5665150340094447 
2.7900000000014633, -1.5679077113545192 
2.8000000000014844, -1.5683878719609572 
2.8100000000015055, -1.5683318657113101 
2.8200000000015266, -1.567932931505268 
2.8300000000015477, -1.5673377796465087 
2.840000000001569, -1.5667863667629653 
2.85000000000159, -1.5666741316026627 
2.860000000001611, -1.5673397556068052 
2.870000000001632, -1.5687181516057866 
2.8800000000016532, -1.5703947432809522 
2.8900000000016743, -1.5719694478271737 
2.9000000000016954, -1.5732271681578656 
2.9100000000017165, -1.5740922713272922 
2.9200000000017377, -1.574552746056628 
2.9300000000017588, -1.5746167578249017 
2.94000000000178, -1.5742936769252722 
2.950000000001801, -1.573587819325291 
2.960000000001822, -1.5724999118320215 
2.970000000001843, -1.5710368931470784 
2.9800000000018643, -1.569235688285332 
2.9900000000018854, -1.5672110314222487 
3.0000000000019065, -1.5652212603741416 
3.0100000000019276, -1.5636564622655857 
3.0200000000019487, -1.562801909969764 
3.03000000000197, -1.562564517158013 
3.040000000001991, -1.5625828807167461 
3.050000000002012, -1.56253770577801 
3.060000000002033, -1.562241659921949 
3.070000000002054, -1.5615393272580402 
3.0800000000020753, -1.5601703076209965 
3.0900000000020964, -1.5576233951506004 
3.1000000000021175, -1.553032575170599 
3.1100000000021386, -1.5455705604701042 
3.1200000000021597, -1.5365885598922364 
3.130000000002181, -1.5326880909553318 
3.140000000002202, -1.540651954921193 
3.150000000002223, -1.5562998504250316 
3.160000000002244, -1.5703564679774205 
3.1700000000022652, -1.5792902587855515 
3.1800000000022863, -1.5840759393082346 
3.1900000000023074, -1.5863839701519793 
3.2000000000023285, -1.5873430392325454 
3.2100000000023496, -1.5875639769248222 
3.2200000000023707, -1.5873600831858536 
3.230000000002392, -1.5869187218326293 
3.240000000002413, -1.5864187452104046 
3.250000000002434, -1.5860754185113288 
3.260000000002455, -1.5860607467041028 
3.2700000000024763, -1.5863799220078802 
3.2800000000024974, -1.5868915967095707 
3.2900000000025185, -1.5874292494183602 
3.3000000000025396, -1.5878612687527558 
3.3100000000025607, -1.5880892022875661 
3.3200000000025818, -1.5880348971120302 
3.330000000002603, -1.587624303915094 
3.340000000002624, -1.5867702053587875 
3.350000000002645, -1.585360953637358 
3.360000000002666, -1.5832596318312935 
3.3700000000026873, -1.5803228362395196 
3.3800000000027084, -1.576471463680535 
3.3900000000027295, -1.5718768078629832 
3.4000000000027506, -1.5672463659768072 
3.4100000000027717, -1.563779769899949 
3.420000000002793, -1.5622412624041373 
3.430000000002814, -1.5621689594665737 
3.440000000002835, -1.5625771008879146 
3.450000000002856, -1.5628601223702343 
3.460000000002877, -1.5628255811157588 
3.4700000000028983, -1.562417592983586 
3.4800000000029194, -1.561546793244566 
3.4900000000029405, -1.5600398905282293 
3.5000000000029616, -1.5577640299505862 
3.5100000000029827, -1.55523894461846 
3.520000000003004, -1.5547726799785537 
3.530000000003025, -1.559738538195075 
3.540000000003046, -1.5701028822739294 
3.550000000003067, -1.5816213856691381 
3.5600000000030882, -1.5908028016533151 
3.5700000000031094, -1.5968836148108643 
3.5800000000031305, -1.6004763738509726 
3.5900000000031516, -1.6023902403335324 
3.6000000000031727, -1.603243766257231 
3.6100000000031938, -1.6034357005179711 
3.620000000003215, -1.6032089033206307 
3.630000000003236, -1.6027237796188658 
3.640000000003257, -1.6021174396521967 
3.650000000003278, -1.6015258581094556 
3.6600000000032993, -1.6010583148613282 
3.6700000000033204, -1.600768521894309 
3.6800000000033415, -1.6006575725376195 
3.6900000000033626, -1.6006712999590182 
3.7000000000033837, -1.6006972022663077 
3.710000000003405, -1.6005970040692064 
3.720000000003426, -1.6002317776934185 
3.730000000003447, -1.5994365320216384 
3.740000000003468, -1.597957988120886 
3.750000000003489, -1.5953782369710043 
3.7600000000035103, -1.5910497174599283 
3.7700000000035314, -1.5841345378969776 
3.7800000000035525, -1.5740345698317384 
3.7900000000035736, -1.5616455970746632 
3.8000000000035947, -1.550662881403607 
3.810000000003616, -1.5453096352636568 
3.820000000003637, -1.5453792656206997 
3.830000000003658, -1.5474122224225302 
3.840000000003679, -1.5491478751268732 
3.8500000000037002, -1.5501017044846792 
3.8600000000037213, -1.550416939391213 
3.8700000000037424, -1.5502693858957275 
3.8800000000037635, -1.5497491390289606 
3.8900000000037847, -1.548909576302496 
3.9000000000038058, -1.547930063479878 
3.910000000003827, -1.5473897307335263 
3.920000000003848, -1.5482755040418117 
3.930000000003869, -1.551133130306912 
3.94000000000389, -1.5552815442163812 
3.9500000000039113, -1.5594978611010555 
3.9600000000039324, -1.5630011811947033 
3.9700000000039535, -1.5655713195319607 
3.9800000000039746, -1.567271091570872 
3.9900000000039957, -1.5682451018769847 
4.000000000004016, -1.5686381258185782 
4.010000000003993, -1.568571226842425 
4.02000000000397, -1.5681400329083193 
4.030000000003946, -1.5674243721429593 
4.040000000003923, -1.566504655276397 
4.0500000000039, -1.5654768020219116 
4.0600000000038765, -1.564460366082907 
4.070000000003853, -1.5635994465124246 
4.08000000000383, -1.5630262816861913 
4.090000000003807, -1.5627655331470551 
4.100000000003783, -1.5626875809419296 
4.11000000000376, -1.5625943548267305 
4.120000000003737, -1.5623091812248762 
4.130000000003713, -1.561662163716853 
4.14000000000369, -1.5603994445273224 
4.150000000003667, -1.5580468920684245 
4.1600000000036434, -1.5537272702297587 
4.17000000000362, -1.546027108394345 
4.180000000003597, -1.533446420618517 
4.1900000000035735, -1.5166285477023553 
4.20000000000355, -1.50156929123941 
4.210000000003527, -1.4960542043273766 
4.220000000003504, -1.4996131839626465 
4.23000000000348, -1.505600451281095 
4.240000000003457, -1.5100686232561646 
4.250000000003434, -1.512586119608429 
4.26000000000341, -1.51376874196165 
4.270000000003387, -1.514154910818473 
4.280000000003364, -1.5140507368911138 
4.2900000000033405, -1.5136127242307664 
4.300000000003317, -1.512962926921414 
4.310000000003294, -1.5123303922978448 
4.320000000003271, -1.512157885573967 
4.330000000003247, -1.5129329621564633 
4.340000000003224, -1.5147288481457393 
4.350000000003201, -1.5170848346480168 
4.360000000003177, -1.519428104154772 
4.370000000003154, -1.5214068561171838 
4.380000000003131, -1.5228932499504777 
4.390000000003107, -1.5238776332939408 
4.400000000003084, -1.5243945103846228 
4.410000000003061, -1.5244890053581406 
4.4200000000030375, -1.524204731998216 
4.430000000003014, -1.5235815828364792 
4.440000000002991, -1.5226601527198973 
4.450000000002968, -1.5214926772152113 
4.460000000002944, -1.520159419893539 
4.470000000002921, -1.51878886055449 
4.480000000002898, -1.5175698907491875 
4.490000000002874, -1.5167048290614824 
4.500000000002851, -1.5162734613280513 
4.510000000002828, -1.5161489099852785 
4.520000000002804, -1.5160978896891986 
4.530000000002781, -1.515917356722689 
4.540000000002758, -1.5154482031578926 
4.5500000000027345, -1.5144951796601582 
4.560000000002711, -1.5127066156031572 
4.570000000002688, -1.5094112144257343 
4.580000000002665, -1.503438106124836 
4.590000000002641, -1.4932208712166095 
4.600000000002618, -1.47815801578334 
4.610000000002595, -1.461879038028086 
4.620000000002571, -1.4525885415877762 
4.630000000002548, -1.4541371072218932 
4.640000000002525, -1.4612083253244494 
4.6500000000025015, -1.4677270088070933 
4.660000000002478, -1.471850576009966 
4.670000000002455, -1.4740254583464025 
4.6800000000024315, -1.474997293918593 
4.690000000002408, -1.475263488744054 
4.700000000002385, -1.4750883487872852 
4.710000000002362, -1.4746100640559696 
4.720000000002338, -1.4739549523408184 
4.730000000002315, -1.473370775173675 
4.740000000002292, -1.4733047138550641 
4.750000000002268, -1.474206294632268 
4.760000000002245, -1.4761059828837548 
4.770000000002222, -1.4785466966670828 
4.7800000000021985, -1.48097894463077 
4.790000000002175, -1.4830581940707546 
4.800000000002152, -1.4846507404989908 
4.810000000002129, -1.485739931832739 
4.820000000002105, -1.4863571300286171 
4.830000000002082, -1.4865486927825313 
4.840000000002059, -1.4863629782378496 
4.850000000002035, -1.4858467377533489 
4.860000000002012, -1.4850476920638376 
4.870000000001989, -1.4840229578306257 
4.880000000001965, -1.4828508965242524 
4.890000000001942, -1.4816422392491535 
4.900000000001919, -1.4805453680884124 
4.9100000000018955, -1.4797216265521818 
4.920000000001872, -1.4792598684624187 
4.930000000001849, -1.479093824902145 
4.940000000001826, -1.4790403757463642 
