t, s[1].omega / s[0].omega 
0, -0.8800076199605465 
0.009999999999999995, -0.8807003425558152 
0.019999999999999934, -0.8812281612957378 
0.029999999999999874, -0.8815602091455796 
0.04000000000000012, -0.8816858033180421 
0.050000000000000405, -0.8816158706257493 
0.06000000000000069, -0.8813779565850481 
0.07000000000000098, -0.881010182257779 
0.08000000000000126, -0.880559266967657 
0.09000000000000155, -0.8800842126730407 
0.10000000000000184, -0.8796635284495281 
0.11000000000000212, -0.8794008790390861 
0.12000000000000241, -0.8794223687164535 
0.130000000000002, -0.8798606087884495 
0.1400000000000009, -0.8808278612781937 
0.1499999999999998, -0.8823889570098629 
0.1599999999999987, -0.8845461275837817 
0.1699999999999976, -0.8872396479178807 
0.1799999999999965, -0.8903578940050225 
0.1899999999999954, -0.893747443640484 
0.1999999999999943, -0.8972199536728178 
0.2099999999999932, -0.9005623893414191 
0.2199999999999921, -0.903561933944119 
0.229999999999991, -0.9060477926425783 
0.2399999999999899, -0.9079317341877673 
0.2499999999999888, -0.9092200610445289 
0.2599999999999877, -0.9099889751751299 
0.2699999999999866, -0.910342986148166 
0.2799999999999855, -0.9103814563138533 
0.2899999999999844, -0.9101839246186609 
0.2999999999999833, -0.9098119575882035 
0.3099999999999822, -0.9093227487786548 
0.3199999999999811, -0.9087926804407237 
0.32999999999998, -0.9083505830790466 
0.3399999999999789, -0.9082153580928237 
0.3499999999999778, -0.9087192126233473 
0.35999999999997667, -0.9102841488674338 
0.36999999999997557, -0.9133268461144182 
0.37999999999997447, -0.9181088055460986 
0.38999999999997337, -0.9245965662634663 
0.39999999999997227, -0.9324020488732142 
0.40999999999997117, -0.9408341293166318 
0.41999999999997006, -0.9490533830741817 
0.42999999999996896, -0.9562933577621759 
0.43999999999996786, -0.9620684335849488 
0.44999999999996676, -0.966261924649164 
0.45999999999996566, -0.9690528484634997 
0.46999999999996456, -0.9707556404937403 
0.47999999999996346, -0.9716823930407106 
0.48999999999996235, -0.9720760371418994 
0.49999999999996125, -0.9720999984327554 
0.5099999999999602, -0.9718540095401341 
0.519999999999959, -0.9713979125344618 
0.529999999999958, -0.970780428290421 
0.5399999999999568, -0.9700798260641041 
0.5499999999999557, -0.9694661172060813 
0.5599999999999546, -0.9692822067591884 
0.5699999999999535, -0.9701031805751448 
0.5799999999999524, -0.972682498457841 
0.5899999999999513, -0.9777047676508545 
0.5999999999999502, -0.9854070682359082 
0.6099999999999491, -0.9953067221713224 
0.619999999999948, -1.0062616754408074 
0.6299999999999469, -1.0168642717078602 
0.6399999999999458, -1.0259454380199562 
0.6499999999999447, -1.0329106912963353 
0.6599999999999436, -1.0377592918761303 
0.6699999999999425, -1.0408603882398277 
0.6799999999999414, -1.042687087376478 
0.6899999999999403, -1.0436494767083886 
0.6999999999999392, -1.0440405293220953 
0.7099999999999381, -1.044046117284837 
0.719999999999937, -1.0437760881854514 
0.7299999999999359, -1.0432986926277832 
0.7399999999999348, -1.0426794918471125 
0.7499999999999337, -1.0420342535642726 
0.7599999999999326, -1.041599517261703 
0.7699999999999315, -1.0417934111325797 
0.7799999999999304, -1.0431892220376198 
0.7899999999999293, -1.0463256409403692 
0.7999999999999282, -1.0514121601075426 
0.8099999999999271, -1.0581458524841403 
0.819999999999926, -1.0657930202199775 
0.8299999999999249, -1.073457476448633 
0.8399999999999238, -1.080353980113125 
0.8499999999999227, -1.0859803448041965 
0.8599999999999216, -1.090166763100424 
0.8699999999999205, -1.0930167335224263 
0.8799999999999194, -1.0947843691905015 
0.8899999999999183, -1.0957536361273739 
0.8999999999999172, -1.096164812836633 
0.9099999999999161, -1.0961921305593036 
0.919999999999915, -1.0959537792953895 
0.9299999999999139, -1.095537427153963 
0.9399999999999128, -1.0950343696139093 
0.9499999999999117, -1.094578582902819 
0.9599999999999106, -1.0943758021316452 
0.9699999999999095, -1.0946888452041714 
0.9799999999999084, -1.095753360078024 
0.9899999999999073, -1.0976615659938838 
0.9999999999999062, -1.1003071921647443 
1.0099999999999052, -1.103435605120575 
1.019999999999904, -1.1067442591931846 
1.029999999999903, -1.1099594409882703 
1.039999999999902, -1.112867923215056 
1.0499999999999008, -1.1153223889177168 
1.0599999999998997, -1.1172411737365897 
1.0699999999998986, -1.1186071480905373 
1.0799999999998975, -1.1194594263051523 
1.0899999999998964, -1.119874221719414 
1.0999999999998953, -1.1199413394270732 
1.1099999999998942, -1.1197473504358921 
1.119999999999893, -1.1193718343892205 
1.129999999999892, -1.1188956921428883 
1.1399999999998909, -1.1184144515560932 
1.1499999999998898, -1.1180439412723886 
1.1599999999998887, -1.117904612304472 
1.1699999999998876, -1.1180845028380126 
1.1799999999998865, -1.118604673043346 
1.1899999999998854, -1.1194145243916078 
1.1999999999998843, -1.1204173081138709 
1.2099999999998832, -1.1215034561501058 
1.219999999999882, -1.122573939548476 
1.229999999999881, -1.1235503058205765 
1.2399999999998799, -1.1243753825241458 
1.2499999999998788, -1.1250096752580778 
1.2599999999998777, -1.1254275489544183 
1.2699999999998766, -1.1256155555432947 
1.2799999999998755, -1.125572978110808 
1.2899999999998744, -1.125312843810877 
1.2999999999998733, -1.1248618773705659 
1.3099999999998722, -1.1242598825675125 
1.319999999999871, -1.1235600410706081 
1.32999999999987, -1.1228294845986704 
1.3399999999998689, -1.1221460275326698 
1.3499999999998678, -1.1215870105848897 
1.3599999999998666, -1.121212144685217 
1.3699999999998655, -1.1210482762943266 
1.3799999999998644, -1.1210828210595016 
1.3899999999998633, -1.1212674771122912 
1.3999999999998622, -1.1215307560906191 
1.4099999999998611, -1.121794768495133 
1.41999999999986, -1.1219889761620239 
1.429999999999859, -1.1220565299907919 
1.4399999999998578, -1.1219549544706189 
1.4499999999998567, -1.1216553365028088 
1.4599999999998556, -1.1211419709042914 
1.4699999999998545, -1.1204118735837976 
1.4799999999998534, -1.1194736047812681 
1.4899999999998523, -1.118346419969087 
1.4999999999998512, -1.1170612748541071 
1.5099999999998501, -1.1156639239346915 
1.519999999999849, -1.1142184541828568 
1.529999999999848, -1.1128081229887827 
1.5399999999998468, -1.1115297038027587 
1.5499999999998457, -1.110478002658718 
1.5599999999998446, -1.1097203639690514 
1.5699999999998435, -1.109269746541911 
1.5799999999998424, -1.1090744873812948 
1.5899999999998413, -1.1090362715854392 
1.5999999999998402, -1.1090439431840036 
1.6099999999998391, -1.10899849778677 
1.619999999999838, -1.108818081060353 
1.629999999999837, -1.1084300426902236 
1.6399999999998358, -1.107762560454888 
1.6499999999998347, -1.1067444494343008 
1.6599999999998336, -1.1053154289843328 
1.6699999999998325, -1.1034423438277994 
1.6799999999998314, -1.1011325176374072 
1.6899999999998303, -1.098438313557666 
1.6999999999998292, -1.0954553362876822 
1.709999999999828, -1.0923210569106057 
1.719999999999827, -1.0892153526145787 
1.729999999999826, -1.086353557855249 
1.7399999999998248, -1.0839554553536197 
1.7499999999998237, -1.0821831825248363 
1.7599999999998226, -1.0810741104798645 
1.7699999999998215, -1.0805221545096113 
1.7799999999998204, -1.0803314725852506 
1.7899999999998193, -1.0802995823107024 
1.7999999999998182, -1.0802691353375797 
1.809999999999817, -1.0801313592924089 
1.819999999999816, -1.0798019003720603 
1.8299999999998149, -1.0791918612933453 
1.8399999999998138, -1.078185436538046 
1.8499999999998127, -1.0766305521672321 
1.8599999999998116, -1.0743508777310788 
1.8699999999998105, -1.0711866153938328 
1.8799999999998094, -1.0670580506459444 
1.8899999999998083, -1.0620258374685925 
1.8999999999998072, -1.0563187140427948 
1.909999999999806, -1.0503200417684735 
1.919999999999805, -1.044520291431983 
1.9299999999998039, -1.0394335634838374 
1.9399999999998028, -1.035471974484389 
1.9499999999998017, -1.0328114135089101 
1.9599999999998006, -1.0313356118408332 
1.9699999999997995, -1.0307173863369061 
1.9799999999997984, -1.0305803995138652 
1.9899999999997973, -1.0306241938380893 
1.9999999999997962, -1.030658254457356 
2.0099999999998173, -1.0305732424010516 
2.0199999999998384, -1.0302952947535462 
2.0299999999998595, -1.02974648126452 
2.0399999999998806, -1.0288148799966155 
2.0499999999999017, -1.0273337478133968 
2.059999999999923, -1.02507644941717 
2.069999999999944, -1.0217841573531747 
2.079999999999965, -1.0172425606388011 
2.089999999999986, -1.0113957235934432 
2.100000000000007, -1.0044417709126443 
2.1100000000000283, -0.9968472324779837 
2.1200000000000494, -0.9892651547498202 
2.1300000000000705, -0.9823903523565652 
2.1400000000000916, -0.9767923796519655 
2.1500000000001127, -0.9727685855350823 
2.160000000000134, -0.9702789525887878 
2.170000000000155, -0.9690098650781105 
2.180000000000176, -0.9685337133596825 
2.190000000000197, -0.9684632951173772 
2.2000000000002182, -0.9685260280095628 
2.2100000000002393, -0.9685597614682123 
2.2200000000002604, -0.9684725793005635 
2.2300000000002815, -0.968200414672547 
2.2400000000003026, -0.9676745622416967 
2.2500000000003237, -0.9667994351972201 
2.260000000000345, -0.9654408650216322 
2.270000000000366, -0.9634314049450445 
2.280000000000387, -0.9606036055974491 
2.290000000000408, -0.9568535644530988 
2.3000000000004293, -0.9522108463710113 
2.3100000000004504, -0.9468706806227081 
2.3200000000004715, -0.9411642319750376 
2.3300000000004926, -0.9354881592016033 
2.3400000000005137, -0.930231885745991 
2.3500000000005348, -0.9257195511372964 
2.360000000000556, -0.922163120821982 
2.370000000000577, -0.9196280862336556 
2.380000000000598, -0.9180284162785618 
2.390000000000619, -0.9171645483927741 
2.4000000000006403, -0.9167919843427554 
2.4100000000006614, -0.9166861887401293 
2.4200000000006825, -0.916676662007108 
2.4300000000007036, -0.9166480881975015 
2.4400000000007247, -0.9165230515685279 
2.450000000000746, -0.9162412306119803 
2.460000000000767, -0.9157435945338207 
2.470000000000788, -0.9149656611847673 
2.480000000000809, -0.9138424225509363 
2.49000000000083, -0.9123252121355343 
2.5000000000008513, -0.9104041191719503 
2.5100000000008724, -0.908122227051372 
2.5200000000008935, -0.9055704867795867 
2.5300000000009146, -0.9028665004642116 
2.5400000000009357, -0.9001319813997087 
2.550000000000957, -0.8974801477359942 
2.560000000000978, -0.8950128403919699 
2.570000000000999, -0.8928202375118263 
2.58000000000102, -0.8909767256853177 
2.5900000000010412, -0.8895312547389601 
2.6000000000010624, -0.8884959059933312 
2.6100000000010835, -0.8878398131296729 
2.6200000000011046, -0.8874942652263865 
2.6300000000011257, -0.8873684386635838 
2.6400000000011468, -0.8873684583966923 
2.650000000001168, -0.8874113744909872 
2.660000000001189, -0.8874305058467227 
2.67000000000121, -0.8873743651290369 
2.680000000001231, -0.8872038882066287 
2.6900000000012523, -0.8868916602553428 
2.7000000000012734, -0.8864238054561989 
2.7100000000012945, -0.8858020112225177 
2.7200000000013156, -0.8850421524226698 
2.7300000000013367, -0.8841686494112247 
2.740000000001358, -0.8832077594437093 
2.750000000001379, -0.8821840528067206 
2.7600000000014, -0.8811214782071193 
2.770000000001421, -0.8800471060624272 
2.780000000001442, -0.8789946483083722 
2.7900000000014633, -0.8780057052517833 
2.8000000000014844, -0.8771277311178629 
2.8100000000015055, -0.876408518840852 
2.8200000000015266, -0.8758881138669968 
2.8300000000015477, -0.8755904420735268 
2.840000000001569, -0.8755176513426344 
2.85000000000159, -0.8756494460300519 
2.860000000001611, -0.8759477393182735 
2.870000000001632, -0.8763647771443047 
2.8800000000016532, -0.8768517163236729 
2.8900000000016743, -0.8773650700011706 
2.9000000000016954, -0.8778698569437478 
2.9100000000017165, -0.8783394987994526 
2.9200000000017377, -0.8787530904915049 
2.9300000000017588, -0.8790913179179508 
2.94000000000178, -0.8793333812977113 
2.950000000001801, -0.8794575710905095 
2.960000000001822, -0.8794460914501968 
2.970000000001843, -0.8792913491493735 
2.9800000000018643, -0.8789997497779669 
2.9900000000018854, -0.8785916724706524 
3.0000000000019065, -0.8780998143556108 
3.0100000000019276, -0.8775688685944404 
3.0200000000019487, -0.877057295850596 
3.03000000000197, -0.8766389082628223 
3.040000000001991, -0.8764001820979148 
3.050000000002012, -0.8764302185161161 
3.060000000002033, -0.8768045247788591 
3.070000000002054, -0.8775688148984552 
3.0800000000020753, -0.8787302318543997 
3.0900000000020964, -0.8802589966736358 
3.1000000000021175, -0.8820972057003689 
3.1100000000021386, -0.8841683394303163 
3.1200000000021597, -0.8863824484809706 
3.130000000002181, -0.8886363121437757 
3.140000000002202, -0.8908130312233566 
3.150000000002223, -0.892788844379624 
3.160000000002244, -0.8944521463795473 
3.1700000000022652, -0.8957290022508358 
3.1800000000022863, -0.8965994843707129 
3.1900000000023074, -0.8970933054450079 
3.2000000000023285, -0.8972693045006741 
3.2100000000023496, -0.8971935170580585 
3.2200000000023707, -0.8969269291164353 
3.230000000002392, -0.8965256117771426 
3.240000000002413, -0.8960515311011807 
3.250000000002434, -0.8955916313757479 
3.260000000002455, -0.8952812267272371 
3.2700000000024763, -0.8953222400162474 
3.2800000000024974, -0.8959797822029651 
3.2900000000025185, -0.8975415939007545 
3.3000000000025396, -0.9002428042632917 
3.3100000000025607, -0.9041841721646104 
3.3200000000025818, -0.9092796934769833 
3.330000000002603, -0.9152500644474854 
3.340000000002624, -0.9216565136133266 
3.350000000002645, -0.927968760686549 
3.360000000002666, -0.9336683103346418 
3.3700000000026873, -0.9383709258351531 
3.3800000000027084, -0.9419139901033798 
3.3900000000027295, -0.9443542048562803 
3.4000000000027506, -0.9458839341875489 
3.4100000000027717, -0.9467300904656163 
3.420000000002793, -0.9470880752344041 
3.430000000002814, -0.9470991991454693 
3.440000000002835, -0.9468554432781022 
3.450000000002856, -0.9464165606941185 
3.460000000002877, -0.945834741594954 
3.4700000000028983, -0.945190573632571 
3.4800000000029194, -0.9446463479186372 
3.4900000000029405, -0.9445127488431393 
3.5000000000029616, -0.9452958495095659 
3.5100000000029827, -0.9476552426592342 
3.520000000003004, -0.9522123571104715 
3.530000000003025, -0.9592469761274977 
3.540000000003046, -0.9684479859164851 
3.550000000003067, -0.9788980828472942 
3.5600000000030882, -0.9893386957271517 
3.5700000000031094, -0.9985944000305353 
3.5800000000031305, -1.0059387727567124 
3.5900000000031516, -1.0112138399175763 
3.6000000000031727, -1.0146857273629075 
3.6100000000031938, -1.016793044552344 
3.620000000003215, -1.0179538560697283 
3.630000000003236, -1.0184834459425551 
3.640000000003257, -1.0185888152371116 
3.650000000003278, -1.0183938239148576 
3.6600000000032993, -1.0179704991627032 
3.6700000000033204, -1.0173727755178406 
3.6800000000033415, -1.0166808859484129 
3.6900000000033626, -1.0160669910272557 
3.7000000000033837, -1.0158766600815738 
3.710000000003405, -1.0166749448281118 
3.720000000003426, -1.0191564967244513 
3.730000000003447, -1.0238640877456386 
3.740000000003468, -1.0308453792954884 
3.750000000003489, -1.0395101625305325 
3.7600000000035103, -1.0488121599285039 
3.7700000000035314, -1.0576245315213457 
3.7800000000035525, -1.0650901032767481 
3.7900000000035736, -1.0708033216527513 
3.8000000000035947, -1.0747886161694709 
3.810000000003616, -1.0773374948400982 
3.820000000003637, -1.0788214642486307 
3.830000000003658, -1.079568626414391 
3.840000000003679, -1.0798190555876428 
3.8500000000037002, -1.07973019435939 
3.8600000000037213, -1.0794029252287554 
3.8700000000037424, -1.078915447095479 
3.8800000000037635, -1.0783648007370559 
3.8900000000037847, -1.077915896810101 
3.9000000000038058, -1.0778393497023286 
3.910000000003827, -1.0784905751008222 
3.920000000003848, -1.080191054199921 
3.930000000003869, -1.0830612465548382 
3.94000000000389, -1.0869370486808718 
3.9500000000039113, -1.0914367800023144 
3.9600000000039324, -1.09610534998771 
3.9700000000039535, -1.1005315024357518 
3.9800000000039746, -1.1044060056498042 
3.9900000000039957, -1.107542155009963 
4.000000000004016, -1.1098776501192897 
4.010000000003993, -1.1114575719918842 
4.02000000000397, -1.1123968843813123 
4.030000000003946, -1.1128350419079742 
4.040000000003923, -1.1129015554086448 
4.0500000000039, -1.1127023495210469 
4.0600000000038765, -1.1123252828969272 
4.070000000003853, -1.111858293988486 
4.08000000000383, -1.111411302016918 
4.090000000003807, -1.111127005010331 
4.100000000003783, -1.1111615700963435 
4.11000000000376, -1.1116323043057446 
4.120000000003737, -1.1125651381972095 
4.130000000003713, -1.1138852939389765 
4.14000000000369, -1.11545495605022 
4.150000000003667, -1.1171230565463404 
4.1600000000036434, -1.1187576437487396 
4.17000000000362, -1.1202565310686332 
4.180000000003597, -1.1215453947705436 
4.1900000000035735, -1.122572901603117 
4.20000000000355, -1.123308317482173 
4.210000000003527, -1.1237421426897884 
4.220000000003504, -1.1238865837215772 
4.23000000000348, -1.1237727336504733 
4.240000000003457, -1.12344518987174 
4.250000000003434, -1.1229581604427816 
4.26000000000341, -1.1223759644282485 
4.270000000003387, -1.121775752725204 
4.280000000003364, -1.1212452414448941 
4.2900000000033405, -1.1208690013258091 
4.300000000003317, -1.1207064297584053 
4.310000000003294, -1.120774559386137 
4.320000000003271, -1.1210459849877492 
4.330000000003247, -1.121460168455242 
4.340000000003224, -1.1219403472929095 
4.350000000003201, -1.1224096613136365 
4.360000000003177, -1.1228022992556432 
4.370000000003154, -1.1230681323167873 
4.380000000003131, -1.1231725427934158 
4.390000000003107, -1.1230942803948136 
4.400000000003084, -1.122823097462593 
4.410000000003061, -1.1223579359454519 
4.4200000000030375, -1.1217063138882861 
4.430000000003014, -1.120885324963806 
4.440000000002991, -1.1199240059507958 
4.450000000002968, -1.1188662025828877 
4.460000000002944, -1.1177723096429268 
4.470000000002921, -1.1167173028825155 
4.480000000002898, -1.1157826116552627 
4.490000000002874, -1.1150414179165515 
4.500000000002851, -1.1145397894579767 
4.510000000002828, -1.1142797568387184 
4.520000000002804, -1.1142144498956619 
4.530000000002781, -1.1142617153489165 
4.540000000002758, -1.1143284956684067 
4.5500000000027345, -1.1143297877939171 
4.560000000002711, -1.1141941766716983 
4.570000000002688, -1.1138607156864615 
4.580000000002665, -1.113276129018734 
4.590000000002641, -1.1123974587906875 
4.600000000002618, -1.1111991035484037 
4.610000000002595, -1.1096792100207131 
4.620000000002571, -1.107861514375742 
4.630000000002548, -1.1057937391154582 
4.640000000002525, -1.1035469602337202 
4.6500000000025015, -1.1012184193227812 
4.660000000002478, -1.0989349016410257 
4.670000000002455, -1.0968483776793492 
4.6800000000024315, -1.09511322953666 
4.690000000002408, -1.0938416569029141 
4.700000000002385, -1.0930558540392545 
4.710000000002362, -1.0926740292697072 
4.720000000002338, -1.0925474826671753 
4.730000000002315, -1.0925194070996307 
4.740000000002292, -1.0924621970859976 
4.750000000002268, -1.0922799038216646 
4.760000000002245, -1.0918902199854732 
4.770000000002222, -1.0912037865321025 
4.7800000000021985, -1.0901118481827365 
4.790000000002175, -1.0884892947103877 
4.800000000002152, -1.0862173468874219 
4.810000000002129, -1.0832219659100015 
4.820000000002105, -1.0795122981626097 
4.830000000002082, -1.0752015093323546 
4.840000000002059, -1.0705060251756826 
4.850000000002035, -1.065731252163566 
4.860000000002012, -1.061244365676554 
4.870000000001989, -1.0574177639453763 
4.880000000001965, -1.0545321833049988 
4.890000000001942, -1.0526741182023915 
4.900000000001919, -1.0517052167703065 
4.9100000000018955, -1.051342351276125 
4.920000000001872, -1.0512873132500382 
4.930000000001849, -1.0513128531988858 
