t, s[1].omega / s[0].omega 
0, -0.5799977339824098 
0.009999999999999995, -0.5797817063143569 
0.019999999999999934, -0.5795795055192146 
0.029999999999999874, -0.5793730391110155 
0.04000000000000012, -0.5791407980132116 
0.050000000000000405, -0.5788656404082303 
0.06000000000000069, -0.5785392942392538 
0.07000000000000098, -0.5781629808848706 
0.08000000000000126, -0.5777461308770521 
0.09000000000000155, -0.5773057627180307 
0.10000000000000184, -0.5768683447126535 
0.11000000000000212, -0.5764751906045538 
0.12000000000000241, -0.5761922297051707 
0.130000000000002, -0.5761251038812766 
0.1400000000000009, -0.5764403000807349 
0.1499999999999998, -0.5773912243153771 
0.1599999999999987, -0.5793424037764553 
0.1699999999999976, -0.5827714092836771 
0.1799999999999965, -0.5882041088949758 
0.1899999999999954, -0.596019164611105 
0.1999999999999943, -0.6061060409754145 
0.2099999999999932, -0.6175648481445097 
0.2199999999999921, -0.6288559973663778 
0.229999999999991, -0.6385226699530799 
0.2399999999999899, -0.6458743318579585 
0.2499999999999888, -0.6510182338398056 
0.2599999999999877, -0.6544432796390609 
0.2699999999999866, -0.6566607849761583 
0.2799999999999855, -0.6580639058690816 
0.2899999999999844, -0.6589189280035037 
0.2999999999999833, -0.6593953803511379 
0.3099999999999822, -0.6595955766617125 
0.3199999999999811, -0.65957470057817 
0.32999999999998, -0.6593520824319148 
0.3399999999999789, -0.6589159401619673 
0.3499999999999778, -0.6582240179534267 
0.35999999999997667, -0.6572036438618158 
0.36999999999997557, -0.6557575459707656 
0.37999999999997447, -0.6537848666521575 
0.38999999999997337, -0.6512238637017382 
0.39999999999997227, -0.6481052112278622 
0.40999999999997117, -0.6445798578012443 
0.41999999999997006, -0.6408879230579468 
0.42999999999996896, -0.6372816858527447 
0.43999999999996786, -0.633955570297312 
0.44999999999996676, -0.6310200148367173 
0.45999999999996566, -0.6285139470604351 
0.46999999999996456, -0.6264314300167982 
0.47999999999996346, -0.6247448084467893 
0.48999999999996235, -0.6234189037152544 
0.49999999999996125, -0.6224176781770552 
0.5099999999999602, -0.621706518274395 
0.519999999999959, -0.6212527155049479 
0.529999999999958, -0.6210256618827789 
0.5399999999999568, -0.6209973928877428 
0.5499999999999557, -0.6211435464928499 
0.5599999999999546, -0.6214445254880557 
0.5699999999999535, -0.6218865426978282 
0.5799999999999524, -0.62246213441192 
0.5899999999999513, -0.6231694980025486 
0.5999999999999502, -0.6240096636804879 
0.6099999999999491, -0.6249804279035094 
0.619999999999948, -0.6260669196148274 
0.6299999999999469, -0.6272312933769457 
0.6399999999999458, -0.6284076416914713 
0.6499999999999447, -0.6295093351338511 
0.6599999999999436, -0.6304500368760753 
0.6699999999999425, -0.631168303917166 
0.6799999999999414, -0.6316406730370577 
0.6899999999999403, -0.6318770880806353 
0.6999999999999392, -0.6319056245706214 
0.7099999999999381, -0.6317572434669523 
0.719999999999937, -0.6314562527491863 
0.7299999999999359, -0.6310165856022136 
0.7399999999999348, -0.6304419687961808 
0.7499999999999337, -0.6297285959709673 
0.7599999999999326, -0.628870149348171 
0.7699999999999315, -0.6278656985315165 
0.7799999999999304, -0.6267298339305445 
0.7899999999999293, -0.6254989296820053 
0.7999999999999282, -0.6242156090123749 
0.8099999999999271, -0.6228646774590298 
0.819999999999926, -0.6212710112115695 
0.8299999999999249, -0.6190968494994062 
0.8399999999999238, -0.6161269775390441 
0.8499999999999227, -0.6126524256263903 
0.8599999999999216, -0.609388316659188 
0.8699999999999205, -0.6069392962161246 
0.8799999999999194, -0.6054672048398212 
0.8899999999999183, -0.6047902520198689 
0.8999999999999172, -0.6046203951196725 
0.9099999999999161, -0.6047106642133234 
0.919999999999915, -0.6048956782829493 
0.9299999999999139, -0.6050798202464531 
0.9399999999999128, -0.6052129351092582 
0.9499999999999117, -0.6052694919505975 
0.9599999999999106, -0.6052344184425356 
0.9699999999999095, -0.6050946351823939 
0.9799999999999084, -0.6048349672290345 
0.9899999999999073, -0.6044379697057962 
0.9999999999999062, -0.6038879184637589 
1.0099999999999052, -0.60317866029641 
1.019999999999904, -0.6023225012369939 
1.029999999999903, -0.6013543236088824 
1.039999999999902, -0.6003258444608923 
1.0499999999999008, -0.5992913718779104 
1.0599999999998997, -0.5982931500358519 
1.0699999999998986, -0.5973541840475751 
1.0799999999998975, -0.5964802461451382 
1.0899999999998964, -0.5956673341790478 
1.0999999999998953, -0.5949097574644417 
1.1099999999998942, -0.594205994097568 
1.119999999999893, -0.593561937196009 
1.129999999999892, -0.5929925666048409 
1.1399999999998909, -0.5925232458956794 
1.1499999999998898, -0.5921913495966663 
1.1599999999998887, -0.5920483928695293 
1.1699999999998876, -0.592162523759091 
1.1799999999998865, -0.5926210963532416 
1.1899999999998854, -0.5935328530350856 
1.1999999999998843, -0.5950286513097369 
1.2099999999998832, -0.5972581709697838 
1.219999999999882, -0.6003771429803828 
1.229999999999881, -0.6045157528597694 
1.2399999999998799, -0.6097177457292478 
1.2499999999998788, -0.6158519974392529 
1.2599999999998777, -0.6225366260575039 
1.2699999999998766, -0.6291624464960087 
1.2799999999998755, -0.6350755216268353 
1.2899999999998744, -0.6398293664704534 
1.2999999999998733, -0.6433118805400275 
1.3099999999998722, -0.6456741349493371 
1.319999999999871, -0.6471730369660664 
1.32999999999987, -0.648053260577356 
1.3399999999998689, -0.6484993794602139 
1.3499999999998678, -0.6486316317958647 
1.3599999999998666, -0.6485162332659807 
1.3699999999998655, -0.6481750384936847 
1.3799999999998644, -0.6475891058165069 
1.3899999999998633, -0.64669467093705 
1.3999999999998622, -0.6453716126844262 
1.4099999999998611, -0.6434275581137453 
1.41999999999986, -0.6405898974020503 
1.429999999999859, -0.6365359834909174 
1.4399999999998578, -0.6310050987594717 
1.4499999999998567, -0.6239955487632995 
1.4599999999998556, -0.6159253208447055 
1.4699999999998545, -0.6075633647314154 
1.4799999999998534, -0.599723424623088 
1.4899999999998523, -0.5929669661444023 
1.4999999999998512, -0.5875137562996257 
1.5099999999998501, -0.5833252218367356 
1.519999999999849, -0.5802308095139279 
1.529999999999848, -0.5780212493454829 
1.5399999999998468, -0.576497655043895 
1.5499999999998457, -0.5754906521105572 
1.5599999999998446, -0.5748641904232306 
1.5699999999998435, -0.5745129816468852 
1.5799999999998424, -0.5743578955494676 
1.5899999999998413, -0.5743411535314195 
1.5999999999998402, -0.5744220702630567 
1.6099999999998391, -0.5745736781951727 
1.619999999999838, -0.5747803473971593 
1.629999999999837, -0.5750362022481289 
1.6399999999998358, -0.5753436203012686 
1.6499999999998347, -0.5757105421878236 
1.6599999999998336, -0.5761452737805565 
1.6699999999998325, -0.5766485773374022 
1.6799999999998314, -0.5772051773408948 
1.6899999999998303, -0.5777792040504681 
1.6999999999998292, -0.578318244576026 
1.709999999999828, -0.5787664835719467 
1.719999999999827, -0.57908060148179 
1.729999999999826, -0.5792392483529357 
1.7399999999998248, -0.5792419556816273 
1.7499999999998237, -0.579100957923552 
1.7599999999998226, -0.5788321551514388 
1.7699999999998215, -0.5784491026305395 
1.7799999999998204, -0.5779607812683859 
1.7899999999998193, -0.5773725261698702 
1.7999999999998182, -0.5766896255514976 
1.809999999999817, -0.5759235932083099 
1.819999999999816, -0.5751007069425125 
1.8299999999998149, -0.574269154748168 
1.8399999999998138, -0.5734920039220859 
1.8499999999998127, -0.5727982647359238 
1.8599999999998116, -0.5720654441913854 
1.8699999999998105, -0.570891316546102 
1.8799999999998094, -0.5686951507129974 
1.8899999999998083, -0.5652254505590277 
1.8999999999998072, -0.5610004158761928 
1.909999999999806, -0.5569921115779621 
1.919999999999805, -0.5539103391563865 
1.9299999999998039, -0.5519159186205977 
1.9399999999998028, -0.5508097977036613 
1.9499999999998017, -0.5502964963484827 
1.9599999999998006, -0.5501245267456487 
1.9699999999997995, -0.5501208330259489 
1.9799999999997984, -0.5501791203937377 
1.9899999999997973, -0.5502381156205077 
1.9999999999997962, -0.5502630434066251 
2.0099999999998173, -0.5502329351006965 
2.0199999999998384, -0.5501330768425813 
2.0299999999998595, -0.5499515725467806 
2.0399999999998806, -0.5496794215678533 
2.0499999999999017, -0.54931356759677 
2.059999999999923, -0.5488614428722097 
2.069999999999944, -0.5483439168283786 
2.079999999999965, -0.5477930920141246 
2.089999999999986, -0.5472440114846233 
2.100000000000007, -0.5467238439247954 
2.1100000000000283, -0.5462443108777388 
2.1200000000000494, -0.5458009501354922 
2.1300000000000705, -0.5453786022696618 
2.1400000000000916, -0.5449595306640688 
2.1500000000001127, -0.5445302554893592 
2.160000000000134, -0.5440851054169044 
2.170000000000155, -0.5436270178617335 
2.180000000000176, -0.5431675470334106 
2.190000000000197, -0.5427280270468141 
2.2000000000002182, -0.5423432238915381 
2.2100000000002393, -0.5420683992104645 
2.2200000000002604, -0.5419906709187066 
2.2300000000002815, -0.5422455558538852 
2.2400000000003026, -0.5430388584198267 
2.2500000000003237, -0.5446710408828009 
2.260000000000345, -0.5475526894093792 
2.270000000000366, -0.5521811958327708 
2.280000000000387, -0.5590219501510351 
2.290000000000408, -0.5682361817736199 
2.3000000000004293, -0.5793154430631379 
2.3100000000004504, -0.5909518186635078 
2.3200000000004715, -0.6015211317748466 
2.3300000000004926, -0.6099197597205455 
2.3400000000005137, -0.6159457037473635 
2.3500000000005348, -0.6200033370952744 
2.360000000000556, -0.6226472082701231 
2.370000000000577, -0.6243383276695816 
2.380000000000598, -0.6253959416683067 
2.390000000000619, -0.6260245635727762 
2.4000000000006403, -0.6263496984311211 
2.4100000000006614, -0.6264437821140055 
2.4200000000006825, -0.6263416841104414 
2.4300000000007036, -0.6260486724901838 
2.4400000000007247, -0.6255437207086701 
2.450000000000746, -0.624781248594753 
2.460000000000767, -0.6236958272108194 
2.470000000000788, -0.6222162759158943 
2.480000000000809, -0.620294206673785 
2.49000000000083, -0.6179416976905561 
2.5000000000008513, -0.6152557275644176 
2.5100000000008724, -0.6124038895854967 
2.5200000000008935, -0.6095732666074695 
2.5300000000009146, -0.6069163587266445 
2.5400000000009357, -0.6045252774669426 
2.550000000000957, -0.6024367252737491 
2.560000000000978, -0.6006515328688471 
2.570000000000999, -0.5991538516809168 
2.58000000000102, -0.5979238538579855 
2.5900000000010412, -0.5969439718643147 
2.6000000000010624, -0.596200862632712 
2.6100000000010835, -0.5956852393675306 
2.6200000000011046, -0.5953910402193593 
2.6300000000011257, -0.5953147725251855 
2.6400000000011468, -0.5954554208042083 
2.650000000001168, -0.595814982744048 
2.660000000001189, -0.5963994166823381 
2.67000000000121, -0.5972194602945811 
2.680000000001231, -0.5982903224595575 
2.6900000000012523, -0.5996286372650941 
2.7000000000012734, -0.601244575385458 
2.7100000000012945, -0.603127555368453 
2.7200000000013156, -0.60522725250025 
2.7300000000013367, -0.6074385859417051 
2.740000000001358, -0.6096061785303184 
2.750000000001379, -0.6115589164089381 
2.7600000000014, -0.6131622355617511 
2.770000000001421, -0.6143549321077535 
2.780000000001442, -0.6151481438966566 
2.7900000000014633, -0.6155960862468894 
2.8000000000014844, -0.6157632501445719 
2.8100000000015055, -0.6157029620235359 
2.8200000000015266, -0.615447835927828 
2.8300000000015477, -0.6150065038580445 
2.840000000001569, -0.6143612364681669 
2.85000000000159, -0.6134627073350568 
2.860000000001611, -0.612218888358089 
2.870000000001632, -0.6104748243329776 
2.8800000000016532, -0.6079806793546887 
2.8900000000016743, -0.6043534698200554 
2.9000000000016954, -0.5990686491811557 
2.9100000000017165, -0.5915802517348878 
2.9200000000017377, -0.5816825174267396 
2.9300000000017588, -0.5699763472023516 
2.94000000000178, -0.5578976940344735 
2.950000000001801, -0.5470315789889688 
2.960000000001822, -0.5383419061869311 
2.970000000001843, -0.5319938427804909 
2.9800000000018643, -0.5276518856098065 
2.9900000000018854, -0.5248233779646871 
3.0000000000019065, -0.5230531633405915 
3.0100000000019276, -0.5219882338900065 
3.0200000000019487, -0.5213777824343407 
3.03000000000197, -0.5210521615277346 
3.040000000001991, -0.520899992383481 
3.050000000002012, -0.5208495802918208 
3.060000000002033, -0.5208555455113358 
3.070000000002054, -0.5208899923279162 
3.0800000000020753, -0.5209372955804679 
3.0900000000020964, -0.5209916126179899 
3.1000000000021175, -0.5210560437925336 
3.1100000000021386, -0.5211418807535374 
3.1200000000021597, -0.5212660258352226 
3.130000000002181, -0.5214452350758505 
3.140000000002202, -0.5216877127003597 
3.150000000002223, -0.5219850200022554 
3.160000000002244, -0.5223087289623131 
3.1700000000022652, -0.5226152032624802 
3.1800000000022863, -0.5228576447198654 
3.1900000000023074, -0.5229993446381387 
3.2000000000023285, -0.5230209507916184 
3.2100000000023496, -0.5229192634852279 
3.2200000000023707, -0.522700731803174 
3.230000000002392, -0.5223743939287053 
3.240000000002413, -0.5219470078695762 
3.250000000002434, -0.5214207587165745 
3.260000000002455, -0.5207927962734097 
3.2700000000024763, -0.5200555527637563 
3.2800000000024974, -0.5191961747998934 
3.2900000000025185, -0.5181910065766482 
3.3000000000025396, -0.5169850617613887 
3.3100000000025607, -0.5154374572858592 
3.3200000000025818, -0.5132184687925094 
3.330000000002603, -0.5097176961557415 
3.340000000002624, -0.5041993582617517 
3.350000000002645, -0.49642677237076827 
3.360000000002666, -0.4872758068023698 
3.3700000000026873, -0.478374043451588 
3.3800000000027084, -0.47102628980012373 
3.3900000000027295, -0.4656626339555811 
3.4000000000027506, -0.4620653070201917 
3.4100000000027717, -0.459787765184165 
3.420000000002793, -0.4584060600322591 
3.430000000002814, -0.4575996323058817 
3.440000000002835, -0.45715009627803316 
3.450000000002856, -0.4569164933523604 
3.460000000002877, -0.4568105658356806 
3.4700000000028983, -0.45677821291906884 
3.4800000000029194, -0.4567871916794197 
3.4900000000029405, -0.4568197151842794 
3.5000000000029616, -0.45686862655515553 
3.5100000000029827, -0.4569359942800172 
3.520000000003004, -0.45703282486982716 
3.530000000003025, -0.4571781689031873 
3.540000000003046, -0.45739572540397166 
3.550000000003067, -0.45770681215202397 
3.5600000000030882, -0.45812044203710095 
3.5700000000031094, -0.45862366599857074 
3.5800000000031305, -0.45917730030014337 
3.5900000000031516, -0.45972178872478586 
3.6000000000031727, -0.46019304907301456 
3.6100000000031938, -0.46054059519318236 
3.620000000003215, -0.4607376583605065 
3.630000000003236, -0.4607793332755568 
3.640000000003257, -0.4606730392622052 
3.650000000003278, -0.46042784843004725 
3.6600000000032993, -0.46004609654090106 
3.6700000000033204, -0.4595169773875562 
3.6800000000033415, -0.4588097796152687 
3.6900000000033626, -0.45786341873921177 
3.7000000000033837, -0.4565678394324653 
3.710000000003405, -0.45473204838953113 
3.720000000003426, -0.4520377435232481 
3.730000000003447, -0.4480016845212713 
3.740000000003468, -0.44203401961715666 
3.750000000003489, -0.4337366296082247 
3.7600000000035103, -0.4234078011426621 
3.7700000000035314, -0.4122429424207663 
3.7800000000035525, -0.4017715636933918 
3.7900000000035736, -0.393038716141095 
3.8000000000035947, -0.38633140250736636 
3.810000000003616, -0.38143155299758275 
3.820000000003637, -0.37794735967477694 
3.830000000003658, -0.37550348517232385 
3.840000000003679, -0.3738049299257596 
3.8500000000037002, -0.37263992705548 
3.8600000000037213, -0.3718638630319123 
3.8700000000037424, -0.3713818337123417 
3.8800000000037635, -0.3711350810867274 
3.8900000000037847, -0.37109193095418225 
3.9000000000038058, -0.3712425828363347 
3.910000000003827, -0.37159697257950186 
3.920000000003848, -0.37218500145875744 
3.930000000003869, -0.3730582654238529 
3.94000000000389, -0.374291674014135 
3.9500000000039113, -0.3759815894621033 
3.9600000000039324, -0.37823401169781856 
3.9700000000039535, -0.38113295161361904 
3.9800000000039746, -0.3846814487364506 
3.9900000000039957, -0.3887287104389747 
4.000000000004016, -0.39293943405537507 
4.010000000003993, -0.39687545425521276 
4.02000000000397, -0.4001714873926674 
4.030000000003946, -0.40266879092993274 
4.040000000003923, -0.4044086600726793 
4.0500000000039, -0.40553515193167405 
4.0600000000038765, -0.40620477155468365 
4.070000000003853, -0.4065422900077806 
4.08000000000383, -0.4066310675075132 
4.090000000003807, -0.40651748328333975 
4.100000000003783, -0.40621771073478036 
4.11000000000376, -0.4057231544051209 
4.120000000003737, -0.405005425162657 
4.130000000003713, -0.4040244069620874 
4.14000000000369, -0.40274410024131413 
4.150000000003667, -0.4011578281008549 
4.1600000000036434, -0.3993140830162603 
4.17000000000362, -0.39732299346737726 
4.180000000003597, -0.3953293277092652 
4.1900000000035735, -0.3934652240220612 
4.20000000000355, -0.39181407863715884 
4.210000000003527, -0.39040324373789226 
4.220000000003504, -0.3892185157469658 
4.23000000000348, -0.388224686467923 
4.240000000003457, -0.3873821427714968 
4.250000000003434, -0.3866568842534939 
4.26000000000341, -0.3860251416812851 
4.270000000003387, -0.3854748791977626 
4.280000000003364, -0.3850063770718951 
4.2900000000033405, -0.38463362743312024 
4.300000000003317, -0.3843878782322244 
4.310000000003294, -0.38432456883254884 
4.320000000003271, -0.3845350960649561 
4.330000000003247, -0.385164931008778 
4.340000000003224, -0.3864382868994112 
4.350000000003201, -0.3886832560562322 
4.360000000003177, -0.39233211697461584 
4.370000000003154, -0.39782985695069456 
4.380000000003131, -0.40534238850783977 
4.390000000003107, -0.41426200060464896 
4.400000000003084, -0.42297066574064585 
4.410000000003061, -0.4296149226118534 
4.4200000000030375, -0.43345487975908686 
4.430000000003014, -0.4351184427528336 
4.440000000002991, -0.43565799372087133 
4.450000000002968, -0.43580221540673136 
4.460000000002944, -0.4358713924633598 
4.470000000002921, -0.43595410588143324 
4.480000000002898, -0.43605156321272653 
4.490000000002874, -0.4361446735898281 
4.500000000002851, -0.43621592501814055 
4.510000000002828, -0.4362532920752621 
4.520000000002804, -0.4362490091185866 
4.530000000002781, -0.43619796017346274 
4.540000000002758, -0.4360972315761106 
4.5500000000027345, -0.435947267170572 
4.560000000002711, -0.4357544140271741 
4.570000000002688, -0.4355337182783991 
4.580000000002665, -0.4353098012092569 
4.590000000002641, -0.4351135964438961 
4.600000000002618, -0.4349745699785722 
4.610000000002595, -0.4349108929862939 
4.620000000002571, -0.4349217284302941 
4.630000000002548, -0.4349853309303584 
4.640000000002525, -0.43506450866454893 
4.6500000000025015, -0.43511759417793705 
4.660000000002478, -0.43510976562367565 
4.670000000002455, -0.43501932365351126 
4.6800000000024315, -0.4348371924933293 
4.690000000002408, -0.4345619868976212 
4.700000000002385, -0.43419407347357675 
4.710000000002362, -0.43373053462781125 
4.720000000002338, -0.4331609641214051 
4.730000000002315, -0.4324625867067177 
4.740000000002292, -0.431591814131854 
4.750000000002268, -0.43046692567760997 
4.760000000002245, -0.42893246937787344 
4.770000000002222, -0.42669374995931 
4.7800000000021985, -0.4232288529176804 
4.790000000002175, -0.4177726853602768 
4.800000000002152, -0.40961412579382295 
4.810000000002129, -0.39881798955798053 
4.820000000002105, -0.38671264516504344 
4.830000000002082, -0.3752438916778484 
4.840000000002059, -0.365781745952678 
4.850000000002035, -0.3586840167961878 
4.860000000002012, -0.35365156388017827 
4.870000000001989, -0.3501857428817039 
4.880000000001965, -0.34783136421922217 
4.890000000001942, -0.34624550530094006 
4.900000000001919, -0.3451911335079283 
