t, s[1].omega / s[0].omega 
0, -0.9599902508795706 
0.009999999999999995, -0.9589495252847318 
0.019999999999999934, -0.9577786476362589 
0.029999999999999874, -0.9564774708599513 
0.04000000000000012, -0.9550453496754014 
0.050000000000000405, -0.9534812139250435 
0.06000000000000069, -0.9517836699215341 
0.07000000000000098, -0.9499511253159579 
0.08000000000000126, -0.9479819321287253 
0.09000000000000155, -0.9458745420433387 
0.10000000000000184, -0.9436276678666372 
0.11000000000000212, -0.9412404452089942 
0.12000000000000241, -0.9387125889088838 
0.130000000000002, -0.9360445394680857 
0.1400000000000009, -0.9332375957052798 
0.1499999999999998, -0.9302940308912445 
0.1599999999999987, -0.9272171907072183 
0.1699999999999976, -0.9240115723812247 
0.1799999999999965, -0.9206828852300742 
0.1899999999999954, -0.9172380935109747 
0.1999999999999943, -0.9136854429337888 
0.2099999999999932, -0.9100344723953894 
0.2199999999999921, -0.9062960124870573 
0.229999999999991, -0.9024821721299465 
0.2399999999999899, -0.8986063143613189 
0.2499999999999888, -0.8946830218824837 
0.2599999999999877, -0.890728052546437 
0.2699999999999866, -0.886758284563236 
0.2799999999999855, -0.8827916508801494 
0.2899999999999844, -0.878847061985998 
0.2999999999999833, -0.8749443163163508 
0.3099999999999822, -0.871103997506325 
0.3199999999999811, -0.8673473579457397 
0.32999999999998, -0.8636961884211565 
0.3399999999999789, -0.8601726740555194 
0.3499999999999778, -0.8567992372469007 
0.35999999999997667, -0.8535983688278725 
0.36999999999997557, -0.8505924491802762 
0.37999999999997447, -0.8478035615127947 
0.38999999999997337, -0.845253299911442 
0.39999999999997227, -0.8429625750829493 
0.40999999999997117, -0.8409514209127003 
0.41999999999997006, -0.8392388050449783 
0.42999999999996896, -0.8378424466642787 
0.43999999999996786, -0.8367786445196349 
0.44999999999996676, -0.8360621180022432 
0.45999999999996566, -0.8357058637771149 
0.46999999999996456, -0.835721030101299 
0.47999999999996346, -0.8361168105544537 
0.48999999999996235, -0.8369003584816085 
0.49999999999996125, -0.8380767230204739 
0.5099999999999602, -0.8396488071718547 
0.519999999999959, -0.8416173479838496 
0.529999999999958, -0.8439809185676485 
0.5399999999999568, -0.8467359513508992 
0.5499999999999557, -0.8498767817067407 
0.5599999999999546, -0.8533957108728827 
0.5699999999999535, -0.8572830868931612 
0.5799999999999524, -0.8615274021693372 
0.5899999999999513, -0.866115406097047 
0.5999999999999502, -0.871032231169196 
0.6099999999999491, -0.876261530854259 
0.619999999999948, -0.881785627487611 
0.6299999999999469, -0.8875856683436666 
0.6399999999999458, -0.8936417879795402 
0.6499999999999447, -0.8999332748540182 
0.6599999999999436, -0.9064387401288516 
0.6699999999999425, -0.9131362864565516 
0.6799999999999414, -0.9200036744573319 
0.6899999999999403, -0.9270184844984359 
0.6999999999999392, -0.9341582713252647 
0.7099999999999381, -0.9414007090706106 
0.719999999999937, -0.9487237242013946 
0.7299999999999359, -0.9561056140662859 
0.7399999999999348, -0.9635251488950443 
0.7499999999999337, -0.9709616553807927 
0.7599999999999326, -0.9783950803553402 
0.7699999999999315, -0.9858060335461984 
0.7799999999999304, -0.9931758089784749 
0.7899999999999293, -1.0004863852464383 
0.7999999999999282, -1.0077204056140345 
0.8099999999999271, -1.014861139690821 
0.819999999999926, -1.0218924292433582 
0.8299999999999249, -1.0287986215090212 
0.8399999999999238, -1.0355644941400721 
0.8499999999999227, -1.0421751765746003 
0.8599999999999216, -1.0486160731570209 
0.8699999999999205, -1.0548727936605538 
0.8799999999999194, -1.0609310969445926 
0.8899999999999183, -1.066776853263662 
0.8999999999999172, -1.0723960301953965 
0.9099999999999161, -1.077774706254038 
0.919999999999915, -1.082899115009101 
0.9299999999999139, -1.0877557209721662 
0.9399999999999128, -1.0923313267181747 
0.9499999999999117, -1.0966132087759004 
0.9599999999999106, -1.1005892778909656 
0.9699999999999095, -1.104248257491041 
0.9799999999999084, -1.1075798727317319 
0.9899999999999073, -1.1105750415272309 
0.9999999999999062, -1.1132260585955538 
1.0099999999999052, -1.1155267638474835 
1.019999999999904, -1.1174726874298773 
1.029999999999903, -1.1190611653351457 
1.039999999999902, -1.120291421577714 
1.0499999999999008, -1.1211646153276176 
1.0599999999998997, -1.1216838538584024 
1.0699999999998986, -1.121854174479783 
1.0799999999998975, -1.1216825005718334 
1.0899999999998964, -1.121177578245029 
1.0999999999998953, -1.1203499009051714 
1.1099999999998942, -1.119211629055585 
1.119999999999893, -1.1177765120369014 
1.129999999999892, -1.1160598171597378 
1.1399999999998909, -1.1140782699443856 
1.1499999999998898, -1.1118500070920114 
1.1599999999998887, -1.1093945415392465 
1.1699999999998876, -1.1067327366661708 
1.1799999999998865, -1.1038867846097284 
1.1899999999998854, -1.1008801818481553 
1.1999999999998843, -1.0977376939225136 
1.2099999999998832, -1.094485300485537 
1.219999999999882, -1.0911501119238973 
1.229999999999881, -1.0877602496551289 
1.2399999999998799, -1.0843446838679924 
1.2499999999998788, -1.0809330249006066 
1.2599999999998777, -1.0775552675034121 
1.2699999999998766, -1.0742414907051006 
1.2799999999998755, -1.0710215196110429 
1.2899999999998744, -1.0679245588894029 
1.2999999999998733, -1.0649788105978863 
1.3099999999998722, -1.0622110910557092 
1.319999999999871, -1.0596464624186868 
1.32999999999987, -1.057307894321836 
1.3399999999998689, -1.055215969394546 
1.3499999999998678, -1.053388643748609 
1.3599999999998666, -1.051841069938883 
1.3699999999998655, -1.0505854857513395 
1.3799999999998644, -1.0496311678947288 
1.3899999999998633, -1.048984445680753 
1.3999999999998622, -1.0486487664541195 
1.4099999999998611, -1.0486248021751217 
1.41999999999986, -1.0489105853459346 
1.429999999999859, -1.0495016624592568 
1.4399999999998578, -1.0503912542558007 
1.4499999999998567, -1.0515704141116098 
1.4599999999998556, -1.0530281785551616 
1.4699999999998545, -1.0547517069022185 
1.4799999999998534, -1.0567264099433695 
1.4899999999998523, -1.0589360701992223 
1.4999999999998512, -1.0613629582036863 
1.5099999999998501, -1.0639879504050438 
1.519999999999849, -1.0667906545083363 
1.529999999999848, -1.0697495474499996 
1.5399999999998468, -1.0728421298257949 
1.5499999999998457, -1.0760450986961039 
1.5599999999998446, -1.0793345385304283 
1.5699999999998435, -1.0826861279037021 
1.5799999999998424, -1.0860753576792987 
1.5899999999998413, -1.0894777550136545 
1.5999999999998402, -1.0928691067260936 
1.6099999999998391, -1.0962256754383297 
1.619999999999838, -1.099524402359564 
1.629999999999837, -1.102743091561469 
1.6399999999998358, -1.1058605718897991 
1.6499999999998347, -1.1088568341109926 
1.6599999999998336, -1.1117131423131907 
1.6699999999998325, -1.114412119820174 
1.6799999999998314, -1.1169378108272452 
1.6899999999998303, -1.1192757195765022 
1.6999999999998292, -1.1214128291547218 
1.709999999999828, -1.1233376019664252 
1.719999999999827, -1.1250399636882085 
1.729999999999826, -1.1265112721491175 
1.7399999999998248, -1.1277442722110784 
1.7499999999998237, -1.1287330374387408 
1.7599999999998226, -1.1294728992229002 
1.7699999999998215, -1.129960364098824 
1.7799999999998204, -1.1301930202880723 
1.7899999999998193, -1.1301694349631637 
1.7999999999998182, -1.1298890443320906 
1.809999999999817, -1.1293520392861507 
1.819999999999816, -1.1285592499614554 
1.8299999999998149, -1.127512033044537 
1.8399999999998138, -1.126212165931542 
1.8499999999998127, -1.1246617518760507 
1.8599999999998116, -1.1228631400081222 
1.8699999999998105, -1.1208188635823153 
1.8799999999998094, -1.1185315990489721 
1.8899999999998083, -1.1160041475982312 
1.8999999999998072, -1.1132394397735252 
1.909999999999806, -1.1102405626712408 
1.919999999999805, -1.1070108082153263 
1.9299999999998039, -1.1035537400895703 
1.9399999999998028, -1.0998732761801195 
1.9499999999998017, -1.095973782859967 
1.9599999999998006, -1.091860177147316 
1.9699999999997995, -1.087538032681104 
1.9799999999997984, -1.083013685551648 
1.9899999999997973, -1.0782943362617965 
1.9999999999997962, -1.0733881444268933 
2.0099999999998173, -1.0683043132037975 
2.0199999999998384, -1.0630531608304394 
2.0299999999998595, -1.057646177029939 
2.0399999999998806, -1.0520960623740239 
2.0499999999999017, -1.0464167490107674 
2.059999999999923, -1.0406234014558262 
2.069999999999944, -1.034732396446885 
2.079999999999965, -1.0287612811927744 
2.089999999999986, -1.0227287097331823 
2.100000000000007, -1.0166543575738158 
2.1100000000000283, -1.0105588152739453 
2.1200000000000494, -1.0044634622217479 
2.1300000000000705, -0.9983903224068309 
2.1400000000000916, -0.9923619045468368 
2.1500000000001127, -0.9864010293990189 
2.160000000000134, -0.9805306474427906 
2.170000000000155, -0.9747736503186348 
2.180000000000176, -0.9691526794308759 
2.190000000000197, -0.9636899349635374 
2.2000000000002182, -0.9584069882375927 
2.2100000000002393, -0.953324599890575 
2.2200000000002604, -0.9484625458366166 
2.2300000000002815, -0.9438394524255561 
2.2400000000003026, -0.9394726417236838 
2.2500000000003237, -0.9353779874389136 
2.260000000000345, -0.9315697817500177 
2.270000000000366, -0.9280606131952989 
2.280000000000387, -0.924861255833252 
2.290000000000408, -0.921980570089253 
2.3000000000004293, -0.9194254160132402 
2.3100000000004504, -0.9172005800459827 
2.3200000000004715, -0.9153087167698382 
2.3300000000004926, -0.9137503074462932 
2.3400000000005137, -0.9125236373630149 
2.3500000000005348, -0.9116247940830379 
2.360000000000556, -0.9110476885770409 
2.370000000000577, -0.91078410091183 
2.380000000000598, -0.910823751667792 
2.390000000000619, -0.911154399586922 
2.4000000000006403, -0.9117619651492146 
2.4100000000006614, -0.912630678890382 
2.4200000000006825, -0.9137432523690244 
2.4300000000007036, -0.9150810688313502 
2.4400000000007247, -0.9166243898698274 
2.450000000000746, -0.9183525737848898 
2.460000000000767, -0.9202443009796484 
2.470000000000788, -0.9222778015738462 
2.480000000000809, -0.9244310805229234 
2.49000000000083, -0.9266821358591106 
2.5000000000008513, -0.9290091662028713 
2.5100000000008724, -0.9313907643775262 
2.5200000000008935, -0.9338060947386315 
2.5300000000009146, -0.9362350526373271 
2.5400000000009357, -0.9386584052078804 
2.550000000000957, -0.9410579133440877 
2.560000000000978, -0.9434164352584055 
2.570000000000999, -0.9457180123679891 
2.58000000000102, -0.9479479384085001 
2.5900000000010412, -0.9500928126444121 
2.6000000000010624, -0.9521405778482287 
2.6100000000010835, -0.9540805434029482 
2.6200000000011046, -0.9559033934990216 
2.6300000000011257, -0.9576011800147225 
2.6400000000011468, -0.9591672993562727 
2.650000000001168, -0.9605964523558878 
2.660000000001189, -0.9618845863355239 
2.67000000000121, -0.9630288186766598 
2.680000000001231, -0.9640273417037485 
2.6900000000012523, -0.9648793093762799 
2.7000000000012734, -0.9655847071506073 
2.7100000000012945, -0.9661442073528982 
2.7200000000013156, -0.966559013416945 
2.7300000000013367, -0.9668306972938235 
2.740000000001358, -0.9669610351440754 
2.750000000001379, -0.9669518469966207 
2.7600000000014, -0.9668048463394255 
2.770000000001421, -0.9665215055560892 
2.780000000001442, -0.9661029427274658 
2.7900000000014633, -0.9655498345923047 
2.8000000000014844, -0.9648623594436445 
2.8100000000015055, -0.9640401724869224 
2.8200000000015266, -0.9630824147752871 
2.8300000000015477, -0.9619877553517066 
2.840000000001569, -0.9607544647557698 
2.85000000000159, -0.9593805166851256 
2.860000000001611, -0.9578637134213047 
2.870000000001632, -0.9562018297105167 
2.8800000000016532, -0.9543927691881167 
2.8900000000016743, -0.9524347271849882 
2.9000000000016954, -0.950326353863422 
2.9100000000017165, -0.9480669120786734 
2.9200000000017377, -0.9456564251026452 
2.9300000000017588, -0.9430958103064244 
2.94000000000178, -0.9403869959899956 
2.950000000001801, -0.9375330196738622 
2.960000000001822, -0.9345381072339349 
2.970000000001843, -0.9314077331850952 
2.9800000000018643, -0.9281486631371685 
2.9900000000018854, -0.9247689799215032 
3.0000000000019065, -0.921278095105432 
3.0100000000019276, -0.9176867475899709 
3.0200000000019487, -0.9140069907590976 
3.03000000000197, -0.910252169268715 
3.040000000001991, -0.9064368860912617 
3.050000000002012, -0.9025769599316109 
3.060000000002033, -0.8986893726618982 
3.070000000002054, -0.8947922060394039 
3.0800000000020753, -0.8909045667129978 
3.0900000000020964, -0.8870464984163768 
3.1000000000021175, -0.8832388803022798 
3.1100000000021386, -0.879503310588295 
3.1200000000021597, -0.8758619750462147 
3.130000000002181, -0.8723375003463841 
3.140000000002202, -0.8689527928312782 
3.150000000002223, -0.8657308638984689 
3.160000000002244, -0.8626946437803622 
3.1700000000022652, -0.8598667860759781 
3.1800000000022863, -0.8572694658824742 
3.1900000000023074, -0.8549241747616242 
3.2000000000023285, -0.8528515160381562 
3.2100000000023496, -0.8510710040512018 
3.2200000000023707, -0.8496008709650735 
3.230000000002392, -0.8484578845979077 
3.240000000002413, -0.8476571804605523 
3.250000000002434, -0.8472121108332186 
3.260000000002455, -0.8471341132673752 
3.2700000000024763, -0.847432600410235 
3.2800000000024974, -0.8481148725340308 
3.2900000000025185, -0.8491860536354416 
3.3000000000025396, -0.850649051472595 
3.3100000000025607, -0.8525045414450324 
3.3200000000025818, -0.8547509738088173 
3.330000000002603, -0.857384603363332 
3.340000000002624, -0.8603995404527158 
3.350000000002645, -0.8637878218937718 
3.360000000002666, -0.8675395002703027 
3.3700000000026873, -0.8716427499144578 
3.3800000000027084, -0.8760839878196148 
3.3900000000027295, -0.8808480076851093 
3.4000000000027506, -0.885918125268403 
3.4100000000027717, -0.8912763332026754 
3.420000000002793, -0.8969034634159709 
3.430000000002814, -0.9027793552531745 
3.440000000002835, -0.9088830273486183 
3.450000000002856, -0.915192851223872 
3.460000000002877, -0.9216867244956818 
3.4700000000028983, -0.9283422414811118 
3.4800000000029194, -0.9351368588929552 
3.4900000000029405, -0.9420480542436854 
3.5000000000029616, -0.9490534745376143 
3.5100000000029827, -0.9561310728457624 
3.520000000003004, -0.9632592304421131 
3.530000000003025, -0.9704168623465519 
3.540000000003046, -0.977583504378503 
3.550000000003067, -0.984739380181089 
3.5600000000030882, -0.9918654471291897 
3.5700000000031094, -0.9989434205818226 
3.5800000000031305, -1.0059557765709193 
3.5900000000031516, -1.0128857337214034 
3.6000000000031727, -1.0197172159528345 
3.6100000000031938, -1.0264347982971573 
3.620000000003215, -1.0330236389508953 
3.630000000003236, -1.0394694014278727 
3.640000000003257, -1.045758171349143 
3.650000000003278, -1.0518763729536538 
3.6600000000032993, -1.0578106907865292 
3.6700000000033204, -1.0635480021715187 
3.6800000000033415, -1.0690753259533718 
3.6900000000033626, -1.0743797925671048 
3.7000000000033837, -1.0794486397315068 
3.710000000003405, -1.0842692369723579 
3.720000000003426, -1.0888291407822799 
3.730000000003447, -1.0931161805757406 
3.740000000003468, -1.0971185737888456 
3.750000000003489, -1.100825066623779 
3.7600000000035103, -1.10422509518989 
3.7700000000035314, -1.107308960301276 
3.7800000000035525, -1.110068008103514 
3.7900000000035736, -1.1124948081456836 
3.8000000000035947, -1.1145833205722357 
3.810000000003616, -1.1163290448101095 
3.820000000003637, -1.117729143431654 
3.830000000003658, -1.1187825366795563 
3.840000000003679, -1.1194899652854835 
3.8500000000037002, -1.1198540214991712 
3.8600000000037213, -1.1198791504531225 
3.8700000000037424, -1.1195716259121864 
3.8800000000037635, -1.1189395059219043 
3.8900000000037847, -1.1179925747490804 
3.9000000000038058, -1.1167422777370293 
3.910000000003827, -1.1152016552729218 
3.920000000003848, -1.1133852810389282 
3.930000000003869, -1.1113092081931102 
3.94000000000389, -1.1089909252352133 
3.9500000000039113, -1.1064493212145354 
3.9600000000039324, -1.1037046578009997 
3.9700000000039535, -1.1007785437380775 
3.9800000000039746, -1.0976939054943786 
3.9900000000039957, -1.0944749466842558 
4.000000000004016, -1.0911470881718006 
4.010000000003993, -1.0877368808122156 
4.02000000000397, -1.0842718835837253 
4.030000000003946, -1.0807805014314047 
4.040000000003923, -1.0772917794259629 
4.0500000000039, -1.0738351527066488 
4.0600000000038765, -1.070440154926472 
4.070000000003853, -1.0671360912847716 
4.08000000000383, -1.0639516854093465 
4.090000000003807, -1.0609147120185 
4.100000000003783, -1.058051629158667 
4.11000000000376, -1.0553872246463378 
4.120000000003737, -1.052944291012933 
4.130000000003713, -1.050743341748587 
4.14000000000369, -1.048802379084906 
4.150000000003667, -1.0471367201856598 
4.1600000000036434, -1.04575888475807 
4.17000000000362, -1.0446785431381205 
4.180000000003597, -1.0439025202300993 
4.1900000000035735, -1.0434348476424835 
4.20000000000355, -1.0432768542295987 
4.210000000003527, -1.0434272841842427 
4.220000000003504, -1.0438824318725937 
4.23000000000348, -1.0446362836809255 
4.240000000003457, -1.0456806590697019 
4.250000000003434, -1.047005345539522 
4.26000000000341, -1.0485982249919295 
4.270000000003387, -1.0504453916905834 
4.280000000003364, -1.052531264392596 
4.2900000000033405, -1.0548386969787509 
4.300000000003317, -1.0573490928982867 
4.310000000003294, -1.0600425288883113 
4.320000000003271, -1.0628978927598576 
4.330000000003247, -1.0658930386862089 
4.340000000003224, -1.0690049615838169 
4.350000000003201, -1.0722099900898074 
4.360000000003177, -1.075483995575856 
4.370000000003154, -1.0788026128407144 
4.380000000003131, -1.0821414667883529 
4.390000000003107, -1.085476398649992 
4.400000000003084, -1.0887836851882877 
4.410000000003061, -1.0920402447912991 
4.4200000000030375, -1.0952238253149096 
4.430000000003014, -1.0983131698093374 
4.440000000002991, -1.1012881576905584 
4.450000000002968, -1.1041299203168589 
4.460000000002944, -1.1068209311565553 
4.470000000002921, -1.1093450716793807 
4.480000000002898, -1.1116876747163662 
4.490000000002874, -1.1138355473077317 
4.500000000002851, -1.1157769750376514 
4.510000000002828, -1.117501709615907 
4.520000000002804, -1.11900094110758 
4.530000000002781, -1.120267255837235 
4.540000000002758, -1.121294580699544 
4.5500000000027345, -1.122078114469598 
4.560000000002711, -1.1226142467693476 
4.570000000002688, -1.122900465623701 
4.580000000002665, -1.1229352550080518 
4.590000000002641, -1.1227179843950132 
4.600000000002618, -1.122248792975678 
4.610000000002595, -1.1215284718712635 
4.620000000002571, -1.1205583481755588 
4.630000000002548, -1.1193401749992489 
4.640000000002525, -1.1178760317666516 
4.6500000000025015, -1.116168238813738 
4.660000000002478, -1.1142192898536558 
4.670000000002455, -1.112031805141652 
4.6800000000024315, -1.1096085072392041 
4.690000000002408, -1.106952220219319 
4.700000000002385, -1.1040658920523956 
4.710000000002362, -1.1009526388464548 
4.720000000002338, -1.0976158086608794 
4.730000000002315, -1.0940590618279789 
4.740000000002292, -1.0902864641413386 
4.750000000002268, -1.0863025889212379 
4.760000000002245, -1.0821126238406036 
4.770000000002222, -1.0777224784656019 
4.7800000000021985, -1.0731388886939108 
4.790000000002175, -1.0683695146127499 
4.800000000002152, -1.0634230286984927 
4.810000000002129, -1.0583091916952674 
4.820000000002105, -1.0530389139074066 
4.830000000002082, -1.047624300000285 
4.840000000002059, -1.0420786757217495 
4.850000000002035, -1.0364165952423168 
4.860000000002012, -1.0306538280874284 
4.870000000001989, -1.0248073249257077 
4.880000000001965, -1.0188951618089197 
4.890000000001942, -1.0129364628509847 
4.900000000001919, -1.0069513017920981 
4.9100000000018955, -1.0009605834123692 
4.920000000001872, -0.9949859063145604 
4.930000000001849, -0.9890494091521325 
