t, s[1].omega / s[0].omega 
0, -1.0600596675024152 
0.009999999999999995, -1.0654450893264813 
0.019999999999999934, -1.069575049189597 
0.029999999999999874, -1.0724731792777988 
0.04000000000000012, -1.0743267763372784 
0.050000000000000405, -1.0753817568194826 
0.06000000000000069, -1.0758644602115415 
0.07000000000000098, -1.0759480221506617 
0.08000000000000126, -1.0757531280919201 
0.09000000000000155, -1.0753674616816622 
0.10000000000000184, -1.0748753918955714 
0.11000000000000212, -1.0743944204679545 
0.12000000000000241, -1.0741082992382496 
0.130000000000002, -1.0742692475310551 
0.1400000000000009, -1.0751372643086063 
0.1499999999999998, -1.0768684921870313 
0.1599999999999987, -1.0794304812267808 
0.1699999999999976, -1.0826134348777727 
0.1799999999999965, -1.086116693475745 
0.1899999999999954, -1.0896373913913173 
0.1999999999999943, -1.0929200032135586 
0.2099999999999932, -1.095773604496197 
0.2199999999999921, -1.0980778985964332 
0.229999999999991, -1.099786739748947 
0.2399999999999899, -1.1009234962364425 
0.2499999999999888, -1.1015621727156835 
0.2599999999999877, -1.1017996188094068 
0.2699999999999866, -1.101731940911696 
0.2799999999999855, -1.1014445401904012 
0.2899999999999844, -1.1010168183833848 
0.2999999999999833, -1.1005365399668439 
0.3099999999999822, -1.100113983076119 
0.3199999999999811, -1.0998809408932044 
0.32999999999998, -1.0999627768734046 
0.3399999999999789, -1.1004330500818653 
0.3499999999999778, -1.1012833548278358 
0.35999999999997667, -1.1024317479708812 
0.36999999999997557, -1.1037584836001924 
0.37999999999997447, -1.105141593321867 
0.38999999999997337, -1.1064771489794278 
0.39999999999997227, -1.1076848964487689 
0.40999999999997117, -1.10870591858854 
0.41999999999997006, -1.1094986207906328 
0.42999999999996896, -1.110036947977834 
0.43999999999996786, -1.1103114115429824 
0.44999999999996676, -1.1103304688868179 
0.45999999999996566, -1.1101194951310847 
0.46999999999996456, -1.109717545124251 
0.47999999999996346, -1.109174955816704 
0.48999999999996235, -1.1085539311663266 
0.49999999999996125, -1.1079298018195034 
0.5099999999999602, -1.1073866432111001 
0.519999999999959, -1.107002775274155 
0.529999999999958, -1.106830580603357 
0.5399999999999568, -1.1068822082056868 
0.5499999999999557, -1.107128646201173 
0.5599999999999546, -1.1075101632596653 
0.5699999999999535, -1.107952038876952 
0.5799999999999524, -1.1083799349329826 
0.5899999999999513, -1.1087304684840005 
0.5999999999999502, -1.1089554615870854 
0.6099999999999491, -1.1090217400798514 
0.619999999999948, -1.1089091874242227 
0.6299999999999469, -1.108608527286594 
0.6399999999999458, -1.1081194850072333 
0.6499999999999447, -1.1074500622054642 
0.6599999999999436, -1.1066174667245352 
0.6699999999999425, -1.1056504661367028 
0.6799999999999414, -1.1045922157305252 
0.6899999999999403, -1.1035019155709065 
0.6999999999999392, -1.1024528173881176 
0.7099999999999381, -1.1015242571880037 
0.719999999999937, -1.100787409498864 
0.7299999999999359, -1.100287304487899 
0.7399999999999348, -1.1000269451246623 
0.7499999999999337, -1.0999625750410202 
0.7599999999999326, -1.1000159227498427 
0.7699999999999315, -1.1000969363884852 
0.7799999999999304, -1.100122433462572 
0.7899999999999293, -1.100022641327912 
0.7999999999999282, -1.0997392691537162 
0.8099999999999271, -1.0992232021563686 
0.819999999999926, -1.0984366388101905 
0.8299999999999249, -1.0973587557161268 
0.8399999999999238, -1.095990400055332 
0.8499999999999227, -1.0943545695474417 
0.8599999999999216, -1.092494014927403 
0.8699999999999205, -1.090470024008107 
0.8799999999999194, -1.088364532749368 
0.8899999999999183, -1.0862832740347488 
0.8999999999999172, -1.0843537275718178 
0.9099999999999161, -1.0827098423548926 
0.919999999999915, -1.0814592239233494 
0.9299999999999139, -1.080642518183621 
0.9399999999999128, -1.0802117759381056 
0.9499999999999117, -1.0800491679422255 
0.9599999999999106, -1.080013613938895 
0.9699999999999095, -1.0799801191087377 
0.9799999999999084, -1.0798513916735721 
0.9899999999999073, -1.0795476330462033 
0.9999999999999062, -1.0789901422824084 
1.0099999999999052, -1.0780907420829813 
1.019999999999904, -1.076753957778284 
1.029999999999903, -1.0748943260889987 
1.039999999999902, -1.0724637154608774 
1.0499999999999008, -1.069475599172018 
1.0599999999998997, -1.0660144694215687 
1.0699999999998986, -1.0622307710139962 
1.0799999999998975, -1.0583308452771925 
1.0899999999998964, -1.0545656332219167 
1.0999999999998953, -1.0512075961058542 
1.1099999999998942, -1.04850013802374 
1.119999999999893, -1.0465834176880904 
1.129999999999892, -1.0454379665871285 
1.1399999999998909, -1.0448969316605923 
1.1499999999998898, -1.044725532238921 
1.1599999999998887, -1.0447074012738884 
1.1699999999998876, -1.044685488690216 
1.1799999999998865, -1.0445556796438933 
1.1899999999998854, -1.0442388481704377 
1.1999999999998843, -1.043651959775152 
1.2099999999998832, -1.0426869670881858 
1.219999999999882, -1.0412025225058674 
1.229999999999881, -1.0390360943361143 
1.2399999999998799, -1.0360432127335968 
1.2499999999998788, -1.0321571410152333 
1.2599999999998777, -1.027442137069172 
1.2699999999998766, -1.0221109056662665 
1.2799999999998755, -1.0165010284978626 
1.2899999999998744, -1.0110266695032173 
1.2999999999998733, -1.006115508188982 
1.3099999999998722, -1.0021265044080254 
1.319999999999871, -0.9992568618772291 
1.32999999999987, -0.9974829084810144 
1.3399999999998689, -0.996586076140302 
1.3499999999998678, -0.9962572057609519 
1.3599999999998666, -0.996208712509825 
1.3699999999998655, -0.9962323980042909 
1.3799999999998644, -0.9961980330883012 
1.3899999999998633, -0.9960226953090985 
1.3999999999998622, -0.9956369300826365 
1.4099999999998611, -0.9949582621566819 
1.41999999999986, -0.9938747469475049 
1.429999999999859, -0.9922426679983015 
1.4399999999998578, -0.9899065817573165 
1.4499999999998567, -0.986746498202139 
1.4599999999998556, -0.9827390440943272 
1.4699999999998545, -0.9779993139151502 
1.4799999999998534, -0.9727761838619291 
1.4899999999998523, -0.9674073124964868 
1.4999999999998512, -0.9622615975209401 
1.5099999999998501, -0.9576852236450237 
1.519999999999849, -0.9539483488119836 
1.529999999999848, -0.9511922422865652 
1.5399999999998468, -0.9493972625196807 
1.5499999999998457, -0.9483993755448509 
1.5599999999998446, -0.9479560006985015 
1.5699999999998435, -0.947824778110902 
1.5799999999998424, -0.9478141599285899 
1.5899999999998413, -0.9477934851388599 
1.5999999999998402, -0.9476766210730669 
1.6099999999998391, -0.9473980795924426 
1.619999999999838, -0.9468930393320951 
1.629999999999837, -0.9460863119467356 
1.6399999999998358, -0.9448936724639937 
1.6499999999998347, -0.9432382234121611 
1.6599999999998336, -0.9410787392387239 
1.6699999999998325, -0.9384362584301689 
1.6799999999998314, -0.9354010348549503 
1.6899999999998303, -0.9321148010861593 
1.6999999999998292, -0.9287420251837247 
1.709999999999828, -0.9254474027365088 
1.719999999999827, -0.9223845372388748 
1.729999999999826, -0.9196889341122665 
1.7399999999998248, -0.9174667775609452 
1.7499999999998237, -0.9157777344555337 
1.7599999999998226, -0.9146193364430146 
1.7699999999998215, -0.9139250396883067 
1.7799999999998204, -0.913581968476246 
1.7899999999998193, -0.9134609573162313 
1.7999999999998182, -0.9134434865168742 
1.809999999999817, -0.9134348115529363 
1.819999999999816, -0.9133633897909853 
1.8299999999998149, -0.9131735407989041 
1.8399999999998138, -0.9128187652541507 
1.8499999999998127, -0.9122604199101565 
1.8599999999998116, -0.9114727014818704 
1.8699999999998105, -0.9104505194451162 
1.8799999999998094, -0.9092137377362102 
1.8899999999998083, -0.9078031761023189 
1.8999999999998072, -0.906270455864788 
1.909999999999806, -0.9046685844250419 
1.919999999999805, -0.9030482566609779 
1.9299999999998039, -0.901459414875944 
1.9399999999998028, -0.8999542151357485 
1.9499999999998017, -0.8985876055778496 
1.9599999999998006, -0.8974135426253195 
1.9699999999997995, -0.8964770404887472 
1.9799999999997984, -0.8958043382621599 
1.9899999999997973, -0.8953950481991505 
1.9999999999997962, -0.8952202404701118 
2.0099999999998173, -0.8952281372557687 
2.0199999999998384, -0.8953552058033776 
2.0299999999998595, -0.8955377815179337 
2.0399999999998806, -0.8957201433206773 
2.0499999999999017, -0.8958581445125968 
2.059999999999923, -0.8959200256590446 
2.069999999999944, -0.895886149978323 
2.079999999999965, -0.8957478735396212 
2.089999999999986, -0.8955047706862281 
2.100000000000007, -0.8951604354173972 
2.1100000000000283, -0.8947189936060305 
2.1200000000000494, -0.8941846655676103 
2.1300000000000705, -0.8935645438072285 
2.1400000000000916, -0.8928725556795964 
2.1500000000001127, -0.8921325393449753 
2.160000000000134, -0.8913797367235414 
2.170000000000155, -0.8906606513536035 
2.180000000000176, -0.8900305827022308 
2.190000000000197, -0.8895476898058077 
2.2000000000002182, -0.8892636207206769 
2.2100000000002393, -0.8892131777445206 
2.2200000000002604, -0.8894070275161363 
2.2300000000002815, -0.889830449064851 
2.2400000000003026, -0.8904482398768764 
2.2500000000003237, -0.891213287284744 
2.260000000000345, -0.8920753291284724 
2.270000000000366, -0.8929870461838096 
2.280000000000387, -0.8939061010674653 
2.290000000000408, -0.8947933946264642 
2.3000000000004293, -0.8956094771533551 
2.3100000000004504, -0.896312505774905 
2.3200000000004715, -0.8968610929698958 
2.3300000000004926, -0.8972223231964003 
2.3400000000005137, -0.8973805343182667 
2.3500000000005348, -0.897341029418504 
2.360000000000556, -0.8971271134053798 
2.370000000000577, -0.8967743945750632 
2.380000000000598, -0.8963276965367651 
2.390000000000619, -0.895843121707671 
2.4000000000006403, -0.8953938513190511 
2.4100000000006614, -0.8950749305529795 
2.4200000000006825, -0.8950005065262842 
2.4300000000007036, -0.895288881914422 
2.4400000000007247, -0.8960377296993928 
2.450000000000746, -0.8972999293729386 
2.460000000000767, -0.8990716616365825 
2.470000000000788, -0.9012961709258335 
2.480000000000809, -0.9038765891241101 
2.49000000000083, -0.9066881144412324 
2.5000000000008513, -0.9095847176406224 
2.5100000000008724, -0.9124037836170167 
2.5200000000008935, -0.9149778949769877 
2.5300000000009146, -0.9171602337543874 
2.5400000000009357, -0.9188567559069842 
2.550000000000957, -0.9200455109426564 
2.560000000000978, -0.9207688325086018 
2.570000000000999, -0.9211049907361181 
2.58000000000102, -0.9211386908567942 
2.5900000000010412, -0.9209442651186948 
2.6000000000010624, -0.920584032268253 
2.6100000000010835, -0.9201189098816199 
2.6200000000011046, -0.9196285543343995 
2.6300000000011257, -0.9192381161529186 
2.6400000000011468, -0.9191434242349338 
2.650000000001168, -0.9196166587771983 
2.660000000001189, -0.9209706209664181 
2.67000000000121, -0.9234766827568388 
2.680000000001231, -0.9272661662179527 
2.6900000000012523, -0.9322639447100947 
2.7000000000012734, -0.9381822280716557 
2.7100000000012945, -0.944566829535891 
2.7200000000013156, -0.950877305074566 
2.7300000000013367, -0.9565923618342749 
2.740000000001358, -0.9613257062358072 
2.750000000001379, -0.964907937746785 
2.7600000000014, -0.9673862181282884 
2.770000000001421, -0.968945964549335 
2.780000000001442, -0.969812094534842 
2.7900000000014633, -0.970181722926576 
2.8000000000014844, -0.9701995799289571 
2.8100000000015055, -0.9699618691686837 
2.8200000000015266, -0.9695338067314099 
2.8300000000015477, -0.9689756344852796 
2.840000000001569, -0.9683797204514196 
2.85000000000159, -0.9679215326450535 
2.860000000001611, -0.9679135831031914 
2.870000000001632, -0.9688224875260252 
2.8800000000016532, -0.9711895363089125 
2.8900000000016743, -0.9754355506275287 
2.9000000000016954, -0.9816343338007858 
2.9100000000017165, -0.9893996998013925 
2.9200000000017377, -0.9979618249838419 
2.9300000000017588, -1.0063881163906432 
2.94000000000178, -1.0138479132679186 
2.950000000001801, -1.0198217540002923 
2.960000000001822, -1.0241754596180557 
2.970000000001843, -1.0270808916066265 
2.9800000000018643, -1.0288552109442768 
2.9900000000018854, -1.0298200741496912 
3.0000000000019065, -1.0302300088824503 
3.0100000000019276, -1.0302593163394633 
3.0200000000019487, -1.030018337621668 
3.03000000000197, -1.0295803960725016 
3.040000000001991, -1.0290156363347243 
3.050000000002012, -1.0284360310850957 
3.060000000002033, -1.0280512468581253 
3.070000000002054, -1.0282112835506054 
3.0800000000020753, -1.0293784392747725 
3.0900000000020964, -1.0319805087273894 
3.1000000000021175, -1.0361957865221973 
3.1100000000021386, -1.0418212462244278 
3.1200000000021597, -1.048323359506605 
3.130000000002181, -1.0550164758457679 
3.140000000002202, -1.0612510290240387 
3.150000000002223, -1.0665474950583689 
3.160000000002244, -1.0706638844879863 
3.1700000000022652, -1.0735924345274885 
3.1800000000022863, -1.075491720169219 
3.1900000000023074, -1.0765902023626663 
3.2000000000023285, -1.0771077226345176 
3.2100000000023496, -1.0772173703667147 
3.2200000000023707, -1.0770420290066514 
3.230000000002392, -1.0766711548008063 
3.240000000002413, -1.07618865209965 
3.250000000002434, -1.0757076193621986 
3.260000000002455, -1.075402247188269 
3.2700000000024763, -1.0755112148794868 
3.2800000000024974, -1.0762823568127788 
3.2900000000025185, -1.07786846846727 
3.3000000000025396, -1.0802461872616032 
3.3100000000025607, -1.0832240727744862 
3.3200000000025818, -1.0865226928875868 
3.330000000002603, -1.0898583293609276 
3.340000000002624, -1.0929899654746849 
3.350000000002645, -1.0957349115688122 
3.360000000002666, -1.09797346301207 
3.3700000000026873, -1.0996525309147906 
3.3800000000027084, -1.1007838476461933 
3.3900000000027295, -1.1014296003837063 
3.4000000000027506, -1.1016780398102906 
3.4100000000027717, -1.101620611442237 
3.420000000002793, -1.1013407002438007 
3.430000000002814, -1.1009164251502872 
3.440000000002835, -1.1004333581943493 
3.450000000002856, -1.0999978564293305 
3.460000000002877, -1.0997367495717458 
3.4700000000028983, -1.0997717987672122 
3.4800000000029194, -1.100176969922808 
3.4900000000029405, -1.1009487559466908 
3.5000000000029616, -1.1020124387034815 
3.5100000000029827, -1.103255040127377 
3.520000000003004, -1.1045594267177603 
3.530000000003025, -1.105824614528545 
3.540000000003046, -1.1069721380984134 
3.550000000003067, -1.1079443041694463 
3.5600000000030882, -1.1087001976211794 
3.5700000000031094, -1.1092134298900649 
3.5800000000031305, -1.1094727405373577 
3.5900000000031516, -1.1094835680816515 
3.6000000000031727, -1.1092678296628646 
3.6100000000031938, -1.1088614779827541 
3.620000000003215, -1.10831232089605 
3.630000000003236, -1.1076803181708055 
3.640000000003257, -1.1070386353463841 
3.650000000003278, -1.1064696996098369 
3.6600000000032993, -1.106051710009813 
3.6700000000033204, -1.1058391660211755 
3.6800000000033415, -1.105848126820511 
3.6900000000033626, -1.1060538489840992 
3.7000000000033837, -1.106399760418244 
3.710000000003405, -1.1068124837457183 
3.720000000003426, -1.1072173993203995 
3.730000000003447, -1.1075498819029632 
3.740000000003468, -1.107760161727624 
3.750000000003489, -1.107813497895225 
3.7600000000035103, -1.1076884772854958 
3.7700000000035314, -1.1073749574491283 
3.7800000000035525, -1.10687218118102 
3.7900000000035736, -1.1061877568986116 
3.8000000000035947, -1.1053382443790547 
3.810000000003616, -1.1043513489249999 
3.820000000003637, -1.1032688458085709 
3.830000000003658, -1.1021485860891642 
3.840000000003679, -1.101063123523189 
3.8500000000037002, -1.1000925154390184 
3.8600000000037213, -1.0993105913753758 
3.8700000000037424, -1.0987667488978794 
3.8800000000037635, -1.098468888625356 
3.8900000000037847, -1.0983769181198941 
3.9000000000038058, -1.0984137599171717 
3.910000000003827, -1.0984883071840899 
3.920000000003848, -1.0985153351762293 
3.930000000003869, -1.098423088367908 
3.94000000000389, -1.098151483307496 
3.9500000000039113, -1.0976492642988747 
3.9600000000039324, -1.096875657049543 
3.9700000000039535, -1.095806238530884 
3.9800000000039746, -1.094438532583045 
3.9900000000039957, -1.0927933637895584 
4.000000000004016, -1.0909125642135071 
4.010000000003993, -1.0888571414302417 
4.02000000000397, -1.086708758828132 
4.030000000003946, -1.0845729022217703 
4.040000000003923, -1.0825777390537075 
4.0500000000039, -1.0808603884328298 
4.0600000000038765, -1.0795352841826866 
4.070000000003853, -1.0786526205767348 
4.08000000000383, -1.0781729883958304 
4.090000000003807, -1.0779821566172854 
4.100000000003783, -1.0779372099167635 
4.11000000000376, -1.0779088376503971 
4.120000000003737, -1.0777962128264005 
4.130000000003713, -1.0775182222699313 
4.14000000000369, -1.0769967107860654 
4.150000000003667, -1.0761444242453528 
4.1600000000036434, -1.074865116734531 
4.17000000000362, -1.0730690278969393 
4.180000000003597, -1.070699953756374 
4.1900000000035735, -1.0677614995295577 
4.20000000000355, -1.0643292996235527 
4.210000000003527, -1.06054731633119 
4.220000000003504, -1.056617329507994 
4.23000000000348, -1.0527873733211113 
4.240000000003457, -1.0493307767655469 
4.250000000003434, -1.0464997755775753 
4.26000000000341, -1.0444532807473306 
4.270000000003387, -1.0431950436279587 
4.280000000003364, -1.0425749023386675 
4.2900000000033405, -1.0423614588936616 
4.300000000003317, -1.042331425582919 
4.310000000003294, -1.04231831393035 
4.320000000003271, -1.0422116444537166 
4.330000000003247, -1.041930709936278 
4.340000000003224, -1.0413952021607717 
4.350000000003201, -1.040502798114384 
4.360000000003177, -1.0391186857199421 
4.370000000003154, -1.037084050447703 
4.380000000003131, -1.034250829723723 
4.390000000003107, -1.030538728437165 
4.400000000003084, -1.0259903602481804 
4.410000000003061, -1.020794029555896 
4.4200000000030375, -1.0152650314642164 
4.430000000003014, -1.0098006251372877 
4.440000000002991, -1.0048214573438392 
4.450000000002968, -1.0006961034077946 
4.460000000002944, -0.9976513781201934 
4.470000000002921, -0.9957048882818486 
4.480000000002898, -0.9946727048247238 
4.490000000002874, -0.994259846958057 
4.500000000002851, -0.9941736775586291 
4.510000000002828, -0.9941927317672011 
4.520000000002804, -0.9941750700330274 
4.530000000002781, -0.9940317198024584 
4.540000000002758, -0.993693063089393 
4.5500000000027345, -0.9930812883871605 
4.560000000002711, -0.9920924845632104 
4.570000000002688, -0.9905918714643652 
4.580000000002665, -0.9884295213970237 
4.590000000002641, -0.9854821448082817 
4.600000000002618, -0.9817111422719327 
4.610000000002595, -0.9772067759054611 
4.620000000002571, -0.972189826677296 
4.630000000002548, -0.9669724252736742 
4.640000000002525, -0.9619042065551952 
4.6500000000025015, -0.9573222190710202 
4.660000000002478, -0.9535027620890348 
4.670000000002455, -0.9506112157321249 
4.6800000000024315, -0.9486644452533962 
4.690000000002408, -0.947533497015065 
4.700000000002385, -0.9469964173037626 
4.710000000002362, -0.9468140308844795 
4.720000000002338, -0.9467870752652369 
4.730000000002315, -0.9467748905581084 
4.740000000002292, -0.9466843658668971 
4.750000000002268, -0.9464476064887958 
4.760000000002245, -0.946001404682861 
4.770000000002222, -0.9452746769325397 
4.7800000000021985, -0.9441874403212871 
4.790000000002175, -0.9426640818582677 
4.800000000002152, -0.940659005064983 
4.810000000002129, -0.9381829182815153 
4.820000000002105, -0.935312515554721 
4.830000000002082, -0.9321763666957519 
4.840000000002059, -0.9289280822469246 
4.850000000002035, -0.925723822299466 
4.860000000002012, -0.9227108672689764 
4.870000000001989, -0.9200217764792585 
4.880000000001965, -0.9177654374266655 
4.890000000001942, -0.9160115750467845 
4.900000000001919, -0.9147740525973191 
4.9100000000018955, -0.9140043095685627 
4.920000000001872, -0.9136032290157312 
4.930000000001849, -0.9134478582136717 
