t, s[1].omega / s[0].omega 
0, -1.77987179576149 
0.009999999999999995, -1.7649907341921218 
0.019999999999999934, -1.7510440537418361 
0.029999999999999874, -1.7467425911842345 
0.04000000000000012, -1.7505124158125316 
0.050000000000000405, -1.7550676118239696 
0.06000000000000069, -1.7577774741424659 
0.07000000000000098, -1.758977686028079 
0.08000000000000126, -1.7592971854139474 
0.09000000000000155, -1.7591047095553154 
0.10000000000000184, -1.7586034589623676 
0.11000000000000212, -1.7580105446188725 
0.12000000000000241, -1.7576860899103306 
0.130000000000002, -1.7579751841576545 
0.1400000000000009, -1.7588337417656619 
0.1499999999999998, -1.7598858472508918 
0.1599999999999987, -1.7608059081108702 
0.1699999999999976, -1.7614371154304842 
0.1799999999999965, -1.7617134334074442 
0.1899999999999954, -1.7615912297444425 
0.1999999999999943, -1.7610120509450216 
0.2099999999999932, -1.7598786910829136 
0.2199999999999921, -1.7580401854896959 
0.229999999999991, -1.7552953841251597 
0.2399999999999899, -1.7514687192559613 
0.2499999999999888, -1.746701935491771 
0.2599999999999877, -1.7419941717808158 
0.2699999999999866, -1.7390415536893638 
0.2799999999999855, -1.7384107103213116 
0.2899999999999844, -1.7389262509604286 
0.2999999999999833, -1.7394425441096089 
0.3099999999999822, -1.7395794630801173 
0.3199999999999811, -1.7392996183708036 
0.32999999999998, -1.738585504823659 
0.3399999999999789, -1.7374028304131766 
0.3499999999999778, -1.73596935605728 
0.35999999999997667, -1.7353771930857789 
0.36999999999997557, -1.7374056929107713 
0.37999999999997447, -1.7421781527631286 
0.38999999999997337, -1.747613959533144 
0.39999999999997227, -1.752022706011081 
0.40999999999997117, -1.755017810554034 
0.41999999999997006, -1.7568158857787044 
0.42999999999996896, -1.7577188810161375 
0.43999999999996786, -1.757963212088193 
0.44999999999996676, -1.757707164568154 
0.45999999999996566, -1.757051265198396 
0.46999999999996456, -1.7560670006169719 
0.47999999999996346, -1.7548295315730882 
0.48999999999996235, -1.7534596197852566 
0.49999999999996125, -1.7521810221262553 
0.5099999999999602, -1.751293657127497 
0.519999999999959, -1.7509236773650105 
0.529999999999958, -1.7508583557341122 
0.5399999999999568, -1.7507712653600138 
0.5499999999999557, -1.7504270044150556 
0.5599999999999546, -1.7496193811258582 
0.5699999999999535, -1.7479948119948614 
0.5799999999999524, -1.744859988863326 
0.5899999999999513, -1.7392511309797676 
0.5999999999999502, -1.731671278432017 
0.6099999999999491, -1.728467807323725 
0.619999999999948, -1.7377019491120946 
0.6299999999999469, -1.7540126984895963 
0.6399999999999458, -1.7671555463460435 
0.6499999999999447, -1.774760553373985 
0.6599999999999436, -1.7785432221840023 
0.6699999999999425, -1.780216631720404 
0.6799999999999414, -1.7807745773295476 
0.6899999999999403, -1.7807206782760727 
0.6999999999999392, -1.780318724998628 
0.7099999999999381, -1.779752047056886 
0.719999999999937, -1.7791910181139277 
0.7299999999999359, -1.778762527818775 
0.7399999999999348, -1.7785100248196049 
0.7499999999999337, -1.7784198750548321 
0.7599999999999326, -1.778424136243316 
0.7699999999999315, -1.7783869416329754 
0.7799999999999304, -1.7781435162965527 
0.7899999999999293, -1.7775095861391688 
0.7999999999999282, -1.7762004081097522 
0.8099999999999271, -1.7736702566426081 
0.819999999999926, -1.7688779618301722 
0.8299999999999249, -1.7601402955679706 
0.8399999999999238, -1.7460814615104128 
0.8499999999999227, -1.729733970264028 
0.8599999999999216, -1.7208579129428787 
0.8699999999999205, -1.7231588034931633 
0.8799999999999194, -1.7290242585958104 
0.8899999999999183, -1.7331826675241917 
0.8999999999999172, -1.735270314602019 
0.9099999999999161, -1.736080171651062 
0.919999999999915, -1.7361787661772792 
0.9299999999999139, -1.735858456253083 
0.9399999999999128, -1.7353080019726057 
0.9499999999999117, -1.7347825705151567 
0.9599999999999106, -1.7346471437339865 
0.9699999999999095, -1.7351164682012203 
0.9799999999999084, -1.7360105571091065 
0.9899999999999073, -1.7369736687796071 
0.9999999999999062, -1.7377596223176934 
1.0099999999999052, -1.7382520089180882 
1.019999999999904, -1.7383919235247631 
1.029999999999903, -1.7381294151102469 
1.039999999999902, -1.7373939872237005 
1.0499999999999008, -1.7360745325318583 
1.0599999999998997, -1.7340090259795056 
1.0699999999998986, -1.7309999591193186 
1.0799999999998975, -1.726923231434533 
1.0899999999998964, -1.722071847235771 
1.0999999999998953, -1.7176293008507255 
1.1099999999998942, -1.7151632850794425 
1.119999999999893, -1.7148296392304467 
1.129999999999892, -1.7153728648599569 
1.1399999999998909, -1.7158198684415986 
1.1499999999998898, -1.715884867155798 
1.1599999999998887, -1.7155397145777063 
1.1699999999998876, -1.7147515816499816 
1.1799999999998865, -1.713474898752812 
1.1899999999998854, -1.7119533386287515 
1.1999999999998843, -1.7113902125329212 
1.2099999999998832, -1.713709598035468 
1.219999999999882, -1.7190129666428446 
1.229999999999881, -1.725023984135588 
1.2399999999998799, -1.7298974894680295 
1.2499999999998788, -1.7332124869189616 
1.2599999999998777, -1.7352148199362893 
1.2699999999998766, -1.7362476979074355 
1.2799999999998755, -1.7365823005170817 
1.2899999999998744, -1.7364027106573616 
1.2999999999998733, -1.7358284967226176 
1.3099999999998722, -1.7349460306383542 
1.319999999999871, -1.7338405863836652 
1.32999999999987, -1.7326274639025119 
1.3399999999998689, -1.7314905006595225 
1.3499999999998678, -1.7306714859936307 
1.3599999999998666, -1.73029292227302 
1.3699999999998655, -1.7302004047948838 
1.3799999999998644, -1.7301082580026788 
1.3899999999998633, -1.7297857265913912 
1.3999999999998622, -1.7290270222495345 
1.4099999999998611, -1.7274912977078585 
1.41999999999986, -1.7244853224313108 
1.429999999999859, -1.718815284220137 
1.4399999999998578, -1.7096905254536199 
1.4499999999998567, -1.7009520467977743 
1.4599999999998556, -1.7030088847926392 
1.4699999999998545, -1.7173767279680352 
1.4799999999998534, -1.7325410562753754 
1.4899999999998523, -1.7422167831608253 
1.4999999999998512, -1.7471893913542327 
1.5099999999998501, -1.7494591629372518 
1.519999999999849, -1.750323522905616 
1.529999999999848, -1.7504454797183233 
1.5399999999998468, -1.7501543845106977 
1.5499999999998457, -1.7496541032246344 
1.5599999999998446, -1.7491353280118171 
1.5699999999998435, -1.7487696520102556 
1.5799999999998424, -1.7486235584080405 
1.5899999999998413, -1.7486529466371394 
1.5999999999998402, -1.7487710378203354 
1.6099999999998391, -1.7488652255375352 
1.619999999999838, -1.7488011662598129 
1.629999999999837, -1.7484357114079252 
1.6399999999998358, -1.7475861561373882 
1.6499999999998347, -1.7459493179867067 
1.6599999999998336, -1.7429870293575003 
1.6699999999998325, -1.737810735286254 
1.6799999999998314, -1.729272267680025 
1.6899999999998303, -1.7170118470818037 
1.6999999999998292, -1.7041487556365538 
1.709999999999828, -1.6971681934567133 
1.719999999999827, -1.6976078566591155 
1.729999999999826, -1.7006370571517118 
1.7399999999998248, -1.7029579789972995 
1.7499999999998237, -1.7041223817508349 
1.7599999999998226, -1.7044799396019539 
1.7699999999998215, -1.7043229851344062 
1.7799999999998204, -1.7038130069520439 
1.7899999999998193, -1.703108741722928 
1.7999999999998182, -1.7025600344489085 
1.809999999999817, -1.7027318816475883 
1.819999999999816, -1.7039142086575356 
1.8299999999998149, -1.7057174396103196 
1.8399999999998138, -1.7075181373323847 
1.8499999999998127, -1.7089527141337277 
1.8599999999998116, -1.709914844050824 
1.8699999999998105, -1.7104049544340003 
1.8799999999998094, -1.7104439917468806 
1.8899999999998083, -1.7100409691568381 
1.8999999999998072, -1.7091829091272697 
1.909999999999806, -1.70783571198753 
1.919999999999805, -1.705959154816313 
1.9299999999998039, -1.7035581247064318 
1.9399999999998028, -1.700814007536661 
1.9499999999998017, -1.6982589550244103 
1.9599999999998006, -1.696619677304533 
1.9699999999997995, -1.6961120363501556 
1.9799999999997984, -1.6962181716833171 
1.9899999999997973, -1.6963510296493183 
1.9999999999997962, -1.6962252021733324 
2.0099999999998173, -1.695713804463002 
2.0199999999998384, -1.6946546464294978 
2.0299999999998595, -1.6927691184087645 
2.0399999999998806, -1.6898777671549692 
2.0499999999999017, -1.6870266974016392 
2.059999999999923, -1.6880191633721526 
2.069999999999944, -1.6960743774805735 
2.079999999999965, -1.7078334803242594 
2.089999999999986, -1.7179207372601906 
2.100000000000007, -1.724568286866641 
2.1100000000000283, -1.7283824533888166 
2.1200000000000494, -1.7303429495002196 
2.1300000000000705, -1.7311711526544502 
2.1400000000000916, -1.731306719191498 
2.1500000000001127, -1.731004160741474 
2.160000000000134, -1.730425556490849 
2.170000000000155, -1.7297058653305517 
2.180000000000176, -1.7289736738661894 
2.190000000000197, -1.7283394504518923 
2.2000000000002182, -1.7278933415351792 
2.2100000000002393, -1.7276747571521518 
2.2200000000002604, -1.7276027643505039 
2.2300000000002815, -1.727499201575381 
2.2400000000003026, -1.7271756540454615 
2.2500000000003237, -1.7264287676407881 
2.260000000000345, -1.7249249370234785 
2.270000000000366, -1.7219973249500924 
2.280000000000387, -1.716361670995741 
2.290000000000408, -1.7060722167984348 
2.3000000000004293, -1.6903385361944996 
2.3100000000004504, -1.6749527717617787 
2.3200000000004715, -1.6710366015395508 
2.3300000000004926, -1.6781822790867635 
2.3400000000005137, -1.6865264323535751 
2.3500000000005348, -1.6917387576947918 
2.360000000000556, -1.6942993019885015 
2.370000000000577, -1.695344589309082 
2.380000000000598, -1.6955783630261005 
2.390000000000619, -1.6953523628401044 
2.4000000000006403, -1.6948680846880522 
2.4100000000006614, -1.6943407171518827 
2.4200000000006825, -1.6940680538251054 
2.4300000000007036, -1.6942778034431032 
2.4400000000007247, -1.6949071666507798 
2.450000000000746, -1.6956908022154704 
2.460000000000767, -1.6963954595549897 
2.470000000000788, -1.6968845575491343 
2.480000000000809, -1.6970774923396141 
2.49000000000083, -1.6969112408241283 
2.5000000000008513, -1.6963125661214473 
2.5100000000008724, -1.6951761963640675 
2.5200000000008935, -1.693351225471052 
2.5300000000009146, -1.690643891117924 
2.5400000000009357, -1.6868743793449466 
2.550000000000957, -1.6820928807051208 
2.560000000000978, -1.677032022954344 
2.570000000000999, -1.6732421488553118 
2.58000000000102, -1.6717874365775736 
2.5900000000010412, -1.6719867860674413 
2.6000000000010624, -1.6725634514812289 
2.6100000000010835, -1.6728792365275431 
2.6200000000011046, -1.67280223615595 
2.6300000000011257, -1.6723161965606645 
2.6400000000011468, -1.6713647113669396 
2.650000000001168, -1.6699089126923137 
2.660000000001189, -1.6683247448276532 
2.67000000000121, -1.6681098224391218 
2.680000000001231, -1.6712787801517894 
2.6900000000012523, -1.6775478585519235 
2.7000000000012734, -1.6843184010054024 
2.7100000000012945, -1.6897093866571822 
2.7200000000013156, -1.6933540117728132 
2.7300000000013367, -1.6955567425398042 
2.740000000001358, -1.6967114594170258 
2.750000000001379, -1.6971289847663038 
2.7600000000014, -1.6970223791978465 
2.770000000001421, -1.6965325903101838 
2.780000000001442, -1.6957633804036463 
2.7900000000014633, -1.6948135927258465 
2.8000000000014844, -1.6937972110166541 
2.8100000000015055, -1.6928587856820567 
2.8200000000015266, -1.692168615322536 
2.8300000000015477, -1.6918206490586492 
2.840000000001569, -1.6917130383428884 
2.85000000000159, -1.6916183085801269 
2.860000000001611, -1.691324608503552 
2.870000000001632, -1.690634399978281 
2.8800000000016532, -1.6892385597219857 
2.8900000000016743, -1.686512505075606 
2.9000000000016954, -1.6812488410626287 
2.9100000000017165, -1.671713424725575 
2.9200000000017377, -1.657817952364449 
2.9300000000017588, -1.6465782372128264 
2.94000000000178, -1.6485823973917895 
2.950000000001801, -1.660698714565482 
2.960000000001822, -1.6720135878519802 
2.970000000001843, -1.6787726309879705 
2.9800000000018643, -1.6821064237751802 
2.9900000000018854, -1.6835418548627978 
3.0000000000019065, -1.6839854154400709 
3.0100000000019276, -1.6838872004627436 
3.0200000000019487, -1.6834835944721949 
3.03000000000197, -1.6829682352972846 
3.040000000001991, -1.6825783458583916 
3.050000000002012, -1.6825229864825288 
3.060000000002033, -1.6828198509474048 
3.070000000002054, -1.6833075964866897 
3.0800000000020753, -1.6838032211967964 
3.0900000000020964, -1.6841709613729214 
3.1000000000021175, -1.6843090900024982 
3.1100000000021386, -1.6841295140685635 
3.1200000000021597, -1.6835336346227945 
3.130000000002181, -1.6823835783951444 
3.140000000002202, -1.680477842724439 
3.150000000002223, -1.67754212769261 
3.160000000002244, -1.673273027695401 
3.1700000000022652, -1.6675563598677723 
3.1800000000022863, -1.6610317609307121 
3.1900000000023074, -1.6555740259560086 
3.2000000000023285, -1.6530345513921922 
3.2100000000023496, -1.653038680788081 
3.2200000000023707, -1.6538651306033205 
3.230000000002392, -1.654478764559783 
3.240000000002413, -1.654649874839762 
3.250000000002434, -1.6543998808901172 
3.260000000002455, -1.6537371684940876 
3.2700000000024763, -1.6526425552710002 
3.2800000000024974, -1.6512813387725944 
3.2900000000025185, -1.6505080625873656 
3.3000000000025396, -1.6519466261442122 
3.3100000000025607, -1.656276869067213 
3.3200000000025818, -1.6619727224411165 
3.330000000002603, -1.6671216753210945 
3.340000000002624, -1.670929237537137 
3.350000000002645, -1.673420248451211 
3.360000000002666, -1.6748663053617867 
3.3700000000026873, -1.6755345326134932 
3.3800000000027084, -1.6756279229803557 
3.3900000000027295, -1.6752877967761148 
3.4000000000027506, -1.6746142796622698 
3.4100000000027717, -1.6736932135125553 
3.420000000002793, -1.6726208679514993 
3.430000000002814, -1.671524085618809 
3.440000000002835, -1.6705776140682498 
3.450000000002856, -1.6699599097602227 
3.460000000002877, -1.6697027190450364 
3.4700000000028983, -1.66962951607076 
3.4800000000029194, -1.6694986038356947 
3.4900000000029405, -1.66911183578132 
3.5000000000029616, -1.668260836569745 
3.5100000000029827, -1.6665784562432442 
3.520000000003004, -1.6633208186011637 
3.530000000003025, -1.65713465754883 
3.540000000003046, -1.6464555313253981 
3.550000000003067, -1.6326230027931516 
3.5600000000030882, -1.6245819458400348 
3.5700000000031094, -1.6304434121666804 
3.5800000000031305, -1.643464185445115 
3.5900000000031516, -1.6539935655165654 
3.6000000000031727, -1.6599868393037922 
3.6100000000031938, -1.6628904996951257 
3.620000000003215, -1.6641130978559342 
3.630000000003236, -1.6644500981114891 
3.640000000003257, -1.6642952818895715 
3.650000000003278, -1.663864610983664 
3.6600000000032993, -1.6633517334668064 
3.6700000000033204, -1.6629975417402239 
3.6800000000033415, -1.662999907598076 
3.6900000000033626, -1.6633551846360568 
3.7000000000033837, -1.6638900535607526 
3.710000000003405, -1.6644196353625058 
3.720000000003426, -1.6648100287419705 
3.730000000003447, -1.6649636801021104 
3.740000000003468, -1.664798340990724 
3.750000000003489, -1.6642240383973728 
3.7600000000035103, -1.6631183819703534 
3.7700000000035314, -1.6613079558066661 
3.7800000000035525, -1.6585643642463936 
3.7900000000035736, -1.6546446967295931 
3.8000000000035947, -1.6494704128211688 
3.810000000003616, -1.6435752815529476 
3.820000000003637, -1.6385093850851065 
3.830000000003658, -1.6359174525858016 
3.840000000003679, -1.6356735829938855 
3.8500000000037002, -1.6363302422010046 
3.8600000000037213, -1.6368788316552572 
3.8700000000037424, -1.6370364674723394 
3.8800000000037635, -1.6367892542630766 
3.8900000000037847, -1.6361239211632204 
3.9000000000038058, -1.6349841805436482 
3.910000000003827, -1.6334414865740583 
3.920000000003848, -1.6322292881812988 
3.930000000003869, -1.6331699849813996 
3.94000000000389, -1.637650151749585 
3.9500000000039113, -1.6443758007086218 
3.9600000000039324, -1.6508467476749615 
3.9700000000039535, -1.655758672362222 
3.9800000000039746, -1.6590155549581702 
3.9900000000039957, -1.6609543862225749 
4.000000000004016, -1.661938159970132 
4.010000000003993, -1.6622468382697264 
4.02000000000397, -1.6620737489110682 
4.030000000003946, -1.661550839976589 
4.040000000003923, -1.6607817566148526 
4.0500000000039, -1.6598699947520839 
4.0600000000038765, -1.6589315265970448 
4.070000000003853, -1.6581004531771453 
4.08000000000383, -1.657515757751727 
4.090000000003807, -1.6572336304265314 
4.100000000003783, -1.6571444104373387 
4.11000000000376, -1.6570419211039145 
4.120000000003737, -1.6567326549162478 
4.130000000003713, -1.6560249760138224 
4.14000000000369, -1.6546152280992417 
4.150000000003667, -1.6519032742052988 
4.1600000000036434, -1.64673921170799 
4.17000000000362, -1.6373484598264512 
4.180000000003597, -1.6227020343895002 
4.1900000000035735, -1.6070787540526936 
4.20000000000355, -1.6009805972999733 
4.210000000003527, -1.6071549229334576 
4.220000000003504, -1.6167064070209434 
4.23000000000348, -1.623493310342409 
4.240000000003457, -1.6271343763902237 
4.250000000003434, -1.6288053890175003 
4.26000000000341, -1.6294017177494104 
4.270000000003387, -1.629401170175027 
4.280000000003364, -1.6290459037302967 
4.2900000000033405, -1.62851067389327 
4.300000000003317, -1.6280332389546157 
4.310000000003294, -1.6279254100746674 
4.320000000003271, -1.628366128138487 
4.330000000003247, -1.6292224276418446 
4.340000000003224, -1.6301980803510971 
4.350000000003201, -1.6310573959645354 
4.360000000003177, -1.631671047384439 
4.370000000003154, -1.6319723689544108 
4.380000000003131, -1.631918775473976 
4.390000000003107, -1.631467994679643 
4.400000000003084, -1.6305642507150488 
4.410000000003061, -1.6291330970257714 
4.4200000000030375, -1.6270872888426389 
4.430000000003014, -1.62435886148941 
4.440000000002991, -1.620998182220386 
4.450000000002968, -1.61737638793986 
4.460000000002944, -1.6143147985653932 
4.470000000002921, -1.6126231096330106 
4.480000000002898, -1.612264734230323 
4.490000000002874, -1.612499037448703 
4.500000000002851, -1.6127090875381789 
4.510000000002828, -1.6126426880704465 
4.520000000002804, -1.6122059618316986 
4.530000000002781, -1.611277995534682 
4.540000000002758, -1.6096354052781323 
4.5500000000027345, -1.607071797418706 
4.560000000002711, -1.6041257145274677 
4.570000000002688, -1.6035281993808563 
4.580000000002665, -1.6091912739081384 
4.590000000002641, -1.620521279129869 
4.600000000002618, -1.632341379886735 
4.610000000002595, -1.6411869778932828 
4.620000000002571, -1.646729430280119 
4.630000000002548, -1.6498400874888375 
4.640000000002525, -1.6513961529316112 
4.6500000000025015, -1.6520012228187102 
4.660000000002478, -1.6520207609522686 
4.670000000002455, -1.651672563726207 
4.6800000000024315, -1.6511084446973239 
4.690000000002408, -1.650467544822807 
4.700000000002385, -1.649879779160014 
4.710000000002362, -1.6494350323265998 
4.720000000002338, -1.6491738172111272 
4.730000000002315, -1.6490851358711247 
4.740000000002292, -1.6490833974105954 
4.750000000002268, -1.6490250174891983 
4.760000000002245, -1.6487563536019088 
4.770000000002222, -1.648110456789011 
4.7800000000021985, -1.646838740210924 
4.790000000002175, -1.6445014086978194 
4.800000000002152, -1.6403328454711914 
4.810000000002129, -1.6331721877292857 
4.820000000002105, -1.621870972663394 
4.830000000002082, -1.607088988839895 
4.840000000002059, -1.5938302350714364 
4.850000000002035, -1.5883454609811156 
4.860000000002012, -1.5899507272597804 
4.870000000001989, -1.5934196232201399 
4.880000000001965, -1.5959495918615711 
4.890000000001942, -1.597266892096374 
4.900000000001919, -1.5977461060658469 
4.9100000000018955, -1.5976904908557805 
4.920000000001872, -1.5972620279142156 
4.930000000001849, -1.5965743384952247 
4.940000000001826, -1.5958561588809836 
