t, s[1].omega / s[0].omega 
0, -0.6699977029568707 
0.009999999999999995, -0.6697597808883964 
0.019999999999999934, -0.669501596744515 
0.029999999999999874, -0.6692134598154487 
0.04000000000000012, -0.668885225325811 
0.050000000000000405, -0.668511414690814 
0.06000000000000069, -0.6680939946307329 
0.07000000000000098, -0.6676429022189057 
0.08000000000000126, -0.6671759613313364 
0.09000000000000155, -0.6667198446384607 
0.10000000000000184, -0.6663128815255333 
0.11000000000000212, -0.6660096399350315 
0.12000000000000241, -0.6658865705793295 
0.130000000000002, -0.6660474707062439 
0.1400000000000009, -0.6666269589508482 
0.1499999999999998, -0.6677894386394803 
0.1599999999999987, -0.669719929968862 
0.1699999999999976, -0.6726014070609134 
0.1799999999999965, -0.6765715851736687 
0.1899999999999954, -0.6816544892109946 
0.1999999999999943, -0.6876776303802515 
0.2099999999999932, -0.6942201483052683 
0.2199999999999921, -0.700665855474397 
0.229999999999991, -0.7063909636437327 
0.2399999999999899, -0.7109877000257706 
0.2499999999999888, -0.7143616420725378 
0.2599999999999877, -0.716658255722848 
0.2699999999999866, -0.7181201502488161 
0.2799999999999855, -0.7189801972770353 
0.2899999999999844, -0.7194166536955027 
0.2999999999999833, -0.7195479899809043 
0.3099999999999822, -0.7194419605407694 
0.3199999999999811, -0.7191249648818844 
0.32999999999998, -0.7185864129993885 
0.3399999999999789, -0.7177764663432512 
0.3499999999999778, -0.7165965927111165 
0.35999999999997667, -0.7148835333120519 
0.36999999999997557, -0.71239182630999 
0.37999999999997447, -0.7087926453622097 
0.38999999999997337, -0.7037284798584094 
0.39999999999997227, -0.6969713611012125 
0.40999999999997117, -0.6886643188817301 
0.41999999999997006, -0.6794681668270575 
0.42999999999996896, -0.6703953708863946 
0.43999999999996786, -0.6623908331328393 
0.44999999999996676, -0.6559954909919911 
0.45999999999996566, -0.6512982105743041 
0.46999999999996456, -0.6480876487219185 
0.47999999999996346, -0.6460319563244691 
0.48999999999996235, -0.6447991704154304 
0.49999999999996125, -0.644112802278155 
0.5099999999999602, -0.6437654664018927 
0.519999999999959, -0.643612024537659 
0.529999999999958, -0.6435555749699862 
0.5399999999999568, -0.6435330494268959 
0.5499999999999557, -0.6435032778381737 
0.5599999999999546, -0.6434384288853229 
0.5699999999999535, -0.6433189370925128 
0.5799999999999524, -0.6431317126909681 
0.5899999999999513, -0.64287098823479 
0.5999999999999502, -0.6425402340764786 
0.6099999999999491, -0.6421526196382443 
0.619999999999948, -0.6417278516409799 
0.6299999999999469, -0.6412856568111781 
0.6399999999999458, -0.6408390963533677 
0.6499999999999447, -0.640391494053237 
0.6599999999999436, -0.639938372729943 
0.6699999999999425, -0.6394726432495471 
0.6799999999999414, -0.6389899207060434 
0.6899999999999403, -0.6384918782738402 
0.6999999999999392, -0.6379876094925094 
0.7099999999999381, -0.6374942972236317 
0.719999999999937, -0.6370385240389156 
0.7299999999999359, -0.6366588869357407 
0.7399999999999348, -0.6364098812378028 
0.7499999999999337, -0.6363665264269327 
0.7599999999999326, -0.6366288369028676 
0.7699999999999315, -0.6373248184695128 
0.7799999999999304, -0.638609944302279 
0.7899999999999293, -0.6406596331382426 
0.7999999999999282, -0.6436488015082016 
0.8099999999999271, -0.6477100105706975 
0.819999999999926, -0.6528638191887721 
0.8299999999999249, -0.6589321044141698 
0.8399999999999238, -0.6654838739441681 
0.8499999999999227, -0.6718939150609121 
0.8599999999999216, -0.6775421442688186 
0.8699999999999205, -0.6820407638092243 
0.8799999999999194, -0.6853202247021992 
0.8899999999999183, -0.687542187112568 
0.8999999999999172, -0.6889533620542831 
0.9099999999999161, -0.6897831589262877 
0.919999999999915, -0.6902040476342112 
0.9299999999999139, -0.690329202807008 
0.9399999999999128, -0.6902223372252843 
0.9499999999999117, -0.6899068541275757 
0.9599999999999106, -0.6893697230787048 
0.9699999999999095, -0.6885588143423425 
0.9799999999999084, -0.687373583631021 
0.9899999999999073, -0.6856508867402707 
0.9999999999999062, -0.6831537746576498 
1.0099999999999052, -0.6795847646249848 
1.019999999999904, -0.6746611751036526 
1.029999999999903, -0.6682767975209006 
1.039999999999902, -0.6606862885643119 
1.0499999999999008, -0.6525404279896636 
1.0599999999998997, -0.6446684399030767 
1.0699999999998986, -0.6377547351312083 
1.0799999999998975, -0.6321528939451921 
1.0899999999998964, -0.6279028995719753 
1.0999999999998953, -0.6248502824359913 
1.1099999999998942, -0.6227622675599862 
1.119999999999893, -0.6214016221853582 
1.129999999999892, -0.6205618473155438 
1.1399999999998909, -0.620078312308163 
1.1499999999998898, -0.6198271500879511 
1.1599999999998887, -0.6197189808554485 
1.1699999999998876, -0.6196912255166207 
1.1799999999998865, -0.6197009312719818 
1.1899999999998854, -0.6197190742755617 
1.1999999999998843, -0.6197267736490873 
1.2099999999998832, -0.6197134210981246 
1.219999999999882, -0.6196761500191382 
1.229999999999881, -0.6196193330709624 
1.2399999999998799, -0.6195524258362151 
1.2499999999998788, -0.6194852827814341 
1.2599999999998777, -0.6194221175740926 
1.2699999999998766, -0.6193571411287552 
1.2799999999998755, -0.6192747529392804 
1.2899999999998744, -0.6191546302599488 
1.2999999999998733, -0.6189789222024336 
1.3099999999998722, -0.6187376457785603 
1.319999999999871, -0.618430267286746 
1.32999999999987, -0.6180644211060731 
1.3399999999998689, -0.6176542401316055 
1.3499999999998678, -0.6172204207599431 
1.3599999999998666, -0.6167931690353886 
1.3699999999998655, -0.6164185754272686 
1.3799999999998644, -0.6161688028111871 
1.3899999999998633, -0.6161562505762485 
1.3999999999998622, -0.6165508509534965 
1.4099999999998611, -0.6175968130197154 
1.41999999999986, -0.619618908916735 
1.429999999999859, -0.6229975363663415 
1.4399999999998578, -0.6280798437471273 
1.4499999999998567, -0.6350009943957808 
1.4599999999998556, -0.6434570871923957 
1.4699999999998545, -0.6526054073035464 
1.4799999999998534, -0.6613034250940022 
1.4899999999998523, -0.6686122348230584 
1.4999999999998512, -0.674148654346041 
1.5099999999998501, -0.6780338323300164 
1.519999999999849, -0.6806224961437705 
1.529999999999848, -0.6822828150175082 
1.5399999999998468, -0.6833044597341508 
1.5499999999998457, -0.6838876533171602 
1.5599999999998446, -0.6841601710967138 
1.5699999999998435, -0.6841964542497587 
1.5799999999998424, -0.6840310275137578 
1.5899999999998413, -0.6836653479245416 
1.5999999999998402, -0.6830690846651865 
1.6099999999998391, -0.6821776379898272 
1.619999999999838, -0.6808896342992388 
1.629999999999837, -0.6790723507122614 
1.6399999999998358, -0.6765879113292885 
1.6499999999998347, -0.67335006088744 
1.6599999999998336, -0.669397572055224 
1.6699999999998325, -0.6649344800293628 
1.6799999999998314, -0.6602887537757528 
1.6899999999998303, -0.655805770625638 
1.6999999999998292, -0.6517501169634035 
1.709999999999828, -0.6482677141157405 
1.719999999999827, -0.645401487821051 
1.729999999999826, -0.6431272063885735 
1.7399999999998248, -0.6413855386768132 
1.7499999999998237, -0.6401030380134947 
1.7599999999998226, -0.6392037984092076 
1.7699999999998215, -0.6386155170571906 
1.7799999999998204, -0.6382727290153615 
1.7899999999998193, -0.6381186075636935 
1.7999999999998182, -0.6381058432439471 
1.809999999999817, -0.6381967922634999 
1.819999999999816, -0.6383630904219946 
1.8299999999998149, -0.63858498307615 
1.8399999999998138, -0.6388505054339082 
1.8499999999998127, -0.6391542742822934 
1.8599999999998116, -0.6394951854648271 
1.8699999999998105, -0.639872248367131 
1.8799999999998094, -0.6402787099335413 
1.8899999999998083, -0.6406964780004845 
1.8999999999998072, -0.6410943799408695 
1.909999999999806, -0.6414329870184178 
1.919999999999805, -0.6416748521610935 
1.9299999999998039, -0.6417947095012666 
1.9399999999998028, -0.6417839604942709 
1.9499999999998017, -0.6416482654999635 
1.9599999999998006, -0.641401631243433 
1.9699999999997995, -0.6410612593979984 
1.9799999999997984, -0.6406456016335591 
1.9899999999997973, -0.6401763347987145 
1.9999999999997962, -0.6396845254401788 
2.0099999999998173, -0.6392216932278302 
2.0199999999998384, -0.6388769015249788 
2.0299999999998595, -0.6388002605816507 
2.0399999999998806, -0.6392294687450952 
2.0499999999999017, -0.6405063252013118 
2.059999999999923, -0.6430525184223634 
2.069999999999944, -0.6472567892070671 
2.079999999999965, -0.6532466473450858 
2.089999999999986, -0.6606362045129444 
2.100000000000007, -0.6685058686035839 
2.1100000000000283, -0.6757832461730022 
2.1200000000000494, -0.6817518774978065 
2.1300000000000705, -0.6862341231071198 
2.1400000000000916, -0.689413270896339 
2.1500000000001127, -0.6915875311795335 
2.160000000000134, -0.6930315370349067 
2.170000000000155, -0.6939554318280247 
2.180000000000176, -0.6945067924780534 
2.190000000000197, -0.6947830963280505 
2.2000000000002182, -0.6948432145090752 
2.2100000000002393, -0.6947151268262401 
2.2200000000002604, -0.6943996745403349 
2.2300000000002815, -0.6938709747928784 
2.2400000000003026, -0.693075001427861 
2.2500000000003237, -0.6919298048251081 
2.260000000000345, -0.6903341053756938 
2.270000000000366, -0.6881930892862741 
2.280000000000387, -0.6854640937587972 
2.290000000000408, -0.6822049768604158 
2.3000000000004293, -0.6785886415198542 
2.3100000000004504, -0.6748610255916616 
2.3200000000004715, -0.6712661135679692 
2.3300000000004926, -0.6679866862181876 
2.3400000000005137, -0.6651260958914208 
2.3500000000005348, -0.6627212898332078 
2.360000000000556, -0.6607658052976966 
2.370000000000577, -0.6592291602800471 
2.380000000000598, -0.6580690816180975 
2.390000000000619, -0.6572381435774394 
2.4000000000006403, -0.6566874058963766 
2.4100000000006614, -0.656368887696248 
2.4200000000006825, -0.6562376759091388 
2.4300000000007036, -0.6562537529084974 
2.4400000000007247, -0.6563833623263722 
2.450000000000746, -0.6565997894872035 
2.460000000000767, -0.6568835729950655 
2.470000000000788, -0.6572221494481117 
2.480000000000809, -0.6576086621476288 
2.49000000000083, -0.6580393211393147 
2.5000000000008513, -0.658508809994945 
2.5100000000008724, -0.6590043356199807 
2.5200000000008935, -0.659500810625494 
2.5300000000009146, -0.659960846949181 
2.5400000000009357, -0.6603416559102173 
2.550000000000957, -0.6606064008078589 
2.560000000000978, -0.6607336705519459 
2.570000000000999, -0.6607199556593759 
2.58000000000102, -0.660575398376008 
2.5900000000010412, -0.6603171429107626 
2.6000000000010624, -0.659964495633717 
2.6100000000010835, -0.6595378835387369 
2.6200000000011046, -0.6590620500075104 
2.6300000000011257, -0.6585737719469311 
2.6400000000011468, -0.6581349264720089 
2.650000000001168, -0.6578519556989028 
2.660000000001189, -0.6579014067927 
2.67000000000121, -0.6585562718116822 
2.680000000001231, -0.6601966354239177 
2.6900000000012523, -0.6632701733937212 
2.7000000000012734, -0.6681555168550442 
2.7100000000012945, -0.6749157116719805 
2.7200000000013156, -0.6830589619057214 
2.7300000000013367, -0.6915676189319654 
2.740000000001358, -0.699321501987566 
2.750000000001379, -0.7056039387342767 
2.7600000000014, -0.7102609675702738 
2.770000000001421, -0.7135095624576235 
2.780000000001442, -0.7156837717768058 
2.7900000000014633, -0.7170885909351098 
2.8000000000014844, -0.7179548208139693 
2.8100000000015055, -0.7184411884551818 
2.8200000000015266, -0.7186490890180341 
2.8300000000015477, -0.7186362272820981 
2.840000000001569, -0.7184254068534022 
2.85000000000159, -0.7180080869469855 
2.860000000001611, -0.7173433597279478 
2.870000000001632, -0.7163540485146116 
2.8800000000016532, -0.7149242771283302 
2.8900000000016743, -0.7129079040368125 
2.9000000000016954, -0.7101618154245339 
2.9100000000017165, -0.7066115155400842 
2.9200000000017377, -0.7023270303636753 
2.9300000000017588, -0.697552543568416 
2.94000000000178, -0.6926479686732361 
2.950000000001801, -0.6879738012868736 
2.960000000001822, -0.6837966523182232 
2.970000000001843, -0.6802585256783847 
2.9800000000018643, -0.6773959326779403 
2.9900000000018854, -0.6751756686931506 
3.0000000000019065, -0.673526168553564 
3.0100000000019276, -0.6723588679737115 
3.0200000000019487, -0.6715814588714177 
3.03000000000197, -0.6711060799005557 
3.040000000001991, -0.6708543574912338 
3.050000000002012, -0.6707601121113267 
3.060000000002033, -0.6707701256107842 
3.070000000002054, -0.6708434552296548 
3.0800000000020753, -0.6709499869693569 
3.0900000000020964, -0.6710689419935235 
3.1000000000021175, -0.6711877348402873 
3.1100000000021386, -0.6713009453997768 
3.1200000000021597, -0.6714085069611865 
3.130000000002181, -0.6715121835805541 
3.140000000002202, -0.6716105541386961 
3.150000000002223, -0.6716945564374355 
3.160000000002244, -0.6717465198121072 
3.1700000000022652, -0.6717441156009415 
3.1800000000022863, -0.6716674149627251 
3.1900000000023074, -0.6715050290957933 
3.2000000000023285, -0.6712563637584048 
3.2100000000023496, -0.6709302632327516 
3.2200000000023707, -0.6705426329249594 
3.230000000002392, -0.670115641924028 
3.240000000002413, -0.6696799281194433 
3.250000000002434, -0.6692802458774266 
3.260000000002455, -0.6689845071915828 
3.2700000000024763, -0.6688957037194461 
3.2800000000024974, -0.6691651613415363 
3.2900000000025185, -0.670003478050262 
3.3000000000025396, -0.6716819271903633 
3.3100000000025607, -0.674511950145131 
3.3200000000025818, -0.6787852064504811 
3.330000000002603, -0.6846590319814292 
3.340000000002624, -0.6920001355566624 
3.350000000002645, -0.7002674804888824 
3.360000000002666, -0.7085762779318527 
3.3700000000026873, -0.7160034498471133 
3.3800000000027084, -0.7219527146991067 
3.3900000000027295, -0.7262975054852596 
3.4000000000027506, -0.7292509916099629 
3.4100000000027717, -0.7311486680503415 
3.420000000002793, -0.7323015192758813 
3.430000000002814, -0.7329427119957115 
3.440000000002835, -0.733227002327349 
3.450000000002856, -0.7332464347357902 
3.460000000002877, -0.7330450525979296 
3.4700000000028983, -0.7326271953659439 
3.4800000000029194, -0.7319584009395914 
3.4900000000029405, -0.7309590379263252 
3.5000000000029616, -0.7294917664806229 
3.5100000000029827, -0.7273477717925314 
3.520000000003004, -0.7242469413341373 
3.530000000003025, -0.719883497507453 
3.540000000003046, -0.7140523505429249 
3.550000000003067, -0.7068382644865958 
3.5600000000030882, -0.6987367699439438 
3.5700000000031094, -0.6905477552434501 
3.5800000000031305, -0.6830720314032044 
3.5900000000031516, -0.6768395679707494 
3.6000000000031727, -0.6720319282902979 
3.6100000000031938, -0.6685638293728776 
3.620000000003215, -0.6662100999847632 
3.630000000003236, -0.6647063559098558 
3.640000000003257, -0.6638072691917354 
3.650000000003278, -0.6633116176795328 
3.6600000000032993, -0.6630671431462184 
3.6700000000033204, -0.6629651122419579 
3.6800000000033415, -0.6629308716635488 
3.6900000000033626, -0.662914057218812 
3.7000000000033837, -0.6628804053398084 
3.710000000003405, -0.6628060940276187 
3.720000000003426, -0.6626749332521223 
3.730000000003447, -0.6624781427048041 
3.740000000003468, -0.6622155578840798 
3.750000000003489, -0.6618961127972791 
3.7600000000035103, -0.6615354308714239 
3.7700000000035314, -0.6611502384719926 
3.7800000000035525, -0.6607520960055705 
3.7900000000035736, -0.660344037865818 
3.8000000000035947, -0.659921905941874 
3.810000000003616, -0.6594790951140429 
3.820000000003637, -0.6590117321046373 
3.830000000003658, -0.6585220494889489 
3.840000000003679, -0.658019746585786 
3.8500000000037002, -0.6575225777820926 
3.8600000000037213, -0.6570575191201997 
3.8700000000037424, -0.6566631593913514 
3.8800000000037635, -0.6563931822299132 
3.8900000000037847, -0.6563202525762839 
3.9000000000038058, -0.65653926643365 
3.910000000003827, -0.6571686545628781 
3.920000000003848, -0.6583480694203702 
3.930000000003869, -0.6602299946031094 
3.94000000000389, -0.6629612666180273 
3.9500000000039113, -0.6666487329415337 
3.9600000000039324, -0.6713045554266677 
3.9700000000039535, -0.6767783897274802 
3.9800000000039746, -0.6827114720674895 
3.9900000000039957, -0.6885736929839935 
4.000000000004016, -0.6938151265878056 
4.010000000003993, -0.6980592953111022 
4.02000000000397, -0.7012003424397824 
4.030000000003946, -0.7033519232948178 
4.040000000003923, -0.704725165710046 
4.0500000000039, -0.7055301352001787 
4.0600000000038765, -0.7059308169216607 
4.070000000003853, -0.7060372779950881 
4.08000000000383, -0.7059123603218228 
4.090000000003807, -0.7055795033962058 
4.100000000003783, -0.7050262203310187 
4.11000000000376, -0.7042013344661495 
4.120000000003737, -0.7030052247246326 
4.130000000003713, -0.7012735631597549 
4.14000000000369, -0.6987596893430955 
4.150000000003667, -0.6951336827023251 
4.1600000000036434, -0.6900384607978404 
4.17000000000362, -0.6832510744109078 
4.180000000003597, -0.6749260782039499 
4.1900000000035735, -0.6657367939926659 
4.20000000000355, -0.6566970791310724 
4.210000000003527, -0.6487372967730439 
4.220000000003504, -0.6423777164701182 
4.23000000000348, -0.6376935612881591 
4.240000000003457, -0.6344716282304081 
4.250000000003434, -0.6323866975396737 
4.26000000000341, -0.631116381199945 
4.270000000003387, -0.6303927086586553 
4.280000000003364, -0.6300140804507032 
4.2900000000033405, -0.629838407822684 
4.300000000003317, -0.6297698847629529 
4.310000000003294, -0.6297455250613222 
4.320000000003271, -0.6297240105833835 
4.330000000003247, -0.6296776591257842 
4.340000000003224, -0.6295876080684344 
4.350000000003201, -0.6294419894461526 
4.360000000003177, -0.6292364118617255 
4.370000000003154, -0.6289752115058271 
4.380000000003131, -0.6286711663507735 
4.390000000003107, -0.6283418758808561 
4.400000000003084, -0.6280033347301625 
4.410000000003061, -0.6276638167230053 
4.4200000000030375, -0.6273215674800067 
4.430000000003014, -0.6269674577096634 
4.440000000002991, -0.6265906783315348 
4.450000000002968, -0.6261842020192453 
4.460000000002944, -0.6257478626587509 
4.470000000002921, -0.6252891643427313 
4.480000000002898, -0.624823402906663 
4.490000000002874, -0.6243747297012587 
4.500000000002851, -0.6239790827937524 
4.510000000002828, -0.6236892225824915 
4.520000000002804, -0.6235816393631997 
4.530000000002781, -0.6237646516178937 
4.540000000002758, -0.6243862705135524 
4.5500000000027345, -0.6256389706569055 
4.560000000002711, -0.6277558066305565 
4.570000000002688, -0.6309878734162613 
4.580000000002665, -0.6355482795721651 
4.590000000002641, -0.6415102490593754 
4.600000000002618, -0.6486744970872655 
4.610000000002595, -0.6564849287696104 
4.620000000002571, -0.6641188798068216 
4.630000000002548, -0.6707820968352227 
4.640000000002525, -0.6760169295498548 
4.6500000000025015, -0.6797845623334537 
4.660000000002478, -0.6823188955617164 
4.670000000002455, -0.683932861791513 
4.6800000000024315, -0.6849011438095334 
4.690000000002408, -0.6854237296884128 
4.700000000002385, -0.6856303606199783 
4.710000000002362, -0.6855955569088266 
4.720000000002338, -0.6853510594828308 
4.730000000002315, -0.684891987859398 
4.740000000002292, -0.6841763699955454 
4.750000000002268, -0.6831188520830281 
4.760000000002245, -0.6815813919385315 
4.770000000002222, -0.6793693333081545 
4.7800000000021985, -0.6762516539611207 
4.790000000002175, -0.6720315274091495 
4.800000000002152, -0.6666718440022861 
4.810000000002129, -0.6604115428165642 
4.820000000002105, -0.6537565258203256 
4.830000000002082, -0.6473093094694643 
4.840000000002059, -0.6415577246514718 
4.850000000002035, -0.6367656739810934 
4.860000000002012, -0.632988401936595 
4.870000000001989, -0.630146213002735 
4.880000000001965, -0.6280962151096409 
4.890000000001942, -0.6266800012668768 
4.900000000001919, -0.625749041572182 
4.9100000000018955, -0.6251757090273588 
4.920000000001872, -0.624856387922702 
