t, s[1].omega / s[0].omega 
0, -1.129997641990525 
0.009999999999999995, -1.1296365931857564 
0.019999999999999934, -1.1290283495803008 
0.029999999999999874, -1.128180776280005 
0.04000000000000012, -1.1271209374895486 
0.050000000000000405, -1.1259054876324388 
0.06000000000000069, -1.1246227037132608 
0.07000000000000098, -1.1233829482607538 
0.08000000000000126, -1.1223022357766705 
0.09000000000000155, -1.1214864150679495 
0.10000000000000184, -1.1210059534220103 
0.11000000000000212, -1.1208530131360723 
0.12000000000000241, -1.120920013189502 
0.130000000000002, -1.1210381664319635 
0.1400000000000009, -1.1210383375070452 
0.1499999999999998, -1.1207790612228588 
0.1599999999999987, -1.120145215753718 
0.1699999999999976, -1.119050409743627 
0.1799999999999965, -1.1174533901653503 
0.1899999999999954, -1.1153683236103498 
0.1999999999999943, -1.1128505453043143 
0.2099999999999932, -1.1099701696262096 
0.2199999999999921, -1.1068007284579318 
0.229999999999991, -1.1034333196339645 
0.2399999999999899, -1.1000084591993897 
0.2499999999999888, -1.0967499590254588 
0.2599999999999877, -1.0939653278731905 
0.2699999999999866, -1.0919530061845302 
0.2799999999999855, -1.090823625017396 
0.2899999999999844, -1.090402888427484 
0.2999999999999833, -1.090346623504172 
0.3099999999999822, -1.090328195476197 
0.3199999999999811, -1.0901093679526423 
0.32999999999998, -1.0894957207151 
0.3399999999999789, -1.088266578106774 
0.3499999999999778, -1.0861427713435783 
0.35999999999997667, -1.0828296420963979 
0.36999999999997557, -1.0781348201757053 
0.37999999999997447, -1.0720780222452388 
0.38999999999997337, -1.0648890452438358 
0.39999999999997227, -1.0569164146220809 
0.40999999999997117, -1.0485701801628926 
0.41999999999997006, -1.0403559418451638 
0.42999999999996896, -1.0329278455122881 
0.43999999999996786, -1.0270066607068027 
0.44999999999996676, -1.0230742148146952 
0.45999999999996566, -1.0210548099066008 
0.46999999999996456, -1.0203664107490509 
0.47999999999996346, -1.0203117188919775 
0.48999999999996235, -1.0203823473638756 
0.49999999999996125, -1.0202867737729187 
0.5099999999999602, -1.0198357939957932 
0.519999999999959, -1.0188231163014843 
0.529999999999958, -1.016944770752135 
0.5399999999999568, -1.0137826674458266 
0.5499999999999557, -1.0089049890243786 
0.5599999999999546, -1.0020914945511632 
0.5699999999999535, -0.9935255642360723 
0.5799999999999524, -0.9837503778427247 
0.5899999999999513, -0.9734486067653081 
0.5999999999999502, -0.9632851287925243 
0.6099999999999491, -0.9538934610112629 
0.619999999999948, -0.9458911241510441 
0.6299999999999469, -0.9397889088626606 
0.6399999999999458, -0.9357891766548093 
0.6499999999999447, -0.9336513221748277 
0.6599999999999436, -0.9328054192569212 
0.6699999999999425, -0.932633283089196 
0.6799999999999414, -0.9326717841691802 
0.6899999999999403, -0.9326392190782928 
0.6999999999999392, -0.9323616554104046 
0.7099999999999381, -0.9316916278285107 
0.719999999999937, -0.9304614598385648 
0.7299999999999359, -0.9284902249279742 
0.7399999999999348, -0.9256530624429726 
0.7499999999999337, -0.921975301603945 
0.7599999999999326, -0.9176586787393731 
0.7699999999999315, -0.9129966790818405 
0.7799999999999304, -0.9082600070921106 
0.7899999999999293, -0.9036468750845255 
0.7999999999999282, -0.8993019274918761 
0.8099999999999271, -0.8953556501182298 
0.819999999999926, -0.8919463324778326 
0.8299999999999249, -0.8892088227210653 
0.8399999999999238, -0.8872315054282981 
0.8499999999999227, -0.886004893002136 
0.8599999999999216, -0.8854031649446044 
0.8699999999999205, -0.8852215986360551 
0.8799999999999194, -0.8852433804152348 
0.8899999999999183, -0.8852880543038067 
0.8999999999999172, -0.885223082835822 
0.9099999999999161, -0.8849552179500916 
0.919999999999915, -0.8844256692177982 
0.9299999999999139, -0.883617720685005 
0.9399999999999128, -0.8825640536042861 
0.9499999999999117, -0.8813341023840962 
0.9599999999999106, -0.8800021565604169 
0.9699999999999095, -0.8786203684641642 
0.9799999999999084, -0.8772153698052052 
0.9899999999999073, -0.8758044353681893 
0.9999999999999062, -0.8744152797825453 
1.0099999999999052, -0.8730972679581351 
1.019999999999904, -0.8719201012347803 
1.029999999999903, -0.8709616088217179 
1.039999999999902, -0.8702895647766801 
1.0499999999999008, -0.8699441574958781 
1.0599999999998997, -0.8699265749800421 
1.0699999999998986, -0.8701969316303741 
1.0799999999998975, -0.8706832767016448 
1.0899999999998964, -0.8712999114966364 
1.0999999999998953, -0.8719680416772313 
1.1099999999998942, -0.8726308075617653 
1.119999999999893, -0.873258366393058 
1.129999999999892, -0.8738415957220742 
1.1399999999998909, -0.874375455738948 
1.1499999999998898, -0.8748394054057425 
1.1599999999998887, -0.8751888411312406 
1.1699999999998876, -0.8753676855745295 
1.1799999999998865, -0.8753354070892818 
1.1899999999998854, -0.8750883204565217 
1.1999999999998843, -0.8746639354473852 
1.2099999999998832, -0.874136962573708 
1.219999999999882, -0.873619327421222 
1.229999999999881, -0.8732622273926437 
1.2399999999998799, -0.8732444590014332 
1.2499999999998788, -0.8737351749048332 
1.2599999999998777, -0.8748438356894888 
1.2699999999998766, -0.8765906310380472 
1.2799999999998755, -0.8789171870022215 
1.2899999999998744, -0.8817238501421035 
1.2999999999998733, -0.8849051998633887 
1.3099999999998722, -0.8883650469643748 
1.319999999999871, -0.8920053379237376 
1.32999999999987, -0.895693553641678 
1.3399999999998689, -0.8992297033037122 
1.3499999999998678, -0.902354609725273 
1.3599999999998666, -0.9048285859518113 
1.3699999999998655, -0.9065353074417571 
1.3799999999998644, -0.907515110666687 
1.3899999999998633, -0.9079057114525362 
1.3999999999998622, -0.9078635084665069 
1.4099999999998611, -0.9075295090263182 
1.41999999999986, -0.9070503699972605 
1.429999999999859, -0.9066423992830487 
1.4399999999998578, -0.9066755741834072 
1.4499999999998567, -0.9077173553726833 
1.4599999999998556, -0.91044021954087 
1.4699999999998545, -0.9153708162044102 
1.4799999999998534, -0.9226441495250949 
1.4899999999998523, -0.931965664306544 
1.4999999999998512, -0.9427620568800111 
1.5099999999998501, -0.9543275227381628 
1.519999999999849, -0.965855560938505 
1.529999999999848, -0.9764378601007239 
1.5399999999998468, -0.985207913685747 
1.5499999999998457, -0.9916568597007237 
1.5599999999998446, -0.9958399959047965 
1.5699999999998435, -0.9982295381027637 
1.5799999999998424, -0.9993877148993356 
1.5899999999998413, -0.9997549907869395 
1.5999999999998402, -0.9996137471491053 
1.6099999999998391, -0.9991483983013982 
1.619999999999838, -0.9985527134671514 
1.629999999999837, -0.9981832489361611 
1.6399999999998358, -0.9987218613237862 
1.6499999999998347, -1.001164562656781 
1.6599999999998336, -1.0064147133595007 
1.6699999999998325, -1.0146821178343575 
1.6799999999998314, -1.0253118140158852 
1.6899999999998303, -1.0371901200642857 
1.6999999999998292, -1.0492075878698364 
1.709999999999828, -1.060427636591083 
1.719999999999827, -1.070082876260685 
1.729999999999826, -1.0776349141571837 
1.7399999999998248, -1.0829235557047432 
1.7499999999998237, -1.0862067304108605 
1.7599999999998226, -1.0879809899396506 
1.7699999999998215, -1.0887403077149453 
1.7799999999998204, -1.0888517591919484 
1.7899999999998193, -1.088562654036301 
1.7999999999998182, -1.088080883878984 
1.809999999999817, -1.0876856153439203 
1.819999999999816, -1.0878049002339067 
1.8299999999998149, -1.0889312682191605 
1.8399999999998138, -1.0913391430749444 
1.8499999999998127, -1.0948773978165889 
1.8599999999998116, -1.099096519618891 
1.8699999999998105, -1.1035304845816614 
1.8799999999998094, -1.1078468288376528 
1.8899999999998083, -1.1118389913759956 
1.8999999999998072, -1.1153651904709432 
1.909999999999806, -1.1183049634420015 
1.919999999999805, -1.1205595459716 
1.9299999999998039, -1.122087431812425 
1.9399999999998028, -1.1229325855835146 
1.9499999999998017, -1.1232098928243779 
1.9599999999998006, -1.123064683686066 
1.9699999999997995, -1.1226498675634373 
1.9799999999997984, -1.1221365264721006 
1.9899999999997973, -1.1217291293024438 
1.9999999999997962, -1.1216337679708157 
2.0099999999998173, -1.121972682064662 
2.0199999999998384, -1.122728068547862 
2.0299999999998595, -1.1237789701576102 
2.0399999999998806, -1.124976033360672 
2.0499999999999017, -1.1261843404296974 
2.059999999999923, -1.12729631991313 
2.069999999999944, -1.1282364055417125 
2.079999999999965, -1.1289597729778704 
2.089999999999986, -1.1294428788997377 
2.100000000000007, -1.1296706248683153 
2.1100000000000283, -1.1296294146146086 
2.1200000000000494, -1.1293119500639592 
2.1300000000000705, -1.1287297044017632 
2.1400000000000916, -1.1279238179046045 
2.1500000000001127, -1.1269697610071785 
2.160000000000134, -1.1259735011168994 
2.170000000000155, -1.12505415750125 
2.180000000000176, -1.1243173315295705 
2.190000000000197, -1.1238362356086748 
2.2000000000002182, -1.1236409543956725 
2.2100000000002393, -1.1237004278455387 
2.2200000000002604, -1.123913265794922 
2.2300000000002815, -1.124135476114324 
2.2400000000003026, -1.1242253036815264 
2.2500000000003237, -1.1240682605205743 
2.260000000000345, -1.1235823724234324 
2.270000000000366, -1.1227220162381923 
2.280000000000387, -1.1214817264639685 
2.290000000000408, -1.1198885251482147 
2.3000000000004293, -1.1179837343869623 
2.3100000000004504, -1.1158106951308704 
2.3200000000004715, -1.1134192561282168 
2.3300000000004926, -1.1108826937177534 
2.3400000000005137, -1.1083178547573316 
2.3500000000005348, -1.105901459738675 
2.360000000000556, -1.1038635625525717 
2.370000000000577, -1.102418216447676 
2.380000000000598, -1.1016351437547867 
2.390000000000619, -1.1013707694251318 
2.4000000000006403, -1.1013518874595982 
2.4100000000006614, -1.1013119654190688 
2.4200000000006825, -1.1010428468804176 
2.4300000000007036, -1.100362829467808 
2.4400000000007247, -1.099073117944908 
2.450000000000746, -1.0969566863904971 
2.460000000000767, -1.0938371286063298 
2.470000000000788, -1.0896608192705886 
2.480000000000809, -1.0845254933405208 
2.49000000000083, -1.0786307365699435 
2.5000000000008513, -1.0722189526751218 
2.5100000000008724, -1.0655777039575147 
2.5200000000008935, -1.0591007023817838 
2.5300000000009146, -1.053330699677255 
2.5400000000009357, -1.0488584549632654 
2.550000000000957, -1.0460306869619562 
2.560000000000978, -1.0446996498846544 
2.570000000000999, -1.0443299175643572 
2.58000000000102, -1.04434790303031 
2.5900000000010412, -1.0443565749030161 
2.6000000000010624, -1.044117582926262 
2.6100000000010835, -1.0434386825603574 
2.6200000000011046, -1.0420705406043662 
2.6300000000011257, -1.0396491983936447 
2.6400000000011468, -1.0357249508724067 
2.650000000001168, -1.0299234164160003 
2.660000000001189, -1.022176789485174 
2.67000000000121, -1.0128201578398512 
2.680000000001231, -1.0024581715067507 
2.6900000000012523, -0.9917771590172215 
2.7000000000012734, -0.98147981588407 
2.7100000000012945, -0.9723024148303628 
2.7200000000013156, -0.9649515845551861 
2.7300000000013367, -0.9598726873568005 
2.740000000001358, -0.956999744940478 
2.750000000001379, -0.9557768876052016 
2.7600000000014, -0.955478300108994 
2.770000000001421, -0.95551841632831 
2.780000000001442, -0.955539024627555 
2.7900000000014633, -0.9553347455617776 
2.8000000000014844, -0.9547470548004501 
2.8100000000015055, -0.9535890133241907 
2.8200000000015266, -0.9516213847793215 
2.8300000000015477, -0.9486031108507439 
2.840000000001569, -0.9444173656644733 
2.85000000000159, -0.9391860169682548 
2.860000000001611, -0.9332455968622853 
2.870000000001632, -0.9269981881361935 
2.8800000000016532, -0.9207859383316269 
2.8900000000016743, -0.9148700242649114 
2.9000000000016954, -0.909472779310131 
2.9100000000017165, -0.9048134065543395 
2.9200000000017377, -0.9010955466874951 
2.9300000000017588, -0.8984422962174899 
2.94000000000178, -0.8968211448796922 
2.950000000001801, -0.8960300398696325 
2.960000000001822, -0.8957712166954312 
2.970000000001843, -0.8957548285229525 
2.9800000000018643, -0.8957582450817662 
2.9900000000018854, -0.8956263444408741 
3.0000000000019065, -0.8952459726019488 
3.0100000000019276, -0.8945299984261542 
3.0200000000019487, -0.8934268744940063 
3.03000000000197, -0.8919454454004971 
3.040000000001991, -0.8901627571677168 
3.050000000002012, -0.8881938132700825 
3.060000000002033, -0.886144619313484 
3.070000000002054, -0.8840866601252155 
3.0800000000020753, -0.8820635511613731 
3.0900000000020964, -0.8801130696152069 
3.1000000000021175, -0.8782851292081651 
3.1100000000021386, -0.8766466347299106 
3.1200000000021597, -0.875273380014372 
3.130000000002181, -0.8742334086027929 
3.140000000002202, -0.873567117170348 
3.150000000002223, -0.8732702162607524 
3.160000000002244, -0.8732878706724911 
3.1700000000022652, -0.8735263031539685 
3.1800000000022863, -0.8738776822235952 
3.1900000000023074, -0.8742452158059912 
3.2000000000023285, -0.874558909136681 
3.2100000000023496, -0.8747815480143639 
3.2200000000023707, -0.8749066159794399 
3.230000000002392, -0.8749467552825752 
3.240000000002413, -0.8749141360363538 
3.250000000002434, -0.8748032270631264 
3.260000000002455, -0.8745890435512251 
3.2700000000024763, -0.87424315863369 
3.2800000000024974, -0.8737555560830945 
3.2900000000025185, -0.8731485494017307 
3.3000000000025396, -0.8724803939772623 
3.3100000000025607, -0.8718438419845674 
3.3200000000025818, -0.8713596522681272 
3.330000000002603, -0.8711582895725734 
3.340000000002624, -0.8713487522306181 
3.350000000002645, -0.8719884507868191 
3.360000000002666, -0.8730726331976272 
3.3700000000026873, -0.8745474875196425 
3.3800000000027084, -0.8763351987795193 
3.3900000000027295, -0.8783572091827151 
3.4000000000027506, -0.8805474877548842 
3.4100000000027717, -0.8828511920471549 
3.420000000002793, -0.8852070609271898 
3.430000000002814, -0.887520274311554 
3.440000000002835, -0.889647099539697 
3.450000000002856, -0.8914189463272362 
3.460000000002877, -0.8927057298026568 
3.4700000000028983, -0.893469790193797 
3.4800000000029194, -0.8937637156192327 
3.4900000000029405, -0.8936877798696045 
3.5000000000029616, -0.8933568934579715 
3.5100000000029827, -0.8929045818574646 
3.520000000003004, -0.8925210281865038 
3.530000000003025, -0.8925012959346255 
3.540000000003046, -0.8932559631041328 
3.550000000003067, -0.895231031194747 
3.5600000000030882, -0.8987487236677262 
3.5700000000031094, -0.9038799429812453 
3.5800000000031305, -0.9104481390648966 
3.5900000000031516, -0.9181306943637044 
3.6000000000031727, -0.9265434276865168 
3.6100000000031938, -0.9352423710235552 
3.620000000003215, -0.9436741963883861 
3.630000000003236, -0.9511857723114421 
3.640000000003257, -0.9571954877841741 
3.650000000003278, -0.9614461860636251 
3.6600000000032993, -0.9640855631893845 
3.6700000000033204, -0.9654937833791618 
3.6800000000033415, -0.9660586239844169 
3.6900000000033626, -0.9660664066104513 
3.7000000000033837, -0.9657075260306268 
3.710000000003405, -0.9651461973985352 
3.720000000003426, -0.9646382476356133 
3.730000000003447, -0.9646887580174344 
3.740000000003468, -0.966157452385523 
3.750000000003489, -0.9700970498312237 
3.7600000000035103, -0.9772395917366264 
3.7700000000035314, -0.9875157012219806 
3.7800000000035525, -1.0000862567574271 
3.7900000000035736, -1.01376243136098 
3.8000000000035947, -1.0273440857671996 
3.810000000003616, -1.0397291258937253 
3.820000000003637, -1.0499960095726075 
3.830000000003658, -1.057616316607346 
3.840000000003679, -1.0626356178650387 
3.8500000000037002, -1.0655613650051747 
3.8600000000037213, -1.0670353606066396 
3.8700000000037424, -1.0675832339797522 
3.8800000000037635, -1.0675518140704567 
3.8900000000037847, -1.067165855841193 
3.9000000000038058, -1.066636922437108 
3.910000000003827, -1.0662987384186182 
3.920000000003848, -1.066700812872375 
3.930000000003869, -1.0684907529991778 
3.94000000000389, -1.072031796135422 
3.9500000000039113, -1.0771173397525797 
3.9600000000039324, -1.0831342373047121 
3.9700000000039535, -1.089438820667969 
3.9800000000039746, -1.0955576024327651 
3.9900000000039957, -1.1011740608105973 
4.000000000004016, -1.1060504445674346 
4.010000000003993, -1.1099936002987512 
4.02000000000397, -1.11289081193155 
4.030000000003946, -1.1147639172432766 
4.040000000003923, -1.1157643973959297 
4.0500000000039, -1.1161035809140276 
4.0600000000038765, -1.1159855666424612 
4.070000000003853, -1.115593541040572 
4.08000000000383, -1.1151244176875623 
4.090000000003807, -1.114825072199581 
4.100000000003783, -1.1149597915188063 
4.11000000000376, -1.115690031928162 
4.120000000003737, -1.1169812723656796 
4.130000000003713, -1.1186497858021114 
4.14000000000369, -1.1204815850772563 
4.150000000003667, -1.1223046083371278 
4.1600000000036434, -1.1240008291323746 
4.17000000000362, -1.1254957709301683 
4.180000000003597, -1.1267430945986951 
4.1900000000035735, -1.1277082590591165 
4.20000000000355, -1.1283587500617356 
4.210000000003527, -1.1286686055704171 
4.220000000003504, -1.1286337207856116 
4.23000000000348, -1.1282841185134054 
4.240000000003457, -1.1276861248073737 
4.250000000003434, -1.1269402597132607 
4.26000000000341, -1.1261758152669878 
4.270000000003387, -1.1255292579886145 
4.280000000003364, -1.1251056262122223 
4.2900000000033405, -1.124952095104395 
4.300000000003317, -1.1250601092643426 
4.310000000003294, -1.1253732592437518 
4.320000000003271, -1.125791519712881 
4.330000000003247, -1.1261906111598508 
4.340000000003224, -1.126453575050787 
4.350000000003201, -1.1264921598183038 
4.360000000003177, -1.1262531384192631 
4.370000000003154, -1.1257170781022792 
4.380000000003131, -1.1248907578272787 
4.390000000003107, -1.1237936783014693 
4.400000000003084, -1.1224476141503013 
4.410000000003061, -1.12087817664764 
4.4200000000030375, -1.119126578511105 
4.430000000003014, -1.1172623011201317 
4.440000000002991, -1.115389787757398 
4.450000000002968, -1.113648943343 
4.460000000002944, -1.1122049427973206 
4.470000000002921, -1.1112040050147851 
4.480000000002898, -1.110689716531509 
4.490000000002874, -1.1105517301956298 
4.500000000002851, -1.110577174408361 
4.510000000002828, -1.1105471316721642 
4.520000000002804, -1.1102801583026418 
4.530000000002781, -1.1096176213901972 
4.540000000002758, -1.1084048835508677 
4.5500000000027345, -1.10650703389247 
4.560000000002711, -1.1038543117927189 
4.570000000002688, -1.1004728455634565 
4.580000000002665, -1.0964658323702017 
4.590000000002641, -1.091968927285157 
4.600000000002618, -1.0871315817736196 
4.610000000002595, -1.0821453477845535 
4.620000000002571, -1.077300030156218 
4.630000000002548, -1.0730123000653953 
4.640000000002525, -1.0697352066278263 
4.6500000000025015, -1.0677197540118664 
4.660000000002478, -1.0668241282053519 
4.670000000002455, -1.066612906349637 
4.6800000000024315, -1.0666320309308654 
4.690000000002408, -1.066562031756833 
4.700000000002385, -1.0661892452438 
4.710000000002362, -1.0653089702953322 
4.720000000002338, -1.0636447841070014 
4.730000000002315, -1.0608257231806368 
4.740000000002292, -1.0564641692272472 
4.750000000002268, -1.0503348239144923 
4.760000000002245, -1.042529582541131 
4.770000000002222, -1.0334384575182383 
4.7800000000021985, -1.0236047884153736 
4.790000000002175, -1.0136339355275505 
4.800000000002152, -1.0042107216123635 
4.810000000002129, -0.9961063495737352 
4.820000000002105, -0.9900127061843823 
4.830000000002082, -0.9862114648498678 
4.840000000002059, -0.9843814096711422 
4.850000000002035, -0.9838084583836818 
4.860000000002012, -0.9837905566930025 
4.870000000001989, -0.9838584187263982 
4.880000000001965, -0.9837499190579716 
4.890000000001942, -0.9832912557844705 
4.900000000001919, -0.9822921715140659 
4.9100000000018955, -0.9804856152652888 
4.920000000001872, -0.977535356106329 
4.930000000001849, -0.9731474842531711 
4.940000000001826, -0.9672565733000851 
