t, s[1].omega / s[0].omega 
0, -0.7699976639839726 
0.009999999999999995, -0.7697390553591738 
0.019999999999999934, -0.7694286180869592 
0.029999999999999874, -0.7690614225364871 
0.04000000000000012, -0.7686345292299142 
0.050000000000000405, -0.7681513385655115 
0.06000000000000069, -0.7676239325557715 
0.07000000000000098, -0.7670738166170644 
0.08000000000000126, -0.7665324461510856 
0.09000000000000155, -0.7660422680616086 
0.10000000000000184, -0.7656577017046848 
0.11000000000000212, -0.7654445805305942 
0.12000000000000241, -0.765476637550766 
0.130000000000002, -0.7658287211213803 
0.1400000000000009, -0.766568027019205 
0.1499999999999998, -0.7677456077319273 
0.1599999999999987, -0.7693898207026425 
0.1699999999999976, -0.7715013717414776 
0.1799999999999965, -0.7740476217574768 
0.1899999999999954, -0.7769538417388809 
0.1999999999999943, -0.7800928314138651 
0.2099999999999932, -0.7832816501629073 
0.2199999999999921, -0.7862998104964573 
0.229999999999991, -0.7889358583790974 
0.2399999999999899, -0.7910450754197863 
0.2499999999999888, -0.7925826101423021 
0.2599999999999877, -0.7935918913952047 
0.2699999999999866, -0.7941635433000738 
0.2799999999999855, -0.7943946325765678 
0.2899999999999844, -0.7943648457462933 
0.2999999999999833, -0.794129142001023 
0.3099999999999822, -0.7937202031946161 
0.3199999999999811, -0.7931560252784167 
0.32999999999998, -0.7924523165066304 
0.3399999999999789, -0.7916433628999509 
0.3499999999999778, -0.7908178077645299 
0.35999999999997667, -0.7901748947192493 
0.36999999999997557, -0.7900954961947527 
0.37999999999997447, -0.7911911393634419 
0.38999999999997337, -0.794244867059776 
0.39999999999997227, -0.7999374914306283 
0.40999999999997117, -0.8083724723538435 
0.41999999999997006, -0.8187112949161015 
0.42999999999996896, -0.8293797270667354 
0.43999999999996786, -0.8388353032666386 
0.44999999999996676, -0.8462346918239833 
0.45999999999996566, -0.8515059867718147 
0.46999999999996456, -0.855016075832029 
0.47999999999996346, -0.8572360150435312 
0.48999999999996235, -0.8585684046467117 
0.49999999999996125, -0.8593021825338589 
0.5099999999999602, -0.8596236285269463 
0.519999999999959, -0.8596399907540683 
0.529999999999958, -0.859398268342702 
0.5399999999999568, -0.8588942501284442 
0.5499999999999557, -0.8580708208424725 
0.5599999999999546, -0.8568050591226994 
0.5699999999999535, -0.8548844541606462 
0.5799999999999524, -0.8519779573417683 
0.5899999999999513, -0.847624434296959 
0.5999999999999502, -0.8412941484688539 
0.6099999999999491, -0.8326045113667965 
0.619999999999948, -0.8216982454341719 
0.6299999999999469, -0.8095448902965418 
0.6399999999999458, -0.7977554963634594 
0.6499999999999447, -0.787871687404646 
0.6599999999999436, -0.7806979162637158 
0.6699999999999425, -0.776180693142066 
0.6799999999999414, -0.773738159243891 
0.6899999999999403, -0.7726591395919462 
0.6999999999999392, -0.7723461481569085 
0.7099999999999381, -0.7723896934468975 
0.719999999999937, -0.7725464139410537 
0.7299999999999359, -0.7726866684096722 
0.7399999999999348, -0.7727457531411996 
0.7499999999999337, -0.7726889742118509 
0.7599999999999326, -0.7724895501144594 
0.7699999999999315, -0.7721155716575834 
0.7799999999999304, -0.7715235383272487 
0.7899999999999293, -0.7706586993378299 
0.7999999999999282, -0.7694646207875743 
0.8099999999999271, -0.7679032253133238 
0.819999999999926, -0.7659794913837603 
0.8299999999999249, -0.7637559901657253 
0.8399999999999238, -0.7613438036349435 
0.8499999999999227, -0.7588730613866737 
0.8599999999999216, -0.7564618914897945 
0.8699999999999205, -0.7541997821821071 
0.8799999999999194, -0.7521468762690074 
0.8899999999999183, -0.7503412311538822 
0.8999999999999172, -0.7488061757914783 
0.9099999999999161, -0.7475541926441656 
0.919999999999915, -0.7465874142445796 
0.9299999999999139, -0.7458965699592166 
0.9399999999999128, -0.7454604532645089 
0.9499999999999117, -0.7452472672646228 
0.9599999999999106, -0.7452180366622685 
0.9699999999999095, -0.7453312138965568 
0.9799999999999084, -0.7455471670800529 
0.9899999999999073, -0.7458315350193173 
0.9999999999999062, -0.7461570837478011 
1.0099999999999052, -0.7465041200967045 
1.019999999999904, -0.7468594291593991 
1.029999999999903, -0.7472134413478717 
1.039999999999902, -0.7475556955206075 
1.0499999999999008, -0.7478700549551592 
1.0599999999998997, -0.7481326022314307 
1.0699999999998986, -0.7483147055633245 
1.0799999999998975, -0.7483905835066522 
1.0899999999998964, -0.7483451129654843 
1.0999999999998953, -0.7481774173523646 
1.1099999999998942, -0.7478994363182501 
1.119999999999893, -0.7475324288220915 
1.129999999999892, -0.7471050948210067 
1.1399999999998909, -0.7466554115196384 
1.1499999999998898, -0.7462364565676947 
1.1599999999998887, -0.7459252038137221 
1.1699999999998876, -0.7458321062606672 
1.1799999999998865, -0.7461078969613955 
1.1899999999998854, -0.7469428914888626 
1.1999999999998843, -0.7485540675589475 
1.2099999999998832, -0.7511566166595518 
1.219999999999882, -0.7549186249926093 
1.229999999999881, -0.7598997293163687 
1.2399999999998799, -0.7659808105662904 
1.2499999999998788, -0.7728094795828463 
1.2599999999998777, -0.7798121435303812 
1.2699999999998766, -0.7863213193352825 
1.2799999999998755, -0.7917900462173683 
1.2899999999998744, -0.795962006263206 
1.2999999999998733, -0.7988819684804553 
1.3099999999998722, -0.8007740846479428 
1.319999999999871, -0.8019036037614502 
1.32999999999987, -0.8024950673377992 
1.3399999999998689, -0.8027073418251967 
1.3499999999998678, -0.8026378666210995 
1.3599999999998666, -0.8023343861584019 
1.3699999999998655, -0.801804327982417 
1.3799999999998644, -0.8010193377618519 
1.3899999999998633, -0.7999158843226524 
1.3999999999998622, -0.7983950351766081 
1.4099999999998611, -0.7963272991085611 
1.41999999999986, -0.7935718219883794 
1.429999999999859, -0.7900200575901188 
1.4399999999998578, -0.7856666223767705 
1.4499999999998567, -0.7806936469851666 
1.4599999999998556, -0.7755358114760786 
1.4699999999998545, -0.7708587731302964 
1.4799999999998534, -0.7673534994390059 
1.4899999999998523, -0.7653928037080286 
1.4999999999998512, -0.7648494982024096 
1.5099999999998501, -0.7652545409778779 
1.519999999999849, -0.7660959218962916 
1.529999999999848, -0.7670050065410947 
1.5399999999998468, -0.7677854519257333 
1.5499999999998457, -0.7683636376368165 
1.5599999999998446, -0.768730040039759 
1.5699999999998435, -0.7688977900457572 
1.5799999999998424, -0.7688790047273846 
1.5899999999998413, -0.7686721096217562 
1.5999999999998402, -0.7682541009276928 
1.6099999999998391, -0.7675745867728843 
1.619999999999838, -0.7665520052913807 
1.629999999999837, -0.7650768947462405 
1.6399999999998358, -0.7630313313166309 
1.6499999999998347, -0.7603316863158509 
1.6599999999998336, -0.7569852311762123 
1.6699999999998325, -0.7531260616767157 
1.6799999999998314, -0.7489949712891502 
1.6899999999998303, -0.7448693899377267 
1.6999999999998292, -0.7409900937656665 
1.709999999999828, -0.7375231925709301 
1.719999999999827, -0.7345590621102231 
1.729999999999826, -0.7321289082924586 
1.7399999999998248, -0.7302224869615164 
1.7499999999998237, -0.7288009586904356 
1.7599999999998226, -0.727805710995373 
1.7699999999998215, -0.727165730856164 
1.7799999999998204, -0.7268049804347195 
1.7899999999998193, -0.7266495005330058 
1.7999999999998182, -0.7266330471435716 
1.809999999999817, -0.7267003248692411 
1.819999999999816, -0.7268078323072256 
1.8299999999998149, -0.7269231991738347 
1.8399999999998138, -0.7270241334088704 
1.8499999999998127, -0.7270975775046955 
1.8599999999998116, -0.727138667078669 
1.8699999999998105, -0.727148338058209 
1.8799999999998094, -0.7271289189519025 
1.8899999999998083, -0.7270789123450656 
1.8999999999998072, -0.7269898735777425 
1.909999999999806, -0.7268477816845984 
1.919999999999805, -0.7266384254002269 
1.9299999999998039, -0.7263535461501106 
1.9399999999998028, -0.725994476656336 
1.9499999999998017, -0.7255726386169558 
1.9599999999998006, -0.7251087765969597 
1.9699999999997995, -0.7246332554379775 
1.9799999999997984, -0.7241885924170779 
1.9899999999997973, -0.7238339379805067 
1.9999999999997962, -0.7236500860907483 
2.0099999999998173, -0.7237428502640321 
2.0199999999998384, -0.7242424013372706 
2.0299999999998595, -0.7252966327045953 
2.0399999999998806, -0.7270575835487307 
2.0499999999999017, -0.7296605104623054 
2.059999999999923, -0.7331945713423335 
2.069999999999944, -0.7376634690230983 
2.079999999999965, -0.742938501112361 
2.089999999999986, -0.7487213191797942 
2.100000000000007, -0.7545553170153299 
2.1100000000000283, -0.7599231160197341 
2.1200000000000494, -0.7644082333297535 
2.1300000000000705, -0.7678213067587333 
2.1400000000000916, -0.770205126166537 
2.1500000000001127, -0.7717403625182687 
2.160000000000134, -0.7726389876528431 
2.170000000000155, -0.7730804433422644 
2.180000000000176, -0.7731912283044997 
2.190000000000197, -0.7730471589636391 
2.2000000000002182, -0.7726815688653065 
2.2100000000002393, -0.7720915850742361 
2.2200000000002604, -0.7712402718934983 
2.2300000000002815, -0.7700551229945687 
2.2400000000003026, -0.7684250921640395 
2.2500000000003237, -0.7662004311256515 
2.260000000000345, -0.7632023051198185 
2.270000000000366, -0.7592519384929115 
2.280000000000387, -0.7542327541404861 
2.290000000000408, -0.7482036295213823 
2.3000000000004293, -0.7415550046816922 
2.3100000000004504, -0.7350750469775373 
2.3200000000004715, -0.7297024162160939 
2.3300000000004926, -0.7260406922981446 
2.3400000000005137, -0.7240932831223621 
2.3500000000005348, -0.7234293765074737 
2.360000000000556, -0.723514555004294 
2.370000000000577, -0.723924538109481 
2.380000000000598, -0.7243973459654266 
2.390000000000619, -0.7248001375727302 
2.4000000000006403, -0.7250780664349755 
2.4100000000006614, -0.7252136402124061 
2.4200000000006825, -0.725200927609182 
2.4300000000007036, -0.7250306459335725 
2.4400000000007247, -0.7246816309547478 
2.450000000000746, -0.7241162983504054 
2.460000000000767, -0.7232805722194295 
2.470000000000788, -0.7221115080814697 
2.480000000000809, -0.7205563301196338 
2.49000000000083, -0.7186010240719383 
2.5000000000008513, -0.7162949090347552 
2.5100000000008724, -0.7137514156407663 
2.5200000000008935, -0.7111189359896626 
2.5300000000009146, -0.7085396975726386 
2.5400000000009357, -0.7061214617859533 
2.550000000000957, -0.7039313186176326 
2.560000000000978, -0.702004257086366 
2.570000000000999, -0.7003552733004994 
2.58000000000102, -0.6989883405961691 
2.5900000000010412, -0.6979007503188964 
2.6000000000010624, -0.6970840859427954 
2.6100000000010835, -0.6965237973121389 
2.6200000000011046, -0.6961990066054237 
2.6300000000011257, -0.6960834390350275 
2.6400000000011468, -0.6961475737940083 
2.650000000001168, -0.696361511944466 
2.660000000001189, -0.6966978220893137 
2.67000000000121, -0.697133712801814 
2.680000000001231, -0.6976520509686506 
2.6900000000012523, -0.698240751790598 
2.7000000000012734, -0.6988899661240908 
2.7100000000012945, -0.6995868015018396 
2.7200000000013156, -0.7003086640208529 
2.7300000000013367, -0.7010184965320541 
2.740000000001358, -0.7016663674553214 
2.750000000001379, -0.7021994138015866 
2.7600000000014, -0.7025761201533375 
2.770000000001421, -0.7027765843875408 
2.780000000001442, -0.70280322008753 
2.7900000000014633, -0.7026737307831874 
2.8000000000014844, -0.702412545433807 
2.8100000000015055, -0.7020457228645118 
2.8200000000015266, -0.7016012501128255 
2.8300000000015477, -0.7011150311579687 
2.840000000001569, -0.70064298648898 
2.85000000000159, -0.700280291939279 
2.860000000001611, -0.7001884030671376 
2.870000000001632, -0.7006275120863619 
2.8800000000016532, -0.7019844603443472 
2.8900000000016743, -0.704772168329924 
2.9000000000016954, -0.7095584372061488 
2.9100000000017165, -0.7167754954848656 
2.9200000000017377, -0.7264107460416194 
2.9300000000017588, -0.7377297727370614 
2.94000000000178, -0.7493393562150588 
2.950000000001801, -0.7597383167423171 
2.960000000001822, -0.7679818169263828 
2.970000000001843, -0.7739061393637822 
2.9800000000018643, -0.7778703458037001 
2.9900000000018854, -0.7803902733974297 
3.0000000000019065, -0.7819206056325629 
3.0100000000019276, -0.7827905010510147 
3.0200000000019487, -0.7832136473604693 
3.03000000000197, -0.7833164914330133 
3.040000000001991, -0.7831618498522487 
3.050000000002012, -0.7827621946856896 
3.060000000002033, -0.7820822422810281 
3.070000000002054, -0.7810310770037255 
3.0800000000020753, -0.7794441637018241 
3.0900000000020964, -0.7770589126599952 
3.1000000000021175, -0.7734994384977808 
3.1100000000021386, -0.7683114018078961 
3.1200000000021597, -0.7611108837159104 
3.130000000002181, -0.7518661732761152 
3.140000000002202, -0.7411575733049878 
3.150000000002223, -0.7301216439169518 
3.160000000002244, -0.720007976385164 
3.1700000000022652, -0.7116870835408582 
3.1800000000022863, -0.7054604879419473 
3.1900000000023074, -0.7011764649847021 
3.2000000000023285, -0.698452302710822 
3.2100000000023496, -0.6968555698746015 
3.2200000000023707, -0.6960050896744951 
3.230000000002392, -0.6956078050152018 
3.240000000002413, -0.6954583035943728 
3.250000000002434, -0.6954218333659989 
3.260000000002455, -0.6954134370237377 
3.2700000000024763, -0.6953794651676298 
3.2800000000024974, -0.6952837922366434 
3.2900000000025185, -0.6950991915012039 
3.3000000000025396, -0.6948037723767138 
3.3100000000025607, -0.6943821286621603 
3.3200000000025818, -0.6938298439171021 
3.330000000002603, -0.693158038889088 
3.340000000002624, -0.6923934704009997 
3.350000000002645, -0.6915719342181457 
3.360000000002666, -0.6907278421141563 
3.3700000000026873, -0.6898860257898127 
3.3800000000027084, -0.6890598262323929 
3.3900000000027295, -0.6882548823736102 
3.4000000000027506, -0.6874751650302867 
3.4100000000027717, -0.6867281355073123 
3.420000000002793, -0.6860278606012329 
3.430000000002814, -0.685396445990178 
3.440000000002835, -0.6848644796093005 
3.450000000002856, -0.6844707617016017 
3.460000000002877, -0.6842611910635242 
3.4700000000028983, -0.6842866653779003 
3.4800000000029194, -0.6846001802918237 
3.4900000000029405, -0.685253647320166 
3.5000000000029616, -0.6862949058298803 
3.5100000000029827, -0.6877647453262415 
3.520000000003004, -0.6896925591316967 
3.530000000003025, -0.6920880158756351 
3.540000000003046, -0.6949260014140621 
3.550000000003067, -0.6981251252497083 
3.5600000000030882, -0.7015283784925648 
3.5700000000031094, -0.7049053779239508 
3.5800000000031305, -0.7079952016672195 
3.5900000000031516, -0.7105818020051753 
3.6000000000031727, -0.7125574189840541 
3.6100000000031938, -0.713931665874246 
3.620000000003215, -0.7147904869401425 
3.630000000003236, -0.7152430488453185 
3.640000000003257, -0.7153854959837683 
3.650000000003278, -0.7152858862381752 
3.6600000000032993, -0.7149819616632119 
3.6700000000033204, -0.7144833294936788 
3.6800000000033415, -0.7137734694326144 
3.6900000000033626, -0.7128101015497323 
3.7000000000033837, -0.71152423394181 
3.710000000003405, -0.7098191118439299 
3.720000000003426, -0.7075702828693025 
3.730000000003447, -0.7046269335829292 
3.740000000003468, -0.7008165687320209 
3.750000000003489, -0.6959751740227219 
3.7600000000035103, -0.690066394097666 
3.7700000000035314, -0.6834138695012903 
3.7800000000035525, -0.6768224772315892 
3.7900000000035736, -0.6712658012071301 
3.8000000000035947, -0.6673377512092782 
3.810000000003616, -0.6650337555425965 
3.820000000003637, -0.6639626619782147 
3.830000000003658, -0.663654132988308 
3.840000000003679, -0.663732678087875 
3.8500000000037002, -0.6639557061849517 
3.8600000000037213, -0.6641873698708006 
3.8700000000037424, -0.6643594991518784 
3.8800000000037635, -0.66443987319119 
3.8900000000037847, -0.664411182683572 
3.9000000000038058, -0.6642584274632032 
3.910000000003827, -0.6639621254443406 
3.920000000003848, -0.6634961360481223 
3.930000000003869, -0.6628305464206623 
3.94000000000389, -0.6619406296791397 
3.9500000000039113, -0.6608207106529063 
3.9600000000039324, -0.6594966967837849 
3.9700000000039535, -0.6580276652252197 
3.9800000000039746, -0.6564920717963306 
3.9900000000039957, -0.6549658746194134 
4.000000000004016, -0.6535057434063216 
4.010000000003993, -0.6521445868199555 
4.02000000000397, -0.650897097612107 
4.030000000003946, -0.6497688733282536 
4.040000000003923, -0.6487641902635286 
4.0500000000039, -0.6478906438381159 
4.0600000000038765, -0.6471609473592164 
4.070000000003853, -0.6465928293616668 
4.08000000000383, -0.646207859405336 
4.090000000003807, -0.6460298054677642 
4.100000000003783, -0.6460830177134086 
4.11000000000376, -0.646391268692509 
4.120000000003737, -0.6469772984537847 
4.130000000003713, -0.6478629134444073 
4.14000000000369, -0.6490688578895494 
4.150000000003667, -0.6506128797674651 
4.1600000000036434, -0.6525036825570687 
4.17000000000362, -0.654728504081347 
4.180000000003597, -0.6572344545948157 
4.1900000000035735, -0.6599102243712532 
4.20000000000355, -0.6625835981550676 
4.210000000003527, -0.6650509767621606 
4.220000000003504, -0.6671351909105521 
4.23000000000348, -0.6687383875639521 
4.240000000003457, -0.669854919184681 
4.250000000003434, -0.6705433475930727 
4.26000000000341, -0.6708853101035291 
4.270000000003387, -0.6709551106006497 
4.280000000003364, -0.6708054178570747 
4.2900000000033405, -0.6704634706377571 
4.300000000003317, -0.6699310613130944 
4.310000000003294, -0.6691840543563053 
4.320000000003271, -0.6681693083728375 
4.330000000003247, -0.666797730222021 
4.340000000003224, -0.6649320641336532 
4.350000000003201, -0.6623678373134394 
4.360000000003177, -0.6588097980993479 
4.370000000003154, -0.6538675199826626 
4.380000000003131, -0.6471478560078794 
4.390000000003107, -0.638550266490002 
4.400000000003084, -0.628666572437066 
4.410000000003061, -0.6187993130371535 
4.4200000000030375, -0.6103252112418234 
4.430000000003014, -0.6039899057597282 
4.440000000002991, -0.5997815823022632 
4.450000000002968, -0.5972562997997426 
4.460000000002944, -0.5958821793710988 
4.470000000002921, -0.5952166100646965 
4.480000000002898, -0.5949484321140057 
4.490000000002874, -0.5948792093989483 
4.500000000002851, -0.5948898384799188 
4.510000000002828, -0.5949110376787203 
4.520000000002804, -0.5949021001719728 
4.530000000002781, -0.5948372126426273 
4.540000000002758, -0.594697679405058 
4.5500000000027345, -0.5944688347875222 
4.560000000002711, -0.5941409105756834 
4.570000000002688, -0.5937128011922918 
4.580000000002665, -0.5931962646019135 
4.590000000002641, -0.5926167404141545 
4.600000000002618, -0.5920080211679125 
4.610000000002595, -0.5914021706568863 
4.620000000002571, -0.590820009061771 
4.630000000002548, -0.5902672418125292 
4.640000000002525, -0.589737383815321 
4.6500000000025015, -0.5892187457366095 
4.660000000002478, -0.5887014995099594 
4.670000000002455, -0.5881822536227684 
4.6800000000024315, -0.5876660039996542 
4.690000000002408, -0.5871669642048624 
4.700000000002385, -0.5867099942186291 
4.710000000002362, -0.5863337438914955 
4.720000000002338, -0.5860959848658723 
4.730000000002315, -0.5860812002340249 
4.740000000002292, -0.5864101778941179 
4.750000000002268, -0.587250740610528 
4.760000000002245, -0.588827227939619 
4.770000000002222, -0.5914228427459954 
4.7800000000021985, -0.5953620532690156 
4.790000000002175, -0.6009501537237163 
4.800000000002152, -0.6083429647033471 
4.810000000002129, -0.6173506893379437 
4.820000000002105, -0.6272799098050352 
4.830000000002082, -0.637022828723296 
4.840000000002059, -0.6454821053395181 
4.850000000002035, -0.652041470491709 
4.860000000002012, -0.6566839718789111 
4.870000000001989, -0.6597594869282967 
4.880000000001965, -0.6617006500831543 
4.890000000001942, -0.6628685537569807 
4.900000000001919, -0.6635162297717675 
4.9100000000018955, -0.6638035808084681 
4.920000000001872, -0.6638215649265304 
