t, s[1].omega / s[0].omega 
0, -1.1199979121815191 
0.009999999999999995, -1.119667336144071 
0.019999999999999934, -1.1190969235830912 
0.029999999999999874, -1.118301394339163 
0.04000000000000012, -1.117329688146947 
0.050000000000000405, -1.1162761653585733 
0.06000000000000069, -1.1152697887598 
0.07000000000000098, -1.114445882464489 
0.08000000000000126, -1.1139155384414017 
0.09000000000000155, -1.1137159533491128 
0.10000000000000184, -1.113756307111879 
0.11000000000000212, -1.1138485673813179 
0.12000000000000241, -1.1137995401192446 
0.130000000000002, -1.113455445602355 
0.1400000000000009, -1.1127042787571708 
0.1499999999999998, -1.111490903888154 
0.1599999999999987, -1.109832053150412 
0.1699999999999976, -1.1077932230802436 
0.1799999999999965, -1.1054513733596578 
0.1899999999999954, -1.1028931160188171 
0.1999999999999943, -1.100253054985018 
0.2099999999999932, -1.0977646637431882 
0.2199999999999921, -1.0957632536682478 
0.229999999999991, -1.094530980061006 
0.2399999999999899, -1.094043122196777 
0.2499999999999888, -1.0939656532306734 
0.2599999999999877, -1.0939221363021192 
0.2699999999999866, -1.0936378900539163 
0.2799999999999855, -1.09287623853761 
0.2899999999999844, -1.091347524142661 
0.2999999999999833, -1.0887271209861764 
0.3099999999999822, -1.0848125331571588 
0.3199999999999811, -1.0796702705846304 
0.32999999999998, -1.073593837392307 
0.3399999999999789, -1.0669856994276754 
0.3499999999999778, -1.0603803348888654 
0.35999999999997667, -1.0545542516845297 
0.36999999999997557, -1.0503760543800482 
0.37999999999997447, -1.0482072106553493 
0.38999999999997337, -1.0475429607846185 
0.39999999999997227, -1.0475250093842288 
0.40999999999997117, -1.0475465060184743 
0.41999999999997006, -1.047294500646995 
0.42999999999996896, -1.046521295548362 
0.43999999999996786, -1.0448389635797675 
0.44999999999996676, -1.041619336989174 
0.45999999999996566, -1.0361399278184356 
0.46999999999996456, -1.02806219410277 
0.47999999999996346, -1.0178169337902516 
0.48999999999996235, -1.006422211046817 
0.49999999999996125, -0.9951177545656298 
0.5099999999999602, -0.9852465160057671 
0.519999999999959, -0.9780414168508551 
0.529999999999958, -0.9739870214905687 
0.5399999999999568, -0.9724269891527062 
0.5499999999999557, -0.9721556280592772 
0.5599999999999546, -0.9722444786686457 
0.5699999999999535, -0.9722295297727412 
0.5799999999999524, -0.9718824423408946 
0.5899999999999513, -0.9709752447822628 
0.5999999999999502, -0.9691434525618773 
0.6099999999999491, -0.9658910190481409 
0.619999999999948, -0.9608414834530231 
0.6299999999999469, -0.9541156925650185 
0.6399999999999458, -0.9463604302064944 
0.6499999999999447, -0.9383686378031102 
0.6599999999999436, -0.9308133075092866 
0.6699999999999425, -0.9242658064381144 
0.6799999999999414, -0.919227584437857 
0.6899999999999403, -0.9159735785602547 
0.6999999999999392, -0.9143401909485221 
0.7099999999999381, -0.9137850037710967 
0.719999999999937, -0.913712762675314 
0.7299999999999359, -0.9137084987534023 
0.7399999999999348, -0.9135329090247039 
0.7499999999999337, -0.9130188590506824 
0.7599999999999326, -0.9120039804044502 
0.7699999999999315, -0.9103546953332439 
0.7799999999999304, -0.9080646536366165 
0.7899999999999293, -0.9053047657176991 
0.7999999999999282, -0.9023298267234784 
0.8099999999999271, -0.8993497377765544 
0.819999999999926, -0.8964984981347344 
0.8299999999999249, -0.8938787894412935 
0.8399999999999238, -0.8916043955048605 
0.8499999999999227, -0.889801822095911 
0.8599999999999216, -0.8885668149887308 
0.8699999999999205, -0.8878996954086159 
0.8799999999999194, -0.8876775958070439 
0.8899999999999183, -0.88770241532945 
0.8999999999999172, -0.8877804951966108 
0.9099999999999161, -0.8877668787311979 
0.919999999999915, -0.8875707228962871 
0.9299999999999139, -0.887156366352769 
0.9399999999999128, -0.8865463445592006 
0.9499999999999117, -0.8858009692212616 
0.9599999999999106, -0.8849751080418014 
0.9699999999999095, -0.884093217773533 
0.9799999999999084, -0.8831640227522872 
0.9899999999999073, -0.8822125357390426 
0.9999999999999062, -0.8812998613304158 
1.0099999999999052, -0.8805195447740102 
1.019999999999904, -0.879972419303724 
1.029999999999903, -0.879731522479614 
1.039999999999902, -0.8798160619950717 
1.0499999999999008, -0.8801862619524992 
1.0599999999998997, -0.8807591419243593 
1.0699999999998986, -0.8814389260951835 
1.0799999999998975, -0.8821480737337283 
1.0899999999998964, -0.88284265665885 
1.0999999999998953, -0.8835032957072426 
1.1099999999998942, -0.8841053703418263 
1.119999999999893, -0.8845922453449151 
1.129999999999892, -0.8848850707285247 
1.1399999999998909, -0.8849292908433478 
1.1499999999998898, -0.8847311527282978 
1.1599999999998887, -0.8843575280603022 
1.1699999999998876, -0.8839277987014453 
1.1799999999998865, -0.8836206298141928 
1.1899999999998854, -0.8836676264914576 
1.1999999999998843, -0.8842910313701117 
1.2099999999998832, -0.885608009672078 
1.219999999999882, -0.8875907713748943 
1.229999999999881, -0.8901162521377539 
1.2399999999998799, -0.8930409734368163 
1.2499999999998788, -0.8962332021583729 
1.2599999999998777, -0.8995440684012742 
1.2699999999998766, -0.9027442359264091 
1.2799999999998755, -0.9055101063826406 
1.2899999999998744, -0.907548011709282 
1.2999999999998733, -0.9087676305646748 
1.3099999999998722, -0.9092923716650013 
1.319999999999871, -0.9093223808369727 
1.32999999999987, -0.9090382943312784 
1.3399999999998689, -0.908622562553623 
1.3499999999998678, -0.9083763020095819 
1.3599999999998666, -0.9088665632604944 
1.3699999999998655, -0.9109229509654504 
1.3799999999998644, -0.9152912944528488 
1.3899999999998633, -0.9221677433467552 
1.3999999999998622, -0.9311158997629182 
1.4099999999998611, -0.9413337896772763 
1.41999999999986, -0.9518205476314846 
1.429999999999859, -0.9613770572400259 
1.4399999999998578, -0.9688513856640368 
1.4499999999998567, -0.9737397150397543 
1.4599999999998556, -0.976408404990026 
1.4699999999998545, -0.9776007393762485 
1.4799999999998534, -0.9779270531551714 
1.4899999999998523, -0.9777431282527002 
1.4999999999998512, -0.9772571952675871 
1.5099999999998501, -0.9767388143041985 
1.519999999999849, -0.9768496389592445 
1.529999999999848, -0.9789396894904244 
1.5399999999998468, -0.9846563118749728 
1.5499999999998457, -0.9946590490914169 
1.5599999999998446, -1.0079176667511573 
1.5699999999998435, -1.022447154731083 
1.5799999999998424, -1.0362097492621853 
1.5899999999998413, -1.0475026655219732 
1.5999999999998402, -1.0553706871967135 
1.6099999999998391, -1.0599763978003256 
1.619999999999838, -1.0622480955462983 
1.629999999999837, -1.0631376720666814 
1.6399999999998358, -1.0632626507723906 
1.6499999999998347, -1.062957220240826 
1.6599999999998336, -1.0624737217889606 
1.6699999999998325, -1.0622504890230824 
1.6799999999998314, -1.063115920870123 
1.6899999999998303, -1.0659738595061696 
1.6999999999998292, -1.0709730533707562 
1.709999999999828, -1.0773286714905523 
1.719999999999827, -1.084036592271312 
1.729999999999826, -1.0903668677179834 
1.7399999999998248, -1.0958350815554838 
1.7499999999998237, -1.100089370931552 
1.7599999999998226, -1.1029650310046701 
1.7699999999998215, -1.1045801644135058 
1.7799999999998204, -1.1052530504350657 
1.7899999999998193, -1.105315183757594 
1.7999999999998182, -1.1050273107524975 
1.809999999999817, -1.104636989493673 
1.819999999999816, -1.1044778542494085 
1.8299999999998149, -1.1049281973210274 
1.8399999999998138, -1.1061559674154267 
1.8499999999998127, -1.1079798739813842 
1.8599999999998116, -1.11006397122097 
1.8699999999998105, -1.1121365964762584 
1.8799999999998094, -1.114035805018667 
1.8899999999998083, -1.1156686303351238 
1.8999999999998072, -1.1169655664267177 
1.909999999999806, -1.1178618417724675 
1.919999999999805, -1.118319035435903 
1.9299999999998039, -1.1183587149967256 
1.9399999999998028, -1.1180654287205107 
1.9499999999998017, -1.1175706871889584 
1.9599999999998006, -1.1170480932755573 
1.9699999999997995, -1.116689171199433 
1.9799999999997984, -1.1166245520427391 
1.9899999999997973, -1.1168651649178476 
1.9999999999997962, -1.1173304640272785 
2.0099999999998173, -1.117897030421098 
2.0199999999998384, -1.1184296880583886 
2.0299999999998595, -1.118815055999855 
2.0399999999998806, -1.1189841551684272 
2.0499999999999017, -1.1189109631662464 
2.059999999999923, -1.1185943174280126 
2.069999999999944, -1.118038926805028 
2.079999999999965, -1.117254171269385 
2.089999999999986, -1.1162719628452338 
2.100000000000007, -1.1151652668241503 
2.1100000000000283, -1.1140494447799865 
2.1200000000000494, -1.1130627968673426 
2.1300000000000705, -1.1123390234206127 
2.1400000000000916, -1.111962397515995 
2.1500000000001127, -1.1118962089858404 
2.160000000000134, -1.1119724672422715 
2.170000000000155, -1.1119819785012526 
2.180000000000176, -1.1117474224671815 
2.190000000000197, -1.1111309881390443 
2.2000000000002182, -1.110040312116887 
2.2100000000002393, -1.108455072575139 
2.2200000000002604, -1.1064270344614344 
2.2300000000002815, -1.104039769569634 
2.2400000000003026, -1.10138236656877 
2.2500000000003237, -1.0985722446252655 
2.260000000000345, -1.09581037094979 
2.270000000000366, -1.0934198487326614 
2.280000000000387, -1.0917577949902726 
2.290000000000408, -1.0909495476069377 
2.3000000000004293, -1.090742591970874 
2.3100000000004504, -1.0907252427619838 
2.3200000000004715, -1.0905711105043228 
2.3300000000004926, -1.0900385862371167 
2.3400000000005137, -1.088860041205425 
2.3500000000005348, -1.086695207548925 
2.360000000000556, -1.083235979724167 
2.370000000000577, -1.0784047887006332 
2.380000000000598, -1.0724203750030266 
2.390000000000619, -1.065676761638348 
2.4000000000006403, -1.0586756345451642 
2.4100000000006614, -1.0521212181968767 
2.4200000000006825, -1.0469283828405933 
2.4300000000007036, -1.0437776549153726 
2.4400000000007247, -1.0425103021671887 
2.450000000000746, -1.0422950605216237 
2.460000000000767, -1.0423550715549954 
2.470000000000788, -1.0422630291687387 
2.480000000000809, -1.0417731450748604 
2.49000000000083, -1.0405866863518178 
2.5000000000008513, -1.038194097678669 
2.5100000000008724, -1.0338820178013826 
2.5200000000008935, -1.0270697979121515 
2.5300000000009146, -1.0178231328659633 
2.5400000000009357, -1.0069418581012761 
2.550000000000957, -0.9955809037149113 
2.560000000000978, -0.9850029306652571 
2.570000000000999, -0.9764940854100665 
2.58000000000102, -0.9709582661662786 
2.5900000000010412, -0.9683021044024102 
2.6000000000010624, -0.9675155211140678 
2.6100000000010835, -0.967493543379698 
2.6200000000011046, -0.9675633362280349 
2.6300000000011257, -0.9674120817607154 
2.6400000000011468, -0.9668369042380435 
2.650000000001168, -0.9655630447288255 
2.660000000001189, -0.9631739344549212 
2.67000000000121, -0.959230680261093 
2.680000000001231, -0.9536077568788288 
2.6900000000012523, -0.9467138871911172 
2.7000000000012734, -0.9392657866711349 
2.7100000000012945, -0.9319354498223958 
2.7200000000013156, -0.9252648534398118 
2.7300000000013367, -0.9197378382996391 
2.740000000001358, -0.9157454199047962 
2.750000000001379, -0.9133877453470673 
2.7600000000014, -0.9123492932912228 
2.770000000001421, -0.9120744797413435 
2.780000000001442, -0.9120661868211357 
2.7900000000014633, -0.9120086947668131 
2.8000000000014844, -0.9117105255337219 
2.8100000000015055, -0.9110160038972542 
2.8200000000015266, -0.909780623372975 
2.8300000000015477, -0.9079336761520024 
2.840000000001569, -0.9055597899361982 
2.85000000000159, -0.902873107277005 
2.860000000001611, -0.9000942422708313 
2.870000000001632, -0.8973740720944345 
2.8800000000016532, -0.8948118627915291 
2.8900000000016743, -0.8925033516802706 
2.9000000000016954, -0.8905631376324904 
2.9100000000017165, -0.8891056605981513 
2.9200000000017377, -0.8881918873741043 
2.9300000000017588, -0.8877761773627483 
2.94000000000178, -0.8877075287575384 
2.950000000001801, -0.8877933425171021 
2.960000000001822, -0.8878659989499593 
2.970000000001843, -0.8878089961823357 
2.9800000000018643, -0.8875594099100225 
2.9900000000018854, -0.8871108573234285 
3.0000000000019065, -0.8865056317230166 
3.0100000000019276, -0.8857998550782769 
3.0200000000019487, -0.8850266536668528 
3.03000000000197, -0.8841936324925106 
3.040000000001991, -0.8833110120435377 
3.050000000002012, -0.8824198033648066 
3.060000000002033, -0.8816000762654626 
3.070000000002054, -0.8809561666696503 
3.0800000000020753, -0.8805839575169341 
3.0900000000020964, -0.8805363185175151 
3.1000000000021175, -0.8808059538989722 
3.1100000000021386, -0.8813314719397563 
3.1200000000021597, -0.882021567977458 
3.130000000002181, -0.8827872441825085 
3.140000000002202, -0.8835665540203433 
3.150000000002223, -0.8843281857346985 
3.160000000002244, -0.8850500450974451 
3.1700000000022652, -0.8856865267751749 
3.1800000000022863, -0.8861581767306654 
3.1900000000023074, -0.8863867068487181 
3.2000000000023285, -0.8863452181223206 
3.2100000000023496, -0.8860739242337861 
3.2200000000023707, -0.8856678640230564 
3.230000000002392, -0.885276317254421 
3.240000000002413, -0.8851133479539586 
3.250000000002434, -0.8854314707835931 
3.260000000002455, -0.8864312491604531 
3.2700000000024763, -0.8881711854922598 
3.2800000000024974, -0.8905679566910328 
3.2900000000025185, -0.8934725749172425 
3.3000000000025396, -0.8967358919714825 
3.3100000000025607, -0.9002116716707064 
3.3200000000025818, -0.9037014301521503 
3.330000000002603, -0.9069007917570949 
3.340000000002624, -0.9094581658593135 
3.350000000002645, -0.9111624675653178 
3.360000000002666, -0.9120541700841271 
3.3700000000026873, -0.9123285343151997 
3.3800000000027084, -0.9121901059528484 
3.3900000000027295, -0.9118138690739862 
3.4000000000027506, -0.9114219244392149 
3.4100000000027717, -0.9114358594286346 
3.420000000002793, -0.9125925548979874 
3.430000000002814, -0.9157831161296652 
3.440000000002835, -0.9215603117201949 
3.450000000002856, -0.9297843171456334 
3.460000000002877, -0.9397618399766148 
3.4700000000028983, -0.9505323208969515 
3.4800000000029194, -0.9609392209918151 
3.4900000000029405, -0.96971232096699 
3.5000000000029616, -0.9759548222102614 
3.5100000000029827, -0.9796583532541764 
3.520000000003004, -0.9814913771043583 
3.530000000003025, -0.9821837443424405 
3.540000000003046, -0.9822172124151228 
3.550000000003067, -0.9818542382951758 
3.5600000000030882, -0.9813040254803921 
3.5700000000031094, -0.9809940817325585 
3.5800000000031305, -0.9819290804318573 
3.5900000000031516, -0.9857077650126432 
3.6000000000031727, -0.9935672229822325 
3.6100000000031938, -1.0052085191475097 
3.620000000003215, -1.0189734343144592 
3.630000000003236, -1.032855200687152 
3.640000000003257, -1.045058676942314 
3.650000000003278, -1.0542858770374428 
3.6600000000032993, -1.0601722271230036 
3.6700000000033204, -1.0633331951625482 
3.6800000000033415, -1.0647411598895495 
3.6900000000033626, -1.0651565702006918 
3.7000000000033837, -1.0650171909008241 
3.710000000003405, -1.064583700840076 
3.720000000003426, -1.0641747962556698 
3.730000000003447, -1.0644249453026542 
3.740000000003468, -1.0662499163354708 
3.750000000003489, -1.0701764269096676 
3.7600000000035103, -1.0757776143428663 
3.7700000000035314, -1.0821005230378185 
3.7800000000035525, -1.0883316031339212 
3.7900000000035736, -1.0939402867593626 
3.8000000000035947, -1.0985495575318918 
3.810000000003616, -1.1019055194479193 
3.820000000003637, -1.103981906518825 
3.830000000003658, -1.1050018369518222 
3.840000000003679, -1.1052884930540776 
3.8500000000037002, -1.1051236821945247 
3.8600000000037213, -1.1047440031620328 
3.8700000000037424, -1.104432346918508 
3.8800000000037635, -1.1045570201733723 
3.8900000000037847, -1.1053991129177552 
3.9000000000038058, -1.1069220936361748 
3.910000000003827, -1.1088366161071126 
3.920000000003848, -1.1108420789142293 
3.930000000003869, -1.112739228283938 
3.94000000000389, -1.1144148826766591 
3.9500000000039113, -1.1157970758019609 
3.9600000000039324, -1.1168222987638938 
3.9700000000039535, -1.1174371976162178 
3.9800000000039746, -1.1176310384804462 
3.9900000000039957, -1.1174567012129124 
4.000000000004016, -1.1170213348635083 
4.010000000003993, -1.1164764725323288 
4.02000000000397, -1.116008532230708 
4.030000000003946, -1.1157831881874214 
4.040000000003923, -1.1158663096105361 
4.0500000000039, -1.1162154100782886 
4.0600000000038765, -1.116725745452029 
4.070000000003853, -1.1172644496488253 
4.08000000000383, -1.1177031112350493 
4.090000000003807, -1.1179499268780435 
4.100000000003783, -1.1179599529919304 
4.11000000000376, -1.1177237870269772 
4.120000000003737, -1.117246495827424 
4.130000000003713, -1.1165354237500862 
4.14000000000369, -1.1156097587770117 
4.150000000003667, -1.1145214483197756 
4.1600000000036434, -1.1133667558493094 
4.17000000000362, -1.1122766138811384 
4.180000000003597, -1.1113926612715983 
4.1900000000035735, -1.1108333796509966 
4.20000000000355, -1.1106269283113412 
4.210000000003527, -1.1106567485981014 
4.220000000003504, -1.1107162361694811 
4.23000000000348, -1.1106072898442931 
4.240000000003457, -1.1101726283795705 
4.250000000003434, -1.1092931834680666 
4.26000000000341, -1.1079092594689417 
4.270000000003387, -1.106041609297667 
4.280000000003364, -1.1037666703916573 
4.2900000000033405, -1.101174339391369 
4.300000000003317, -1.0983660009659157 
4.310000000003294, -1.0954991741225117 
4.320000000003271, -1.0928444523239653 
4.330000000003247, -1.0907730468264458 
4.340000000003224, -1.0895576411512327 
4.350000000003201, -1.0891124665550922 
4.360000000003177, -1.0890541180259175 
4.370000000003154, -1.0889981284454848 
4.380000000003131, -1.0886745232303618 
4.390000000003107, -1.0878405852669133 
4.400000000003084, -1.0861865081364481 
4.410000000003061, -1.083362886551012 
4.4200000000030375, -1.079157500865421 
4.430000000003014, -1.073655617077895 
4.440000000002991, -1.0671903649532415 
4.450000000002968, -1.0602135198216194 
4.460000000002944, -1.0533185994865075 
4.470000000002921, -1.0473394906978353 
4.480000000002898, -1.0431515622989045 
4.490000000002874, -1.041043020679018 
4.500000000002851, -1.040427610149975 
4.510000000002828, -1.0404258822710382 
4.520000000002804, -1.0404441680377767 
4.530000000002781, -1.0401800441745677 
4.540000000002758, -1.039387521280808 
4.5500000000027345, -1.0376775221963999 
4.560000000002711, -1.0344287291264938 
4.570000000002688, -1.0289492286535318 
4.580000000002665, -1.0209548893084468 
4.590000000002641, -1.0109181507631844 
4.600000000002618, -0.9998500088883987 
4.610000000002595, -0.9889336956657043 
4.620000000002571, -0.9794202100619801 
4.630000000002548, -0.9724494069832377 
4.640000000002525, -0.9684786269212344 
4.6500000000025015, -0.96691050254057 
4.660000000002478, -0.9666120543753257 
4.670000000002455, -0.9666862137375116 
4.6800000000024315, -0.9666715390232596 
4.690000000002408, -0.9663383425614583 
4.700000000002385, -0.9654660162010481 
4.710000000002362, -0.9637155577424642 
4.720000000002338, -0.9606433473467444 
4.730000000002315, -0.9559394388670087 
4.740000000002292, -0.9497528347259621 
4.750000000002268, -0.9426814913550681 
4.760000000002245, -0.9354219902637946 
4.770000000002222, -0.9285479388391641 
4.7800000000021985, -0.9225429823478293 
4.790000000002175, -0.9178466187541902 
4.800000000002152, -0.914732225908753 
4.810000000002129, -0.9131067306530128 
4.820000000002105, -0.9125181843693694 
4.830000000002082, -0.9124235505591558 
4.840000000002059, -0.9124196734062551 
4.850000000002035, -0.9122654332565491 
4.860000000002012, -0.911796121966967 
4.870000000001989, -0.9108614049075395 
4.880000000001965, -0.9093456353151405 
4.890000000001942, -0.9072525147125792 
4.900000000001919, -0.9047415964965312 
4.9100000000018955, -0.9020398776850108 
4.920000000001872, -0.8993298251101216 
4.930000000001849, -0.8967266531322594 
