t, s[1].omega / s[0].omega 
0, -0.5899977307015013 
0.009999999999999995, -0.5897788833572903 
0.019999999999999934, -0.5895693749493742 
0.029999999999999874, -0.5893523111007208 
0.04000000000000012, -0.5891077903941377 
0.050000000000000405, -0.5888202809064487 
0.06000000000000069, -0.5884828448870643 
0.07000000000000098, -0.5880977275367234 
0.08000000000000126, -0.5876752424974749 
0.09000000000000155, -0.5872334035360031 
0.10000000000000184, -0.5868000064966007 
0.11000000000000212, -0.5864181103538081 
0.12000000000000241, -0.5861556093236954 
0.130000000000002, -0.586119575021596 
0.1400000000000009, -0.5864756334019938 
0.1499999999999998, -0.5874707526464042 
0.1599999999999987, -0.5894524866788953 
0.1699999999999976, -0.5928658748324331 
0.1799999999999965, -0.5981895024570977 
0.1899999999999954, -0.6057579640471294 
0.1999999999999943, -0.615461305554635 
0.2099999999999932, -0.626481473126679 
0.2199999999999921, -0.6374095338038154 
0.229999999999991, -0.6468677398424114 
0.2399999999999899, -0.6541432871558737 
0.2499999999999888, -0.6592736380703439 
0.2599999999999877, -0.6626958656850953 
0.2699999999999866, -0.6649019003119435 
0.2799999999999855, -0.6662838006825375 
0.2899999999999844, -0.6671117643758508 
0.2999999999999833, -0.6675585417680338 
0.3099999999999822, -0.6677277292274655 
0.3199999999999811, -0.6676740031738111 
0.32999999999998, -0.6674145672275091 
0.3399999999999789, -0.6669336244435444 
0.3499999999999778, -0.6661821464528652 
0.35999999999997667, -0.6650764548992438 
0.36999999999997557, -0.6635024335384564 
0.37999999999997447, -0.6613365337611841 
0.38999999999997337, -0.6584933165078817 
0.39999999999997227, -0.6549905234465441 
0.40999999999997117, -0.6509905402706276 
0.41999999999997006, -0.6467724163769862 
0.42999999999996896, -0.6426415360600282 
0.43999999999996786, -0.6388398451867904 
0.44999999999996676, -0.6355075404878077 
0.45999999999996566, -0.6326944805140247 
0.46999999999996456, -0.6303917804151278 
0.47999999999996346, -0.6285606022225798 
0.48999999999996235, -0.6271505046188373 
0.49999999999996125, -0.6261087249031934 
0.5099999999999602, -0.6253841054688873 
0.519999999999959, -0.6249286807721698 
0.529999999999958, -0.6246986107904936 
0.5399999999999568, -0.624655096486886 
0.5499999999999557, -0.6247653266695669 
0.5599999999999546, -0.6250033018015757 
0.5699999999999535, -0.6253503746164009 
0.5799999999999524, -0.6257953205644808 
0.5899999999999513, -0.626333534241976 
0.5999999999999502, -0.6269645707520688 
0.6099999999999491, -0.6276871015562335 
0.619999999999948, -0.6284911265008577 
0.6299999999999469, -0.6293494382600493 
0.6399999999999458, -0.6302131147801547 
0.6499999999999447, -0.6310165229136486 
0.6599999999999436, -0.6316928138963794 
0.6699999999999425, -0.6321926177763821 
0.6799999999999414, -0.6324947902027158 
0.6899999999999403, -0.6326041420834684 
0.6999999999999392, -0.6325406509762426 
0.7099999999999381, -0.6323280733982142 
0.719999999999937, -0.6319867387513833 
0.7299999999999359, -0.6315312867365965 
0.7399999999999348, -0.6309725105875243 
0.7499999999999337, -0.6303229390191756 
0.7599999999999326, -0.6296069689054831 
0.7699999999999315, -0.6288770808370554 
0.7799999999999304, -0.6282363001183866 
0.7899999999999293, -0.6278602897607858 
0.7999999999999282, -0.6279958858086978 
0.8099999999999271, -0.628890714822624 
0.819999999999926, -0.6306206659512695 
0.8299999999999249, -0.6329053158961877 
0.8399999999999238, -0.6351732776994972 
0.8499999999999227, -0.6369681842168029 
0.8599999999999216, -0.6382569126942816 
0.8699999999999205, -0.6392725325369699 
0.8799999999999194, -0.6402006392785764 
0.8899999999999183, -0.6410792899700607 
0.8999999999999172, -0.6418677420346562 
0.9099999999999161, -0.6425210562121789 
0.919999999999915, -0.6430174940485653 
0.9299999999999139, -0.6433558295598204 
0.9399999999999128, -0.6435443488915363 
0.9499999999999117, -0.643591229192871 
0.9599999999999106, -0.6434981648972797 
0.9699999999999095, -0.6432566014118948 
0.9799999999999084, -0.6428461167142354 
0.9899999999999073, -0.6422357200181331 
0.9999999999999062, -0.6413901214725402 
1.0099999999999052, -0.6402828255910075 
1.019999999999904, -0.6389140840096533 
1.029999999999903, -0.6373248026174212 
1.039999999999902, -0.63559458121865 
1.0499999999999008, -0.6338210900868962 
1.0599999999998997, -0.6320928297614552 
1.0699999999998986, -0.6304713577025844 
1.0799999999998975, -0.6289890314348792 
1.0899999999998964, -0.627657272077208 
1.0999999999998953, -0.626477411863725 
1.1099999999998942, -0.625449151780439 
1.119999999999893, -0.6245753225288897 
1.129999999999892, -0.6238636458998406 
1.1399999999998909, -0.6233266610461334 
1.1499999999998898, -0.6229807594585186 
1.1599999999998887, -0.6228449712379213 
1.1699999999998876, -0.622939951758726 
1.1799999999998865, -0.6232874673765868 
1.1899999999998854, -0.6239104470766809 
1.1999999999998843, -0.6248332641529337 
1.2099999999998832, -0.6260812941663798 
1.219999999999882, -0.6276779860450755 
1.229999999999881, -0.6296369420966573 
1.2399999999998799, -0.6319467329911119 
1.2499999999998788, -0.6345492857796605 
1.2599999999998777, -0.6373205205978477 
1.2699999999998766, -0.6400714495635375 
1.2799999999998755, -0.6425859704121124 
1.2899999999998744, -0.6446858596763082 
1.2999999999998733, -0.6462829370239238 
1.3099999999998722, -0.6473844666787929 
1.319999999999871, -0.6480584011640118 
1.32999999999987, -0.6483903815617015 
1.3399999999998689, -0.6484547297870378 
1.3499999999998678, -0.648301910322001 
1.3599999999998666, -0.6479554693839896 
1.3699999999998655, -0.6474114661473953 
1.3799999999998644, -0.6466360030469784 
1.3899999999998633, -0.6455581425147906 
1.3999999999998622, -0.6440558818150176 
1.4099999999998611, -0.6419330742538067 
1.41999999999986, -0.6388887028865862 
1.429999999999859, -0.6344960078472544 
1.4399999999998578, -0.6282509892749493 
1.4499999999998567, -0.6197955424735215 
1.4599999999998556, -0.60932924310265 
1.4699999999998545, -0.5978802989561771 
1.4799999999998534, -0.5869688631001971 
1.4899999999998523, -0.5778375413145794 
1.4999999999998512, -0.5709821400961294 
1.5099999999998501, -0.5662536760732488 
1.519999999999849, -0.5632011017966359 
1.529999999999848, -0.5613374254756301 
1.5399999999998468, -0.5602599115320475 
1.5499999999998457, -0.5596751874129333 
1.5599999999998446, -0.5593843144229766 
1.5699999999998435, -0.5592581482342117 
1.5799999999998424, -0.559214977317426 
1.5899999999998413, -0.5592036140674319 
1.5999999999998402, -0.559191863368077 
1.6099999999998391, -0.5591594892393994 
1.619999999999838, -0.5590948057081205 
1.629999999999837, -0.5589939989434374 
1.6399999999998358, -0.5588618332337505 
1.6499999999998347, -0.558711652745636 
1.6599999999998336, -0.5585624817318375 
1.6699999999998325, -0.5584325549435096 
1.6799999999998314, -0.558331354466681 
1.6899999999998303, -0.5582541195102142 
1.6999999999998292, -0.5581821173415362 
1.709999999999828, -0.5580889244976089 
1.719999999999827, -0.5579494402535798 
1.729999999999826, -0.5577469339711911 
1.7399999999998248, -0.5574753979674069 
1.7499999999998237, -0.5571379899319611 
1.7599999999998226, -0.5567443728228482 
1.7699999999998215, -0.5563095085712899 
1.7799999999998204, -0.5558553568033904 
1.7899999999998193, -0.5554163132758895 
1.7999999999998182, -0.5550493356965764 
1.809999999999817, -0.5548500502767706 
1.819999999999816, -0.5549757191545716 
1.8299999999998149, -0.5556727504588673 
1.8399999999998138, -0.5572963656934571 
1.8499999999998127, -0.5602877812475237 
1.8599999999998116, -0.5650447653259066 
1.8699999999998105, -0.5716354317537979 
1.8799999999998094, -0.5794734897419647 
1.8899999999998083, -0.5873498698773416 
1.8999999999998072, -0.5940614867083343 
1.909999999999806, -0.599084978501784 
1.919999999999805, -0.6025899749126652 
1.9299999999998039, -0.6050000876149866 
1.9399999999998028, -0.6066763462163077 
1.9499999999998017, -0.6078508820123573 
1.9599999999998006, -0.6086641895068806 
1.9699999999997995, -0.6092050129267663 
1.9799999999997984, -0.6095320138338371 
1.9899999999997973, -0.6096831865661411 
1.9999999999997962, -0.6096796612645096 
2.0099999999998173, -0.6095271911339096 
2.0199999999998384, -0.6092168583901884 
2.0299999999998595, -0.6087263859810107 
2.0399999999998806, -0.6080241809421206 
2.0499999999999017, -0.6070787789322407 
2.059999999999923, -0.6058747103357184 
2.069999999999944, -0.6044302141738365 
2.079999999999965, -0.6028055964123369 
2.089999999999986, -0.6010924946678575 
2.100000000000007, -0.5993877197242294 
2.1100000000000283, -0.5977678254832652 
2.1200000000000494, -0.596277841219784 
2.1300000000000705, -0.5949349151112688 
2.1400000000000916, -0.5937393032197553 
2.1500000000001127, -0.5926853530147507 
2.160000000000134, -0.5917690638926429 
2.170000000000155, -0.590992031250951 
2.180000000000176, -0.5903629234597743 
2.190000000000197, -0.5898976860639603 
2.2000000000002182, -0.5896192590096144 
2.2100000000002393, -0.5895572339624795 
2.2200000000002604, -0.589747690088698 
2.2300000000002815, -0.5902333286537544 
2.2400000000003026, -0.591063806353416 
2.2500000000003237, -0.5922956606760517 
2.260000000000345, -0.5939902586943644 
2.270000000000366, -0.59620673808427 
2.280000000000387, -0.5989854462366235 
2.290000000000408, -0.6023179382736823 
2.3000000000004293, -0.6061065638916829 
2.3100000000004504, -0.6101336946710432 
2.3200000000004715, -0.6140778944662661 
2.3300000000004926, -0.6175996751125259 
2.3400000000005137, -0.6204582332027743 
2.3500000000005348, -0.6225766182408902 
2.360000000000556, -0.624017502962398 
2.370000000000577, -0.624910462121474 
2.380000000000598, -0.6253885092717117 
2.390000000000619, -0.625555908216278 
2.4000000000006403, -0.6254795644224755 
2.4100000000006614, -0.6251901082835892 
2.4200000000006825, -0.6246833382093008 
2.4300000000007036, -0.6239172974184378 
2.4400000000007247, -0.6228024718821127 
2.450000000000746, -0.6211838882536063 
2.460000000000767, -0.6188177145253412 
2.470000000000788, -0.6153575322688798 
2.480000000000809, -0.6103923677804154 
2.49000000000083, -0.6036015611061006 
2.5000000000008513, -0.5950325947017842 
2.5100000000008724, -0.5853122283190865 
2.5200000000008935, -0.5755017191835733 
2.5300000000009146, -0.5666280068774586 
2.5400000000009357, -0.5592972222065706 
2.550000000000957, -0.5536438062154703 
2.560000000000978, -0.5494987729915592 
2.570000000000999, -0.546574323813554 
2.58000000000102, -0.5445777729435094 
2.5900000000010412, -0.5432598413762735 
2.6000000000010624, -0.542425728802473 
2.6100000000010835, -0.5419304060024321 
2.6200000000011046, -0.5416692506903102 
2.6300000000011257, -0.5415686701401807 
2.6400000000011468, -0.5415782833141953 
2.650000000001168, -0.5416650226297299 
2.660000000001189, -0.5418090921016729 
2.67000000000121, -0.5420014995739411 
2.680000000001231, -0.5422425578801493 
2.6900000000012523, -0.5425402471195641 
2.7000000000012734, -0.542906918148728 
2.7100000000012945, -0.5433531078390184 
2.7200000000013156, -0.5438787548822586 
2.7300000000013367, -0.5444646394712859 
2.740000000001358, -0.545069075119978 
2.750000000001379, -0.5456343042090657 
2.7600000000014, -0.5461018182988041 
2.770000000001421, -0.5464287440582549 
2.780000000001442, -0.5465959052991493 
2.7900000000014633, -0.5466047542569015 
2.8000000000014844, -0.5464679070362026 
2.8100000000015055, -0.5461996002411362 
2.8200000000015266, -0.5458092645919569 
2.8300000000015477, -0.5452981987714324 
2.840000000001569, -0.5446579727936864 
2.85000000000159, -0.5438690005999307 
2.860000000001611, -0.5428973869420812 
2.870000000001632, -0.5416864742012872 
2.8800000000016532, -0.5401355170936027 
2.8900000000016743, -0.5380533573468121 
2.9000000000016954, -0.5350845850040808 
2.9100000000017165, -0.5306700678506193 
2.9200000000017377, -0.5242313380560107 
2.9300000000017588, -0.5157144071362537 
2.94000000000178, -0.5060554232954385 
2.950000000001801, -0.4968072799775224 
2.960000000001822, -0.4891892807475341 
2.970000000001843, -0.48360071500425506 
2.9800000000018643, -0.47982419597396875 
2.9900000000018854, -0.4774146266266647 
3.0000000000019065, -0.47594266598345997 
3.0100000000019276, -0.47507843947038897 
3.0200000000019487, -0.4745939788004855 
3.03000000000197, -0.47434029807543077 
3.040000000001991, -0.47422306010149573 
3.050000000002012, -0.4741837389317317 
3.060000000002033, -0.4741867994663701 
3.070000000002054, -0.47421175320285636 
3.0800000000020753, -0.4742488579998807 
3.0900000000020964, -0.474297379357302 
3.1000000000021175, -0.4743652099079032 
3.1100000000021386, -0.4744682225184792 
3.1200000000021597, -0.4746274745174791 
3.130000000002181, -0.47486301483948035 
3.140000000002202, -0.4751848487746632 
3.150000000002223, -0.47558396513883555 
3.160000000002244, -0.47602806070344766 
3.1700000000022652, -0.4764661327563616 
3.1800000000022863, -0.47684190912023283 
3.1900000000023074, -0.4771097263325406 
3.2000000000023285, -0.47724403989711056 
3.2100000000023496, -0.47723869605319874 
3.2200000000023707, -0.4770991758239115 
3.230000000002392, -0.4768334283813906 
3.240000000002413, -0.4764445739693309 
3.250000000002434, -0.475925588287074 
3.260000000002455, -0.47525422202868006 
3.2700000000024763, -0.4743854548283887 
3.2800000000024974, -0.4732375765319438 
3.2900000000025185, -0.47166599614899524 
3.3000000000025396, -0.46941822566544167 
3.3100000000025607, -0.4660750428493062 
3.3200000000025818, -0.461033347437498 
3.330000000002603, -0.4536825812708435 
3.340000000002624, -0.44390239183390723 
3.350000000002645, -0.43255983204469184 
3.360000000002666, -0.4212752093933395 
3.3700000000026873, -0.4114925352481446 
3.3800000000027084, -0.40384807443715953 
3.3900000000027295, -0.398266723498931 
3.4000000000027506, -0.39435081368452607 
3.4100000000027717, -0.39166345876262193 
3.420000000002793, -0.3898446762423401 
3.430000000002814, -0.3886313678557595 
3.440000000002835, -0.3878423400737857 
3.450000000002856, -0.3873571998119515 
3.460000000002877, -0.3870986892195643 
3.4700000000028983, -0.3870201989655365 
3.4800000000029194, -0.38709781914591684 
3.4900000000029405, -0.3873258812238684 
3.5000000000029616, -0.3877150321629945 
3.5100000000029827, -0.3882918770541665 
3.520000000003004, -0.38909886270105937 
3.530000000003025, -0.390192207173971 
3.540000000003046, -0.3916343326046402 
3.550000000003067, -0.39347607013758734 
3.5600000000030882, -0.39572534636042855 
3.5700000000031094, -0.3983081967706613 
3.5800000000031305, -0.4010465475287221 
3.5900000000031516, -0.403687609795033 
3.6000000000031727, -0.40598897956612595 
3.6100000000031938, -0.40780485382697984 
3.620000000003215, -0.4091108323271662 
3.630000000003236, -0.40996631486645735 
3.640000000003257, -0.41046001466659626 
3.650000000003278, -0.41067253454322217 
3.6600000000032993, -0.41066046243463744 
3.6700000000033204, -0.4104529191226887 
3.6800000000033415, -0.4100521243389522 
3.6900000000033626, -0.40943398248216567 
3.7000000000033837, -0.4085487038519431 
3.710000000003405, -0.407325270647423 
3.720000000003426, -0.40568728473873666 
3.730000000003447, -0.40358749952948464 
3.740000000003468, -0.40105551330951483 
3.750000000003489, -0.39822795586698845 
3.7600000000035103, -0.39532333535291986 
3.7700000000035314, -0.39256556242795976 
3.7800000000035525, -0.39011081681890875 
3.7900000000035736, -0.3880231456905665 
3.8000000000035947, -0.38629430003505477 
3.810000000003616, -0.38487796944420705 
3.820000000003637, -0.38371751338563403 
3.830000000003658, -0.3827619969910293 
3.840000000003679, -0.38197320474434693 
3.8500000000037002, -0.38132771343082505 
3.8600000000037213, -0.38081721906671057 
3.8700000000037424, -0.3804492040939061 
3.8800000000037635, -0.38024929479340863 
3.8900000000037847, -0.3802663734051557 
3.9000000000038058, -0.38058157670993886 
3.910000000003827, -0.38132246920075763 
3.920000000003848, -0.3826832461635445 
3.930000000003869, -0.38494896960628294 
3.94000000000389, -0.38851214579962073 
3.9500000000039113, -0.3938457371966101 
3.9600000000039324, -0.4013569048795616 
3.9700000000039535, -0.4110416375070088 
3.9800000000039746, -0.4220519258234193 
3.9900000000039957, -0.4327028792655039 
4.000000000004016, -0.44134388822338855 
4.010000000003993, -0.44734670889246486 
4.02000000000397, -0.45111148203541385 
4.030000000003946, -0.45338418120810137 
4.040000000003923, -0.4547710702662474 
4.0500000000039, -0.45564226800886115 
4.0600000000038765, -0.4561988535111726 
4.070000000003853, -0.4565473596858802 
4.08000000000383, -0.4567451757015603 
4.090000000003807, -0.4568233861301091 
4.100000000003783, -0.4567976075074526 
4.11000000000376, -0.45667347893677135 
4.120000000003737, -0.45645043148785575 
4.130000000003713, -0.4561258253751559 
4.14000000000369, -0.45570049140718016 
4.150000000003667, -0.45518514648949643 
4.1600000000036434, -0.45460496782968657 
4.17000000000362, -0.4539984771836568 
4.180000000003597, -0.45340913747840456 
4.1900000000035735, -0.45287297426164413 
4.20000000000355, -0.4524085381293719 
4.210000000003527, -0.452013775239017 
4.220000000003504, -0.4516701757888327 
4.23000000000348, -0.4513513275552312 
4.240000000003457, -0.4510317882594899 
4.250000000003434, -0.4506929545758753 
4.26000000000341, -0.45032487278386285 
4.270000000003387, -0.4499252285592775 
4.280000000003364, -0.44949766190364837 
4.2900000000033405, -0.4490511322176939 
4.300000000003317, -0.4486012948559943 
4.310000000003294, -0.44817440023765 
4.320000000003271, -0.44781397819908336 
4.330000000003247, -0.4475896826023062 
4.340000000003224, -0.44760420074134605 
4.350000000003201, -0.4479842715900034 
4.360000000003177, -0.44882189615175105 
4.370000000003154, -0.4500152183614149 
4.380000000003131, -0.4510225498618544 
4.390000000003107, -0.4508050799217071 
4.400000000003084, -0.44842434840733747 
4.410000000003061, -0.4440086582486784 
4.4200000000030375, -0.4387968111073878 
4.430000000003014, -0.4340993881501622 
4.440000000002991, -0.430543408672455 
4.450000000002968, -0.42813705735685736 
4.460000000002944, -0.42662386030974214 
4.470000000002921, -0.42572132679462776 
4.480000000002898, -0.4252076595605524 
4.490000000002874, -0.42493085521406204 
4.500000000002851, -0.42479353311664114 
4.510000000002828, -0.42473565262118057 
4.520000000002804, -0.42472132832109366 
4.530000000002781, -0.4247302767958067 
4.540000000002758, -0.4247530257090533 
4.5500000000027345, -0.4247888936943392 
4.560000000002711, -0.4248457118782567 
4.570000000002688, -0.42493993705274197 
4.580000000002665, -0.4250953787132975 
4.590000000002641, -0.4253388180160956 
4.600000000002618, -0.4256918548442005 
4.610000000002595, -0.4261602897090797 
4.620000000002571, -0.4267247015541405 
4.630000000002548, -0.42733773772279565 
4.640000000002525, -0.427932712568977 
4.6500000000025015, -0.42844199989312726 
4.660000000002478, -0.42881568963862815 
4.670000000002455, -0.42902997395941167 
4.6800000000024315, -0.4290828957979863 
4.690000000002408, -0.4289832615788657 
4.700000000002385, -0.42873941025706674 
4.710000000002362, -0.4283505530401953 
4.720000000002338, -0.4277996891074851 
4.730000000002315, -0.42704534233044217 
4.740000000002292, -0.4260087370976847 
4.750000000002268, -0.42455310491495835 
4.760000000002245, -0.42245481659541423 
4.770000000002222, -0.4193794478595792 
4.7800000000021985, -0.41491024277018285 
4.790000000002175, -0.4087139716362075 
4.800000000002152, -0.4008604563443994 
4.810000000002129, -0.39204641280769126 
4.820000000002105, -0.383363717082175 
4.830000000002082, -0.3757395690165365 
4.840000000002059, -0.36959350927909684 
4.850000000002035, -0.3649017214263332 
4.860000000002012, -0.3614254240542264 
4.870000000001989, -0.35888545614353007 
4.880000000001965, -0.3570416471378999 
4.890000000001942, -0.3557125525830894 
4.900000000001919, -0.3547706521997479 
