t, s[1].omega / s[0].omega 
0, -1.0099983585959296 
0.009999999999999995, -1.0097497131781288 
0.019999999999999934, -1.0093296694232965 
0.029999999999999874, -1.008771248424534 
0.04000000000000012, -1.0081972584537982 
0.050000000000000405, -1.0077851543619896 
0.06000000000000069, -1.0076521670863872 
0.07000000000000098, -1.007775376247682 
0.08000000000000126, -1.0080023301537773 
0.09000000000000155, -1.0081577416874545 
0.10000000000000184, -1.0081467574042995 
0.11000000000000212, -1.0079597902938473 
0.12000000000000241, -1.0076080086076489 
0.130000000000002, -1.0070964094748494 
0.1400000000000009, -1.0064813830631694 
0.1499999999999998, -1.0059064975740013 
0.1599999999999987, -1.0055406113714713 
0.1699999999999976, -1.0054653033675949 
0.1799999999999965, -1.0056143967175142 
0.1899999999999954, -1.005810297280076 
0.1999999999999943, -1.005890921500598 
0.2099999999999932, -1.0057891388441114 
0.2199999999999921, -1.0055127591222568 
0.229999999999991, -1.005075974198781 
0.2399999999999899, -1.004494221748155 
0.2499999999999888, -1.0038476746576268 
0.2599999999999877, -1.0032947789950664 
0.2699999999999866, -1.0029888005515821 
0.2799999999999855, -1.0029735209354544 
0.2899999999999844, -1.0031407817746811 
0.2999999999999833, -1.0033005174325507 
0.3099999999999822, -1.0033121690806177 
0.3199999999999811, -1.0031353815318342 
0.32999999999998, -1.0027893917887571 
0.3399999999999789, -1.002288367636636 
0.3499999999999778, -1.0016602157951808 
0.35999999999997667, -1.0010082429193912 
0.36999999999997557, -1.0004991345393266 
0.37999999999997447, -1.000264646261078 
0.38999999999997337, -1.000308227835736 
0.39999999999997227, -1.000486103067898 
0.40999999999997117, -1.0006093752583651 
0.41999999999997006, -1.000563675763571 
0.42999999999996896, -1.0003321726951997 
0.43999999999996786, -0.9999384716416742 
0.44999999999996676, -0.9993952099801072 
0.45999999999996566, -0.9987452320146428 
0.46999999999996456, -0.9981132001216554 
0.47999999999996346, -0.9976671794996941 
0.48999999999996235, -0.9975120337588521 
0.49999999999996125, -0.9976104242737074 
0.5099999999999602, -0.9977939098725017 
0.519999999999959, -0.997885913890519 
0.529999999999958, -0.9977997263779107 
0.5399999999999568, -0.9975363686738152 
0.5499999999999557, -0.9971167403875801 
0.5599999999999546, -0.9965525597998701 
0.5699999999999535, -0.9959041709643172 
0.5799999999999524, -0.9953148619024134 
0.5899999999999513, -0.9949473849609299 
0.5999999999999502, -0.9948753167270413 
0.6099999999999491, -0.9950237305400276 
0.619999999999948, -0.9952119797149098 
0.6299999999999469, -0.9952831841410685 
0.6399999999999458, -0.9951770048467774 
0.6499999999999447, -0.9949044455048854 
0.6599999999999436, -0.9944781351797007 
0.6699999999999425, -0.9939117033981366 
0.6799999999999414, -0.993285303841604 
0.6899999999999403, -0.9927575213999665 
0.6999999999999392, -0.9924796708017175 
0.7099999999999381, -0.9924914286260985 
0.719999999999937, -0.9926866024384849 
0.7299999999999359, -0.9928834138647943 
0.7399999999999348, -0.9929485248439912 
0.7499999999999337, -0.9928439924516721 
0.7599999999999326, -0.9925817543102752 
0.7699999999999315, -0.9921634871029059 
0.7799999999999304, -0.9916093648890205 
0.7899999999999293, -0.9910211742291887 
0.7999999999999282, -0.9905692798193334 
0.8099999999999271, -0.9903883485029493 
0.819999999999926, -0.9904835807627576 
0.8299999999999249, -0.9907251871190942 
0.8399999999999238, -0.9909385599344503 
0.8499999999999227, -0.9910148063211739 
0.8599999999999216, -0.9909318567793426 
0.8699999999999205, -0.9906940175586129 
0.8799999999999194, -0.9902929291600007 
0.8899999999999183, -0.9897609924836488 
0.8999999999999172, -0.9892228778772838 
0.9099999999999161, -0.9888573336830431 
0.919999999999915, -0.9887781664670887 
0.9299999999999139, -0.9889570952486938 
0.9399999999999128, -0.9892480836162384 
0.9499999999999117, -0.9894891071225117 
0.9599999999999106, -0.9895940687341891 
0.9699999999999095, -0.9895483387101808 
0.9799999999999084, -0.9893422405392246 
0.9899999999999073, -0.9889618321387723 
0.9999999999999062, -0.9884576197972831 
1.0099999999999052, -0.9879778570903034 
1.019999999999904, -0.9877064578220706 
1.029999999999903, -0.9877328810261553 
1.039999999999902, -0.987997159828706 
1.0499999999999008, -0.9883431667683038 
1.0599999999998997, -0.9886244107141693 
1.0699999999998986, -0.9887736419010219 
1.0799999999998975, -0.9887744809166301 
1.0899999999998964, -0.9886004726522387 
1.0999999999998953, -0.9882394057745179 
1.1099999999998942, -0.9877651862994381 
1.119999999999893, -0.9873498406704263 
1.129999999999892, -0.9871791186163895 
1.1399999999998909, -0.9873148529538494 
1.1499999999998898, -0.9876674032082505 
1.1599999999998887, -0.9880754037664249 
1.1699999999998876, -0.9884088657873227 
1.1799999999998865, -0.9886134827461523 
1.1899999999998854, -0.9886626298231328 
1.1999999999998843, -0.9885146344565349 
1.2099999999998832, -0.9881680649386458 
1.219999999999882, -0.9877243295057015 
1.229999999999881, -0.9873788647641115 
1.2399999999998799, -0.9873151557335078 
1.2499999999998788, -0.9875638218306688 
1.2599999999998777, -0.9880076501225065 
1.2699999999998766, -0.9884839365232302 
1.2799999999998755, -0.9888785533954316 
1.2899999999998744, -0.9891428622055934 
1.2999999999998733, -0.9892337546799599 
1.3099999999998722, -0.9891004729346033 
1.319999999999871, -0.9887616622326112 
1.32999999999987, -0.9883487975002111 
1.3399999999998689, -0.98807954438543 
1.3499999999998678, -0.9881292793215678 
1.3599999999998666, -0.9884933022827818 
1.3699999999998655, -0.9890293938128645 
1.3799999999998644, -0.9895769579609205 
1.3899999999998633, -0.9900357580593232 
1.3999999999998622, -0.9903550870611272 
1.4099999999998611, -0.9904729509031562 
1.41999999999986, -0.9903396166322762 
1.429999999999859, -0.9900016564658304 
1.4399999999998578, -0.989621629322859 
1.4499999999998567, -0.9894367392939734 
1.4599999999998556, -0.9896056040040982 
1.4699999999998545, -0.9900840280333171 
1.4799999999998534, -0.9907085709820321 
1.4899999999998523, -0.99132414651397 
1.4999999999998512, -0.9918413869755213 
1.5099999999998501, -0.992200627592986 
1.519999999999849, -0.9923237352291306 
1.529999999999848, -0.9921743514403547 
1.5399999999998468, -0.9918319162283737 
1.5499999999998457, -0.9914898036532037 
1.5599999999998446, -0.9913992241620437 
1.5699999999998435, -0.9916899819568327 
1.5799999999998424, -0.9922755502314481 
1.5899999999998413, -0.992977081170425 
1.5999999999998402, -0.9936484764165707 
1.6099999999998391, -0.9942075524580967 
1.619999999999838, -0.9945813079717232 
1.629999999999837, -0.9946837341289543 
1.6399999999998358, -0.99450358389733 
1.6499999999998347, -0.9941546494539307 
1.6599999999998336, -0.9938596941541065 
1.6699999999998325, -0.9938736146008137 
1.6799999999998314, -0.9942828086089464 
1.6899999999998303, -0.9949592006125331 
1.6999999999998292, -0.9957166836812218 
1.709999999999828, -0.9964214313478424 
1.719999999999827, -0.9969947072453075 
1.729999999999826, -0.9973499243187016 
1.7399999999998248, -0.9974055864024584 
1.7499999999998237, -0.9971836450498046 
1.7599999999998226, -0.9968310544996651 
1.7699999999998215, -0.996596623619528 
1.7799999999998204, -0.9967220619908196 
1.7899999999998193, -0.997236615574058 
1.7999999999998182, -0.9979772195370916 
1.809999999999817, -0.9987602263991244 
1.819999999999816, -0.99946660026423 
1.8299999999998149, -1.0000181066326328 
1.8399999999998138, -1.000319213225856 
1.8499999999998127, -1.0003062069225348 
1.8599999999998116, -1.000037064038833 
1.8699999999998105, -0.9996896260724748 
1.8799999999998094, -0.9995312108666611 
1.8899999999998083, -0.9997673281906836 
1.8999999999998072, -1.000362883308327 
1.909999999999806, -1.0011323458454533 
1.919999999999805, -1.0019039612398875 
1.9299999999998039, -1.0025747103696916 
1.9399999999998028, -1.0030655769756085 
1.9499999999998017, -1.0032807415402811 
1.9599999999998006, -1.003184630882435 
1.9699999999997995, -1.0028696991810782 
1.9799999999997984, -1.0025421449531546 
1.9899999999997973, -1.0024729183462586 
1.9999999999997962, -1.002807149753803 
2.0099999999998173, -1.0034498620030932 
2.0199999999998384, -1.0042085062433506 
2.0299999999998595, -1.0049303576777275 
2.0399999999998806, -1.0055282476491685 
2.0499999999999017, -1.0059232511190017 
2.059999999999923, -1.0060294919806274 
2.069999999999944, -1.0058447214274726 
2.079999999999965, -1.005492640875286 
2.089999999999986, -1.005203489479701 
2.100000000000007, -1.0052284910513776 
2.1100000000000283, -1.0056363621320539 
2.1200000000000494, -1.0062881313163803 
2.1300000000000705, -1.006997717311355 
2.1400000000000916, -1.007635378184883 
2.1500000000001127, -1.0081286350113599 
2.160000000000134, -1.008401476498701 
2.170000000000155, -1.0083869159764176 
2.180000000000176, -1.0081165094500624 
2.190000000000197, -1.0077424920135891 
2.2000000000002182, -1.0075093846749996 
2.2100000000002393, -1.0076215008151226 
2.2200000000002604, -1.0080713239537131 
2.2300000000002815, -1.0086961177122082 
2.2400000000003026, -1.0093246711507855 
2.2500000000003237, -1.0098515479919385 
2.260000000000345, -1.0102173921646558 
2.270000000000366, -1.0103530288437819 
2.280000000000387, -1.0102162364267926 
2.290000000000408, -1.0098705576064535 
2.3000000000004293, -1.0094941400489916 
2.3100000000004504, -1.0093280560375366 
2.3200000000004715, -1.0095091498245516 
2.3300000000004926, -1.0099692170815748 
2.3400000000005137, -1.010537515547272 
2.3500000000005348, -1.0110617512582474 
2.360000000000556, -1.011460540601898 
2.370000000000577, -1.0116861115289688 
2.380000000000598, -1.0116801116925098 
2.390000000000619, -1.0114278518442708 
2.4000000000006403, -1.0110229749291446 
2.4100000000006614, -1.0106640186368228 
2.4200000000006825, -1.0105658279816432 
2.4300000000007036, -1.0107929477937865 
2.4400000000007247, -1.0112369130290062 
2.450000000000746, -1.0117270555886075 
2.460000000000767, -1.0121324385391257 
2.470000000000788, -1.0123944976812067 
2.480000000000809, -1.0124757260213586 
2.49000000000083, -1.0123319328630007 
2.5000000000008513, -1.0119768101258189 
2.5100000000008724, -1.0115324605155225 
2.5200000000008935, -1.0112067094851025 
2.5300000000009146, -1.0111688826948375 
2.5400000000009357, -1.0114212072512219 
2.550000000000957, -1.0118293706062442 
2.560000000000978, -1.0122267679926216 
2.570000000000999, -1.012506228312474 
2.58000000000102, -1.0126299058231154 
2.5900000000010412, -1.0125695109749964 
2.6000000000010624, -1.0122975508088967 
2.6100000000010835, -1.0118562837008394 
2.6200000000011046, -1.0113932615945709 
2.6300000000011257, -1.011110079028322 
2.6400000000011468, -1.0111223336065283 
2.650000000001168, -1.011384281601274 
2.660000000001189, -1.0117420690542902 
2.67000000000121, -1.0120378992104369 
2.680000000001231, -1.0121902935931688 
2.6900000000012523, -1.0121792360346595 
2.7000000000012734, -1.0119849000975603 
2.7100000000012945, -1.0115984783004268 
2.7200000000013156, -1.0110907116873054 
2.7300000000013367, -1.0106284652896134 
2.740000000001358, -1.010392302063128 
2.750000000001379, -1.0104465498566293 
2.7600000000014, -1.0107065285382786 
2.770000000001421, -1.0110028417708203 
2.780000000001442, -1.0111931771222105 
2.7900000000014633, -1.0112221803626726 
2.8000000000014844, -1.0110841911513586 
2.8100000000015055, -1.010767443090666 
2.8200000000015266, -1.010283570322386 
2.8300000000015477, -1.0097308875055333 
2.840000000001569, -1.0092864316828403 
2.85000000000159, -1.00910040889343 
2.860000000001611, -1.0091916015917477 
2.870000000001632, -1.0094394432445337 
2.8800000000016532, -1.0096662926290132 
2.8900000000016743, -1.0097518480860888 
2.9000000000016954, -1.0096654704208736 
2.9100000000017165, -1.009412000664236 
2.9200000000017377, -1.0089878027361217 
2.9300000000017588, -1.0084265530513135 
2.94000000000178, -1.0078516038568155 
2.950000000001801, -1.007440128436191 
2.960000000001822, -1.0073083131040808 
2.970000000001843, -1.0074320451173175 
2.9800000000018643, -1.007658025292125 
2.9900000000018854, -1.0078112129483492 
3.0000000000019065, -1.0077975603758875 
3.0100000000019276, -1.0076080738513669 
3.0200000000019487, -1.0072540610376084 
3.03000000000197, -1.0067407170705078 
3.040000000001991, -1.0061249713495513 
3.050000000002012, -1.0055507987751862 
3.060000000002033, -1.0051867309406377 
3.070000000002054, -1.005113403401968 
3.0800000000020753, -1.005263618929582 
3.0900000000020964, -1.0054595106859072 
3.1000000000021175, -1.0055396070536564 
3.1100000000021386, -1.0054375271571458 
3.1200000000021597, -1.0051613216545494 
3.130000000002181, -1.0047249237399867 
3.140000000002202, -1.004143793572138 
3.150000000002223, -1.0034985558963387 
3.160000000002244, -1.002947958055135 
3.1700000000022652, -1.0026448867527695 
3.1800000000022863, -1.0026322146707518 
3.1900000000023074, -1.0028012101012582 
3.2000000000023285, -1.0029621433816045 
3.2100000000023496, -1.0029752372002807 
3.2200000000023707, -1.002800705772106 
3.230000000002392, -1.0024575694076194 
3.240000000002413, -1.0019593901951416 
3.250000000002434, -1.0013340089494085 
3.260000000002455, -1.000685132401051 
3.2700000000024763, -1.0001796769627445 
3.2800000000024974, -0.999948933374381 
3.2900000000025185, -0.99999560483203 
3.3000000000025396, -1.000175977630021 
3.3100000000025607, -1.0003019056978741 
3.3200000000025818, -1.0002598043130007 
3.330000000002603, -1.0000330939329594 
3.340000000002624, -0.9996446607934184 
3.350000000002645, -0.9991063126916371 
3.360000000002666, -0.9984608314710377 
3.3700000000026873, -0.9978332776412683 
3.3800000000027084, -0.9973919131462932 
3.3900000000027295, -0.9972410804180624 
3.4000000000027506, -0.9973430466898419 
3.4100000000027717, -0.997530009449462 
3.420000000002793, -0.9976263096975287 
3.430000000002814, -0.9975458899582796 
3.440000000002835, -0.9972895780808494 
3.450000000002856, -0.9968771084642923 
3.460000000002877, -0.9963193136823011 
3.4700000000028983, -0.995676563686691 
3.4800000000029194, -0.995092608760809 
3.4900000000029405, -0.9947304143877704 
3.5000000000029616, -0.9946630691163642 
3.5100000000029827, -0.9948156769250013 
3.520000000003004, -0.9950085702836406 
3.530000000003025, -0.995085761488549 
3.540000000003046, -0.9949873075883837 
3.550000000003067, -0.9947235058313908 
3.5600000000030882, -0.9943055308819247 
3.5700000000031094, -0.9937462419612026 
3.5800000000031305, -0.9931259778171461 
3.5900000000031516, -0.9926039265653489 
3.6000000000031727, -0.9923316931832356 
3.6100000000031938, -0.9923485720206423 
3.620000000003215, -0.9925487274265914 
3.630000000003236, -0.9927514381312995 
3.640000000003257, -0.9928241076173395 
3.650000000003278, -0.9927288232819031 
3.6600000000032993, -0.9924763365805986 
3.6700000000033204, -0.9920667956811471 
3.6800000000033415, -0.9915198609465239 
3.6900000000033626, -0.9909377153130641 
3.7000000000033837, -0.9904915391581708 
3.710000000003405, -0.9903164073346132 
3.720000000003426, -0.9904172378904571 
3.730000000003447, -0.9906647250047041 
3.740000000003468, -0.9908852009607623 
3.750000000003489, -0.9909702810103683 
3.7600000000035103, -0.9908974982077302 
3.7700000000035314, -0.9906696222568312 
3.7800000000035525, -0.990276914684025 
3.7900000000035736, -0.9897516110164309 
3.8000000000035947, -0.9892190181162034 
3.810000000003616, -0.9888589534635515 
3.820000000003637, -0.988785734793978 
3.830000000003658, -0.9889708137836343 
3.840000000003679, -0.9892685665449176 
3.8500000000037002, -0.989517684833568 
3.8600000000037213, -0.9896322944160791 
3.8700000000037424, -0.9895969483042816 
3.8800000000037635, -0.9894002763477346 
3.8900000000037847, -0.9890273038339785 
3.9000000000038058, -0.9885287539541315 
3.910000000003827, -0.9880537572228476 
3.920000000003848, -0.9877875327658122 
3.930000000003869, -0.9878200667195103 
3.94000000000389, -0.9880910228338147 
3.9500000000039113, -0.9884444874900626 
3.9600000000039324, -0.9887344293855693 
3.9700000000039535, -0.988893517712446 
3.9800000000039746, -0.9889042153034018 
3.9900000000039957, -0.9887384426981788 
4.000000000004016, -0.9883834485575529 
4.010000000003993, -0.9879137118008519 
4.02000000000397, -0.9875023428861891 
4.030000000003946, -0.9873365327314886 
4.040000000003923, -0.9874785052825428 
4.0500000000039, -0.9878380573425022 
4.0600000000038765, -0.9882538075398256 
4.070000000003853, -0.9885959920915968 
4.08000000000383, -0.9888099410740833 
4.090000000003807, -0.9888676746053835 
4.100000000003783, -0.988726203583119 
4.11000000000376, -0.9883841182798869 
4.120000000003737, -0.9879436745497324 
4.130000000003713, -0.9876015263443975 
4.14000000000369, -0.9875425342080268 
4.150000000003667, -0.9877973891219415 
4.1600000000036434, -0.9882481059798769 
4.17000000000362, -0.9887317978091519 
4.180000000003597, -0.9891343883766128 
4.1900000000035735, -0.9894066607742932 
4.20000000000355, -0.9895041587883384 
4.210000000003527, -0.9893753357023752 
4.220000000003504, -0.9890393829108064 
4.23000000000348, -0.9886287799154037 
4.240000000003457, -0.9883624140884186 
4.250000000003434, -0.988416665630609 
4.26000000000341, -0.9887864317986086 
4.270000000003387, -0.9893286026891989 
4.280000000003364, -0.9898823663623387 
4.2900000000033405, -0.9903474532391099 
4.300000000003317, -0.9906724842951306 
4.310000000003294, -0.9907943823287971 
4.320000000003271, -0.9906632923175863 
4.330000000003247, -0.9903267013125151 
4.340000000003224, -0.9899482047510235 
4.350000000003201, -0.9897660192265638 
4.360000000003177, -0.9899390176309156 
4.370000000003154, -0.9904220906464182 
4.380000000003131, -0.9910509909414227 
4.390000000003107, -0.9916705503644108 
4.400000000003084, -0.9921913914571895 
4.410000000003061, -0.9925532655999327 
4.4200000000030375, -0.9926774876193536 
4.430000000003014, -0.9925282225930974 
4.440000000002991, -0.9921859625516094 
4.450000000002968, -0.9918450361987221 
4.460000000002944, -0.9917571226647689 
4.470000000002921, -0.9920511929299795 
4.480000000002898, -0.9926394693288759 
4.490000000002874, -0.9933426472000895 
4.500000000002851, -0.99401482896327 
4.510000000002828, -0.9945739600913281 
4.520000000002804, -0.9949467702029321 
4.530000000002781, -0.995047405984706 
4.540000000002758, -0.9948655745587086 
4.5500000000027345, -0.9945160439579862 
4.560000000002711, -0.994222321639013 
4.570000000002688, -0.9942387743852424 
4.580000000002665, -0.994649774287002 
4.590000000002641, -0.9953260682168784 
4.600000000002618, -0.9960816689933346 
4.610000000002595, -0.9967833127773995 
4.620000000002571, -0.9973526430840337 
4.630000000002548, -0.9977033296506804 
4.640000000002525, -0.9977547158145119 
4.6500000000025015, -0.9975298063338898 
4.660000000002478, -0.997176347825035 
4.670000000002455, -0.9969434576203375 
4.6800000000024315, -0.9970708656229251 
4.690000000002408, -0.9975849492381992 
4.700000000002385, -0.99832204849948 
4.710000000002362, -0.9990992752471519 
4.720000000002338, -0.9997985075322188 
4.730000000002315, -1.0003422309316703 
4.740000000002292, -1.0006357946670532 
4.750000000002268, -1.00061675938537 
4.760000000002245, -1.0003439754504937 
4.770000000002222, -0.999995885017847 
4.7800000000021985, -0.9998392841061507 
4.790000000002175, -1.0000761066952886 
4.800000000002152, -1.0006683740374394 
4.810000000002129, -1.0014308584638478 
4.820000000002105, -1.0021930577596114 
4.830000000002082, -1.0028531423389022 
4.840000000002059, -1.0033331938091268 
4.850000000002035, -1.0035388135966379 
4.860000000002012, -1.0034357771500229 
4.870000000001989, -1.0031171485998438 
4.880000000001965, -1.002789493924339 
4.890000000001942, -1.0027219311525213 
4.900000000001919, -1.003054920618748 
4.9100000000018955, -1.0036915190796671 
4.920000000001872, -1.004440265476318 
4.930000000001849, -1.00514991938768 
