t, s[1].omega / s[0].omega 
0, -0.529997750690232 
0.009999999999999995, -0.5298065277111345 
0.019999999999999934, -0.5296700594995196 
0.029999999999999874, -0.5295571925196945 
0.04000000000000012, -0.5294291978234517 
0.050000000000000405, -0.5292525116848191 
0.06000000000000069, -0.5290067689954564 
0.07000000000000098, -0.528686113915753 
0.08000000000000126, -0.5282963487021313 
0.09000000000000155, -0.5278521410708483 
0.10000000000000184, -0.5273775065278761 
0.11000000000000212, -0.5269115615234343 
0.12000000000000241, -0.5265215924102769 
0.130000000000002, -0.5263268264803878 
0.1400000000000009, -0.5265381542180688 
0.1499999999999998, -0.5275193273734821 
0.1599999999999987, -0.5298671686463591 
0.1699999999999976, -0.534473946562517 
0.1799999999999965, -0.5424427423860579 
0.1899999999999954, -0.5545919723431751 
0.1999999999999943, -0.5704063817079713 
0.2099999999999932, -0.5872604731840767 
0.2199999999999921, -0.6016324835517636 
0.229999999999991, -0.611714265436853 
0.2399999999999899, -0.6180755415571955 
0.2499999999999888, -0.6221098717952257 
0.2599999999999877, -0.6248333019016905 
0.2699999999999866, -0.6267600050202743 
0.2799999999999855, -0.6281335908743634 
0.2899999999999844, -0.6290895808754722 
0.2999999999999833, -0.6297188597507519 
0.3099999999999822, -0.6300854735106971 
0.3199999999999811, -0.6302304762776766 
0.32999999999998, -0.6301725111311777 
0.3399999999999789, -0.629907615032921 
0.3499999999999778, -0.629409288815432 
0.35999999999997667, -0.6286311982477127 
0.36999999999997557, -0.6275170732781692 
0.37999999999997447, -0.626022568566444 
0.38999999999997337, -0.6241470653484132 
0.39999999999997227, -0.6219590003270802 
0.40999999999997117, -0.6195910986252693 
0.41999999999997006, -0.6172006546833712 
0.42999999999996896, -0.6149207194954419 
0.43999999999996786, -0.6128329429043553 
0.44999999999996676, -0.6109693127447754 
0.45999999999996566, -0.6093298984521456 
0.46999999999996456, -0.6079019901412418 
0.47999999999996346, -0.6066734624527395 
0.48999999999996235, -0.6056395453481278 
0.49999999999996125, -0.6048048821705468 
0.5099999999999602, -0.6041830104011119 
0.519999999999959, -0.6037947715918572 
0.529999999999958, -0.603666557111158 
0.5399999999999568, -0.6038289816684664 
0.5499999999999557, -0.604316425620687 
0.5599999999999546, -0.6051676815255337 
0.5699999999999535, -0.6064275006660421 
0.5799999999999524, -0.6081480137481974 
0.5899999999999513, -0.610387639146617 
0.5999999999999502, -0.6132031483697029 
0.6099999999999491, -0.6166287329162065 
0.619999999999948, -0.6206371456404478 
0.6299999999999469, -0.6250887149808244 
0.6399999999999458, -0.6296986877002049 
0.6499999999999447, -0.634073689783516 
0.6599999999999436, -0.6378353457974199 
0.6699999999999425, -0.6407592882498887 
0.6799999999999414, -0.6428231411224098 
0.6899999999999403, -0.6441460615585816 
0.6999999999999392, -0.6448935867814131 
0.7099999999999381, -0.6452118927114086 
0.719999999999937, -0.6452016804635977 
0.7299999999999359, -0.644914305865596 
0.7399999999999348, -0.6443530210233633 
0.7499999999999337, -0.6434692124162755 
0.7599999999999326, -0.6421471360482914 
0.7699999999999315, -0.6401698838969354 
0.7799999999999304, -0.6371564291629511 
0.7899999999999293, -0.6324626578006274 
0.7999999999999282, -0.6250767449963447 
0.8099999999999271, -0.6136711216419329 
0.819999999999926, -0.5971738280467125 
0.8299999999999249, -0.5759902697964535 
0.8399999999999238, -0.5527686948127579 
0.8499999999999227, -0.5311825163702688 
0.8599999999999216, -0.5137407136142063 
0.8699999999999205, -0.5010023059083034 
0.8799999999999194, -0.49228450599801804 
0.8899999999999183, -0.4865525799953289 
0.8999999999999172, -0.4828830392958716 
0.9099999999999161, -0.48058678288271145 
0.919999999999915, -0.47918881725461676 
0.9299999999999139, -0.47837380476528824 
0.9399999999999128, -0.47793635691065184 
0.9499999999999117, -0.4777443968625675 
0.9599999999999106, -0.4777143540210007 
0.9699999999999095, -0.4777951994575548 
0.9799999999999084, -0.4779587728129748 
0.9899999999999073, -0.4781945340816606 
0.9999999999999062, -0.47850716087217704 
1.0099999999999052, -0.47891515093781284 
1.019999999999904, -0.479448031459354 
1.029999999999903, -0.48013959004000056 
1.039999999999902, -0.4810154636895737 
1.0499999999999008, -0.4820759234135866 
1.0599999999998997, -0.4832791728802667 
1.0699999999998986, -0.48453592889031416 
1.0799999999998975, -0.48572614058534097 
1.0899999999998964, -0.486735392195513 
1.0999999999998953, -0.48748965051496385 
1.1099999999998942, -0.4879662752584477 
1.119999999999893, -0.4881800565550554 
1.129999999999892, -0.48815974966519626 
1.1399999999998909, -0.48792848817522005 
1.1499999999998898, -0.4874911001835442 
1.1599999999998887, -0.48682450789731135 
1.1699999999998876, -0.48586507910500976 
1.1799999999998865, -0.484485353650297 
1.1899999999998854, -0.4824495820035903 
1.1999999999998843, -0.47933517622618754 
1.2099999999998832, -0.4744220404356831 
1.219999999999882, -0.46663474750193695 
1.229999999999881, -0.45482128631912955 
1.2399999999998799, -0.43869443645755785 
1.2499999999998788, -0.41987670455981024 
1.2599999999998777, -0.4014220242345628 
1.2699999999998766, -0.38585966060644084 
1.2799999999998755, -0.3740552804330796 
1.2899999999998744, -0.36563141225409795 
1.2999999999998733, -0.3597879797711492 
1.3099999999998722, -0.3557726747108232 
1.319999999999871, -0.3530183405367243 
1.32999999999987, -0.35113480386242446 
1.3399999999998689, -0.3498649807251481 
1.3499999999998678, -0.3490442326972793 
1.3599999999998666, -0.34857128337302684 
1.3699999999998655, -0.34838973567167975 
1.3799999999998644, -0.34847766477293585 
1.3899999999998633, -0.34884330803560715 
1.3999999999998622, -0.3495257170965138 
1.4099999999998611, -0.35059982128292383 
1.41999999999986, -0.3521853100633014 
1.429999999999859, -0.35445730583943164 
1.4399999999998578, -0.3576521512649459 
1.4499999999998567, -0.3620506639573367 
1.4599999999998556, -0.3679033767991397 
1.4699999999998545, -0.3752571687883083 
1.4799999999998534, -0.3837149894056204 
1.4899999999998523, -0.39234760182909306 
1.4999999999998512, -0.4000273354022297 
1.5099999999998501, -0.40601083289839923 
1.519999999999849, -0.4101985298801245 
1.529999999999848, -0.41291719209814604 
1.5399999999998468, -0.4145914954661266 
1.5499999999998457, -0.41556731406039826 
1.5599999999998446, -0.4160760835943371 
1.5699999999998435, -0.4162553139655574 
1.5799999999998424, -0.4161760221901892 
1.5899999999998413, -0.4158626185796222 
1.5999999999998402, -0.4153055324176226 
1.6099999999998391, -0.41447161445530345 
1.619999999999838, -0.4133191303516446 
1.629999999999837, -0.411823062774246 
1.6399999999998358, -0.41000799740281957 
1.6499999999998347, -0.40797006539014724 
1.6599999999998336, -0.40586345316719374 
1.6699999999998325, -0.4038508806181949 
1.6799999999998314, -0.40205117129933876 
1.6899999999998303, -0.40051664111559415 
1.6999999999998292, -0.3992424727596931 
1.709999999999828, -0.39819017035740595 
1.719999999999827, -0.3973097638529084 
1.729999999999826, -0.39655494265018876 
1.7399999999998248, -0.39589105865176 
1.7499999999998237, -0.39529806028816916 
1.7599999999998226, -0.3947710644821924 
1.7699999999998215, -0.39432121437296697 
1.7799999999998204, -0.39397909036517526 
1.7899999999998193, -0.3938028239976655 
1.7999999999998182, -0.39389367824143734 
1.809999999999817, -0.3944233218648333 
1.819999999999816, -0.39567879501012937 
1.8299999999998149, -0.39813040299934366 
1.8399999999998138, -0.40251385539895546 
1.8499999999998127, -0.4098603130760761 
1.8599999999998116, -0.42125559984552974 
1.8699999999998105, -0.4369328842644453 
1.8799999999998094, -0.4547752883042885 
1.8899999999998083, -0.470224471871587 
1.8999999999998072, -0.47963676525743165 
1.909999999999806, -0.48334043967954166 
1.919999999999805, -0.48402548024336867 
1.9299999999998039, -0.48384509964053113 
1.9399999999998028, -0.48369158628211134 
1.9499999999998017, -0.48373322251464324 
1.9599999999998006, -0.4839066137316667 
1.9699999999997995, -0.4841237288371647 
1.9799999999997984, -0.4843233403804928 
1.9899999999997973, -0.4844706737250256 
1.9999999999997962, -0.4845469771727379 
2.0099999999998173, -0.48454080777070907 
2.0199999999998384, -0.4844431180407427 
2.0299999999998595, -0.4842461373884193 
2.0399999999998806, -0.48394590884051086 
2.0499999999999017, -0.48354781391754653 
2.059999999999923, -0.48307259688088366 
2.069999999999944, -0.482558264471301 
2.079999999999965, -0.48205380702590866 
2.089999999999986, -0.4816055863395275 
2.100000000000007, -0.4812427267716585 
2.1100000000000283, -0.4809685803570967 
2.1200000000000494, -0.48076155204178345 
2.1300000000000705, -0.48058420738837127 
2.1400000000000916, -0.4803963637608543 
2.1500000000001127, -0.4801663389303985 
2.160000000000134, -0.4798761886693937 
2.170000000000155, -0.47952098458176706 
2.180000000000176, -0.47910545341354266 
2.190000000000197, -0.47864161923380033 
2.2000000000002182, -0.47814979816635744 
2.2100000000002393, -0.47766443492080113 
2.2200000000002604, -0.47724655683940853 
2.2300000000002815, -0.477005525397606 
2.2400000000003026, -0.4771324430137745 
2.2500000000003237, -0.47794045853001277 
2.260000000000345, -0.47987802665925605 
2.270000000000366, -0.4834026432260822 
2.280000000000387, -0.48849316472428495 
2.290000000000408, -0.49375106000024827 
2.3000000000004293, -0.4961333120390445 
2.3100000000004504, -0.4931321336792173 
2.3200000000004715, -0.4856968746075886 
2.3300000000004926, -0.47726688792637617 
2.3400000000005137, -0.4704481454452498 
2.3500000000005348, -0.46590697805100245 
2.360000000000556, -0.46322965151102097 
2.370000000000577, -0.46178665875987523 
2.380000000000598, -0.4610755424714791 
2.390000000000619, -0.46076746073327995 
2.4000000000006403, -0.4606653464179427 
2.4100000000006614, -0.46065595829505696 
2.4200000000006825, -0.46067525423020667 
2.4300000000007036, -0.4606869358623147 
2.4400000000007247, -0.4606704956910702 
2.450000000000746, -0.46061577561337375 
2.460000000000767, -0.460522037783292 
2.470000000000788, -0.4603996907507842 
2.480000000000809, -0.4602720267477268 
2.49000000000083, -0.46017362792262145 
2.5000000000008513, -0.46014316368986297 
2.5100000000008724, -0.4602114532865905 
2.5200000000008935, -0.460388824175119 
2.5300000000009146, -0.4606570062405134 
2.5400000000009357, -0.46097014440808304 
2.550000000000957, -0.46126661592034923 
2.560000000000978, -0.46148733337022785 
2.570000000000999, -0.46159095055335014 
2.58000000000102, -0.46155842741393843 
2.5900000000010412, -0.4613874424128035 
2.6000000000010624, -0.461082629314309 
2.6100000000010835, -0.46064677882636645 
2.6200000000011046, -0.4600744662285036 
2.6300000000011257, -0.4593466862074078 
2.6400000000011468, -0.45842318593229897 
2.650000000001168, -0.4572261498756215 
2.660000000001189, -0.4556011681558739 
2.67000000000121, -0.4532247744673894 
2.680000000001231, -0.4494084991077362 
2.6900000000012523, -0.44279881950687966 
2.7000000000012734, -0.431316126476574 
2.7100000000012945, -0.4133009687717378 
2.7200000000013156, -0.38997927225952816 
2.7300000000013367, -0.3659495143460748 
2.740000000001358, -0.34572228739312005 
2.750000000001379, -0.3309251023465055 
2.7600000000014, -0.3209112706323439 
2.770000000001421, -0.31435789190247865 
2.780000000001442, -0.3101064513843755 
2.7900000000014633, -0.30734496273332595 
2.8000000000014844, -0.3055511408278879 
2.8100000000015055, -0.3044006227539487 
2.8200000000015266, -0.3036959101817624 
2.8300000000015477, -0.3033204666136463 
2.840000000001569, -0.3032114749612438 
2.85000000000159, -0.30334506279314466 
2.860000000001611, -0.30372999101951076 
2.870000000001632, -0.30440762810805283 
2.8800000000016532, -0.30545712216154974 
2.8900000000016743, -0.3070048354113734 
2.9000000000016954, -0.30923553348176774 
2.9100000000017165, -0.3123973695655182 
2.9200000000017377, -0.316779712747749 
2.9300000000017588, -0.3226229713550322 
2.94000000000178, -0.329920896203848 
2.950000000001801, -0.3381768494079951 
2.960000000001822, -0.3463828079155432 
2.970000000001843, -0.3534530959217685 
2.9800000000018643, -0.35879458993114954 
2.9900000000018854, -0.36244197349077295 
3.0000000000019065, -0.36476874517601987 
3.0100000000019276, -0.36618245406606875 
3.0200000000019487, -0.3669924812340532 
3.03000000000197, -0.3673979504809229 
3.040000000001991, -0.36751410451884736 
3.050000000002012, -0.3673991037261906 
3.060000000002033, -0.3670728489794194 
3.070000000002054, -0.366530230284646 
3.0800000000020753, -0.3657539470232827 
3.0900000000020964, -0.36473161581023933 
3.1000000000021175, -0.36347757900900296 
3.1100000000021386, -0.3620508423355029 
3.1200000000021597, -0.36055395005751684 
3.130000000002181, -0.35910634484747933 
3.140000000002202, -0.357806976344222 
3.150000000002223, -0.3567096812621255 
3.160000000002244, -0.35582082377247404 
3.1700000000022652, -0.3551119526475323 
3.1800000000022863, -0.3545367279128623 
3.1900000000023074, -0.3540458268554949 
3.2000000000023285, -0.3535972272082416 
3.2100000000023496, -0.35316107833562205 
3.2200000000023707, -0.35272002113671114 
3.230000000002392, -0.3522671510685493 
3.240000000002413, -0.3518039777850432 
3.250000000002434, -0.3513399625383335 
3.260000000002455, -0.350894279981589 
3.2700000000024763, -0.3504993802283043 
3.2800000000024974, -0.35020312469750936 
3.2900000000025185, -0.35005678461456985 
3.3000000000025396, -0.3500479123541646 
3.3100000000025607, -0.3498730603807579 
3.3200000000025818, -0.3483910409346546 
3.330000000002603, -0.34293066147148527 
3.340000000002624, -0.329989280127011 
3.350000000002645, -0.3090451856258946 
3.360000000002666, -0.28513315229775876 
3.3700000000026873, -0.26444523932575353 
3.3800000000027084, -0.2494828559177887 
3.3900000000027295, -0.23960824104112918 
3.4000000000027506, -0.23330736675866345 
3.4100000000027717, -0.22930038769317398 
3.420000000002793, -0.22673188630982272 
3.430000000002814, -0.22507609147201862 
3.440000000002835, -0.22402027753819528 
3.450000000002856, -0.22338301575853162 
3.460000000002877, -0.2230651998474813 
3.4700000000028983, -0.22302336254833524 
3.4800000000029194, -0.22325755348698006 
3.4900000000029405, -0.22380971093399854 
3.5000000000029616, -0.22477130440564896 
3.5100000000029827, -0.2263010602949181 
3.520000000003004, -0.22865440401263823 
3.530000000003025, -0.23222313527497568 
3.540000000003046, -0.23756780033862177 
3.550000000003067, -0.24537680072928056 
3.5600000000030882, -0.2561980006170662 
3.5700000000031094, -0.26979602465888697 
3.5800000000031305, -0.28449830137745563 
3.5900000000031516, -0.2976739055358328 
3.6000000000031727, -0.3074786769675903 
3.6100000000031938, -0.3138066827298452 
3.620000000003215, -0.31757524411649796 
3.630000000003236, -0.3197574329250469 
3.640000000003257, -0.32101940409698276 
3.650000000003278, -0.3217456030482623 
3.6600000000032993, -0.322143947602455 
3.6700000000033204, -0.32232451866875506 
3.6800000000033415, -0.32234459420254874 
3.6900000000033626, -0.3222329454732209 
3.7000000000033837, -0.32200414749064243 
3.710000000003405, -0.3216692417456356 
3.720000000003426, -0.3212454680223725 
3.730000000003447, -0.3207643293946774 
3.740000000003468, -0.32027443925253823 
3.750000000003489, -0.31983583835030716 
3.7600000000035103, -0.3195068382960075 
3.7700000000035314, -0.31932903256327166 
3.7800000000035525, -0.31931610623487494 
3.7900000000035736, -0.3194490201206351 
3.8000000000035947, -0.319678832774147 
3.810000000003616, -0.3199382176986195 
3.820000000003637, -0.32015918064797877 
3.830000000003658, -0.32028901878196875 
3.840000000003679, -0.3202965882533402 
3.8500000000037002, -0.3201677469052568 
3.8600000000037213, -0.3198947763550782 
3.8700000000037424, -0.31946451959223304 
3.8800000000037635, -0.3188461741479291 
3.8900000000037847, -0.3179758357837992 
3.9000000000038058, -0.3167319997283788 
3.910000000003827, -0.3148946840210563 
3.920000000003848, -0.31208627331092587 
3.930000000003869, -0.30772496392747406 
3.94000000000389, -0.3011115469996491 
3.9500000000039113, -0.2918471862264247 
3.9600000000039324, -0.28048980865996154 
3.9700000000039535, -0.2686590211859363 
3.9800000000039746, -0.2581002575964458 
3.9900000000039957, -0.2497175658491939 
4.000000000004016, -0.24351896364499587 
4.010000000003993, -0.23908284747415215 
4.02000000000397, -0.23593060372089392 
4.030000000003946, -0.2336749243555642 
4.040000000003923, -0.2320413226987458 
4.0500000000039, -0.23084826756869817 
4.0600000000038765, -0.22998281355063313 
4.070000000003853, -0.22938240098510043 
4.08000000000383, -0.22902448011135937 
4.090000000003807, -0.2289238184914025 
4.100000000003783, -0.22913808971116106 
4.11000000000376, -0.22978422322380226 
4.120000000003737, -0.2310708723098378 
4.130000000003713, -0.23335587469408386 
4.14000000000369, -0.2372380170365668 
4.150000000003667, -0.24367182453536804 
4.1600000000036434, -0.25399161061333786 
4.17000000000362, -0.2694317386706159 
4.180000000003597, -0.2894248199130579 
4.1900000000035735, -0.3093625970797398 
4.20000000000355, -0.32241670962804425 
4.210000000003527, -0.3262551024182309 
4.220000000003504, -0.32442953382636563 
4.23000000000348, -0.32112918398438506 
4.240000000003457, -0.3183352540910314 
4.250000000003434, -0.31643749201800014 
4.26000000000341, -0.3152694443426171 
4.270000000003387, -0.3145901441433583 
4.280000000003364, -0.3142145739382281 
4.2900000000033405, -0.31402285049861073 
4.300000000003317, -0.3139431268519872 
4.310000000003294, -0.31393530503671696 
4.320000000003271, -0.3139804749269404 
4.330000000003247, -0.31407552953845286 
4.340000000003224, -0.3142315642708618 
4.350000000003201, -0.3144745921358074 
4.360000000003177, -0.31484682582494333 
4.370000000003154, -0.31540632315757433 
4.380000000003131, -0.31622239696416377 
4.390000000003107, -0.31736372914591315 
4.400000000003084, -0.31887582462477937 
4.410000000003061, -0.32074746315011515 
4.4200000000030375, -0.3228780357851669 
4.430000000003014, -0.3250753071499972 
4.440000000002991, -0.32710824511599057 
4.450000000002968, -0.3287921684280153 
4.460000000002944, -0.33004357607120804 
4.470000000002921, -0.3308720490206955 
4.480000000002898, -0.3313351572685386 
4.490000000002874, -0.3314958417532726 
4.500000000002851, -0.3313979458319635 
4.510000000002828, -0.3310557925850855 
4.520000000002804, -0.3304495783407663 
4.530000000002781, -0.32952215512063676 
4.540000000002758, -0.3281789831386317 
4.5500000000027345, -0.3263010023980385 
4.560000000002711, -0.3237867280220728 
4.570000000002688, -0.3206297962388819 
4.580000000002665, -0.3169938442279342 
4.590000000002641, -0.3132032972391726 
4.600000000002618, -0.30962041178262933 
4.610000000002595, -0.3065017732805678 
4.620000000002571, -0.30394342683399517 
4.630000000002548, -0.3019170603039562 
4.640000000002525, -0.3003336692997357 
4.6500000000025015, -0.29909129099645293 
4.660000000002478, -0.2980996471038767 
4.670000000002455, -0.29728927813224854 
4.6800000000024315, -0.29661288592646107 
4.690000000002408, -0.2960437499415246 
4.700000000002385, -0.29557418275102587 
4.710000000002362, -0.29521607524668114 
4.720000000002338, -0.2950053006583215 
4.730000000002315, -0.2950120649131943 
4.740000000002292, -0.2953600917004975 
4.750000000002268, -0.29625776736237397 
4.760000000002245, -0.29803945517602426 
4.770000000002222, -0.3011889970559313 
4.7800000000021985, -0.3062270807643782 
4.790000000002175, -0.31314500793326927 
4.800000000002152, -0.3200458548507285 
4.810000000002129, -0.32214237719616556 
4.820000000002105, -0.3148920695433478 
4.830000000002082, -0.2999361585193093 
4.840000000002059, -0.28373201126610226 
4.850000000002035, -0.270814443842666 
4.860000000002012, -0.26199270926421553 
4.870000000001989, -0.2563641426700616 
