t, s[1].omega / s[0].omega 
0, -0.9999973255804407 
0.009999999999999995, -0.999673326440475 
0.019999999999999934, -0.9994606648125914 
0.029999999999999874, -0.9991544992727052 
0.04000000000000012, -0.998916771046116 
0.050000000000000405, -0.9986439828253586 
0.06000000000000069, -0.9983688441751075 
0.07000000000000098, -0.9981329706024121 
0.08000000000000126, -0.9978258339494441 
0.09000000000000155, -0.9976172932245784 
0.10000000000000184, -0.9972986126252494 
0.11000000000000212, -0.9970973330795093 
0.12000000000000241, -0.9967921023458185 
0.130000000000002, -0.9965741338991303 
0.1400000000000009, -0.996301932746373 
0.1499999999999998, -0.996049874226736 
0.1599999999999987, -0.9958183216361037 
0.1699999999999976, -0.9955317925756818 
0.1799999999999965, -0.9953343890632644 
0.1899999999999954, -0.9950310093769861 
0.1999999999999943, -0.9948490977883484 
0.2099999999999932, -0.9945554870418392 
0.2199999999999921, -0.9943641853161881 
0.229999999999991, -0.9941041052914218 
0.2399999999999899, -0.9938818470398855 
0.2499999999999888, -0.9936669292944812 
0.2599999999999877, -0.9934078167730166 
0.2699999999999866, -0.9932343627624174 
0.2799999999999855, -0.992952777954525 
0.2899999999999844, -0.9928029739133468 
0.2999999999999833, -0.9925276184740923 
0.3099999999999822, -0.9923746269691286 
0.3199999999999811, -0.9921354441968196 
0.32999999999998, -0.991952625452274 
0.3399999999999789, -0.9917667517873575 
0.3499999999999778, -0.991542175056424 
0.35999999999997667, -0.9914092560253598 
0.36999999999997557, -0.9911537525976647 
0.37999999999997447, -0.9910562206228767 
0.38999999999997337, -0.9908020294951181 
0.39999999999997227, -0.9907080516533762 
0.40999999999997117, -0.9904958764640176 
0.41999999999997006, -0.9903696986479125 
0.42999999999996896, -0.9902263088095813 
0.43999999999996786, -0.9900475376594713 
0.44999999999996676, -0.9899782118863473 
0.45999999999996566, -0.9897532954234124 
0.46999999999996456, -0.9897409855910573 
0.47999999999996346, -0.9895082074718606 
0.48999999999996235, -0.989510668956336 
0.49999999999996125, -0.9893297057202629 
0.5099999999999602, -0.9892926939472505 
0.519999999999959, -0.9892084227514932 
0.529999999999958, -0.9890968310225432 
0.5399999999999568, -0.9891258460676996 
0.5499999999999557, -0.9889394729389356 
0.5599999999999546, -0.9890677409290713 
0.5699999999999535, -0.9888547667458479 
0.5799999999999524, -0.9890213306435081 
0.5899999999999513, -0.9888734536141532 
0.5999999999999502, -0.9889868903098402 
0.6099999999999491, -0.9889824722072972 
0.619999999999948, -0.988979214528404 
0.6299999999999469, -0.9891581160021307 
0.6399999999999458, -0.9890262202653631 
0.6499999999999447, -0.9893835784392827 
0.6599999999999436, -0.9891873189589108 
0.6699999999999425, -0.9896320361901657 
0.6799999999999414, -0.989512543042118 
0.6899999999999403, -0.989883634540025 
0.6999999999999392, -0.9899755045416951 
0.7099999999999381, -0.9901540678504951 
0.719999999999937, -0.9905410862567302 
0.7299999999999359, -0.9904942490072616 
0.7399999999999348, -0.9911887465125822 
0.7499999999999337, -0.9910068267971385 
0.7599999999999326, -0.9918735745550527 
0.7699999999999315, -0.9917627015908504 
0.7799999999999304, -0.9925323740248388 
0.7899999999999293, -0.9927002556911613 
0.7999999999999282, -0.9931615503755223 
0.8099999999999271, -0.9937555961540633 
0.819999999999926, -0.9938447418215081 
0.8299999999999249, -0.9948943639355681 
0.8399999999999238, -0.9947355336500645 
0.8499999999999227, -0.9960532379746125 
0.8599999999999216, -0.9959169359457906 
0.8699999999999205, -0.9971233015568244 
0.8799999999999194, -0.9972719386206146 
0.8899999999999183, -0.9980585637018832 
0.8999999999999172, -0.9986867274184001 
0.9099999999999161, -0.9989625167012143 
0.919999999999915, -1.0001054832767966 
0.9299999999999139, -1.0000077852967237 
0.9399999999999128, -1.0014626379977596 
0.9499999999999117, -1.0012855323946674 
0.9599999999999106, -1.002653962041706 
0.9699999999999095, -1.0026713312605586 
0.9799999999999084, -1.0036175968079024 
0.9899999999999073, -1.0040176337037843 
0.9999999999999062, -1.0044427177093342 
1.0099999999999052, -1.0052630372112838 
1.019999999999904, -1.0052702092525168 
1.029999999999903, -1.006369419663115 
1.039999999999902, -1.0061885194332683 
1.0499999999999008, -1.007284126116535 
1.0599999999998997, -1.0071598503697234 
1.0699999999998986, -1.0079719954699504 
1.0799999999998975, -1.0080692464828716 
1.0899999999998964, -1.0084903245749528 
1.0999999999998953, -1.0088548694532389 
1.1099999999998942, -1.008933169949951 
1.119999999999893, -1.0095001852084264 
1.129999999999892, -1.0093610786272982 
1.1399999999998909, -1.0099915135891364 
1.1499999999998898, -1.0097977384279706 
1.1599999999998887, -1.010317888029823 
1.1699999999998876, -1.0102111659998985 
1.1799999999998865, -1.010508445321989 
1.1899999999998854, -1.0105505182231094 
1.1999999999998843, -1.0106189124833165 
1.2099999999998832, -1.0107936820239491 
1.219999999999882, -1.010686097373483 
1.229999999999881, -1.0109353067707534 
1.2399999999998799, -1.0107327853875632 
1.2499999999998788, -1.0109724368460247 
1.2599999999998777, -1.010770125523254 
1.2699999999998766, -1.0109169970720187 
1.2799999999998755, -1.0107836721819456 
1.2899999999998744, -1.0107987708112383 
1.2999999999998733, -1.0107493862315984 
1.3099999999998722, -1.0106410487985151 
1.319999999999871, -1.0106549714972166 
1.32999999999987, -1.0104573162158432 
1.3399999999998689, -1.0104963128928754 
1.3499999999998678, -1.0102602772752187 
1.3599999999998666, -1.0102766485898014 
1.3699999999998655, -1.0100568164446997 
1.3799999999998644, -1.0100104962568608 
1.3899999999998633, -1.0098383116900835 
1.3999999999998622, -1.0097126386140913 
1.4099999999998611, -1.0095898603888802 
1.41999999999986, -1.0093915508241211 
1.429999999999859, -1.009302561293794 
1.4399999999998578, -1.0090554850517826 
1.4499999999998567, -1.0089745384760047 
1.4599999999998556, -1.0087139695313736 
1.4699999999998545, -1.0086118154074573 
1.4799999999998534, -1.0083705281417348 
1.4899999999998523, -1.0082234919275188 
1.4999999999998512, -1.0080173535012618 
1.5099999999998501, -1.0078151170827043 
1.519999999999849, -1.0076432528465984 
1.529999999999848, -1.0073919703484269 
1.5399999999998468, -1.007242167056725 
1.5499999999998457, -1.0069624175880263 
1.5599999999998446, -1.0068149328835216 
1.5699999999998435, -1.0065340953325295 
1.5799999999998424, -1.0063667507229148 
1.5899999999998413, -1.0061070173095659 
1.5999999999998402, -1.0059013357127868 
1.6099999999998391, -1.0056726511925824 
1.619999999999838, -1.0054217966322563 
1.629999999999837, -1.0052222105738762 
1.6399999999998358, -1.0049350908781896 
1.6499999999998347, -1.0047526395914534 
1.6599999999998336, -1.0044503843948283 
1.6699999999998325, -1.0042661676547022 
1.6799999999998314, -1.0039725054238107 
1.6899999999998303, -1.003765419846806 
1.6999999999998292, -1.0034975221023181 
1.709999999999828, -1.0032520542778907 
1.719999999999827, -1.003016314393141 
1.729999999999826, -1.0027312666943653 
1.7399999999998248, -1.0025226885991505 
1.7499999999998237, -1.0022126756862504 
1.7599999999998226, -1.0020161788685542 
1.7699999999998215, -1.001704345251541 
1.7799999999998204, -1.0014986749303516 
1.7899999999998193, -1.0012065790106592 
1.7999999999998182, -1.0009712148153982 
1.809999999999817, -1.0007117790481115 
1.819999999999816, -1.0004372538042512 
1.8299999999998149, -1.0002115442019768 
1.8399999999998138, -0.9999056532577127 
1.8499999999998127, -0.999702666356506 
1.8599999999998116, -0.9993865749114706 
1.8699999999998105, -0.9991861725208894 
1.8799999999998094, -0.9988840215311772 
1.8899999999998083, -0.9986632231424809 
1.8999999999998072, -0.9983929082175409 
1.909999999999806, -0.9981360412274153 
1.919999999999805, -0.9979036887378832 
1.9299999999998039, -0.997611944663988 
1.9399999999998028, -0.9974103643338711 
1.9499999999998017, -0.9971018076851851 
1.9599999999998006, -0.9969125343453137 
1.9699999999997995, -0.9966128037843845 
1.9799999999997984, -0.9964118376346282 
1.9899999999997973, -0.9961430208481752 
1.9999999999997962, -0.9959101459573898 
2.0099999999998173, -0.9956827914788261 
2.0199999999998384, -0.9954131334561269 
2.0299999999998595, -0.9952234277515062 
2.0399999999998806, -0.9949312856028075 
2.0499999999999017, -0.9947623141276565 
2.059999999999923, -0.994474364015195 
2.069999999999944, -0.9943012614597582 
2.079999999999965, -0.994044281393965 
2.089999999999986, -0.9938427942444492 
2.100000000000007, -0.9936321409427463 
2.1100000000000283, -0.9933915518622741 
2.1200000000000494, -0.9932267558769358 
2.1300000000000705, -0.9929572367449849 
2.1400000000000916, -0.9928225416948471 
2.1500000000001127, -0.992552026519022 
2.160000000000134, -0.992420388227177 
2.170000000000155, -0.992182594001952 
2.180000000000176, -0.9920241296793314 
2.190000000000197, -0.9918414733037652 
2.2000000000002182, -0.991638638467326 
2.2100000000002393, -0.991515042425788 
2.2200000000002604, -0.9912733422947327 
2.2300000000002815, -0.991194232575039 
2.2400000000003026, -0.9909437082429556 
2.2500000000003237, -0.9908770946047588 
2.260000000000345, -0.9906629591552513 
2.270000000000366, -0.9905683810039844 
2.280000000000387, -0.9904253471430559 
2.290000000000408, -0.990274913700336 
2.3000000000004293, -0.9902144481664131 
2.3100000000004504, -0.9900075347299552 
2.3200000000004715, -0.9900176540776846 
2.3300000000004926, -0.9897877706386278 
2.3400000000005137, -0.9898274584735681 
2.3500000000005348, -0.9896389328267784 
2.360000000000556, -0.9896467614580841 
2.370000000000577, -0.9895565029290548 
2.380000000000598, -0.9894858805789954 
2.390000000000619, -0.989519963759073 
2.4000000000006403, -0.9893605453690112 
2.4100000000006614, -0.9895137901558232 
2.4200000000006825, -0.9893044838324698 
2.4300000000007036, -0.9895218418568014 
2.4400000000007247, -0.9893574123647176 
2.450000000000746, -0.9895374699469195 
2.460000000000767, -0.9895133635439242 
2.470000000000788, -0.9895734548412608 
2.480000000000809, -0.9897441953651491 
2.49000000000083, -0.9896565729751949 
2.5000000000008513, -0.9900321204456806 
2.5100000000008724, -0.9898442080264238 
2.5200000000008935, -0.9903500687354695 
2.5300000000009146, -0.9902012956879411 
2.5400000000009357, -0.9906670532293451 
2.550000000000957, -0.9907117967421503 
2.560000000000978, -0.9909876937068341 
2.570000000000999, -0.9913304525313218 
2.58000000000102, -0.9913577986184359 
2.5900000000010412, -0.9920339728010199 
2.6000000000010624, -0.9918737082618345 
2.6100000000010835, -0.9927829337137013 
2.6200000000011046, -0.9926312727014757 
2.6300000000011257, -0.9935072228935081 
2.6400000000011468, -0.9935864639468144 
2.650000000001168, -0.9941775872400519 
2.660000000001189, -0.9946569027825122 
2.67000000000121, -0.9948597105251267 
2.680000000001231, -0.9958018713589237 
2.6900000000012523, -0.9956924863560608 
2.7000000000012734, -0.9969688933700269 
2.7100000000012945, -0.9967954247719257 
2.7200000000013156, -0.9980588880315814 
2.7300000000013367, -0.9980906242184283 
2.740000000001358, -0.9989980515910091 
2.750000000001379, -0.9994435701380429 
2.7600000000014, -0.9998535252682903 
2.770000000001421, -1.000789405623969 
2.780000000001442, -1.0007768718782943 
2.7900000000014633, -1.0020753976868813 
2.8000000000014844, -1.0018904822202257 
2.8100000000015055, -1.0032181115863592 
2.8200000000015266, -1.0031383108976388 
2.8300000000015477, -1.0041427535570588 
2.840000000001569, -1.0043692257548456 
2.85000000000159, -1.0048978287410966 
2.860000000001611, -1.0055063272432885 
2.870000000001632, -1.005607316361335 
2.8800000000016532, -1.0065167443907928 
2.8900000000016743, -1.0063671585498077 
2.9000000000016954, -1.0073617324607191 
2.9100000000017165, -1.0071909417373994 
2.9200000000017377, -1.0080024676234653 
2.9300000000017588, -1.007991710908038 
2.94000000000178, -1.0084670922872168 
2.950000000001801, -1.0086931816519273 
2.960000000001822, -1.0088383621891484 
2.970000000001843, -1.0092711614874388 
2.9800000000018643, -1.0091774267429412 
2.9900000000018854, -1.009714918904551 
3.0000000000019065, -1.0095186479600795 
3.0100000000019276, -1.010011941062872 
3.0200000000019487, -1.009855778516492 
3.03000000000197, -1.0101754820878432 
3.040000000001991, -1.010144441879464 
3.050000000002012, -1.0102527499845526 
3.060000000002033, -1.0103531457940766 
3.070000000002054, -1.0102822036259413 
3.0800000000020753, -1.010472501415658 
3.0900000000020964, -1.0102865896685624 
3.1000000000021175, -1.0104980350790866 
3.1100000000021386, -1.0102822976348398 
3.1200000000021597, -1.0104342324121967 
3.130000000002181, -1.010266090985738 
3.140000000002202, -1.0103047355952763 
3.150000000002223, -1.0102156647265907 
3.160000000002244, -1.0101339144713701 
3.1700000000022652, -1.0101140725772157 
3.1800000000022863, -1.0099357251583299 
3.1900000000023074, -1.0099545052422678 
3.2000000000023285, -1.0097222377417945 
3.2100000000023496, -1.0097365239986376 
3.2200000000023707, -1.009503709099741 
3.230000000002392, -1.0094705060609097 
3.240000000002413, -1.0092773175270533 
3.250000000002434, -1.0091714143900576 
3.260000000002455, -1.0090286250622176 
3.2700000000024763, -1.0088485923184587 
3.2800000000024974, -1.0087460354425841 
3.2900000000025185, -1.0085095329635747 
3.3000000000025396, -1.0084250002127466 
3.3100000000025607, -1.0081638271445146 
3.3200000000025818, -1.0080686492599769 
3.330000000002603, -1.007818034461744 
3.340000000002624, -1.007685657063484 
3.350000000002645, -1.0074677216078736 
3.360000000002666, -1.007282487330332 
3.3700000000026873, -1.007101315226915 
3.3800000000027084, -1.0068638636623708 
3.3900000000027295, -1.0067104924979524 
3.4000000000027506, -1.006437403013863 
3.4100000000027717, -1.006293715146265 
3.420000000002793, -1.0060118240909628 
3.430000000002814, -1.0058553204749692 
3.440000000002835, -1.0055900643915447 
3.450000000002856, -1.0053998619028977 
3.460000000002877, -1.0051653365157902 
3.4700000000028983, -1.004930224410631 
3.4800000000029194, -1.0047276799958489 
3.4900000000029405, -1.0044521642138375 
3.5000000000029616, -1.0042718782988145 
3.5100000000029827, -1.0039748694480342 
3.520000000003004, -1.0037988844665082 
3.530000000003025, -1.0035051899771155 
3.540000000003046, -1.003311896449537 
3.550000000003067, -1.0030416741433659 
3.5600000000030882, -1.0028127934270947 
3.5700000000031094, -1.0025754611838995 
3.5800000000031305, -1.0023054974377692 
3.5900000000031516, -1.0020985877060713 
3.6000000000031727, -1.0017987405087478 
3.6100000000031938, -1.001608930775008 
3.620000000003215, -1.0013017805548077 
3.630000000003236, -1.0011084375858217 
3.640000000003257, -1.0008174593889592 
3.650000000003278, -1.0005987381139072 
3.6600000000032993, -1.0003396100590416 
3.6700000000033204, -1.0000823306936393 
3.6800000000033415, -0.9998587686216304 
3.6900000000033626, -0.9995666255652728 
3.7000000000033837, -0.9993698412312196 
3.710000000003405, -0.999062057839832 
3.720000000003426, -0.9988731943771136 
3.730000000003447, -0.9985749339496618 
3.740000000003468, -0.9983706564300435 
3.750000000003489, -0.9981024232689066 
3.7600000000035103, -0.9978640745692473 
3.7700000000035314, -0.9976348221280206 
3.7800000000035525, -0.997359210989829 
3.7900000000035736, -0.9971642621781611 
3.8000000000035947, -0.9968664204387919 
3.810000000003616, -0.9966889303242175 
3.820000000003637, -0.9963947014808604 
3.830000000003658, -0.9962107438666391 
3.840000000003679, -0.9959449462855077 
3.8500000000037002, -0.9957318263253281 
3.8600000000037213, -0.9955083070927767 
3.8700000000037424, -0.9952566244380748 
3.8800000000037635, -0.995074471289534 
3.8900000000037847, -0.9947946214807573 
3.9000000000038058, -0.9946388252336132 
3.910000000003827, -0.9943568200888334 
3.920000000003848, -0.9942025944574949 
3.930000000003869, -0.9939483012170507 
3.94000000000389, -0.9937688888291039 
3.9500000000039113, -0.9935619952209075 
3.9600000000039324, -0.9933417951403083 
3.9700000000039535, -0.9931854537004174 
3.9800000000039746, -0.9929298799044244 
3.9900000000039957, -0.9928108136114513 
4.000000000004016, -0.9925460071364451 
4.010000000003993, -0.9924372085433107 
4.02000000000397, -0.9922003657379768 
4.030000000003946, -0.9920687086678348 
4.040000000003923, -0.9918884350413175 
4.0500000000039, -0.9917104396835634 
4.0600000000038765, -0.9915956427079862 
4.070000000003853, -0.991370904509749 
4.08000000000383, -0.9913107118223438 
4.090000000003807, -0.991065771866186 
4.100000000003783, -0.9910288114135652 
4.11000000000376, -0.9908123828644322 
4.120000000003737, -0.9907534740051652 
4.130000000003713, -0.9906093916234836 
4.14000000000369, -0.9904922634051181 
4.150000000003667, -0.9904394276672933 
4.1600000000036434, -0.9902556051314076 
4.17000000000362, -0.9902880040240251 
4.180000000003597, -0.9900647545546345 
4.1900000000035735, -0.9901443163153592 
4.20000000000355, -0.9899483937279223 
4.210000000003527, -0.9900071251952065 
4.220000000003504, -0.9899085880437636 
4.23000000000348, -0.9898865981539128 
4.240000000003457, -0.9899230814312098 
4.250000000003434, -0.9897986035231214 
4.26000000000341, -0.9899746387321647 
4.270000000003387, -0.9897758767705522 
4.280000000003364, -0.9900450906977274 
4.2900000000033405, -0.9898659505099178 
4.300000000003317, -0.9901199003141041 
4.310000000003294, -0.9900729179066324 
4.320000000003271, -0.9902070688002743 
4.330000000003247, -0.9903643377003305 
4.340000000003224, -0.99033293282827 
4.350000000003201, -0.9907196174089464 
4.360000000003177, -0.9905520666439996 
4.370000000003154, -0.9911129712604863 
4.380000000003131, -0.9909412876767255 
4.390000000003107, -0.99150477255554 
4.400000000003084, -0.9915005666433304 
4.410000000003061, -0.9918843744704965 
4.4200000000030375, -0.9921749389035317 
4.430000000003014, -0.9922915739404854 
4.440000000002991, -0.9929345044548258 
4.450000000002968, -0.9928150663744563 
4.460000000002944, -0.9937446871556821 
4.470000000002921, -0.9935674516129495 
4.480000000002898, -0.9945351932031385 
4.490000000002874, -0.9945332544443383 
4.500000000002851, -0.9952526795080324 
4.510000000002828, -0.9956149162122542 
4.520000000002804, -0.9959415421909705 
4.530000000002781, -0.9967598373286422 
4.540000000002758, -0.9967243452456829 
4.5500000000027345, -0.9979227396822093 
4.560000000002711, -0.9977379740543351 
4.570000000002688, -0.9990190919047631 
4.580000000002665, -0.9989577951074667 
4.590000000002641, -0.9999602828227724 
4.600000000002618, -1.000241355570394 
4.610000000002595, -1.0007765430243416 
4.620000000002571, -1.0015081247767823 
4.630000000002548, -1.0015971725671067 
4.640000000002525, -1.0027125934453998 
4.6500000000025015, -1.0025504894280381 
4.660000000002478, -1.0037910952933193 
4.670000000002455, -1.0036456959820894 
4.6800000000024315, -1.0046697569806364 
4.690000000002408, -1.0047536751063026 
4.700000000002385, -1.0053620086906958 
4.710000000002362, -1.0057796645354766 
4.720000000002338, -1.0059715871299997 
4.730000000002315, -1.0066892773553993 
4.740000000002292, -1.0065912076433292 
4.750000000002268, -1.0074547919005217 
4.760000000002245, -1.0072648489842224 
4.770000000002222, -1.008041265937423 
4.7800000000021985, -1.0079473128345018 
4.790000000002175, -1.008454536575362 
4.800000000002152, -1.008559576389702 
4.810000000002129, -1.0087613065968677 
4.820000000002105, -1.009065792364435 
4.830000000002082, -1.0090217530025793 
4.840000000002059, -1.0094551499063782 
4.850000000002035, -1.0092728260216366 
4.860000000002012, -1.0097164206267761 
4.870000000001989, -1.0095274679745638 
4.880000000001965, -1.009851692812513 
4.890000000001942, -1.0097573437042813 
4.900000000001919, -1.0098966764207578 
4.9100000000018955, -1.009925796091646 
4.920000000001872, -1.009889922512506 
4.930000000001849, -1.010017298485166 
