t, s[1].omega / s[0].omega 
0, -0.6200710393784992 
0.009999999999999995, -0.6271999500869408 
0.019999999999999934, -0.6338950184499401 
0.029999999999999874, -0.6395397653784294 
0.04000000000000012, -0.6438341023059093 
0.050000000000000405, -0.646824333383321 
0.06000000000000069, -0.6487565527207535 
0.07000000000000098, -0.6499137109970435 
0.08000000000000126, -0.6505271319134442 
0.09000000000000155, -0.6507542497848677 
0.10000000000000184, -0.6506856606328772 
0.11000000000000212, -0.6503565476706339 
0.12000000000000241, -0.6497518811834883 
0.130000000000002, -0.648801507390755 
0.1400000000000009, -0.6473630104250497 
0.1499999999999998, -0.645191889170578 
0.1599999999999987, -0.6419071849764092 
0.1699999999999976, -0.6369874781335437 
0.1799999999999965, -0.6298790080329031 
0.1899999999999954, -0.62030188650525 
0.1999999999999943, -0.6086550776710661 
0.2099999999999932, -0.596113866460483 
0.2199999999999921, -0.5841488044811061 
0.229999999999991, -0.573857563697486 
0.2399999999999899, -0.5656808464954931 
0.2499999999999888, -0.5595437843117301 
0.2599999999999877, -0.5551231318657812 
0.2699999999999866, -0.552041005152567 
0.2799999999999855, -0.5499573129037566 
0.2899999999999844, -0.5485980284275146 
0.2999999999999833, -0.5477544238454585 
0.3099999999999822, -0.5472726656766657 
0.3199999999999811, -0.5470420508659101 
0.32999999999998, -0.5469847219181119 
0.3399999999999789, -0.5470475589670534 
0.3499999999999778, -0.5471962676124857 
0.35999999999997667, -0.5474114799686338 
0.36999999999997557, -0.5476864665358552 
0.37999999999997447, -0.5480255801389953 
0.38999999999997337, -0.5484418818848537 
0.39999999999997227, -0.5489520443066731 
0.40999999999997117, -0.549567382676634 
0.41999999999997006, -0.5502821696516399 
0.42999999999996896, -0.5510637274764616 
0.43999999999996786, -0.5518512345013604 
0.44999999999996676, -0.5525681142588798 
0.45999999999996566, -0.5531442615891599 
0.46999999999996456, -0.5535354214764544 
0.47999999999996346, -0.553728576644107 
0.48999999999996235, -0.5537335424297096 
0.49999999999996125, -0.5535693562752153 
0.5099999999999602, -0.5532530417229442 
0.519999999999959, -0.5527930946481391 
0.529999999999958, -0.5521865215039009 
0.5399999999999568, -0.551417370512457 
0.5499999999999557, -0.5504547046349969 
0.5599999999999546, -0.5492469297882675 
0.5699999999999535, -0.5477051184740496 
0.5799999999999524, -0.5456579138327127 
0.5899999999999513, -0.5427487694785075 
0.5999999999999502, -0.538273017677109 
0.6099999999999491, -0.531128301556266 
0.619999999999948, -0.5203488334598049 
0.6299999999999469, -0.5063277637373824 
0.6399999999999458, -0.4913230139724666 
0.6499999999999447, -0.47803633590705263 
0.6599999999999436, -0.4679150532797496 
0.6699999999999425, -0.46096740512913675 
0.6799999999999414, -0.45650634309260096 
0.6899999999999403, -0.45376358403419925 
0.6999999999999392, -0.45213175838594016 
0.7099999999999381, -0.4511928262186446 
0.719999999999937, -0.45067728296260867 
0.7299999999999359, -0.45041700500851717 
0.7399999999999348, -0.4503090398897244 
0.7499999999999337, -0.4502913816991061 
0.7599999999999326, -0.4503279389137207 
0.7699999999999315, -0.4503999282894163 
0.7799999999999304, -0.45050165132674563 
0.7899999999999293, -0.45063901502581094 
0.7999999999999282, -0.4508290136042449 
0.8099999999999271, -0.45109796554167464 
0.819999999999926, -0.45147631461143406 
0.8299999999999249, -0.45198891562607263 
0.8399999999999238, -0.45264196984179217 
0.8499999999999227, -0.45341079785709615 
0.8599999999999216, -0.45423559401140184 
0.8699999999999205, -0.4550319239837314 
0.8799999999999194, -0.4557147351294611 
0.8899999999999183, -0.45622301948063015 
0.8999999999999172, -0.45653039262083855 
0.9099999999999161, -0.45663854803647996 
0.919999999999915, -0.4565621001797634 
0.9299999999999139, -0.4563140622040501 
0.9399999999999128, -0.45589524840039813 
0.9499999999999117, -0.4552858100465656 
0.9599999999999106, -0.45443482060680385 
0.9699999999999095, -0.453242585347426 
0.9799999999999084, -0.4515288481200181 
0.9899999999999073, -0.4489804993742738 
0.9999999999999062, -0.44508661758691204 
1.0099999999999052, -0.4391257374695289 
1.019999999999904, -0.4303794427415559 
1.029999999999903, -0.4187234994007455 
1.039999999999902, -0.40522081236984786 
1.0499999999999008, -0.3918252747151364 
1.0599999999998997, -0.38023929096270986 
1.0699999999998986, -0.37117068695711536 
1.0799999999998975, -0.3644922619367448 
1.0899999999998964, -0.35972482571886627 
1.0999999999998953, -0.35636481325552555 
1.1099999999998942, -0.3540074135798288 
1.119999999999893, -0.35236163297446005 
1.129999999999892, -0.3512298083606602 
1.1399999999998909, -0.35048294196170554 
1.1499999999998898, -0.3500412764002794 
1.1599999999998887, -0.34986137608591084 
1.1699999999998876, -0.34992881816540083 
1.1799999999998865, -0.35025546843676614 
1.1899999999998854, -0.35088068131243555 
1.1999999999998843, -0.35187601588818784 
1.2099999999998832, -0.3533527567540757 
1.219999999999882, -0.35546987530143714 
1.229999999999881, -0.3584354651527765 
1.2399999999998799, -0.3624849752118998 
1.2499999999998788, -0.36780643138027264 
1.2599999999998777, -0.3743866933665658 
1.2699999999998766, -0.3818247111532539 
1.2799999999998755, -0.3893015768271947 
1.2899999999998744, -0.3958892646216369 
1.2999999999998733, -0.4010095846527261 
1.3099999999998722, -0.40460719047817284 
1.319999999999871, -0.4069610006639997 
1.32999999999987, -0.4084242651762094 
1.3399999999998689, -0.4092858194026542 
1.3499999999998678, -0.409741357751021 
1.3599999999998666, -0.4099094044461159 
1.3699999999998655, -0.40985352473139675 
1.3799999999998644, -0.40959899880161715 
1.3899999999998633, -0.40914386052576096 
1.3999999999998622, -0.4084679449003271 
1.4099999999998611, -0.40754468586898485 
1.41999999999986, -0.40635933540615377 
1.429999999999859, -0.4049316287650739 
1.4399999999998578, -0.4033310635245487 
1.4499999999998567, -0.40166908890988795 
1.4599999999998556, -0.4000665634906717 
1.4699999999998545, -0.3986164232135028 
1.4799999999998534, -0.3973641793593436 
1.4899999999998523, -0.39631103530088396 
1.4999999999998512, -0.39542951688565736 
1.5099999999998501, -0.3946805424464987 
1.519999999999849, -0.39402627627949083 
1.529999999999848, -0.3934374887148625 
1.5399999999998468, -0.3928964326822641 
1.5499999999998457, -0.3923973016589307 
1.5599999999998446, -0.3919465145482937 
1.5699999999998435, -0.39156472786694435 
1.5799999999998424, -0.39129217800252225 
1.5899999999998413, -0.3911990982870278 
1.5999999999998402, -0.3914034604013289 
1.6099999999998391, -0.39209827023460014 
1.619999999999838, -0.3935870438541602 
1.629999999999837, -0.396310030814395 
1.6399999999998358, -0.40079630774482417 
1.6499999999998347, -0.4073880064475504 
1.6599999999998336, -0.41557901677410863 
1.6699999999998325, -0.42334699613783033 
1.6799999999998314, -0.42787832793618996 
1.6899999999998303, -0.4279977562926489 
1.6999999999998292, -0.42518368042748766 
1.709999999999828, -0.4217026240703893 
1.719999999999827, -0.41886718541915524 
1.729999999999826, -0.4169685187199364 
1.7399999999998248, -0.4158369900332616 
1.7499999999998237, -0.4152192590478084 
1.7599999999998226, -0.4149114302449138 
1.7699999999998215, -0.4147771056571214 
1.7799999999998204, -0.41473220678597256 
1.7899999999998193, -0.41472701490472863 
1.7999999999998182, -0.4147330071326662 
1.809999999999817, -0.4147349087900558 
1.819999999999816, -0.4147269027557046 
1.8299999999998149, -0.41471187179504543 
1.8399999999998138, -0.4147023885899882 
1.8499999999998127, -0.4147215850735549 
1.8599999999998116, -0.41480152963812794 
1.8699999999998105, -0.41497725693794213 
1.8799999999998094, -0.41527644125396534 
1.8899999999998083, -0.41570704665716535 
1.8999999999998072, -0.41624735036306787 
1.909999999999806, -0.4168441782128781 
1.919999999999805, -0.41742382874608647 
1.9299999999998039, -0.41791313357549925 
1.9399999999998028, -0.4182594546043609 
1.9499999999998017, -0.41843838778282355 
1.9599999999998006, -0.41844775464804906 
1.9699999999997995, -0.41829492725518325 
1.9799999999997984, -0.417984475019131 
1.9899999999997973, -0.41750829233529074 
1.9999999999997962, -0.4168362729977111 
2.0099999999998173, -0.41590342469232117 
2.0199999999998384, -0.414587804382948 
2.0299999999998595, -0.41267265654438495 
2.0399999999998806, -0.40979081606302037 
2.0499999999999017, -0.40537770496612896 
2.059999999999923, -0.39873778659869796 
2.069999999999944, -0.38940587135887295 
2.079999999999965, -0.37776657607907355 
2.089999999999986, -0.36527702324216793 
2.100000000000007, -0.35372357470326804 
2.1100000000000283, -0.3442312500838584 
2.1200000000000494, -0.33701980219084465 
2.1300000000000705, -0.33177028020738863 
2.1400000000000916, -0.32801748667883573 
2.1500000000001127, -0.32534667605940726 
2.160000000000134, -0.3234462151950265 
2.170000000000155, -0.32210023014367317 
2.180000000000176, -0.3211667393369048 
2.190000000000197, -0.32055781421350826 
2.2000000000002182, -0.3202257304750631 
2.2100000000002393, -0.3201550893760323 
2.2200000000002604, -0.3203602042528956 
2.2300000000002815, -0.32088740165675333 
2.2400000000003026, -0.321822437993534 
2.2500000000003237, -0.3233035039401259 
2.260000000000345, -0.3255394156011348 
2.270000000000366, -0.32882830759995385 
2.280000000000387, -0.33355940715132676 
2.290000000000408, -0.3401528794115327 
2.3000000000004293, -0.348861075337356 
2.3100000000004504, -0.35940123565349646 
2.3200000000004715, -0.37065850177947995 
2.3300000000004926, -0.3809838255615802 
2.3400000000005137, -0.38911078145672146 
2.3500000000005348, -0.39475844090429174 
2.360000000000556, -0.3983786827401531 
2.370000000000577, -0.4006049509471265 
2.380000000000598, -0.40194591221376197 
2.390000000000619, -0.4027327988654393 
2.4000000000006403, -0.4031618876084605 
2.4100000000006614, -0.40334360464897134 
2.4200000000006825, -0.40333616649743326 
2.4300000000007036, -0.40316552876548 
2.4400000000007247, -0.402837550413491 
2.450000000000746, -0.40234753637538373 
2.460000000000767, -0.40169084180264425 
2.470000000000788, -0.40087564151719723 
2.480000000000809, -0.3999344507496113 
2.49000000000083, -0.3989268556477974 
2.5000000000008513, -0.3979280482263742 
2.5100000000008724, -0.39700751961472 
2.5200000000008935, -0.3962100755444608 
2.5300000000009146, -0.3955483228756992 
2.5400000000009357, -0.3950068592107547 
2.550000000000957, -0.39455311942315147 
2.560000000000978, -0.39414956999091955 
2.570000000000999, -0.3937633555557275 
2.58000000000102, -0.3933713408299416 
2.5900000000010412, -0.39296077634051574 
2.6000000000010624, -0.39252756399557 
2.6100000000010835, -0.39207440229387647 
2.6200000000011046, -0.39161036416918427 
2.6300000000011257, -0.39115262776539783 
2.6400000000011468, -0.39073041899293 
2.650000000001168, -0.3903899228448591 
2.660000000001189, -0.39019447308459776 
2.67000000000121, -0.39020090585094025 
2.680000000001231, -0.39036167414026113 
2.6900000000012523, -0.39026406008611336 
2.7000000000012734, -0.3887028101774611 
2.7100000000012945, -0.3836081542965314 
2.7200000000013156, -0.3734321503628897 
2.7300000000013367, -0.35935817601461073 
2.740000000001358, -0.34490253673074167 
2.750000000001379, -0.33295203969195064 
2.7600000000014, -0.3243333851569995 
2.770000000001421, -0.31855973252413566 
2.780000000001442, -0.31482138668007387 
2.7900000000014633, -0.3124332130583708 
2.8000000000014844, -0.3109183576714186 
2.8100000000015055, -0.3099702940421184 
2.8200000000015266, -0.3093992279490684 
2.8300000000015477, -0.3090910187359629 
2.840000000001569, -0.3089806412558223 
2.85000000000159, -0.309036586537851 
2.860000000001611, -0.3092527404145569 
2.870000000001632, -0.3096453703976344 
2.8800000000016532, -0.310253617218014 
2.8900000000016743, -0.31114200602231296 
2.9000000000016954, -0.3124027224132031 
2.9100000000017165, -0.3141532434104307 
2.9200000000017377, -0.31652079561650537 
2.9300000000017588, -0.3196005625484425 
2.94000000000178, -0.32337922241370515 
2.950000000001801, -0.3276487741704057 
2.960000000001822, -0.3319931540352865 
2.970000000001843, -0.3359236741774428 
2.9800000000018643, -0.3390932235620545 
2.9900000000018854, -0.34140626153559567 
3.0000000000019065, -0.3429612998857974 
3.0100000000019276, -0.3439295159735435 
3.0200000000019487, -0.3444699708330568 
3.03000000000197, -0.34469823797527727 
3.040000000001991, -0.3446849607871174 
3.050000000002012, -0.34446363618155124 
3.060000000002033, -0.3440388154341115 
3.070000000002054, -0.34339378933463705 
3.0800000000020753, -0.34250076747381714 
3.0900000000020964, -0.3413376383176274 
3.1000000000021175, -0.3399118190129041 
3.1100000000021386, -0.3382818330962869 
3.1200000000021597, -0.3365584491996969 
3.130000000002181, -0.3348757280414683 
3.140000000002202, -0.33334766724974224 
3.150000000002223, -0.3320387610781977 
3.160000000002244, -0.3309609743062351 
3.1700000000022652, -0.33008851021590446 
3.1800000000022863, -0.3293767282842811 
3.1900000000023074, -0.3287775500280315 
3.2000000000023285, -0.32824926452909964 
3.2100000000023496, -0.32776104872461553 
3.2200000000023707, -0.32729356903510326 
3.230000000002392, -0.3268376015334561 
3.240000000002413, -0.3263925249160624 
3.250000000002434, -0.32596592687357273 
3.260000000002455, -0.32557480177032916 
3.2700000000024763, -0.3252478135934716 
3.2800000000024974, -0.3250256121790715 
3.2900000000025185, -0.3249486856688332 
3.3000000000025396, -0.32500214350816586 
3.3100000000025607, -0.3249475422626147 
3.3200000000025818, -0.3239569845454765 
3.330000000002603, -0.32021484779471715 
3.340000000002624, -0.3114465301634694 
3.350000000002645, -0.297247841945997 
3.360000000002666, -0.28064912425549976 
3.3700000000026873, -0.26568299482963553 
3.3800000000027084, -0.25434291428073635 
3.3900000000027295, -0.24653546369641752 
3.4000000000027506, -0.24137916717829083 
3.4100000000027717, -0.23801130396422665 
3.420000000002793, -0.23580756750503915 
3.430000000002814, -0.2343635342158183 
3.440000000002835, -0.23342969673652986 
3.450000000002856, -0.23285752010055902 
3.460000000002877, -0.23256434156359812 
3.4700000000028983, -0.23251325201573736 
3.4800000000029194, -0.2327035825020821 
3.4900000000029405, -0.23316931651129505 
3.5000000000029616, -0.23398439231152848 
3.5100000000029827, -0.23527493376619688 
3.520000000003004, -0.23723830239966542 
3.530000000003025, -0.2401652820269388 
3.540000000003046, -0.24444887072555854 
3.550000000003067, -0.25053186776271374 
3.5600000000030882, -0.25870320219283066 
3.5700000000031094, -0.26869480481458935 
3.5800000000031305, -0.27934608816532536 
3.5900000000031516, -0.2889534219028844 
3.6000000000031727, -0.2962954608298142 
3.6100000000031938, -0.30121622269279513 
3.620000000003215, -0.30425819098700846 
3.630000000003236, -0.3060706426776143 
3.640000000003257, -0.30713552699348695 
3.650000000003278, -0.3077491920423744 
3.6600000000032993, -0.30807987168338236 
3.6700000000033204, -0.3082199399087758 
3.6800000000033415, -0.30821895195344134 
3.6900000000033626, -0.30810277061690583 
3.7000000000033837, -0.3078854343368814 
3.710000000003405, -0.3075782043130771 
3.720000000003426, -0.3071977335026753 
3.730000000003447, -0.30677266823975513 
3.740000000003468, -0.30634584935539 
3.750000000003489, -0.3059695038209148 
3.7600000000035103, -0.30569418440953183 
3.7700000000035314, -0.3055558359739383 
3.7800000000035525, -0.3055656728853985 
3.7900000000035736, -0.30570553176316984 
3.8000000000035947, -0.30593035018082876 
3.810000000003616, -0.3061787454799671 
3.820000000003637, -0.3063890889922113 
3.830000000003658, -0.3065137609292202 
3.840000000003679, -0.30652465033871085 
3.8500000000037002, -0.30640905777169775 
3.8600000000037213, -0.30616029920271026 
3.8700000000037424, -0.3057672617085697 
3.8800000000037635, -0.3052039936249917 
3.8900000000037847, -0.30441741598074634 
3.9000000000038058, -0.30330961663770706 
3.910000000003827, -0.3017117457733135 
3.920000000003848, -0.29935358905316434 
3.930000000003869, -0.29585724207678965 
3.94000000000389, -0.2908292492361979 
3.9500000000039113, -0.28412913569130505 
3.9600000000039324, -0.2761954807345158 
3.9700000000039535, -0.268023056974646 
3.9800000000039746, -0.26064294564382523 
3.9900000000039957, -0.25462300667655946 
4.000000000004016, -0.25001992339107104 
4.010000000003993, -0.246612068520801 
4.02000000000397, -0.24411243369806504 
4.030000000003946, -0.2422706398596358 
4.040000000003923, -0.24089938397301175 
4.0500000000039, -0.23986994964731795 
4.0600000000038765, -0.23910042259970785 
4.070000000003853, -0.23854549789902935 
4.08000000000383, -0.23819051647906733 
4.090000000003807, -0.23805057556940068 
4.100000000003783, -0.23817565505074287 
4.11000000000376, -0.23866368968264595 
4.120000000003737, -0.23968495174269822 
4.130000000003713, -0.24152186368633116 
4.14000000000369, -0.2446236721103711 
4.150000000003667, -0.24964886714765924 
4.1600000000036434, -0.2573793455039418 
4.17000000000362, -0.2682119290508783 
4.180000000003597, -0.2809664102866369 
4.1900000000035735, -0.2920272501849252 
4.20000000000355, -0.2974831051969279 
4.210000000003527, -0.29700412182848435 
4.220000000003504, -0.2935030031948304 
4.23000000000348, -0.28970001693781977 
4.240000000003457, -0.2867279200536837 
4.250000000003434, -0.2847004273955288 
4.26000000000341, -0.28340251084367446 
4.270000000003387, -0.2825999534680206 
4.280000000003364, -0.28211903537796046 
4.2900000000033405, -0.2818469023101817 
4.300000000003317, -0.28171553423045537 
4.310000000003294, -0.2816875900306079 
4.320000000003271, -0.28174736045452536 
4.330000000003247, -0.2818962501724319 
4.340000000003224, -0.2821516268901182 
4.350000000003201, -0.28254784636560226 
4.360000000003177, -0.2831380211707003 
4.370000000003154, -0.2839944483280399 
4.380000000003131, -0.2852043395941816 
4.390000000003107, -0.28685537460865895 
4.400000000003084, -0.2890039929487822 
4.410000000003061, -0.29162480859103374 
4.4200000000030375, -0.29456198239123377 
4.430000000003014, -0.29753305771458644 
4.440000000002991, -0.3002201581491372 
4.450000000002968, -0.3023977833678565 
4.460000000002944, -0.30399543250785743 
4.470000000002921, -0.30506451682132235 
4.480000000002898, -0.30570676445632533 
4.490000000002874, -0.3060205030717093 
4.500000000002851, -0.3060772497451901 
4.510000000002828, -0.3059172259969544 
4.520000000002804, -0.3055520752331959 
4.530000000002781, -0.30496960900947057 
4.540000000002758, -0.30414095094157567 
4.5500000000027345, -0.3030337459413507 
4.560000000002711, -0.30163470933865155 
4.570000000002688, -0.2999773274969131 
4.580000000002665, -0.2981575332289966 
4.590000000002641, -0.2963174683889199 
4.600000000002618, -0.29459999910868506 
4.610000000002595, -0.2931041620991826 
4.620000000002571, -0.29186816856089476 
4.630000000002548, -0.29087941606377565 
4.640000000002525, -0.2900952475258927 
4.6500000000025015, -0.28946196528246526 
4.660000000002478, -0.2889279845831567 
4.670000000002455, -0.2884511149886242 
4.6800000000024315, -0.2880009749265159 
4.690000000002408, -0.28755802358194166 
4.700000000002385, -0.28711096005167375 
4.710000000002362, -0.28665385905877805 
4.720000000002338, -0.2861834431206792 
4.730000000002315, -0.2856954428651388 
4.740000000002292, -0.2851763406781779 
4.750000000002268, -0.2845806017438158 
4.760000000002245, -0.2837695582111636 
4.770000000002222, -0.28236614825397116 
4.7800000000021985, -0.2794900404757743 
4.790000000002175, -0.27355215103813735 
4.800000000002152, -0.26285108669616436 
4.810000000002129, -0.24750203034793067 
4.820000000002105, -0.23051564772770655 
4.830000000002082, -0.215539997629006 
4.840000000002059, -0.2042583649365594 
4.850000000002035, -0.19645797130156645 
4.860000000002012, -0.19124502603597246 
