t, s[1].omega / s[0].omega 
0, -1.2799977748709614 
0.009999999999999995, -1.2795979239632047 
0.019999999999999934, -1.2788514512382367 
0.029999999999999874, -1.277779822077384 
0.04000000000000012, -1.276438794312316 
0.050000000000000405, -1.2749335941436701 
0.06000000000000069, -1.2734391826919629 
0.07000000000000098, -1.2722265319704835 
0.08000000000000126, -1.2715494349798433 
0.09000000000000155, -1.2713624591762778 
0.10000000000000184, -1.271325194996559 
0.11000000000000212, -1.2710822928892958 
0.12000000000000241, -1.270313015772579 
0.130000000000002, -1.268554209918141 
0.1400000000000009, -1.2650293232473513 
0.1499999999999998, -1.2586685017146428 
0.1599999999999987, -1.2484349452297452 
0.1699999999999976, -1.2338463665822235 
0.1799999999999965, -1.2157723012204622 
0.1899999999999954, -1.197771450931769 
0.1999999999999943, -1.185489705624023 
0.2099999999999932, -1.1810019274940449 
0.2199999999999921, -1.1808313551751928 
0.229999999999991, -1.1815206473540008 
0.2399999999999899, -1.1818743545220762 
0.2499999999999888, -1.1816769363165862 
0.2599999999999877, -1.1807101999893679 
0.2699999999999866, -1.1781924396382166 
0.2799999999999855, -1.17171724165068 
0.2899999999999844, -1.1543478861968475 
0.2999999999999833, -1.1090870400873858 
0.3099999999999822, -1.0123324243723353 
0.3199999999999811, -0.8754661640035306 
0.32999999999998, -0.7607102497984515 
0.3399999999999789, -0.699297180453313 
0.3499999999999778, -0.6749170189323698 
0.35999999999997667, -0.6671473656477731 
0.36999999999997557, -0.6653565751125807 
0.37999999999997447, -0.6653498576426514 
0.38999999999997337, -0.6656920259063616 
0.39999999999997227, -0.6659447037910345 
0.40999999999997117, -0.6659790261074084 
0.41999999999997006, -0.6657293764997284 
0.42999999999996896, -0.6651127511906396 
0.43999999999996786, -0.6640291589784788 
0.44999999999996676, -0.6624345124354004 
0.45999999999996566, -0.6604406164266929 
0.46999999999996456, -0.6583077720152275 
0.47999999999996346, -0.6562939663661941 
0.48999999999996235, -0.6545307053682 
0.49999999999996125, -0.6530296883442127 
0.5099999999999602, -0.6517535227835911 
0.519999999999959, -0.6506738253736297 
0.529999999999958, -0.6497964269986051 
0.5399999999999568, -0.6491622995487378 
0.5499999999999557, -0.6488364048203541 
0.5599999999999546, -0.6488923394506381 
0.5699999999999535, -0.6493989022753738 
0.5799999999999524, -0.6504150949839472 
0.5899999999999513, -0.6519977117150105 
0.5999999999999502, -0.654219342584857 
0.6099999999999491, -0.6571850443821265 
0.619999999999948, -0.6610205034610697 
0.6299999999999469, -0.6657821303502195 
0.6399999999999458, -0.6712485808539367 
0.6499999999999447, -0.6767255535522916 
0.6599999999999436, -0.6812695955745632 
0.6699999999999425, -0.6843378399920388 
0.6799999999999414, -0.6860427234978802 
0.6899999999999403, -0.6867864923686655 
0.6999999999999392, -0.6869015207073743 
0.7099999999999381, -0.6865457570791502 
0.719999999999937, -0.6857058407649679 
0.7299999999999359, -0.6841798462948295 
0.7399999999999348, -0.6814744443700809 
0.7499999999999337, -0.6764923768885911 
0.7599999999999326, -0.6664214427268079 
0.7699999999999315, -0.6421667676610603 
0.7799999999999304, -0.5772081764995067 
0.7899999999999293, -0.449955687875944 
0.7999999999999282, -0.32616972735350225 
0.8099999999999271, -0.2607292280040058 
0.819999999999926, -0.23314551330299338 
0.8299999999999249, -0.22133928991537882 
0.8399999999999238, -0.21588382821511817 
0.8499999999999227, -0.21319243774141194 
0.8599999999999216, -0.21183782672052712 
0.8699999999999205, -0.211219537576418 
0.8799999999999194, -0.21109035566596454 
0.8899999999999183, -0.2113867579435148 
0.8999999999999172, -0.21218397643726192 
0.9099999999999161, -0.21372822258817373 
0.919999999999915, -0.2165629469206186 
0.9299999999999139, -0.2218305632443121 
0.9399999999999128, -0.2318838095779045 
0.9499999999999117, -0.2509331760430396 
0.9599999999999106, -0.2826787292717532 
0.9699999999999095, -0.32021903485026043 
0.9799999999999084, -0.3473159482075714 
0.9899999999999073, -0.3604720903007219 
0.9999999999999062, -0.3659768743367435 
1.0099999999999052, -0.36833117838959206 
1.019999999999904, -0.3693839267618155 
1.029999999999903, -0.3698159749013463 
1.039999999999902, -0.3698761299453473 
1.0499999999999008, -0.36964350566975773 
1.0599999999998997, -0.36912985941691456 
1.0699999999998986, -0.3683474511920596 
1.0799999999998975, -0.3673730071200632 
1.0899999999998964, -0.36636834248494987 
1.0999999999998953, -0.3655174365489717 
1.1099999999998942, -0.36493675727519753 
1.119999999999893, -0.36464068172513425 
1.129999999999892, -0.36455831178835496 
1.1399999999998909, -0.36457044071324474 
1.1499999999998898, -0.36455839483072894 
1.1599999999998887, -0.3644438396110202 
1.1699999999998876, -0.36419335780178075 
1.1799999999998865, -0.36379549618774504 
1.1899999999998854, -0.3632338758063453 
1.1999999999998843, -0.3624594470377702 
1.2099999999998832, -0.36132028227963753 
1.219999999999882, -0.35924066177058195 
1.229999999999881, -0.3536303060486394 
1.2399999999998799, -0.3336357008526802 
1.2499999999998788, -0.2749127825738542 
1.2599999999998777, -0.18835741277827348 
1.2699999999998766, -0.12960841890665842 
1.2799999999998755, -0.10293545511838981 
1.2899999999998744, -0.09137865038829737 
1.2999999999998733, -0.08595770548726338 
1.3099999999998722, -0.08317503107528113 
1.319999999999871, -0.08165764518687317 
1.32999999999987, -0.08084152456442709 
1.3399999999998689, -0.0805126545180119 
1.3499999999998678, -0.080660357528142 
1.3599999999998666, -0.08148146397689984 
1.3699999999998655, -0.0835493487606555 
1.3799999999998644, -0.08836859755408565 
1.3899999999998633, -0.10007738659836966 
1.3999999999998622, -0.12993676873595034 
1.4099999999998611, -0.19469210891216127 
1.41999999999986, -0.2346789575104889 
1.429999999999859, -0.13893801441857553 
1.4399999999998578, -0.046662118084143764 
1.4499999999998567, -0.009933865592767294 
1.4599999999998556, 0.0034256172383241488 
1.4699999999998545, 0.008669094882298858 
1.4799999999998534, 0.010923923662898072 
1.4899999999998523, 0.011850201232072859 
1.4999999999998512, 0.012045686126579563 
1.5099999999998501, 0.011682924546318859 
1.519999999999849, 0.01066661502504195 
1.529999999999848, 0.008548227642268246 
1.5399999999998468, 0.004072182425296121 
1.5499999999998457, -0.006223679384920256 
1.5599999999998446, -0.03362121869029977 
1.5699999999998435, -0.1072977333944304 
1.5799999999998424, -0.21503861021446874 
1.5899999999998413, -0.19996070679703626 
1.5999999999998402, -0.12360849090118892 
1.6099999999998391, -0.08432353406882008 
1.619999999999838, -0.06890794236197416 
1.629999999999837, -0.06251098072364442 
1.6399999999998358, -0.05958857754992084 
1.6499999999998347, -0.058181087619061454 
1.6599999999998336, -0.05755639240959999 
1.6699999999998325, -0.05745495784558948 
1.6799999999998314, -0.0578588946753954 
1.6899999999998303, -0.058968262072786756 
1.6999999999998292, -0.061348315389421176 
1.709999999999828, -0.06642656342523204 
1.719999999999827, -0.07801437104518542 
1.729999999999826, -0.10669832868855657 
1.7399999999998248, -0.17555113348169932 
1.7499999999998237, -0.28373170110027335 
1.7599999999998226, -0.3536564273080084 
1.7699999999998215, -0.37251497411604495 
1.7799999999998204, -0.37581286967522226 
1.7899999999998193, -0.376568883339038 
1.7999999999998182, -0.3769846422566797 
1.809999999999817, -0.37729592828503017 
1.819999999999816, -0.3775038464966235 
1.8299999999998149, -0.37759881673314016 
1.8399999999998138, -0.37757520254328075 
1.8499999999998127, -0.3774330018966995 
1.8599999999998116, -0.3771913996243509 
1.8699999999998105, -0.37690903439979345 
1.8799999999998094, -0.3766890537022429 
1.8899999999998083, -0.3766511218669542 
1.8999999999998072, -0.376883790148211 
1.909999999999806, -0.3774007329128533 
1.919999999999805, -0.3781116580104059 
1.9299999999998039, -0.3788376875485626 
1.9399999999998028, -0.37939530007573075 
1.9499999999998017, -0.3796815183143099 
1.9599999999998006, -0.37967535151157766 
1.9699999999997995, -0.3793765929416236 
1.9799999999997984, -0.3787374948699692 
1.9899999999997973, -0.37757967445278295 
1.9999999999997962, -0.3754048805853816 
2.0099999999998173, -0.37085558619397896 
2.0199999999998384, -0.3604065590228095 
2.0299999999998595, -0.337553366945814 
2.0399999999998806, -0.30076508213417785 
2.0499999999999017, -0.26437012497945683 
2.059999999999923, -0.24044617810228852 
2.069999999999944, -0.22738830626774081 
2.079999999999965, -0.22042761320824364 
2.089999999999986, -0.21656414985711528 
2.100000000000007, -0.21431003342439944 
2.1100000000000283, -0.2129558704282269 
2.1200000000000494, -0.21217091331881344 
2.1300000000000705, -0.2118274113793192 
2.1400000000000916, -0.21194003906588957 
2.1500000000001127, -0.2126823595269602 
2.160000000000134, -0.21450222281536327 
2.170000000000155, -0.218454345887372 
2.180000000000176, -0.22712636618019902 
2.190000000000197, -0.24724837615496312 
2.2000000000002182, -0.2958021506496119 
2.2100000000002393, -0.39952992600632564 
2.2200000000002604, -0.5358952504495964 
2.2300000000002815, -0.6224558107111162 
2.2400000000003026, -0.656266601471293 
2.2500000000003237, -0.6691877865814201 
2.260000000000345, -0.6750110232419397 
2.270000000000366, -0.6779085507505597 
2.280000000000387, -0.6793663423591225 
2.290000000000408, -0.6800249142720676 
2.3000000000004293, -0.6801615078068162 
2.3100000000004504, -0.6798446270510642 
2.3200000000004715, -0.6789745909994956 
2.3300000000004926, -0.6772818429096418 
2.3400000000005137, -0.6743843785417653 
2.3500000000005348, -0.6700615796050523 
2.360000000000556, -0.6646558244289565 
2.370000000000577, -0.6590229745438747 
2.380000000000598, -0.6539339413264267 
2.390000000000619, -0.649710121448 
2.4000000000006403, -0.6463414383575022 
2.4100000000006614, -0.6437082583296854 
2.4200000000006825, -0.6416990455420403 
2.4300000000007036, -0.6402379945637641 
2.4400000000007247, -0.63927377498363 
2.450000000000746, -0.6387606644840262 
2.460000000000767, -0.6386465376908605 
2.470000000000788, -0.6388724914447328 
2.480000000000809, -0.639382597238293 
2.49000000000083, -0.6401387037780792 
2.5000000000008513, -0.6411341791098081 
2.5100000000008724, -0.6423987487386993 
2.5200000000008935, -0.6439816142381221 
2.5300000000009146, -0.6458978759556724 
2.5400000000009357, -0.6480426292101771 
2.550000000000957, -0.6501417325155501 
2.560000000000978, -0.6518538160089395 
2.570000000000999, -0.6529770967562956 
2.58000000000102, -0.6535230895283696 
2.5900000000010412, -0.6536091611891941 
2.6000000000010624, -0.6533407267848095 
2.6100000000010835, -0.6527705373267144 
2.6200000000011046, -0.6519217994923148 
2.6300000000011257, -0.6508909345451359 
2.6400000000011468, -0.6501739010165952 
2.650000000001168, -0.651640480748998 
2.660000000001189, -0.6609696112183575 
2.67000000000121, -0.6910644011361836 
2.680000000001231, -0.7564653571349036 
2.6900000000012523, -0.8474685182481847 
2.7000000000012734, -0.9306846744680587 
2.7100000000012945, -0.985299102177273 
2.7200000000013156, -1.0128327690951475 
2.7300000000013367, -1.0246950383265254 
2.740000000001358, -1.0295090105098796 
2.750000000001379, -1.0313755793301564 
2.7600000000014, -1.03192807819422 
2.770000000001421, -1.0317247490309605 
2.780000000001442, -1.0307876742000286 
2.7900000000014633, -1.028660508023282 
2.8000000000014844, -1.0241472028667156 
2.8100000000015055, -1.0151101009168109 
2.8200000000015266, -1.0009351922814793 
2.8300000000015477, -0.9948121420914056 
2.840000000001569, -1.0368010580209752 
2.85000000000159, -1.1461555698220478 
2.860000000001611, -1.2540060822272543 
2.870000000001632, -1.3081139607486192 
2.8800000000016532, -1.3274714503757024 
2.8900000000016743, -1.333828688821554 
2.9000000000016954, -1.3358414171815878 
2.9100000000017165, -1.3362695381322607 
2.9200000000017377, -1.3359593852957177 
2.9300000000017588, -1.3352463807732833 
2.94000000000178, -1.334781984226545 
2.950000000001801, -1.3361527446468402 
2.960000000001822, -1.3404978711128543 
2.970000000001843, -1.3464693764467333 
2.9800000000018643, -1.352068490520392 
2.9900000000018854, -1.3564777515384943 
3.0000000000019065, -1.359650443403955 
3.0100000000019276, -1.3617296776558963 
3.0200000000019487, -1.3628813639690478 
3.03000000000197, -1.3632884673872188 
3.040000000001991, -1.3631445616706381 
3.050000000002012, -1.3626393077967018 
3.060000000002033, -1.3619692588433838 
3.070000000002054, -1.361327092321448 
3.0800000000020753, -1.360841970071816 
3.0900000000020964, -1.360582723048989 
3.1000000000021175, -1.3605560289766605 
3.1100000000021386, -1.3606187540928283 
3.1200000000021597, -1.3605220201583874 
3.130000000002181, -1.360007816000671 
3.140000000002202, -1.3587789553142897 
3.150000000002223, -1.3564462582456243 
3.160000000002244, -1.3525581482643125 
3.1700000000022652, -1.346672264516095 
3.1800000000022863, -1.3384418793977382 
3.1900000000023074, -1.3280353510919412 
3.2000000000023285, -1.3173574004732596 
3.2100000000023496, -1.3102584822372618 
3.2200000000023707, -1.3082013964714503 
3.230000000002392, -1.3085412117634294 
3.240000000002413, -1.3090189191503931 
3.250000000002434, -1.3089988018943113 
3.260000000002455, -1.3082608007295657 
3.2700000000024763, -1.306148373875119 
3.2800000000024974, -1.3004794498436578 
3.2900000000025185, -1.2847405157235883 
3.3000000000025396, -1.2448095231506555 
3.3100000000025607, -1.180825569269515 
3.3200000000025818, -1.163720060279354 
3.330000000002603, -1.2360399310161538 
3.340000000002624, -1.3107905946681127 
3.350000000002645, -1.344661811977642 
3.360000000002666, -1.3562016733043412 
3.3700000000026873, -1.3599160685815195 
3.3800000000027084, -1.3609771549443108 
3.3900000000027295, -1.360975292136379 
3.4000000000027506, -1.360397541613016 
3.4100000000027717, -1.3596361403391046 
3.420000000002793, -1.3598860707653029 
3.430000000002814, -1.3629650101440678 
3.440000000002835, -1.3686365740412854 
3.450000000002856, -1.3746404842153366 
3.460000000002877, -1.3795574598453382 
3.4700000000028983, -1.383146269205644 
3.4800000000029194, -1.3855524444605096 
3.4900000000029405, -1.3869642416163699 
3.5000000000029616, -1.3875693944814882 
3.5100000000029827, -1.3875599482636585 
3.520000000003004, -1.3871225577735196 
3.530000000003025, -1.386444640365892 
3.540000000003046, -1.3857187693006596 
3.550000000003067, -1.385096671721353 
3.5600000000030882, -1.3846809378654743 
3.5700000000031094, -1.3845329461166083 
3.5800000000031305, -1.3845541508821637 
3.5900000000031516, -1.3844853931925467 
3.6000000000031727, -1.3840390359664632 
3.6100000000031938, -1.382878733011717 
3.620000000003215, -1.3805053672452272 
3.630000000003236, -1.3762206239452914 
3.640000000003257, -1.3692055448864444 
3.650000000003278, -1.3586867487866692 
3.6600000000032993, -1.3445741974091823 
3.6700000000033204, -1.329457630511974 
3.6800000000033415, -1.319338801878688 
3.6900000000033626, -1.316617127139926 
3.7000000000033837, -1.3172226595579068 
3.710000000003405, -1.3179552156277614 
3.720000000003426, -1.3180918713353769 
3.730000000003447, -1.3175187804992636 
3.740000000003468, -1.315768235020221 
3.750000000003489, -1.3112205688603633 
3.7600000000035103, -1.2996217924387803 
3.7700000000035314, -1.2764197368741033 
3.7800000000035525, -1.2696356318441064 
3.7900000000035736, -1.3584878383091212 
3.8000000000035947, -1.4885866526454081 
3.810000000003616, -1.553988748701054 
3.820000000003637, -1.5753330621496948 
3.830000000003658, -1.5817605055267083 
3.840000000003679, -1.5836032903887447 
3.8500000000037002, -1.5838889119753408 
3.8600000000037213, -1.583563648447391 
3.8700000000037424, -1.583163109972536 
3.8800000000037635, -1.5832459632611424 
3.8900000000037847, -1.5839075697938754 
3.9000000000038058, -1.5847209455125162 
3.910000000003827, -1.585378118802786 
3.920000000003848, -1.585731610885021 
3.930000000003869, -1.5856459060165868 
3.94000000000389, -1.5849669942846707 
3.9500000000039113, -1.5834893740697897 
3.9600000000039324, -1.5809136172645202 
3.9700000000039535, -1.5767872333968957 
3.9800000000039746, -1.5705383184440596 
3.9900000000039957, -1.5623386750262558 
4.000000000004016, -1.555368831864632 
4.010000000003993, -1.5532671947293046 
4.02000000000397, -1.553852173825951 
4.030000000003946, -1.5543417578674348 
4.040000000003923, -1.5541312772863383 
4.0500000000039, -1.5529516798204412 
4.0600000000038765, -1.5498403823773574 
4.070000000003853, -1.5438032707909652 
4.08000000000383, -1.545623831125518 
4.090000000003807, -1.5816386684094772 
4.100000000003783, -1.6266657250657852 
4.11000000000376, -1.6524467663486009 
4.120000000003737, -1.663954214305357 
4.130000000003713, -1.6686542800447446 
4.14000000000369, -1.6703295515165162 
4.150000000003667, -1.6706415495740672 
4.1600000000036434, -1.670311137921263 
4.17000000000362, -1.6697333407898138 
4.180000000003597, -1.6691815394903826 
4.1900000000035735, -1.6687556131472987 
4.20000000000355, -1.6685246441217334 
4.210000000003527, -1.668480032618458 
4.220000000003504, -1.668323098016278 
4.23000000000348, -1.6676099646646405 
4.240000000003457, -1.6655634267901671 
4.250000000003434, -1.660120217936801 
4.26000000000341, -1.6455497859410437 
4.270000000003387, -1.607882445797557 
4.280000000003364, -1.5324596801639048 
4.2900000000033405, -1.4666167977552556 
4.300000000003317, -1.4619815772646183 
4.310000000003294, -1.4723396011708727 
4.320000000003271, -1.4773728289455297 
4.330000000003247, -1.4790160549466467 
4.340000000003224, -1.479239916028396 
4.350000000003201, -1.4786927769824019 
4.360000000003177, -1.477625126660821 
4.370000000003154, -1.477166519501811 
4.380000000003131, -1.4802860818866996 
4.390000000003107, -1.4875046178626397 
4.400000000003084, -1.4950553360229422 
4.410000000003061, -1.5006965820475953 
4.4200000000030375, -1.504393797275324 
4.430000000003014, -1.5066035398700517 
4.440000000002991, -1.507711620929584 
4.450000000002968, -1.5080083590528262 
4.460000000002944, -1.5077201607912318 
4.470000000002921, -1.5070336653546603 
4.480000000002898, -1.5061244946724237 
4.490000000002874, -1.5051546185714233 
4.500000000002851, -1.5043051225779773 
4.510000000002828, -1.5038156020094628 
4.520000000002804, -1.5036950348334217 
4.530000000002781, -1.5035903835446696 
4.540000000002758, -1.5030785283791506 
4.5500000000027345, -1.501599466801808 
4.560000000002711, -1.4978755435223885 
4.570000000002688, -1.4887627210165792 
4.580000000002665, -1.4674148953501382 
4.590000000002641, -1.4232670908278626 
4.600000000002618, -1.3570209825401904 
4.610000000002595, -1.3068132467175753 
4.620000000002571, -1.2963819385901454 
4.630000000002548, -1.3007731363656938 
4.640000000002525, -1.304383044061893 
4.6500000000025015, -1.3059063328461953 
4.660000000002478, -1.306230622452574 
4.670000000002455, -1.3057649425069986 
4.6800000000024315, -1.30440221142245 
4.690000000002408, -1.3017722343144997 
4.700000000002385, -1.299140884185041 
4.710000000002362, -1.3060170431048226 
4.720000000002338, -1.3362436120760266 
4.730000000002315, -1.3785443344413593 
4.740000000002292, -1.4112547576794565 
4.750000000002268, -1.430057377532191 
4.760000000002245, -1.4393097680285987 
4.770000000002222, -1.4433542170214848 
4.7800000000021985, -1.44485819809583 
4.790000000002175, -1.445167306680932 
4.800000000002152, -1.444912370982357 
4.810000000002129, -1.4444859713581617 
4.820000000002105, -1.444265085836259 
4.830000000002082, -1.4444410713269158 
4.840000000002059, -1.4448794539832428 
4.850000000002035, -1.4453744675389975 
4.860000000002012, -1.4457660978634368 
4.870000000001989, -1.4458926368302631 
4.880000000001965, -1.4455990534524334 
4.890000000001942, -1.4447371761237928 
4.900000000001919, -1.4431531168258238 
