t, s[1].omega / s[0].omega 
0, -0.3200556211405087 
0.009999999999999995, -0.32243922363738153 
0.019999999999999934, -0.3195187857218681 
0.029999999999999874, -0.3144014076530811 
0.04000000000000012, -0.30962398206575903 
0.050000000000000405, -0.30608405411621104 
0.06000000000000069, -0.3037281643170632 
0.07000000000000098, -0.30224036593934045 
0.08000000000000126, -0.30132818656301746 
0.09000000000000155, -0.3007843725450533 
0.10000000000000184, -0.30047646582390797 
0.11000000000000212, -0.3003246206719522 
0.12000000000000241, -0.3002839293109748 
0.130000000000002, -0.30033328644858454 
0.1400000000000009, -0.30046954617300553 
0.1499999999999998, -0.3007054548190511 
0.1599999999999987, -0.30106999470486484 
0.1699999999999976, -0.3016096394583997 
0.1799999999999965, -0.3023884776055891 
0.1899999999999954, -0.30348415356796804 
0.1999999999999943, -0.3049750173699402 
0.2099999999999932, -0.3069127938744454 
0.2199999999999921, -0.30927943506500327 
0.229999999999991, -0.3119445043012232 
0.2399999999999899, -0.3146640807747231 
0.2499999999999888, -0.31715334076806256 
0.2599999999999877, -0.31919735262205023 
0.2699999999999866, -0.3207146362406384 
0.2799999999999855, -0.32173758301170263 
0.2899999999999844, -0.3223516997111794 
0.2999999999999833, -0.32264487745449133 
0.3099999999999822, -0.32268250709399254 
0.3199999999999811, -0.3225005831252937 
0.32999999999998, -0.32210624664674803 
0.3399999999999789, -0.32148047702887583 
0.3499999999999778, -0.32058310662543354 
0.35999999999997667, -0.31936452244338775 
0.36999999999997557, -0.31778974058917975 
0.37999999999997447, -0.31587388779222636 
0.38999999999997337, -0.31371092441723425 
0.39999999999997227, -0.3114657957804157 
0.40999999999997117, -0.3093219339156964 
0.41999999999997006, -0.3074184907619312 
0.42999999999996896, -0.30581952101403725 
0.43999999999996786, -0.3045222972135237 
0.44999999999996676, -0.3034837686687526 
0.45999999999996566, -0.3026456254634747 
0.46999999999996456, -0.30195095956511764 
0.47999999999996346, -0.3013529812085049 
0.48999999999996235, -0.3008180878474943 
0.49999999999996125, -0.30032559937772846 
0.5099999999999602, -0.299866247844797 
0.519999999999959, -0.29944107516247137 
0.529999999999958, -0.29906178291597985 
0.5399999999999568, -0.2987529103856881 
0.5499999999999557, -0.29855508837019384 
0.5599999999999546, -0.29852527645558513 
0.5699999999999535, -0.298719559949374 
0.5799999999999524, -0.2991169666721073 
0.5899999999999513, -0.2993943496103667 
0.5999999999999502, -0.29847224515134946 
0.6099999999999491, -0.2941637357340447 
0.619999999999948, -0.28420542416737654 
0.6299999999999469, -0.2690461948317439 
0.6399999999999458, -0.25253418610166073 
0.6499999999999447, -0.2384929339559197 
0.6599999999999436, -0.22825527086157144 
0.6699999999999425, -0.22134872931013366 
0.6799999999999414, -0.21682237445323554 
0.6899999999999403, -0.21386666411339225 
0.6999999999999392, -0.2119267984170096 
0.7099999999999381, -0.2106531007510663 
0.719999999999937, -0.20983406026537707 
0.7299999999999359, -0.20934729150437703 
0.7399999999999348, -0.20912955783888929 
0.7499999999999337, -0.2091608962081053 
0.7599999999999326, -0.2094589064089914 
0.7699999999999315, -0.2100813505147984 
0.7799999999999304, -0.2111370253186847 
0.7899999999999293, -0.21280601284434125 
0.7999999999999282, -0.21536955782402423 
0.8099999999999271, -0.2192422815161859 
0.819999999999926, -0.22497331670273285 
0.8299999999999249, -0.2331230198521383 
0.8399999999999238, -0.2438666266292056 
0.8499999999999227, -0.2563644759620186 
0.8599999999999216, -0.26859905171143816 
0.8699999999999205, -0.27847118965320705 
0.8799999999999194, -0.28518217745206603 
0.8899999999999183, -0.28924347109308896 
0.8999999999999172, -0.2915714543149476 
0.9099999999999161, -0.2928942012086117 
0.919999999999915, -0.29365260327436826 
0.9299999999999139, -0.2940855762560413 
0.9399999999999128, -0.2943182319265655 
0.9499999999999117, -0.2944161836869934 
0.9599999999999106, -0.29441443604378875 
0.9699999999999095, -0.294332728067939 
0.9799999999999084, -0.29418484662116506 
0.9899999999999073, -0.2939857170624548 
0.9999999999999062, -0.2937574219060519 
1.0099999999999052, -0.29353317283221414 
1.019999999999904, -0.2933571051669197 
1.029999999999903, -0.2932785466209912 
1.039999999999902, -0.29334174489799364 
1.0499999999999008, -0.29357374727755975 
1.0599999999998997, -0.29397328791984745 
1.0699999999998986, -0.29450416802247836 
1.0799999999998975, -0.29509831673688225 
1.0899999999998964, -0.29567184883657716 
1.0999999999998953, -0.2961486904490983 
1.1099999999998942, -0.29647855804396495 
1.119999999999893, -0.2966399778080645 
1.129999999999892, -0.2966305544616875 
1.1399999999998909, -0.29645282743679996 
1.1499999999998898, -0.2961014939758382 
1.1599999999998887, -0.29555268444807525 
1.1699999999998876, -0.2947531102097459 
1.1799999999998865, -0.29360710390177136 
1.1899999999998854, -0.2919635312941207 
1.1999999999998843, -0.2896152965603944 
1.2099999999998832, -0.2863423625351374 
1.219999999999882, -0.282033171857358 
1.229999999999881, -0.27685232586673025 
1.2399999999998799, -0.2712936714461871 
1.2499999999998788, -0.2659860817563845 
1.2599999999998777, -0.26139784792136367 
1.2699999999998766, -0.2577036985948586 
1.2799999999998755, -0.2548512840059016 
1.2899999999998744, -0.2526873537283653 
1.2999999999998733, -0.25104596311486127 
1.3099999999998722, -0.24978721788846253 
1.319999999999871, -0.2488067624193715 
1.32999999999987, -0.24803343246683512 
1.3399999999998689, -0.24742408304585162 
1.3499999999998678, -0.24695945519802814 
1.3599999999998666, -0.24664280640893654 
1.3699999999998655, -0.24650247172816048 
1.3799999999998644, -0.24659976276986512 
1.3899999999998633, -0.24704418775442566 
1.3999999999998622, -0.24801784952124853 
1.4099999999998611, -0.24980627003482186 
1.41999999999986, -0.2528115723236072 
1.429999999999859, -0.2574564736403925 
1.4399999999998578, -0.26375338728453757 
1.4499999999998567, -0.270335949493858 
1.4599999999998556, -0.27379530873900265 
1.4699999999998545, -0.2707896765940647 
1.4799999999998534, -0.2620017786961765 
1.4899999999998523, -0.2515431939532317 
1.4999999999998512, -0.24268339404928355 
1.5099999999998501, -0.23633314495195196 
1.519999999999849, -0.2321168085640671 
1.529999999999848, -0.2293980649814061 
1.5399999999998468, -0.22765994776216242 
1.5499999999998457, -0.22655549317401472 
1.5599999999998446, -0.22586908683522547 
1.5699999999998435, -0.22547293418948686 
1.5799999999998424, -0.22529653527286236 
1.5899999999998413, -0.22530866351488582 
1.5999999999998402, -0.22550853466825468 
1.6099999999998391, -0.2259236749907106 
1.619999999999838, -0.22661313681408646 
1.629999999999837, -0.22767532585454564 
1.6399999999998358, -0.22925919710303894 
1.6499999999998347, -0.23157440043497543 
1.6599999999998336, -0.23488671229567282 
1.6699999999998325, -0.239466575733173 
1.6799999999998314, -0.24544304255611044 
1.6899999999998303, -0.2525638885761326 
1.6999999999998292, -0.2600469256893552 
1.709999999999828, -0.26683194776968605 
1.719999999999827, -0.2721563290625487 
1.729999999999826, -0.2758731312586357 
1.7399999999998248, -0.27827016514974695 
1.7499999999998237, -0.2797426082254683 
1.7599999999998226, -0.28061252102922557 
1.7699999999998215, -0.2810940764014431 
1.7799999999998204, -0.28131624799770677 
1.7899999999998193, -0.2813520716271199 
1.7999999999998182, -0.2812404194449113 
1.809999999999817, -0.281000708938249 
1.819999999999816, -0.2806439772447853 
1.8299999999998149, -0.2801829306137527 
1.8399999999998138, -0.27964122691779 
1.8499999999998127, -0.27905929075353325 
1.8599999999998116, -0.2784926507914855 
1.8699999999998105, -0.27800165419015305 
1.8799999999998094, -0.27763683093679575 
1.8899999999998083, -0.2774264606440112 
1.8999999999998072, -0.27737009717467354 
1.909999999999806, -0.2774385720767515 
1.919999999999805, -0.27758054861374515 
1.9299999999998039, -0.27773513924016635 
1.9399999999998028, -0.2778466831652928 
1.9499999999998017, -0.27787498231683216 
1.9599999999998006, -0.27779675198893866 
1.9699999999997995, -0.27759957413217695 
1.9799999999997984, -0.27727245220943175 
1.9899999999997973, -0.27679565946328 
1.9999999999997962, -0.27612959128301273 
2.0099999999998173, -0.27520006680122944 
2.0199999999998384, -0.2738769725136129 
2.0299999999998595, -0.2719467889224006 
2.0399999999998806, -0.2690949953394718 
2.0499999999999017, -0.26495045327525524 
2.059999999999923, -0.25927260886789477 
2.069999999999944, -0.2522601171602 
2.079999999999965, -0.24468202784960727 
2.089999999999986, -0.2375364280130571 
2.100000000000007, -0.2315203923802501 
2.1100000000000283, -0.22683301084567317 
2.1200000000000494, -0.22333329873243185 
2.1300000000000705, -0.22076142916230826 
2.1400000000000916, -0.21886791047747417 
2.1500000000001127, -0.21745741702064691 
2.160000000000134, -0.21639154918596581 
2.170000000000155, -0.21557907177711005 
2.180000000000176, -0.21496554880962107 
2.190000000000197, -0.21452622212676423 
2.2000000000002182, -0.21426327121134375 
2.2100000000002393, -0.2142082013049902 
2.2200000000002604, -0.21443066928751886 
2.2300000000002815, -0.2150559202107259 
2.2400000000003026, -0.21629289267923646 
2.2500000000003237, -0.21846916937051017 
2.260000000000345, -0.22204151687438173 
2.270000000000366, -0.2274643386941444 
2.280000000000387, -0.2346370516028692 
2.290000000000408, -0.24175600519833912 
2.3000000000004293, -0.24485102777771806 
2.3100000000004504, -0.2407902628243122 
2.3200000000004715, -0.23126381947011962 
2.3300000000004926, -0.2208214072738292 
2.3400000000005137, -0.2123844144415817 
2.3500000000005348, -0.20648496321365953 
2.360000000000556, -0.20260560094487637 
2.370000000000577, -0.2001052322232913 
2.380000000000598, -0.1984999724646268 
2.390000000000619, -0.1974755470121237 
2.4000000000006403, -0.1968407673974857 
2.4100000000006614, -0.19648537132223348 
2.4200000000006825, -0.19635255839530863 
2.4300000000007036, -0.19642392710322362 
2.4400000000007247, -0.1967135046212011 
2.450000000000746, -0.19726889501798095 
2.460000000000767, -0.1981789062833259 
2.470000000000788, -0.19958766992958224 
2.480000000000809, -0.20171411196480377 
2.49000000000083, -0.20486928432988177 
2.5000000000008513, -0.20944512010251087 
2.5100000000008724, -0.21581102743368868 
2.5200000000008935, -0.2240351499178474 
2.5300000000009146, -0.23349186557571527 
2.5400000000009357, -0.24280112605983822 
2.550000000000957, -0.2505244622962422 
2.560000000000978, -0.2560267878858999 
2.570000000000999, -0.2595457286932276 
2.58000000000102, -0.2616659785441976 
2.5900000000010412, -0.2629102753133317 
2.6000000000010624, -0.26362716035077893 
2.6100000000010835, -0.26402165752026974 
2.6200000000011046, -0.26420830052070976 
2.6300000000011257, -0.2642498483932366 
2.6400000000011468, -0.264180697193684 
2.650000000001168, -0.2640210432203668 
2.660000000001189, -0.2637867236402499 
2.67000000000121, -0.2634972492283377 
2.680000000001231, -0.26318208318117486 
2.6900000000012523, -0.2628832562487461 
2.7000000000012734, -0.26265222314286735 
2.7100000000012945, -0.2625410701982557 
2.7200000000013156, -0.26259080723565065 
2.7300000000013367, -0.26281989671106215 
2.740000000001358, -0.2632153057050108 
2.750000000001379, -0.2637293126613428 
2.7600000000014, -0.26428689456048204 
2.770000000001421, -0.2648048360622717 
2.780000000001442, -0.2652142957308336 
2.7900000000014633, -0.26547398816131634 
2.8000000000014844, -0.26556843770869015 
2.8100000000015055, -0.2654962866564487 
2.8200000000015266, -0.26525655075035026 
2.8300000000015477, -0.2648368061476411 
2.840000000001569, -0.26420296848862407 
2.85000000000159, -0.2632888809791057 
2.860000000001611, -0.26198593650528107 
2.870000000001632, -0.26013967890768097 
2.8800000000016532, -0.2575728606096609 
2.8900000000016743, -0.2541627724504082 
2.9000000000016954, -0.24996912925327525 
2.9100000000017165, -0.24531768820756433 
2.9200000000017377, -0.24070966199529326 
2.9300000000017588, -0.2365923224705361 
2.94000000000178, -0.23319456847015033 
2.950000000001801, -0.23053082486060816 
2.960000000001822, -0.22849535288721062 
2.970000000001843, -0.22694787040308267 
2.9800000000018643, -0.22575921925996528 
2.9900000000018854, -0.22482724842799467 
3.0000000000019065, -0.22407833101063987 
3.0100000000019276, -0.22346385913267755 
3.0200000000019487, -0.2229560579025302 
3.03000000000197, -0.22254506631865154 
3.040000000001991, -0.22223828292099737 
3.050000000002012, -0.22206257381240807 
3.060000000002033, -0.22206945611564 
3.070000000002054, -0.2223414830844559 
3.0800000000020753, -0.22299084345590364 
3.0900000000020964, -0.22411823526601174 
3.1000000000021175, -0.2256435166244378 
3.1100000000021386, -0.22685134625683298 
3.1200000000021597, -0.2257052383563162 
3.130000000002181, -0.21910968161862038 
3.140000000002202, -0.20586036524964593 
3.150000000002223, -0.18927131041586592 
3.160000000002244, -0.17420084187806717 
3.1700000000022652, -0.16296443631204602 
3.1800000000022863, -0.1553783687111322 
3.1900000000023074, -0.1504380211460861 
3.2000000000023285, -0.14722977292575035 
3.2100000000023496, -0.14512581164784108 
3.2200000000023707, -0.14373562429175601 
3.230000000002392, -0.1428272128524825 
3.240000000002413, -0.14226945493176069 
3.250000000002434, -0.14199783860114015 
3.260000000002455, -0.14199747198033627 
3.2700000000024763, -0.1422989094891217 
3.2800000000024974, -0.14298550131352722 
3.2900000000025185, -0.14421414575508384 
3.3000000000025396, -0.1462541608362755 
3.3100000000025607, -0.14954898719300055 
3.3200000000025818, -0.15479095721575972 
3.330000000002603, -0.1629337398126927 
3.340000000002624, -0.17488920568664754 
3.350000000002645, -0.19049284897637145 
3.360000000002666, -0.20711120488644813 
3.3700000000026873, -0.2203980825318153 
3.3800000000027084, -0.22798725323614527 
3.3900000000027295, -0.23098552785070528 
3.4000000000027506, -0.23164640304824907 
3.4100000000027717, -0.23148795161849534 
3.420000000002793, -0.2311682985025661 
3.430000000002814, -0.23089395536018623 
3.440000000002835, -0.230702299775359 
3.450000000002856, -0.23058314412535438 
3.460000000002877, -0.23052030716068037 
3.4700000000028983, -0.2305034012556612 
3.4800000000029194, -0.23053062343441644 
3.4900000000029405, -0.23060986940022343 
3.5000000000029616, -0.23076042801170762 
3.5100000000029827, -0.23101561254039008 
3.520000000003004, -0.2314257414691662 
3.530000000003025, -0.23206013251639207 
3.540000000003046, -0.2330057918461506 
3.550000000003067, -0.2343585925958082 
3.5600000000030882, -0.23619991441285748 
3.5700000000031094, -0.2385521871334609 
3.5800000000031305, -0.24132172949814934 
3.5900000000031516, -0.24427079236993002 
3.6000000000031727, -0.247074052932548 
3.6100000000031938, -0.24944892449737316 
3.620000000003215, -0.25125884829618167 
3.630000000003236, -0.2525147257956212 
3.640000000003257, -0.25330746853904185 
3.650000000003278, -0.25374193206070783 
3.6600000000032993, -0.2539023766088639 
3.6700000000033204, -0.2538430975013829 
3.6800000000033415, -0.2535906049468684 
3.6900000000033626, -0.253149575942958 
3.7000000000033837, -0.25251094707565114 
3.710000000003405, -0.25166375661234464 
3.720000000003426, -0.25061192690614564 
3.730000000003447, -0.249392106502204 
3.740000000003468, -0.24808147221715213 
3.750000000003489, -0.24678471445320152 
3.7600000000035103, -0.24560377786779602 
3.7700000000035314, -0.24460900368884597 
3.7800000000035525, -0.24382716912041708 
3.7900000000035736, -0.2432461906019936 
3.8000000000035947, -0.24282749485157415 
3.810000000003616, -0.2425193233322133 
3.820000000003637, -0.24226845968210492 
3.830000000003658, -0.24202891299636634 
3.840000000003679, -0.24176597076395984 
3.8500000000037002, -0.24145522788792 
3.8600000000037213, -0.24107787753808055 
3.8700000000037424, -0.24061385314901132 
3.8800000000037635, -0.2400330581275895 
3.8900000000037847, -0.23928267213627596 
3.9000000000038058, -0.23826580184885765 
3.910000000003827, -0.23680415908035252 
3.920000000003848, -0.23457990213672403 
3.930000000003869, -0.23107819785429057 
3.94000000000389, -0.22563629771332044 
3.9500000000039113, -0.21780064857273146 
3.9600000000039324, -0.2079634391608967 
3.9700000000039535, -0.1975511453007501 
3.9800000000039746, -0.18819301161069957 
3.9900000000039957, -0.18076744248298768 
4.000000000004016, -0.17530593998997165 
4.010000000003993, -0.17142648901614913 
4.02000000000397, -0.16869016353738783 
4.030000000003946, -0.16674286627283091 
4.040000000003923, -0.16533508560662366 
4.0500000000039, -0.16430250965630594 
4.0600000000038765, -0.16354280070290012 
4.070000000003853, -0.16299835591860604 
4.08000000000383, -0.16264628109366452 
4.090000000003807, -0.16249511844262035 
4.100000000003783, -0.1625883809215874 
4.11000000000376, -0.1630160084182774 
4.120000000003737, -0.1639354109509203 
4.130000000003713, -0.16560063090023186 
4.14000000000369, -0.16837997665057364 
4.150000000003667, -0.17267711411327846 
4.1600000000036434, -0.17851440205077848 
4.17000000000362, -0.18446697983497007 
4.180000000003597, -0.18670765327907687 
4.1900000000035735, -0.18131042734869848 
4.20000000000355, -0.16934776005979923 
4.210000000003527, -0.1561193766320574 
4.220000000003504, -0.1454427288296959 
4.23000000000348, -0.13803714793360805 
4.240000000003457, -0.13320110240387023 
4.250000000003434, -0.13008666006595487 
4.26000000000341, -0.12807153671337562 
4.270000000003387, -0.12676185595012734 
4.280000000003364, -0.12592335419502973 
4.2900000000033405, -0.12542415267046433 
4.300000000003317, -0.12519951643689908 
4.310000000003294, -0.12523401168714043 
4.320000000003271, -0.12555660482827585 
4.330000000003247, -0.1262471233624938 
4.340000000003224, -0.12745556855073045 
4.350000000003201, -0.12943847375057171 
4.360000000003177, -0.1326164590229449 
4.370000000003154, -0.13764356000850106 
4.380000000003131, -0.1454183656061723 
4.390000000003107, -0.15680573462119224 
4.400000000003084, -0.17169628352525357 
4.410000000003061, -0.18774229523820574 
4.4200000000030375, -0.20098687008313498 
4.430000000003014, -0.20911304411093976 
4.440000000002991, -0.21288572551572565 
4.450000000002968, -0.21423730307743302 
4.460000000002944, -0.21457577542590775 
4.470000000002921, -0.2145780746401807 
4.480000000002898, -0.21450165316235387 
4.490000000002874, -0.21442778942743682 
4.500000000002851, -0.21437634691356103 
4.510000000002828, -0.2143501801312034 
4.520000000002804, -0.21435084673538857 
4.530000000002781, -0.21438442848469758 
4.540000000002758, -0.2144647159512943 
4.5500000000027345, -0.21461625913112803 
4.560000000002711, -0.21487778793615023 
4.570000000002688, -0.21530544509227262 
4.580000000002665, -0.21597446404156986 
4.590000000002641, -0.2169768043064683 
4.600000000002618, -0.21840998382930735 
4.610000000002595, -0.22034935486088952 
4.620000000002571, -0.2227983706442591 
4.630000000002548, -0.22563147880106987 
4.640000000002525, -0.22858010677052612 
4.6500000000025015, -0.2313118635303996 
4.660000000002478, -0.23356811116578963 
4.670000000002455, -0.23524858747639515 
4.6800000000024315, -0.23639029812159892 
4.690000000002408, -0.2370935485799758 
4.700000000002385, -0.23746152679568727 
4.710000000002362, -0.2375727975474145 
4.720000000002338, -0.23747603713197307 
4.730000000002315, -0.2371940079192984 
4.740000000002292, -0.23673053444201836 
4.750000000002268, -0.23607972407229968 
4.760000000002245, -0.23523882885372357 
4.770000000002222, -0.2342244197295575 
4.7800000000021985, -0.23308600631854065 
4.790000000002175, -0.23190652834608136 
4.800000000002152, -0.23078408971872905 
4.810000000002129, -0.22980378075766014 
4.820000000002105, -0.2290165179041419 
4.830000000002082, -0.22843359490957532 
4.840000000002059, -0.22803307759118482 
