t, s[1].omega / s[0].omega 
0, -1.589995284305744 
0.009999999999999995, -1.5892376592379729 
0.019999999999999934, -1.5879110927268574 
0.029999999999999874, -1.5860078966874034 
0.04000000000000012, -1.5835153110875102 
0.050000000000000405, -1.580415897907693 
0.06000000000000069, -1.5766882076121445 
0.07000000000000098, -1.5723080221271408 
0.08000000000000126, -1.5672510528964745 
0.09000000000000155, -1.56149913260009 
0.10000000000000184, -1.5550534815942807 
0.11000000000000212, -1.5479593357804575 
0.12000000000000241, -1.5403435471353721 
0.130000000000002, -1.532457719894175 
0.1400000000000009, -1.5247038651329679 
0.1499999999999998, -1.51760623629309 
0.1599999999999987, -1.5117027446546447 
0.1699999999999976, -1.5073784114002227 
0.1799999999999965, -1.5047257668001717 
0.1899999999999954, -1.5035232375720613 
0.1999999999999943, -1.5033431125275851 
0.2099999999999932, -1.5037100401587513 
0.2199999999999921, -1.5042184636802758 
0.229999999999991, -1.5045734387914849 
0.2399999999999899, -1.5045727197532888 
0.2499999999999888, -1.5040625371166727 
0.2599999999999877, -1.502887829043702 
0.2699999999999866, -1.5008417843359836 
0.2799999999999855, -1.497608604922893 
0.2899999999999844, -1.492686554496268 
0.2999999999999833, -1.4852722474680216 
0.3099999999999822, -1.4740797563333117 
0.3199999999999811, -1.457061212470053 
0.32999999999998, -1.4309994786967155 
0.3399999999999789, -1.390987039895547 
0.3499999999999778, -1.3299426370598695 
0.35999999999997667, -1.2385855859629413 
0.36999999999997557, -1.1065468118550177 
0.37999999999997447, -0.9251908732639238 
0.38999999999997337, -0.692608931346481 
0.39999999999997227, -0.42192825940584455 
0.40999999999997117, -0.14876711922644453 
0.41999999999997006, 0.0811281612896286 
0.42999999999996896, 0.24420030636155582 
0.43999999999996786, 0.3479780867966492 
0.44999999999996676, 0.4110440742833138 
0.45999999999996566, 0.44925921291294885 
0.46999999999996456, 0.47282995116410903 
0.47999999999996346, 0.48771920297265303 
0.48999999999996235, 0.497336559242579 
0.49999999999996125, 0.5036535347333875 
0.5099999999999602, 0.5078393096660528 
0.519999999999959, 0.5106093918577251 
0.529999999999958, 0.5124171373651888 
0.5399999999999568, 0.5135609199197848 
0.5499999999999557, 0.5142456854755066 
0.5599999999999546, 0.5146193956338604 
0.5699999999999535, 0.5147953639619127 
0.5799999999999524, 0.5148665180077263 
0.5899999999999513, 0.5149149569459162 
0.5999999999999502, 0.5150186794189576 
0.6099999999999491, 0.5152564358339036 
0.619999999999948, 0.5157109986375377 
0.6299999999999469, 0.5164705803249199 
0.6399999999999458, 0.5176276154271016 
0.6499999999999447, 0.5192737478883218 
0.6599999999999436, 0.5214898920763351 
0.6699999999999425, 0.5243310800212921 
0.6799999999999414, 0.5278078152478474 
0.6899999999999403, 0.5318685849355957 
0.6999999999999392, 0.5363906522653741 
0.7099999999999381, 0.5411859287935935 
0.719999999999937, 0.5460240303359548 
0.7299999999999359, 0.5506670154793232 
0.7399999999999348, 0.5549044009837701 
0.7499999999999337, 0.5585770419029072 
0.7599999999999326, 0.5615841856506669 
0.7699999999999315, 0.5638751777961332 
0.7799999999999304, 0.5654315993297597 
0.7899999999999293, 0.566245835083405 
0.7999999999999282, 0.5662997039450383 
0.8099999999999271, 0.565543868335649 
0.819999999999926, 0.5638764695413438 
0.8299999999999249, 0.5611180867074889 
0.8399999999999238, 0.5569797203274374 
0.8499999999999227, 0.5510216681069506 
0.8599999999999216, 0.5426061239979354 
0.8699999999999205, 0.5308602661921096 
0.8799999999999194, 0.5146976529646023 
0.8899999999999183, 0.49299611113741815 
0.8999999999999172, 0.465061491076033 
0.9099999999999161, 0.43138648364563625 
0.919999999999915, 0.3943008896284343 
0.9299999999999139, 0.3577080566007599 
0.9399999999999128, 0.3256044475050046 
0.9499999999999117, 0.300411220648741 
0.9599999999999106, 0.2824420995844744 
0.9699999999999095, 0.27056073457062857 
0.9799999999999084, 0.26314093652521386 
0.9899999999999073, 0.2586954443251764 
0.9999999999999062, 0.2561028724928208 
1.0099999999999052, 0.25460249136010893 
1.019999999999904, 0.2537088887335921 
1.029999999999903, 0.2531226331404332 
1.039999999999902, 0.25266127424110885 
1.0499999999999008, 0.25221224175008017 
1.0599999999998997, 0.25170245494934324 
1.0699999999998986, 0.2510790185951034 
1.0799999999998975, 0.2502966587330014 
1.0899999999998964, 0.24930887535885055 
1.0999999999998953, 0.24806072198886628 
1.1099999999998942, 0.24648163471297466 
1.119999999999893, 0.2444768745445661 
1.129999999999892, 0.2419159323541969 
1.1399999999998909, 0.2386156131146095 
1.1499999999998898, 0.2343142896337913 
1.1599999999998887, 0.22863165192879237 
1.1699999999998876, 0.2210045912095498 
1.1799999999998865, 0.21058377809518486 
1.1899999999998854, 0.19606613101855627 
1.1999999999998843, 0.1754263727924021 
1.2099999999998832, 0.14550453306000172 
1.219999999999882, 0.10144057176813556 
1.229999999999881, 0.036128147729623715 
1.2399999999998799, -0.059099453575538405 
1.2499999999998788, -0.19309818952205116 
1.2599999999998777, -0.36814268051249927 
1.2699999999998766, -0.5721550290427991 
1.2799999999998755, -0.7802241781445394 
1.2899999999998744, -0.9666743159896377 
1.2999999999998733, -1.1165337409331426 
1.3099999999998722, -1.2274444487020273 
1.319999999999871, -1.3049566037018563 
1.32999999999987, -1.3572056996630943 
1.3399999999998689, -1.39172147014154 
1.3499999999998678, -1.414299842944432 
1.3599999999998666, -1.4289993702667174 
1.3699999999998655, -1.4385220722156515 
1.3799999999998644, -1.4446208468747828 
1.3899999999998633, -1.4484193311444067 
1.3999999999998622, -1.450634735443113 
1.4099999999998611, -1.4517253580502611 
1.41999999999986, -1.4519874080323272 
1.429999999999859, -1.4516209929807684 
1.4399999999998578, -1.4507797324542169 
1.4499999999998567, -1.4496136404320823 
1.4599999999998556, -1.448309419099418 
1.4699999999998545, -1.447124200283916 
1.4799999999998534, -1.4463981595242794 
1.4899999999998523, -1.4465246115345374 
1.4999999999998512, -1.4478662145070316 
1.5099999999998501, -1.4506395864832418 
1.519999999999849, -1.454827276900161 
1.529999999999848, -1.4601740567566952 
1.5399999999998468, -1.4662721592806724 
1.5499999999998457, -1.4726833319417831 
1.5599999999998446, -1.4790354370372016 
1.5699999999998435, -1.485064707501222 
1.5799999999998424, -1.4906118610397334 
1.5899999999998413, -1.4955956739664793 
1.5999999999998402, -1.4999838327497035 
1.6099999999998391, -1.5037706907561819 
1.619999999999838, -1.5069635063799205 
1.629999999999837, -1.509575022243994 
1.6399999999998358, -1.5116197035931076 
1.6499999999998347, -1.5131117610372784 
1.6599999999998336, -1.5140640025277978 
1.6699999999998325, -1.514487135354974 
1.6799999999998314, -1.5143893883644006 
1.6899999999998303, -1.513776400908655 
1.6999999999998292, -1.5126513455425592 
1.709999999999828, -1.5110152663998955 
1.719999999999827, -1.508867631071062 
1.729999999999826, -1.506207100744704 
1.7399999999998248, -1.5030325232661945 
1.7499999999998237, -1.4993441985155522 
1.7599999999998226, -1.4951456863557775 
1.7699999999998215, -1.490446984060057 
1.7799999999998204, -1.4852707645305405 
1.7899999999998193, -1.4796639802365636 
1.7999999999998182, -1.4737162449423364 
1.809999999999817, -1.4675825303445351 
1.819999999999816, -1.4615005816042212 
1.8299999999998149, -1.4557861455172127 
1.8399999999998138, -1.4507893663231886 
1.8499999999998127, -1.4468120666860262 
1.8599999999998116, -1.444015216300384 
1.8699999999998105, -1.4423654032478956 
1.8799999999998094, -1.4416525729579452 
1.8899999999998083, -1.4415659844832027 
1.8999999999998072, -1.441782020385311 
1.909999999999806, -1.4420227204596394 
1.919999999999805, -1.4420726295615762 
1.9299999999998039, -1.4417642995862214 
1.9399999999998028, -1.4409480353298132 
1.9499999999998017, -1.4394555696089224 
1.9599999999998006, -1.4370593261012785 
1.9699999999997995, -1.4334227821418701 
1.9799999999997984, -1.4280331415722323 
1.9899999999997973, -1.420104006020481 
1.9999999999997962, -1.4084330059139252 
2.0099999999998173, -1.3912004308727932 
2.0199999999998384, -1.3657092406384856 
2.0299999999998595, -1.328116095998733 
2.0399999999998806, -1.2733238013356585 
2.0499999999999017, -1.1954225431761576 
2.059999999999923, -1.0892754279927659 
2.069999999999944, -0.953593134036209 
2.079999999999965, -0.7944562552603291 
2.089999999999986, -0.6261857841317393 
2.100000000000007, -0.4668468625152663 
2.1100000000000283, -0.3306247670650208 
2.1200000000000494, -0.22324327235760072 
2.1300000000000705, -0.14307569807959197 
2.1400000000000916, -0.08496270964948271 
2.1500000000001127, -0.04327839806586252 
2.160000000000134, -0.01332149852422482 
2.170000000000155, 0.008037041379630561 
2.180000000000176, 0.023125448658817313 
2.190000000000197, 0.03414593856689648 
2.2000000000002182, 0.04225989437675649 
2.2100000000002393, 0.048264344503312906 
2.2200000000002604, 0.05271032097193974 
2.2300000000002815, 0.05598184092313986 
2.2400000000003026, 0.05834804828404089 
2.2500000000003237, 0.05999753482482352 
2.260000000000345, 0.06106088126283871 
2.270000000000366, 0.061625322905760685 
2.280000000000387, 0.061744000991536305 
2.290000000000408, 0.06144129759160634 
2.3000000000004293, 0.06071509322954519 
2.3100000000004504, 0.05953630510485619 
2.3200000000004715, 0.057845670556485054 
2.3300000000004926, 0.0555473728668696 
2.3400000000005137, 0.05249872808786995 
2.3500000000005348, 0.048494769709810065 
2.360000000000556, 0.0432462977970732 
2.370000000000577, 0.03635019374460798 
2.380000000000598, 0.027252628532274347 
2.390000000000619, 0.01521193925784579 
2.4000000000006403, -0.0006818584935007827 
2.4100000000006614, -0.020694577593117217 
2.4200000000006825, -0.04654587266295407 
2.4300000000007036, -0.07805935911144803 
2.4400000000007247, -0.1120642281745404 
2.450000000000746, -0.13880139240933922 
2.460000000000767, -0.13670064907212306 
2.470000000000788, -0.06848565089121622 
2.480000000000809, 0.10746088636845727 
2.49000000000083, 0.38467519051819277 
2.5000000000008513, 0.6609151926057185 
2.5100000000008724, 0.8445766594841546 
2.5200000000008935, 0.9421162955716085 
2.5300000000009146, 0.9911099575856884 
2.5400000000009357, 1.0163318070758005 
2.550000000000957, 1.029892480256861 
2.560000000000978, 1.0374329544803964 
2.570000000000999, 1.041652506662819 
2.58000000000102, 1.0439021945291374 
2.5900000000010412, 1.0448869099595455 
2.6000000000010624, 1.0449850773891334 
2.6100000000010835, 1.0444024473522737 
2.6200000000011046, 1.043251792485736 
2.6300000000011257, 1.0415988632804725 
2.6400000000011468, 1.039492875144361 
2.650000000001168, 1.0369892716672948 
2.660000000001189, 1.0341665249638523 
2.67000000000121, 1.0311350032569475 
2.680000000001231, 1.0280345608183608 
2.6900000000012523, 1.0250193581512477 
2.7000000000012734, 1.022233185628996 
2.7100000000012945, 1.019783479292526 
2.7200000000013156, 1.0177234248438034 
2.7300000000013367, 1.0160475490826648 
2.740000000001358, 1.014699601282556 
2.750000000001379, 1.0135866259823798 
2.7600000000014, 1.012592099051413 
2.770000000001421, 1.0115827944028284 
2.780000000001442, 1.0104061943470635 
2.7900000000014633, 1.0088757742525098 
2.8000000000014844, 1.0067392158294999 
2.8100000000015055, 1.0036181090142724 
2.8200000000015266, 0.9988933787437769 
2.8300000000015477, 0.9914794196959147 
2.840000000001569, 0.9793612122976153 
2.85000000000159, 0.9586268131144925 
2.860000000001611, 0.9215238536269543 
2.870000000001632, 0.8534172809909488 
2.8800000000016532, 0.7332837361971316 
2.8900000000016743, 0.5598337678432328 
2.9000000000016954, 0.4198506090657933 
2.9100000000017165, 0.4833955921277763 
2.9200000000017377, 0.7881626660213178 
2.9300000000017588, 1.0976801391631699 
2.94000000000178, 1.2641846872965654 
2.950000000001801, 1.3364342685978492 
2.960000000001822, 1.3682005782091469 
2.970000000001843, 1.3831739084053989 
2.9800000000018643, 1.3906336299199746 
2.9900000000018854, 1.3943751257569545 
3.0000000000019065, 1.396058492682319 
3.0100000000019276, 1.396442292918409 
3.0200000000019487, 1.3958662909262358 
3.03000000000197, 1.3944565510906473 
3.040000000001991, 1.3922250434400454 
3.050000000002012, 1.3891345412430778 
3.060000000002033, 1.3851632293891403 
3.070000000002054, 1.380383263770218 
3.0800000000020753, 1.3750405613713956 
3.0900000000020964, 1.3695860167584635 
3.1000000000021175, 1.3645945032555937 
3.1100000000021386, 1.3605702960001487 
3.1200000000021597, 1.3577510044498158 
3.130000000002181, 1.3560488977163254 
3.140000000002202, 1.35514919644156 
3.150000000002223, 1.3546620142927102 
3.160000000002244, 1.3542255715781928 
3.1700000000022652, 1.3535319468679696 
3.1800000000022863, 1.352295645397516 
3.1900000000023074, 1.3501882786327042 
3.2000000000023285, 1.3467457901117847 
3.2100000000023496, 1.3412432691848573 
3.2200000000023707, 1.3325589154813642 
3.230000000002392, 1.319226280641692 
3.240000000002413, 1.3005456387935723 
3.250000000002434, 1.2810039427399555 
3.260000000002455, 1.2779827264897963 
3.2700000000024763, 1.3144056241322049 
3.2800000000024974, 1.382067202916954 
3.2900000000025185, 1.4447671524719583 
3.3000000000025396, 1.4854714956486827 
3.3100000000025607, 1.5082678306406816 
3.3200000000025818, 1.5204997953035986 
3.330000000002603, 1.5269255899678975 
3.340000000002624, 1.5300379954548444 
3.350000000002645, 1.531028197757281 
3.360000000002666, 1.5303530132935148 
3.3700000000026873, 1.5279605549525783 
3.3800000000027084, 1.5232749677238584 
3.3900000000027295, 1.5149454862831147 
3.4000000000027506, 1.5003056642844068 
3.4100000000027717, 1.4747191741911778 
3.420000000002793, 1.4325219338488833 
3.430000000002814, 1.374754445006873 
3.440000000002835, 1.3216998234549324 
3.450000000002856, 1.298870501118092 
3.460000000002877, 1.3043055999946407 
3.4700000000028983, 1.31948129563448 
3.4800000000029194, 1.3331296606994936 
3.4900000000029405, 1.3426448906880184 
3.5000000000029616, 1.3486256131376335 
3.5100000000029827, 1.3521268886838826 
3.520000000003004, 1.3539655998270395 
3.530000000003025, 1.354685540378503 
3.540000000003046, 1.3546520292873896 
3.550000000003067, 1.3541482152635882 
3.5600000000030882, 1.3534562933844545 
3.5700000000031094, 1.3529213024141742 
3.5800000000031305, 1.3529785234012592 
3.5900000000031516, 1.354103568864264 
3.6000000000031727, 1.3566551545400884 
3.6100000000031938, 1.3606646854783382 
3.620000000003215, 1.3657344389168258 
3.630000000003236, 1.3711720920741124 
3.640000000003257, 1.3762796166882132 
3.650000000003278, 1.3805798741693989 
3.6600000000032993, 1.3838659775790019 
3.6700000000033204, 1.3861229952809373 
3.6800000000033415, 1.3874182964719655 
3.6900000000033626, 1.3878120403833045 
3.7000000000033837, 1.387289613288973 
3.710000000003405, 1.3856910598190728 
3.720000000003426, 1.3825924530439664 
3.730000000003447, 1.3770488569492347 
3.740000000003468, 1.3669755926391909 
3.750000000003489, 1.3475522287342312 
3.7600000000035103, 1.3069421017840426 
3.7700000000035314, 1.2158132587996264 
3.7800000000035525, 1.017182315366952 
3.7900000000035736, 0.7007467443510039 
3.8000000000035947, 0.4603244684796274 
3.810000000003616, 0.4516442577614601 
3.820000000003637, 0.5832893877637764 
3.830000000003658, 0.7202485487837293 
3.840000000003679, 0.8124212320510754 
3.8500000000037002, 0.8658432246296381 
3.8600000000037213, 0.8958748774727091 
3.8700000000037424, 0.9130116184424922 
3.8800000000037635, 0.9230389396676181 
3.8900000000037847, 0.9290189345198598 
3.9000000000038058, 0.9325993180949752 
3.910000000003827, 0.9347016007618383 
3.920000000003848, 0.9358682803375011 
3.930000000003869, 0.936440884934774 
3.94000000000389, 0.9366551194249544 
3.9500000000039113, 0.9366944705476371 
3.9600000000039324, 0.9367216760737763 
3.9700000000039535, 0.9368963769217047 
3.9800000000039746, 0.9373812028412953 
3.9900000000039957, 0.9383353428446654 
4.000000000004016, 0.9398943652213836 
4.010000000003993, 0.9421386346383145 
4.02000000000397, 0.9450598254125936 
4.030000000003946, 0.9485416677278415 
4.040000000003923, 0.9523698927757087 
4.0500000000039, 0.9562735051628575 
4.0600000000038765, 0.9599818850905942 
4.070000000003853, 0.96327363869866 
4.08000000000383, 0.9660001164773142 
4.090000000003807, 0.9680815808689756 
4.100000000003783, 0.9694849399763334 
4.11000000000376, 0.9701936528145383 
4.120000000003737, 0.970175653254995 
4.130000000003713, 0.96934843839529 
4.14000000000369, 0.9675335596788959 
4.150000000003667, 0.9643838360494245 
4.1600000000036434, 0.9592503306807657 
4.17000000000362, 0.9509217433603258 
4.180000000003597, 0.937096651057816 
4.1900000000035735, 0.9133192485479474 
4.20000000000355, 0.8710236991342357 
4.210000000003527, 0.7952099361009864 
4.220000000003504, 0.6676050627326581 
4.23000000000348, 0.4899972573495737 
4.240000000003457, 0.3121421123158358 
4.250000000003434, 0.19319580835995878 
4.26000000000341, 0.14340724398692545 
4.270000000003387, 0.13852871119012078 
4.280000000003364, 0.15352198377157883 
4.2900000000033405, 0.17359290611395078 
4.300000000003317, 0.19228073410223737 
4.310000000003294, 0.2075994709841477 
4.320000000003271, 0.21945785741288568 
4.330000000003247, 0.2283821866837604 
4.340000000003224, 0.2349919478791933 
4.350000000003201, 0.23982380809042936 
4.360000000003177, 0.24329453144160235 
4.370000000003154, 0.24571090467523754 
4.380000000003131, 0.24729069259431652 
4.390000000003107, 0.24818220081094022 
4.400000000003084, 0.24847903700122295 
4.410000000003061, 0.2482296971458494 
4.4200000000030375, 0.24744231813126966 
4.430000000003014, 0.24608477197609308 
4.440000000002991, 0.24407972604189201 
4.450000000002968, 0.24129344585304807 
4.460000000002944, 0.23751584455002656 
4.470000000002921, 0.23242727336514823 
4.480000000002898, 0.22554424986309268 
4.490000000002874, 0.21613084937517696 
4.500000000002851, 0.20305360687179963 
4.510000000002828, 0.18454447090600132 
4.520000000002804, 0.1578206352701207 
4.530000000002781, 0.11850694260244594 
4.540000000002758, 0.05987065583628613 
4.5500000000027345, -0.027617665617183557 
4.560000000002711, -0.15605019948960858 
4.570000000002688, -0.3384663890684646 
4.580000000002665, -0.5814250149565972 
4.590000000002641, -0.8793531903691412 
4.600000000002618, -1.2084627234006344 
4.610000000002595, -1.522652204428618 
4.620000000002571, -1.7718928431584793 
4.630000000002548, -1.938169330439689 
4.640000000002525, -2.037381974570833 
4.6500000000025015, -2.0938620239085184 
4.660000000002478, -2.1257840959256944 
4.670000000002455, -2.1439735446876216 
4.6800000000024315, -2.154403824044352 
4.690000000002408, -2.160322967185953 
4.700000000002385, -2.163515607190271 
4.710000000002362, -2.1649832768705846 
4.720000000002338, -2.1653067729841373 
4.730000000002315, -2.164844449618375 
4.740000000002292, -2.1638431021232893 
4.750000000002268, -2.1624927408545784 
4.760000000002245, -2.1609366247264403 
4.770000000002222, -2.1592557407242405 
4.7800000000021985, -2.157469010531285 
4.790000000002175, -2.155584966475651 
4.800000000002152, -2.1536878825664814 
4.810000000002129, -2.1519840167101885 
4.820000000002105, -2.150732786648869 
4.830000000002082, -2.150079263878726 
4.840000000002059, -2.149929947280326 
4.850000000002035, -2.1499918759953136 
4.860000000002012, -2.1499111324031626 
4.870000000001989, -2.1493609764258137 
4.880000000001965, -2.148020864669377 
4.890000000001942, -2.145471212102744 
4.900000000001919, -2.141018069829589 
4.9100000000018955, -2.13340800464787 
4.920000000001872, -2.1203495659303444 
4.930000000001849, -2.0978168424314223 
4.940000000001826, -2.0596905646612123 
4.950000000001802, -2.0005829954750545 
4.960000000001779, -1.928644694739648 
4.970000000001756, -1.8878791602281322 
4.980000000001732, -1.9522510279887058 
