t, s[1].omega / s[0].omega 
0, -1.6399676838630755 
0.009999999999999995, -1.6360033877204383 
0.019999999999999934, -1.6304129738568385 
0.029999999999999874, -1.6233696793259433 
0.04000000000000012, -1.6162299869643608 
0.050000000000000405, -1.611380906166168 
0.06000000000000069, -1.609934813551439 
0.07000000000000098, -1.6105273175044883 
0.08000000000000126, -1.6114432806042835 
0.09000000000000155, -1.6119825883137562 
0.10000000000000184, -1.6120655281741936 
0.11000000000000212, -1.611737191062446 
0.12000000000000241, -1.61100018025328 
0.130000000000002, -1.6098442153071908 
0.1400000000000009, -1.6084908812881302 
0.1499999999999998, -1.6078897887204335 
0.1599999999999987, -1.6096655461147218 
0.1699999999999976, -1.61436436535963 
0.1799999999999965, -1.6203998894099931 
0.1899999999999954, -1.6258675265981548 
0.1999999999999943, -1.6299555791528637 
0.2099999999999932, -1.6326702508985178 
0.2199999999999921, -1.6342838476617234 
0.229999999999991, -1.6350772964295845 
0.2399999999999899, -1.635271196597061 
0.2499999999999888, -1.635023145226436 
0.2599999999999877, -1.6344462322031656 
0.2699999999999866, -1.633635479872024 
0.2799999999999855, -1.6326909851446998 
0.2899999999999844, -1.6317288121944018 
0.2999999999999833, -1.6308860741828983 
0.3099999999999822, -1.630301461344105 
0.3199999999999811, -1.6300235640779672 
0.32999999999998, -1.6299371149447441 
0.3399999999999789, -1.6298378564247664 
0.3499999999999778, -1.6295368881047998 
0.35999999999997667, -1.6288491509214036 
0.36999999999997557, -1.6274867372074708 
0.37999999999997447, -1.6248892439937535 
0.38999999999997337, -1.6199901191109543 
0.39999999999997227, -1.611104342010438 
0.40999999999997117, -1.5969325596123123 
0.41999999999997006, -1.580391217471038 
0.42999999999996896, -1.5709697288942888 
0.43999999999996786, -1.573917812353305 
0.44999999999996676, -1.5824230636774206 
0.45999999999996566, -1.589393996219493 
0.46999999999996456, -1.5934044342059734 
0.47999999999996346, -1.5953425805181503 
0.48999999999996235, -1.5961053906132898 
0.49999999999996125, -1.5962101155646624 
0.5099999999999602, -1.5959183536958614 
0.519999999999959, -1.595393744002631 
0.529999999999958, -1.5948430008908807 
0.5399999999999568, -1.5945928139416297 
0.5499999999999557, -1.5949486384831684 
0.5599999999999546, -1.5959066104180448 
0.5699999999999535, -1.5971552300601934 
0.5799999999999524, -1.598361805403123 
0.5899999999999513, -1.5993294305699408 
0.5999999999999502, -1.5999716899807832 
0.6099999999999491, -1.6002547327483405 
0.619999999999948, -1.6001614814075182 
0.6299999999999469, -1.5996736580937811 
0.6399999999999458, -1.598764512141897 
0.6499999999999447, -1.5973995498937206 
0.6599999999999436, -1.5955481460683465 
0.6699999999999425, -1.5932188757818095 
0.6799999999999414, -1.5905425551662558 
0.6899999999999403, -1.5878937545837102 
0.6999999999999392, -1.5858686884893345 
0.7099999999999381, -1.5848692466360037 
0.719999999999937, -1.5846956683729954 
0.7299999999999359, -1.5848169925316238 
0.7399999999999348, -1.5848423884521607 
0.7499999999999337, -1.5845890640937803 
0.7599999999999326, -1.5839285581509892 
0.7699999999999315, -1.5826426602313566 
0.7799999999999304, -1.5803268144143716 
0.7899999999999293, -1.576472281428673 
0.7999999999999282, -1.571346934958533 
0.8099999999999271, -1.5682837330020376 
0.819999999999926, -1.5734493654087625 
0.8299999999999249, -1.587463935063164 
0.8399999999999238, -1.602959532418442 
0.8499999999999227, -1.6143587580362695 
0.8599999999999216, -1.621148963242242 
0.8699999999999205, -1.6247446802617898 
0.8799999999999194, -1.6264583217524937 
0.8899999999999183, -1.6271116243622519 
0.8999999999999172, -1.627157289945318 
0.9099999999999161, -1.6268447459135231 
0.919999999999915, -1.6263445009573059 
0.9299999999999139, -1.625822134468195 
0.9399999999999128, -1.6254348000014673 
0.9499999999999117, -1.6252636716571378 
0.9599999999999106, -1.6252888033368549 
0.9699999999999095, -1.6254344259666138 
0.9799999999999084, -1.6255987290914313 
0.9899999999999073, -1.6256631559952048 
0.9999999999999062, -1.6255078136946217 
1.0099999999999052, -1.6250069563378768 
1.019999999999904, -1.6239943930098355 
1.029999999999903, -1.6222172705346143 
1.039999999999902, -1.619296441864141 
1.0499999999999008, -1.6147249038090323 
1.0599999999998997, -1.6080088103941066 
1.0699999999998986, -1.5991997021576272 
1.0799999999998975, -1.5899042976709923 
1.0899999999998964, -1.583320355979755 
1.0999999999998953, -1.581239137958066 
1.1099999999998942, -1.582028785707796 
1.119999999999893, -1.5833515860720007 
1.129999999999892, -1.5842201607560293 
1.1399999999998909, -1.5845357357650975 
1.1499999999998898, -1.5843989907869065 
1.1599999999998887, -1.5838703474804476 
1.1699999999998876, -1.582965843426813 
1.1799999999998865, -1.5818062737195802 
1.1899999999998854, -1.5809643847990058 
1.1999999999998843, -1.581660675566352 
1.2099999999998832, -1.5848210338931952 
1.219999999999882, -1.589746800377244 
1.229999999999881, -1.5948151132205877 
1.2399999999998799, -1.5989654545901493 
1.2499999999998788, -1.60193555342329 
1.2599999999998777, -1.6038492602193055 
1.2699999999998766, -1.6049223658496488 
1.2799999999998755, -1.6053529292161108 
1.2899999999998744, -1.6052955038024108 
1.2999999999998733, -1.6048646387414451 
1.3099999999998722, -1.6041510963718522 
1.319999999999871, -1.6032433147883176 
1.32999999999987, -1.6022436953330517 
1.3399999999998689, -1.6012763109209225 
1.3499999999998678, -1.6004869825728545 
1.3599999999998666, -1.5999966347038126 
1.3699999999998655, -1.5997978272551263 
1.3799999999998644, -1.5997319906637277 
1.3899999999998633, -1.5995961463209043 
1.3999999999998622, -1.599214451057143 
1.4099999999998611, -1.5983942973009133 
1.41999999999986, -1.596810194552168 
1.429999999999859, -1.5938320598781364 
1.4399999999998578, -1.588307883557481 
1.4499999999998567, -1.5785522339336935 
1.4599999999998556, -1.563590708476163 
1.4699999999998545, -1.5469015155562862 
1.4799999999998534, -1.5375775756054253 
1.4899999999998523, -1.539792898479374 
1.4999999999998512, -1.5471500528171624 
1.5099999999998501, -1.5533337090881152 
1.519999999999849, -1.556966026315001 
1.529999999999848, -1.5587478338518896 
1.5399999999998468, -1.559449709782137 
1.5499999999998457, -1.5595298219895768 
1.5599999999998446, -1.559222071166753 
1.5699999999998435, -1.5586723876895878 
1.5799999999998424, -1.5580766269202573 
1.5899999999998413, -1.5577828805437757 
1.5999999999998402, -1.558181389777277 
1.6099999999998391, -1.559356106516496 
1.619999999999838, -1.560976815741899 
1.629999999999837, -1.5626131654422193 
1.6399999999998358, -1.5639907422799157 
1.6499999999998347, -1.5649962439015157 
1.6599999999998336, -1.5656013536310638 
1.6699999999998325, -1.5658095495526423 
1.6799999999998314, -1.5656309404588171 
1.6899999999998303, -1.565072621689071 
1.6999999999998292, -1.5641375897837295 
1.709999999999828, -1.5628309583036255 
1.719999999999827, -1.5611769040859869 
1.729999999999826, -1.559254204934826 
1.7399999999998248, -1.5572550761316963 
1.7499999999998237, -1.5555188251569323 
1.7599999999998226, -1.5543960009519153 
1.7699999999998215, -1.5539526144698907 
1.7799999999998204, -1.5539078556505141 
1.7899999999998193, -1.553910345441492 
1.7999999999998182, -1.5537296215355694 
1.809999999999817, -1.5532131912705442 
1.819999999999816, -1.552159004194453 
1.8299999999998149, -1.5501743820735658 
1.8399999999998138, -1.5465258717255326 
1.8499999999998127, -1.5401746403041303 
1.8599999999998116, -1.5308839897609003 
1.8699999999998105, -1.5224405617669934 
1.8799999999998094, -1.5231690314779862 
1.8899999999998083, -1.5353966120893867 
1.8999999999998072, -1.5507454969210757 
1.909999999999806, -1.5621348003488504 
1.919999999999805, -1.5687168154494708 
1.9299999999998039, -1.5720591926820728 
1.9399999999998028, -1.5735797431460816 
1.9499999999998017, -1.5741143365929153 
1.9599999999998006, -1.5740954453895053 
1.9699999999997995, -1.573752295345894 
1.9799999999997984, -1.573254496751567 
1.9899999999997973, -1.572804637438748 
1.9999999999997962, -1.572630111529392 
2.0099999999998173, -1.5728485662416138 
2.0199999999998384, -1.5733780728429572 
2.0299999999998595, -1.5740306816409524 
2.0399999999998806, -1.5746369387451296 
2.0499999999999017, -1.5750778498296274 
2.059999999999923, -1.5752707603696794 
2.069999999999944, -1.575151647529014 
2.079999999999965, -1.5746581376339248 
2.089999999999986, -1.5737164569654145 
2.100000000000007, -1.5722360307361214 
2.1100000000000283, -1.5701143279141179 
2.1200000000000494, -1.5672628747802326 
2.1300000000000705, -1.5636866491258323 
2.1400000000000916, -1.5596589613871636 
2.1500000000001127, -1.5559073884569146 
2.160000000000134, -1.5533847490954433 
2.170000000000155, -1.5524414136821485 
2.180000000000176, -1.5525036280013365 
2.190000000000197, -1.5528032425570955 
2.2000000000002182, -1.5529261248274264 
2.2100000000002393, -1.552733382445514 
2.2200000000002604, -1.5521444131213487 
2.2300000000002815, -1.551007209188858 
2.2400000000003026, -1.549058500189401 
2.2500000000003237, -1.5461033068775478 
2.260000000000345, -1.542871265854581 
2.270000000000366, -1.5424809903138768 
2.280000000000387, -1.5490438493972947 
2.290000000000408, -1.5617577605983102 
2.3000000000004293, -1.5750226277144495 
2.3100000000004504, -1.5849961449929175 
2.3200000000004715, -1.5912531978068625 
2.3300000000004926, -1.5947663751328107 
2.3400000000005137, -1.596543291789823 
2.3500000000005348, -1.5972790475405825 
2.360000000000556, -1.5973900470737892 
2.370000000000577, -1.5971185749584829 
2.380000000000598, -1.5966271023058067 
2.390000000000619, -1.5960638510251353 
2.4000000000006403, -1.5955750052169198 
2.4100000000006614, -1.5952601232425878 
2.4200000000006825, -1.5951395230411747 
2.4300000000007036, -1.5951739474761155 
2.4400000000007247, -1.5952824645129877 
2.450000000000746, -1.59535003451964 
2.460000000000767, -1.5952511017999318 
2.470000000000788, -1.5948594387568544 
2.480000000000809, -1.5940211247444886 
2.49000000000083, -1.5925069668187724 
2.5000000000008513, -1.5899650262393679 
2.5100000000008724, -1.5858972718239646 
2.5200000000008935, -1.5797315613941876 
2.5300000000009146, -1.5711821147368839 
2.5400000000009357, -1.5611367176104347 
2.550000000000957, -1.5524164265512914 
2.560000000000978, -1.5480198419158304 
2.570000000000999, -1.5477504065386671 
2.58000000000102, -1.5490847813870758 
2.5900000000010412, -1.5502930157787569 
2.6000000000010624, -1.5509336692711653 
2.6100000000010835, -1.5510617383989016 
2.6200000000011046, -1.550774298347336 
2.6300000000011257, -1.5501048734666985 
2.6400000000011468, -1.5490710450552547 
2.650000000001168, -1.547878567607541 
2.660000000001189, -1.5473008040213334 
2.67000000000121, -1.5486805009081324 
2.680000000001231, -1.5526800134292174 
2.6900000000012523, -1.55822926839283 
2.7000000000012734, -1.5636441107480972 
2.7100000000012945, -1.567970520199505 
2.7200000000013156, -1.5710279641892484 
2.7300000000013367, -1.5729809473713663 
2.740000000001358, -1.5740686828742079 
2.750000000001379, -1.5745060106257256 
2.7600000000014, -1.5744600022211876 
2.770000000001421, -1.574054805400817 
2.780000000001442, -1.5733897724109622 
2.7900000000014633, -1.5725616383868364 
2.8000000000014844, -1.571677124652902 
2.8100000000015055, -1.5708510761228545 
2.8200000000015266, -1.570198834858559 
2.8300000000015477, -1.5698035952251597 
2.840000000001569, -1.5696471757922776 
2.85000000000159, -1.5695937702979423 
2.860000000001611, -1.5694665435695252 
2.870000000001632, -1.569103539812133 
2.8800000000016532, -1.5683256121653648 
2.8900000000016743, -1.5668447737150917 
2.9000000000016954, -1.5641333133463649 
2.9100000000017165, -1.5592659893628025 
2.9200000000017377, -1.5508738701505456 
2.9300000000017588, -1.5377681374169339 
2.94000000000178, -1.5211769149945344 
2.950000000001801, -1.507091993684719 
2.960000000001822, -1.5019021892433568 
2.970000000001843, -1.504330272015217 
2.9800000000018643, -1.5087058973166259 
2.9900000000018854, -1.5119636199918318 
3.0000000000019065, -1.5137705346047436 
3.0100000000019276, -1.5145644223986248 
3.0200000000019487, -1.5147264862193754 
3.03000000000197, -1.5144689371390447 
3.040000000001991, -1.5139024012894193 
3.050000000002012, -1.51315201626496 
3.060000000002033, -1.512524592063159 
3.070000000002054, -1.5126033222463382 
3.0800000000020753, -1.5139319794482877 
3.0900000000020964, -1.5164287353429766 
3.1000000000021175, -1.519413911393411 
3.1100000000021386, -1.5222138352443773 
3.1200000000021597, -1.5244824177984542 
3.130000000002181, -1.526132404363599 
3.140000000002202, -1.5271948890762208 
3.150000000002223, -1.5277377800172651 
3.160000000002244, -1.5278327504675837 
3.1700000000022652, -1.5275445588828744 
3.1800000000022863, -1.526930515024661 
3.1900000000023074, -1.5260473091230065 
3.2000000000023285, -1.5249635746587824 
3.2100000000023496, -1.5237738251901867 
3.2200000000023707, -1.5226106048689743 
3.230000000002392, -1.5216428854076107 
3.240000000002413, -1.5210169659567092 
3.250000000002434, -1.5207432334144542 
3.260000000002455, -1.5206677713785939 
3.2700000000024763, -1.5205811696202718 
3.2800000000024974, -1.5203081119729993 
3.2900000000025185, -1.5196868916955442 
3.3000000000025396, -1.5184806820429524 
3.3100000000025607, -1.5162510884060314 
3.3200000000025818, -1.5121905471494668 
3.330000000002603, -1.5049874246817578 
3.340000000002624, -1.493147647848891 
3.350000000002645, -1.476780923526722 
3.360000000002666, -1.460641932556284 
3.3700000000026873, -1.4524767772692269 
3.3800000000027084, -1.4539962171976872 
3.3900000000027295, -1.4595795013811146 
3.4000000000027506, -1.4644522956386736 
3.4100000000027717, -1.4674458091042788 
3.420000000002793, -1.4689723171799591 
3.430000000002814, -1.4695852017734539 
3.440000000002835, -1.4696375267839996 
3.450000000002856, -1.4693112323855853 
3.460000000002877, -1.4687091987641847 
3.4700000000028983, -1.4679745872165646 
3.4800000000029194, -1.4674442374998466 
3.4900000000029405, -1.4676924750197213 
3.5000000000029616, -1.4691868705930724 
3.5100000000029827, -1.4717898055819556 
3.520000000003004, -1.4748485566029408 
3.530000000003025, -1.4777321886240702 
3.540000000003046, -1.480104538695719 
3.550000000003067, -1.4818683190578352 
3.5600000000030882, -1.4830435907209125 
3.5700000000031094, -1.483692997840418 
3.5800000000031305, -1.4838889295825948 
3.5900000000031516, -1.483701065068112 
3.6000000000031727, -1.4831935083741625 
3.6100000000031938, -1.4824291711932684 
3.620000000003215, -1.4814798540222698 
3.630000000003236, -1.4804361568864641 
3.640000000003257, -1.479411425726767 
3.650000000003278, -1.4785371973068089 
3.6600000000032993, -1.477932168854801 
3.6700000000033204, -1.4776303428578075 
3.6800000000033415, -1.4775358979272837 
3.6900000000033626, -1.4774773281144167 
3.7000000000033837, -1.4772894930966816 
3.710000000003405, -1.4768261687156756 
3.720000000003426, -1.4759068070561934 
3.730000000003447, -1.474232544855588 
3.740000000003468, -1.4712831801787214 
3.750000000003489, -1.4662201102498993 
3.7600000000035103, -1.4579280348727335 
3.7700000000035314, -1.445566663042705 
3.7800000000035525, -1.4300745317868784 
3.7900000000035736, -1.4156432483297738 
3.8000000000035947, -1.4074880135509227 
3.810000000003616, -1.4064228343404435 
3.820000000003637, -1.4088328112933 
3.830000000003658, -1.4114781939024086 
3.840000000003679, -1.4132516619063027 
3.8500000000037002, -1.4141683393833484 
3.8600000000037213, -1.4144704664636598 
3.8700000000037424, -1.4143348480274358 
3.8800000000037635, -1.4138415517225718 
3.8900000000037847, -1.4130185004005265 
3.9000000000038058, -1.4119515544328096 
3.910000000003827, -1.4110143327720082 
3.920000000003848, -1.4111138720985505 
3.930000000003869, -1.4133979907171499 
3.94000000000389, -1.418165971896767 
3.9500000000039113, -1.4243523330293084 
3.9600000000039324, -1.4304656677790692 
3.9700000000039535, -1.4355623356284324 
3.9800000000039746, -1.4393550113883626 
3.9900000000039957, -1.4419284470535996 
4.000000000004016, -1.443503615536216 
4.010000000003993, -1.4443179291063304 
4.02000000000397, -1.4445757821807865 
4.030000000003946, -1.4444357578675686 
4.040000000003923, -1.4440197671115294 
4.0500000000039, -1.4434344809673005 
4.0600000000038765, -1.442790654428141 
4.070000000003853, -1.4422012865618647 
4.08000000000383, -1.4417562755193285 
4.090000000003807, -1.4415003271985316 
4.100000000003783, -1.4414281878975888 
4.11000000000376, -1.441483027760663 
4.120000000003737, -1.4415645289111687 
4.130000000003713, -1.4415567445665505 
4.14000000000369, -1.441349510610683 
4.150000000003667, -1.440832080106193 
4.1600000000036434, -1.4398700015652397 
4.17000000000362, -1.438284857964878 
4.180000000003597, -1.4358498879645825 
4.1900000000035735, -1.4323124494968467 
4.20000000000355, -1.4274632560416334 
4.210000000003527, -1.4212932624340207 
4.220000000003504, -1.41427060098404 
4.23000000000348, -1.4075783142307614 
4.240000000003457, -1.402758555610079 
4.250000000003434, -1.4005543213204965 
4.26000000000341, -1.4003023271197201 
4.270000000003387, -1.4008113113284002 
4.280000000003364, -1.4013108563350676 
4.2900000000033405, -1.401528252265125 
4.300000000003317, -1.4014101988352923 
4.310000000003294, -1.4009259380188988 
4.320000000003271, -1.3999786562609133 
4.330000000003247, -1.3983713699666704 
4.340000000003224, -1.39586041578414 
4.350000000003201, -1.3925133694948117 
4.360000000003177, -1.3896876005013195 
4.370000000003154, -1.390883644176691 
4.380000000003131, -1.3994806297300626 
4.390000000003107, -1.4140405483183702 
4.400000000003084, -1.4291451112566942 
4.410000000003061, -1.4408381807393869 
4.4200000000030375, -1.4484070223324967 
4.430000000003014, -1.4527823188564069 
4.440000000002991, -1.455092840573296 
4.450000000002968, -1.4561660822301372 
4.460000000002944, -1.4565085987825506 
4.470000000002921, -1.4564092342200419 
4.480000000002898, -1.4560427696148288 
4.490000000002874, -1.4555538541361996 
4.500000000002851, -1.455111435926981 
4.510000000002828, -1.4548970696422165 
4.520000000002804, -1.455017236807091 
4.530000000002781, -1.455437701455333 
4.540000000002758, -1.4560267266616853 
4.5500000000027345, -1.4566386276036591 
4.560000000002711, -1.4571539782154135 
4.570000000002688, -1.4574839136678124 
4.580000000002665, -1.4575637735340972 
4.590000000002641, -1.457343244052731 
4.600000000002618, -1.456777419100832 
4.610000000002595, -1.455822664637133 
4.620000000002571, -1.4544379172637225 
4.630000000002548, -1.4525921381357019 
4.640000000002525, -1.4502832251539657 
4.6500000000025015, -1.447579418674378 
4.660000000002478, -1.444689407854701 
4.670000000002455, -1.4420166404779629 
4.6800000000024315, -1.4400535082608914 
4.690000000002408, -1.4390500551418133 
4.700000000002385, -1.4388009838377183 
4.710000000002362, -1.4388689576966458 
4.720000000002338, -1.4389087689174818 
4.730000000002315, -1.438737011708774 
4.740000000002292, -1.438234330159261 
4.750000000002268, -1.4372301088403376 
4.760000000002245, -1.435391527141748 
4.770000000002222, -1.4321005662809538 
4.7800000000021985, -1.4264116248467582 
4.790000000002175, -1.4175656187336982 
4.800000000002152, -1.406955714197326 
4.810000000002129, -1.400375413354388 
4.820000000002105, -1.4041278081467832 
4.830000000002082, -1.4163609384939004 
4.840000000002059, -1.4293962637007869 
4.850000000002035, -1.4386994898974579 
4.860000000002012, -1.4441163926814988 
4.870000000001989, -1.446926453065554 
4.880000000001965, -1.448229923938455 
4.890000000001942, -1.4486864496966496 
4.900000000001919, -1.4486437961665424 
4.9100000000018955, -1.4482854618283372 
4.920000000001872, -1.4477477530477527 
4.930000000001849, -1.4472235720982494 
4.940000000001826, -1.4470168932864944 
