t, s[1].omega / s[0].omega 
0, -1.5699956576247538 
0.009999999999999995, -1.5692823362481485 
0.019999999999999934, -1.5680137806449066 
0.029999999999999874, -1.5661820795146362 
0.04000000000000012, -1.5637742731223923 
0.050000000000000405, -1.5607730016258854 
0.06000000000000069, -1.557157611595189 
0.07000000000000098, -1.5529063235670426 
0.08000000000000126, -1.5480012617623595 
0.09000000000000155, -1.5424403146395944 
0.10000000000000184, -1.5362617905846323 
0.11000000000000212, -1.529586023429481 
0.12000000000000241, -1.5226669728388587 
0.130000000000002, -1.5159243220021352 
0.1400000000000009, -1.5099054666718876 
0.1499999999999998, -1.505142551116846 
0.1599999999999987, -1.50194864357982 
0.1699999999999976, -1.5002835505735914 
0.1799999999999965, -1.4997935523514163 
0.1899999999999954, -1.4999862495245666 
0.1999999999999943, -1.5004049432862274 
0.2099999999999932, -1.5007107024613036 
0.2199999999999921, -1.5006745988070038 
0.229999999999991, -1.500125140037378 
0.2399999999999899, -1.4988844587513022 
0.2499999999999888, -1.496701362396741 
0.2599999999999877, -1.4931708114799955 
0.2699999999999866, -1.4876172379230588 
0.2799999999999855, -1.4789070372447497 
0.2899999999999844, -1.4651406940192102 
0.2999999999999833, -1.4431653873235215 
0.3099999999999822, -1.407881371149764 
0.3199999999999811, -1.3514861366917053 
0.32999999999998, -1.2632438017793397 
0.3399999999999789, -1.130956125962186 
0.3499999999999778, -0.9451772606015869 
0.35999999999997667, -0.7060936581425188 
0.36999999999997557, -0.4328146923503872 
0.37999999999997447, -0.16812798336706125 
0.38999999999997337, 0.04240622357616832 
0.39999999999997227, 0.18353054157045817 
0.40999999999997117, 0.26968673078557465 
0.41999999999997006, 0.32072960108204307 
0.42999999999996896, 0.35123331734072744 
0.43999999999996786, 0.36991290571782226 
0.44999999999996676, 0.38166554345589243 
0.45999999999996566, 0.3892339489479826 
0.46999999999996456, 0.3941872990866859 
0.47999999999996346, 0.39745173918042925 
0.48999999999996235, 0.39959326865621364 
0.49999999999996125, 0.40097075856587117 
0.5099999999999602, 0.40182100725256825 
0.519999999999959, 0.4023077672457992 
0.529999999999958, 0.4025514456785041 
0.5399999999999568, 0.40264851751595043 
0.5499999999999557, 0.4026858239407316 
0.5599999999999546, 0.4027529660270977 
0.5699999999999535, 0.40295495747860227 
0.5799999999999524, 0.40342653035444936 
0.5899999999999513, 0.4043483544759368 
0.5999999999999502, 0.4059630534282736 
0.6099999999999491, 0.4085841754829296 
0.619999999999948, 0.4125837782138584 
0.6299999999999469, 0.41833706583190455 
0.6399999999999458, 0.42610643102733037 
0.6499999999999447, 0.43587946341278305 
0.6599999999999436, 0.44723689873196676 
0.6699999999999425, 0.4593652370658749 
0.6799999999999414, 0.47126404242947595 
0.6899999999999403, 0.4820472662429184 
0.6999999999999392, 0.4911590088012229 
0.7099999999999381, 0.49840977211791665 
0.719999999999937, 0.5038781642632826 
0.7299999999999359, 0.5077763241985351 
0.7399999999999348, 0.5103440679135645 
0.7499999999999337, 0.5117875120448343 
0.7599999999999326, 0.5122517567594265 
0.7699999999999315, 0.5118125427851472 
0.7799999999999304, 0.5104762546732116 
0.7899999999999293, 0.508183605486797 
0.7999999999999282, 0.5048176150369733 
0.8099999999999271, 0.5002211359925712 
0.819999999999926, 0.4942327989633872 
0.8299999999999249, 0.48674993232188074 
0.8399999999999238, 0.47781665198621665 
0.8499999999999227, 0.4677104048421048 
0.8599999999999216, 0.45697162572290007 
0.8699999999999205, 0.446323592101994 
0.8799999999999194, 0.4364906318201615 
0.8899999999999183, 0.4280042192413878 
0.8999999999999172, 0.42110137157424654 
0.9099999999999161, 0.41574730723911146 
0.919999999999915, 0.4117336326771861 
0.9299999999999139, 0.40878340893480397 
0.9399999999999128, 0.40662379100996576 
0.9499999999999117, 0.4050209183889949 
0.9599999999999106, 0.4037881996611014 
0.9699999999999095, 0.40278078347176377 
0.9799999999999084, 0.40188488180656223 
0.9899999999999073, 0.4010062663163916 
0.9999999999999062, 0.4000593520880937 
1.0099999999999052, 0.3989566500580926 
1.019999999999904, 0.39759740904480184 
1.029999999999903, 0.3958534253010518 
1.039999999999902, 0.3935487724662399 
1.0499999999999008, 0.39042798124138395 
1.0599999999998997, 0.3861029349186559 
1.0699999999998986, 0.37996044658167266 
1.0799999999998975, 0.37099628214125546 
1.0899999999998964, 0.3575104401804706 
1.0999999999998953, 0.33654434199346267 
1.1099999999998942, 0.3028728635003837 
1.119999999999893, 0.24741615493565614 
1.129999999999892, 0.15573206204238563 
1.1399999999998909, 0.010265696968880664 
1.1499999999998898, -0.19564696510605806 
1.1599999999998887, -0.44089806575205387 
1.1699999999998876, -0.6813426514247282 
1.1799999999998865, -0.8829721594985844 
1.1899999999998854, -1.0353403827704342 
1.1999999999998843, -1.142849248395205 
1.2099999999998832, -1.2152057364220175 
1.219999999999882, -1.2624152022822488 
1.229999999999881, -1.2926773991285547 
1.2399999999998799, -1.311917070882229 
1.2499999999998788, -1.3241025105198043 
1.2599999999998777, -1.3317779163570878 
1.2699999999998766, -1.3365369806498828 
1.2799999999998755, -1.3393662395344001 
1.2899999999998744, -1.3408714889803341 
1.2999999999998733, -1.3414208567448338 
1.3099999999998722, -1.34123508414564 
1.319999999999871, -1.340448223377601 
1.32999999999987, -1.3391564832163902 
1.3399999999998689, -1.3374699706054505 
1.3499999999998678, -1.3355790487796517 
1.3599999999998666, -1.3338379957635371 
1.3699999999998655, -1.3328452652471716 
1.3799999999998644, -1.3334611883251954 
1.3899999999998633, -1.336678957005715 
1.3999999999998622, -1.3433150894299386 
1.4099999999998611, -1.3536345926245823 
1.41999999999986, -1.367153106350699 
1.429999999999859, -1.3827790585484836 
1.4399999999998578, -1.399203501206646 
1.4499999999998567, -1.4152826278827575 
1.4599999999998556, -1.430233916849933 
1.4699999999998545, -1.443641514810662 
1.4799999999998534, -1.45536222798665 
1.4899999999998523, -1.465416709862132 
1.4999999999998512, -1.4739063316084218 
1.5099999999998501, -1.480962436504832 
1.519999999999849, -1.486720446825306 
1.529999999999848, -1.491309183596119 
1.5399999999998468, -1.4948480291021269 
1.5499999999998457, -1.4974473010239464 
1.5599999999998446, -1.499209301154417 
1.5699999999998435, -1.500228967543283 
1.5799999999998424, -1.5005940747236297 
1.5899999999998413, -1.5003855293504655 
1.5999999999998402, -1.4996784373625134 
1.6099999999998391, -1.4985442371034496 
1.619999999999838, -1.497053394528942 
1.629999999999837, -1.495277304584664 
1.6399999999998358, -1.4932878948954629 
1.6499999999998347, -1.4911548432892943 
1.6599999999998336, -1.4889431267751492 
1.6699999999998325, -1.4867154782931424 
1.6799999999998314, -1.4845419035622582 
1.6899999999998303, -1.4825112523649393 
1.6999999999998292, -1.480732916646241 
1.709999999999828, -1.4793177888605333 
1.719999999999827, -1.4783404198083012 
1.729999999999826, -1.4778017100777634 
1.7399999999998248, -1.4776166106633382 
1.7499999999998237, -1.4776348440688893 
1.7599999999998226, -1.4776786739988355 
1.7699999999998215, -1.4775732560919723 
1.7799999999998204, -1.4771557348300848 
1.7899999999998193, -1.476263706492216 
1.7999999999998182, -1.4747099027998147 
1.809999999999817, -1.4722483195992515 
1.819999999999816, -1.4685330733552135 
1.8299999999998149, -1.4630688683567543 
1.8399999999998138, -1.455152552016169 
1.8499999999998127, -1.4438096720827545 
1.8599999999998116, -1.4277396235132056 
1.8699999999998105, -1.405299601664173 
1.8799999999998094, -1.3745810981846889 
1.8899999999998083, -1.3336555138794652 
1.8999999999998072, -1.2810615268701104 
1.909999999999806, -1.2165237524381043 
1.919999999999805, -1.1416854204385212 
1.9299999999998039, -1.060391927505447 
1.9399999999998028, -0.9780828351335845 
1.9499999999998017, -0.9003761437037956 
1.9599999999998006, -0.8315854429752175 
1.9699999999997995, -0.7739565103446417 
1.9799999999997984, -0.7277969206996339 
1.9899999999997973, -0.6921122353540858 
1.9999999999997962, -0.6652888419922909 
2.0099999999998173, -0.6455853311271255 
2.0199999999998384, -0.6314023866758378 
2.0299999999998595, -0.6213915838194631 
2.0399999999998806, -0.6144722897931076 
2.0499999999999017, -0.6098058814564093 
2.059999999999923, -0.606755400610471 
2.069999999999944, -0.60484436436389 
2.079999999999965, -0.6037203334450966 
2.089999999999986, -0.6031248212391587 
2.100000000000007, -0.602869366056066 
2.1100000000000283, -0.6028169512777897 
2.1200000000000494, -0.6028678304146249 
2.1300000000000705, -0.602948896009195 
2.1400000000000916, -0.603005884846262 
2.1500000000001127, -0.6029978760056234 
2.160000000000134, -0.6028936832960917 
2.170000000000155, -0.6026698488652533 
2.180000000000176, -0.6023099899681584 
2.190000000000197, -0.6018052184742194 
2.2000000000002182, -0.6011552412136463 
2.2100000000002393, -0.6003695929902626 
2.2200000000002604, -0.5994683345483907 
2.2300000000002815, -0.5984815742459321 
2.2400000000003026, -0.5974474203744115 
2.2500000000003237, -0.5964084094964687 
2.260000000000345, -0.5954069270914992 
2.270000000000366, -0.594480436262728 
2.280000000000387, -0.5936573421799373 
2.290000000000408, -0.5929540913089842 
2.3000000000004293, -0.5923737941970962 
2.3100000000004504, -0.5919064124644344 
2.3200000000004715, -0.5915304028240391 
2.3300000000004926, -0.5912156052803289 
2.3400000000005137, -0.5909270282911148 
2.3500000000005348, -0.590629018891766 
2.360000000000556, -0.590289192807812 
2.370000000000577, -0.589881540765094 
2.380000000000598, -0.5893883551939059 
2.390000000000619, -0.588800961629019 
2.4000000000006403, -0.588119556393878 
2.4100000000006614, -0.5873526389985506 
2.4200000000006825, -0.5865165586929589 
2.4300000000007036, -0.5856356177187636 
2.4400000000007247, -0.5847430633609713 
2.450000000000746, -0.5838832158223968 
2.460000000000767, -0.5831149469335902 
2.470000000000788, -0.5825167479001699 
2.480000000000809, -0.5821936919082072 
2.49000000000083, -0.58228669496766 
2.5000000000008513, -0.5829845893126259 
2.5100000000008724, -0.5845396223588195 
2.5200000000008935, -0.587287028011228 
2.5300000000009146, -0.5916691715292044 
2.5400000000009357, -0.5982642056187321 
2.550000000000957, -0.6078177307202965 
2.560000000000978, -0.6212728069033351 
2.570000000000999, -0.6397875641224076 
2.58000000000102, -0.6647192028570171 
2.5900000000010412, -0.697538290457316 
2.6000000000010624, -0.7396232145908269 
2.6100000000010835, -0.7918891508143432 
2.6200000000011046, -0.854262674637472 
2.6300000000011257, -0.9251497897933313 
2.6400000000011468, -1.0012123996916382 
2.650000000001168, -1.0777817504980627 
2.660000000001189, -1.149920233299904 
2.67000000000121, -1.213660683383183 
2.680000000001231, -1.2667915736326791 
2.6900000000012523, -1.3089091199853515 
2.7000000000012734, -1.3409344047107612 
2.7100000000012945, -1.3644767036445786 
2.7200000000013156, -1.3813134721190194 
2.7300000000013367, -1.3930749680362162 
2.740000000001358, -1.4011064963937763 
2.750000000001379, -1.406445059098475 
2.7600000000014, -1.409853849074772 
2.770000000001421, -1.4118773643481632 
2.780000000001442, -1.41289756413854 
2.7900000000014633, -1.4131834029016896 
2.8000000000014844, -1.412932598460116 
2.8100000000015055, -1.4123069358131566 
2.8200000000015266, -1.411461710559491 
2.8300000000015477, -1.4105667126236907 
2.840000000001569, -1.409812123814683 
2.85000000000159, -1.409392110095988 
2.860000000001611, -1.4094669252235172 
2.870000000001632, -1.4101197495549487 
2.8800000000016532, -1.4113340775840393 
2.8900000000016743, -1.4130072658939026 
2.9000000000016954, -1.4149914622509494 
2.9100000000017165, -1.4171371060073201 
2.9200000000017377, -1.4193190184993658 
2.9300000000017588, -1.4214414006209422 
2.94000000000178, -1.4234302643701444 
2.950000000001801, -1.4252238508696167 
2.960000000001822, -1.4267668652085783 
2.970000000001843, -1.428008888503985 
2.9800000000018643, -1.4289046968585735 
2.9900000000018854, -1.429414486722164 
3.0000000000019065, -1.429503364424622 
3.0100000000019276, -1.429140390343545 
3.0200000000019487, -1.4282976155946434 
3.03000000000197, -1.426949281013207 
3.040000000001991, -1.4250710987854267 
3.050000000002012, -1.4226394987286786 
3.060000000002033, -1.4196308599617882 
3.070000000002054, -1.4160209373785069 
3.0800000000020753, -1.4117848361061789 
3.0900000000020964, -1.4068979947606564 
3.1000000000021175, -1.40133883045885 
3.1100000000021386, -1.3950941473776108 
3.1200000000021597, -1.3881691672507528 
3.130000000002181, -1.3806046942218777 
3.140000000002202, -1.3725032018865606 
3.150000000002223, -1.3640614174012564 
3.160000000002244, -1.3555977381063447 
3.1700000000022652, -1.347551143973192 
3.1800000000022863, -1.3404249324803685 
3.1900000000023074, -1.3346692547625572 
3.2000000000023285, -1.3305419891712822 
3.2100000000023496, -1.3280232840716204 
3.2200000000023707, -1.3268381681015733 
3.230000000002392, -1.3265697114222854 
3.240000000002413, -1.3267901183474617 
3.250000000002434, -1.3271460191437996 
3.260000000002455, -1.3273814615051145 
3.2700000000024763, -1.3273175264834172 
3.2800000000024974, -1.3268137261147526 
3.2900000000025185, -1.3257260191364415 
3.3000000000025396, -1.3238644641510957 
3.3100000000025607, -1.3209458617829186 
3.3200000000025818, -1.3165325387585172 
3.330000000002603, -1.309945894168616 
3.340000000002624, -1.3001423501996499 
3.350000000002645, -1.2855433461579429 
3.360000000002666, -1.2638298045150018 
3.3700000000026873, -1.2317649407846967 
3.3800000000027084, -1.1852237372255705 
3.3900000000027295, -1.1197771748170728 
3.4000000000027506, -1.0322499674222312 
3.4100000000027717, -0.9232176469023202 
3.420000000002793, -0.7991128706284503 
3.430000000002814, -0.6715498152538302 
3.440000000002835, -0.5530896637539042 
3.450000000002856, -0.45237239958094316 
3.460000000002877, -0.37226111530289435 
3.4700000000028983, -0.3112454980929055 
3.4800000000029194, -0.26585100722396154 
3.4900000000029405, -0.23237483239365367 
3.5000000000029616, -0.20766962507047151 
3.5100000000029827, -0.18932178212482345 
3.520000000003004, -0.17557113134279784 
3.530000000003025, -0.16516352731214254 
3.540000000003046, -0.15721308344485957 
3.550000000003067, -0.15109473895077172 
3.5600000000030882, -0.14636664436331992 
3.5700000000031094, -0.14271607940396336 
3.5800000000031305, -0.1399224483308756 
3.5900000000031516, -0.1378322605915811 
3.6000000000031727, -0.1363424728858507 
3.6100000000031938, -0.1353897578866611 
3.620000000003215, -0.13494414835846957 
3.630000000003236, -0.13500615676212926 
3.640000000003257, -0.13560697764515542 
3.650000000003278, -0.13681182487722798 
3.6600000000032993, -0.13872691531656617 
3.6700000000033204, -0.1415111667481902 
3.6800000000033415, -0.14539442842768063 
3.6900000000033626, -0.1507051270652819 
3.7000000000033837, -0.15791171914786561 
3.710000000003405, -0.16768435479132904 
3.720000000003426, -0.18098540980551028 
3.730000000003447, -0.19919866511442394 
3.740000000003468, -0.22430249011364436 
3.750000000003489, -0.2590707206032599 
3.7600000000035103, -0.3072206154577884 
3.7700000000035314, -0.373282483286296 
3.7800000000035525, -0.4617422942705103 
3.7900000000035736, -0.5749339421543237 
3.8000000000035947, -0.7098858700669295 
3.810000000003616, -0.8562411444097013 
3.820000000003637, -0.9984357898047862 
3.830000000003658, -1.1220803283066068 
3.840000000003679, -1.2195638658272787 
3.8500000000037002, -1.2907596245718418 
3.8600000000037213, -1.3400384230377729 
3.8700000000037424, -1.3729951829615745 
3.8800000000037635, -1.394586637317247 
3.8900000000037847, -1.4085523254642764 
3.9000000000038058, -1.4174858162204562 
3.910000000003827, -1.423105246601475 
3.920000000003848, -1.4265211556023905 
3.930000000003869, -1.428442877840546 
3.94000000000389, -1.4293228794725912 
3.9500000000039113, -1.4294549549910909 
3.9600000000039324, -1.4290431964395796 
3.9700000000039535, -1.4282549340381885 
3.9800000000039746, -1.4272651633890807 
3.9900000000039957, -1.4262917058209117 
4.000000000004016, -1.425609750484819 
4.010000000003993, -1.4255277689942407 
4.02000000000397, -1.4263171243284507 
4.030000000003946, -1.428120182427541 
4.040000000003923, -1.4308918115786773 
4.0500000000039, -1.434416747410386 
4.0600000000038765, -1.4383914113923952 
4.070000000003853, -1.442516949726066 
4.08000000000383, -1.4465576574947805 
4.090000000003807, -1.4503548546318688 
4.100000000003783, -1.4538125658166885 
4.11000000000376, -1.4568754968584194 
4.120000000003737, -1.4595113690554213 
4.130000000003713, -1.461700463474145 
4.14000000000369, -1.4634304182720022 
4.150000000003667, -1.4646935823257865 
4.1600000000036434, -1.4654852707887962 
4.17000000000362, -1.4658023316790993 
4.180000000003597, -1.4656419489521897 
4.1900000000035735, -1.4650007274082346 
4.20000000000355, -1.463874096376948 
4.210000000003527, -1.4622560636949276 
4.220000000003504, -1.4601393613947267 
4.23000000000348, -1.4575160279348056 
4.240000000003457, -1.4543784670468267 
4.250000000003434, -1.4507210628245812 
4.26000000000341, -1.4465426570903643 
4.270000000003387, -1.4418508167082396 
4.280000000003364, -1.4366698659434467 
4.2900000000033405, -1.4310554600525742 
4.300000000003317, -1.4251172353697645 
4.310000000003294, -1.419045460872875 
4.320000000003271, -1.41312726414753 
4.330000000003247, -1.4077286057798455 
4.340000000003224, -1.4032232765186299 
4.350000000003201, -1.3998811119638692 
4.360000000003177, -1.397769803101544 
4.370000000003154, -1.396733369574436 
4.380000000003131, -1.3964611614379374 
4.390000000003107, -1.3965976414826604 
4.400000000003084, -1.39682813662358 
4.410000000003061, -1.396910923555925 
4.4200000000030375, -1.396664639385795 
4.430000000003014, -1.3959329002097827 
4.440000000002991, -1.3945409020551076 
4.450000000002968, -1.3922470374954719 
4.460000000002944, -1.3886837404863879 
4.470000000002921, -1.3832761365809219 
4.480000000002898, -1.375123196831689 
4.490000000002874, -1.3628248111300432 
4.500000000002851, -1.3442461045739433 
4.510000000002828, -1.316245340341364 
4.520000000002804, -1.2744888981197489 
4.530000000002781, -1.2136740859417134 
4.540000000002758, -1.1287226528013181 
4.5500000000027345, -1.0174131144760625 
4.560000000002711, -0.8837509036231246 
4.570000000002688, -0.7393036340206319 
4.580000000002665, -0.5997111180284576 
4.590000000002641, -0.4780171533510346 
4.600000000002618, -0.3802745081846029 
4.610000000002595, -0.3060314079154734 
4.620000000002571, -0.25139649490087207 
4.630000000002548, -0.2117189473787925 
4.640000000002525, -0.1829299128846367 
4.6500000000025015, -0.16190724713159094 
4.660000000002478, -0.1463995976042803 
4.670000000002455, -0.13482860206648828 
4.6800000000024315, -0.12609885849152574 
4.690000000002408, -0.11945071125857742 
4.700000000002385, -0.11435560208087193 
4.710000000002362, -0.11044451001378186 
4.720000000002338, -0.10745988822982738 
4.730000000002315, -0.10522369956042037 
4.740000000002292, -0.1036164019338684 
4.750000000002268, -0.10256348882768625 
4.760000000002245, -0.10202744704498086 
4.770000000002222, -0.10200388694013034 
4.7800000000021985, -0.10252126826543506 
4.790000000002175, -0.10364420896882255 
4.800000000002152, -0.10548093334204478 
4.810000000002129, -0.1081961032509505 
4.820000000002105, -0.11203121962631357 
4.830000000002082, -0.11733616216280257 
4.840000000002059, -0.12461748111976836 
4.850000000002035, -0.1346119776678962 
4.860000000002012, -0.14839781771365618 
4.870000000001989, -0.1675585846667556 
4.880000000001965, -0.19441305858204047 
4.890000000001942, -0.23229961425250692 
4.900000000001919, -0.2858218850462051 
4.9100000000018955, -0.36075905301446815 
4.920000000001872, -0.46300170524682227 
4.930000000001849, -0.5957107293058486 
