t, s[1].omega / s[0].omega 
0, -0.6099977251484712 
0.009999999999999995, -0.609784765599522 
0.019999999999999934, -0.6095911003800338 
0.029999999999999874, -0.6093927288690434 
0.04000000000000012, -0.6091614260755669 
0.050000000000000405, -0.6088753825981785 
0.06000000000000069, -0.608525346864236 
0.07000000000000098, -0.608115537951545 
0.08000000000000126, -0.6076622852433073 
0.09000000000000155, -0.607194130480068 
0.10000000000000184, -0.6067559448482424 
0.11000000000000212, -0.6064184582765642 
0.12000000000000241, -0.6062942252332306 
0.130000000000002, -0.606561046227508 
0.1400000000000009, -0.6074933678638474 
0.1499999999999998, -0.6094998887821763 
0.1599999999999987, -0.6131588228658443 
0.1699999999999976, -0.6192255767878565 
0.1799999999999965, -0.628554143412446 
0.1899999999999954, -0.6418317039820265 
0.1999999999999943, -0.6590516095558067 
0.2099999999999932, -0.6789162866416711 
0.2199999999999921, -0.6988347625336553 
0.229999999999991, -0.7160338217795635 
0.2399999999999899, -0.7289851400855611 
0.2499999999999888, -0.7377570612873141 
0.2599999999999877, -0.743295344114268 
0.2699999999999866, -0.7466438517639118 
0.2799999999999855, -0.7485998853167796 
0.2899999999999844, -0.7496817126317836 
0.2999999999999833, -0.7501979602103286 
0.3099999999999822, -0.7503177109436747 
0.3199999999999811, -0.7501160761848515 
0.32999999999998, -0.7495956142349354 
0.3399999999999789, -0.7486872949855746 
0.3499999999999778, -0.7472322339863233 
0.35999999999997667, -0.7449444155871101 
0.36999999999997557, -0.7413627311508229 
0.37999999999997447, -0.7358315770373505 
0.38999999999997337, -0.7276094804510828 
0.39999999999997227, -0.71622825776092 
0.40999999999997117, -0.7020248660782404 
0.41999999999997006, -0.6863638177328941 
0.42999999999996896, -0.6711274267492265 
0.43999999999996786, -0.6578532660975895 
0.44999999999996676, -0.6472689881576816 
0.45999999999996566, -0.639389205972979 
0.46999999999996456, -0.6338369279240501 
0.47999999999996346, -0.6301104080427847 
0.48999999999996235, -0.6277289017112194 
0.49999999999996125, -0.6262905306148785 
0.5099999999999602, -0.6254841650264227 
0.519999999999959, -0.625081326436163 
0.529999999999958, -0.6249209882704893 
0.5399999999999568, -0.6248932563583989 
0.5499999999999557, -0.6249247879442932 
0.5599999999999546, -0.6249673647972525 
0.5699999999999535, -0.6249902642624687 
0.5799999999999524, -0.6249764542951222 
0.5899999999999513, -0.6249217330352808 
0.5999999999999502, -0.6248345993400298 
0.6099999999999491, -0.6247336992960244 
0.619999999999948, -0.6246407532356862 
0.6299999999999469, -0.6245702988742899 
0.6399999999999458, -0.6245209995249574 
0.6499999999999447, -0.6244736171931734 
0.6599999999999436, -0.6243973983625595 
0.6699999999999425, -0.6242615919064395 
0.6799999999999414, -0.6240457533099049 
0.6899999999999403, -0.6237442355623363 
0.6999999999999392, -0.6233652520124239 
0.7099999999999381, -0.6229284486346618 
0.719999999999937, -0.6224649882624469 
0.7299999999999359, -0.6220225459330133 
0.7399999999999348, -0.6216765049800155 
0.7499999999999337, -0.6215484599411331 
0.7599999999999326, -0.621833147937424 
0.7699999999999315, -0.6228340598167356 
0.7799999999999304, -0.6250046196102584 
0.7899999999999293, -0.6289827706345986 
0.7999999999999282, -0.6355861087804247 
0.8099999999999271, -0.6456969960454989 
0.819999999999926, -0.6599310854785366 
0.8299999999999249, -0.6780494252486878 
0.8399999999999238, -0.6984147786971449 
0.8499999999999227, -0.718225920981366 
0.8599999999999216, -0.7348322413697459 
0.8699999999999205, -0.7470358760844823 
0.8799999999999194, -0.7551603776205319 
0.8899999999999183, -0.7602322055505611 
0.8999999999999172, -0.7632718746519976 
0.9099999999999161, -0.7650276915133226 
0.919999999999915, -0.7659763443717351 
0.9299999999999139, -0.7663974933429778 
0.9399999999999128, -0.766440358982306 
0.9499999999999117, -0.7661646824989818 
0.9599999999999106, -0.7655578729737149 
0.9699999999999095, -0.7645314466642938 
0.9799999999999084, -0.7628968165606655 
0.9899999999999073, -0.7603195793194857 
0.9999999999999062, -0.7562613657417466 
1.0099999999999052, -0.7499561079663348 
1.019999999999904, -0.7405422559237216 
1.029999999999903, -0.7275014506676922 
1.039999999999902, -0.7113010295626545 
1.0499999999999008, -0.6936321477983878 
1.0599999999998997, -0.6767385626848637 
1.0699999999998986, -0.6623587804899078 
1.0799999999998975, -0.6512139854779806 
1.0899999999998964, -0.6431873016409445 
1.0999999999998953, -0.6377415147895201 
1.1099999999998942, -0.6342402708369674 
1.119999999999893, -0.6321104581779842 
1.129999999999892, -0.6308971121727125 
1.1399999999998909, -0.6302652984334454 
1.1499999999998898, -0.6299812154768689 
1.1599999999998887, -0.629888070203447 
1.1699999999998876, -0.6298835500487894 
1.1799999999998865, -0.6299016189459048 
1.1899999999998854, -0.6298994981392678 
1.1999999999998843, -0.6298498767899968 
1.2099999999998832, -0.6297378794815185 
1.219999999999882, -0.6295614150290341 
1.229999999999881, -0.6293320577249633 
1.2399999999998799, -0.6290727114308179 
1.2499999999998788, -0.6288099516437015 
1.2599999999998777, -0.6285631430732137 
1.2699999999998766, -0.6283358426086828 
1.2799999999998755, -0.628114399946326 
1.2899999999998744, -0.6278745198373822 
1.2999999999998733, -0.6275919193172161 
1.3099999999998722, -0.627251366979191 
1.319999999999871, -0.6268507194152628 
1.32999999999987, -0.6264008572468617 
1.3399999999998689, -0.6259249725216962 
1.3499999999998678, -0.6254603998897881 
1.3599999999998666, -0.6250647541623374 
1.3699999999998655, -0.6248270678815183 
1.3799999999998644, -0.6248840959346978 
1.3899999999998633, -0.6254414053159956 
1.3999999999998622, -0.6267975897783613 
1.4099999999998611, -0.629366924394381 
1.41999999999986, -0.6336888954504605 
1.429999999999859, -0.6403986535497427 
1.4399999999998578, -0.6501089957147455 
1.4499999999998567, -0.6631398649645863 
1.4599999999998556, -0.6790965470417917 
1.4699999999998545, -0.6965381483042428 
1.4799999999998534, -0.7132328288532388 
1.4899999999998523, -0.7271482030571977 
1.4999999999998512, -0.7373880825573355 
1.5099999999998501, -0.7442309862693727 
1.519999999999849, -0.7485117627152263 
1.529999999999848, -0.7510688557626766 
1.5399999999998468, -0.7525242493734187 
1.5499999999998457, -0.7532765789805497 
1.5599999999998446, -0.7535583396135965 
1.5699999999998435, -0.7534888259751942 
1.5799999999998424, -0.7531060184964344 
1.5899999999998413, -0.7523772981276239 
1.5999999999998402, -0.7511901327239533 
1.6099999999998391, -0.749321166628075 
1.619999999999838, -0.7463820134042247 
1.629999999999837, -0.7417531895735455 
1.6399999999998358, -0.7345653201239921 
1.6499999999998347, -0.7238776784778511 
1.6599999999998336, -0.7092235091171872 
1.6699999999998325, -0.6913420236090906 
1.6799999999998314, -0.6723195976955405 
1.6899999999998303, -0.6546564874037288 
1.6999999999998292, -0.6400710906653616 
1.709999999999828, -0.6290886176176709 
1.719999999999827, -0.6213817422679895 
1.729999999999826, -0.6162697074261715 
1.7399999999998248, -0.6130455720821777 
1.7499999999998237, -0.6111159887265996 
1.7599999999998226, -0.6100324449891884 
1.7699999999998215, -0.6094766777410169 
1.7799999999998204, -0.6092325581465478 
1.7899999999998193, -0.6091579454572366 
1.7999999999998182, -0.6091612493028119 
1.809999999999817, -0.6091838705177915 
1.819999999999816, -0.6091884010732761 
1.8299999999998149, -0.6091520609225588 
1.8399999999998138, -0.6090645030294807 
1.8499999999998127, -0.608928238250246 
1.8599999999998116, -0.6087586279270277 
1.8699999999998105, -0.6085800424372059 
1.8799999999998094, -0.6084170229229954 
1.8899999999998083, -0.6082833868324469 
1.8999999999998072, -0.6081748448288447 
1.909999999999806, -0.6080694798396631 
1.919999999999805, -0.6079361501524121 
1.9299999999998039, -0.6077462492289645 
1.9399999999998028, -0.6074826494772962 
1.9499999999998017, -0.607142631270446 
1.9599999999998006, -0.6067363977552976 
1.9699999999997995, -0.606285252669793 
1.9799999999997984, -0.6058229432605742 
1.9899999999997973, -0.6054022047998753 
1.9999999999997962, -0.6051078596702796 
2.0099999999998173, -0.6050779803920885 
2.0199999999998384, -0.6055348249323079 
2.0299999999998595, -0.6068262798839894 
2.0399999999998806, -0.6094741287871824 
2.0499999999999017, -0.6142126222227733 
2.059999999999923, -0.6219706734784275 
2.069999999999944, -0.6336986305637679 
2.079999999999965, -0.6499074295068865 
2.089999999999986, -0.6699418795742969 
2.100000000000007, -0.6915264688550196 
2.1100000000000283, -0.7114655408444532 
2.1200000000000494, -0.7273317021125487 
2.1300000000000705, -0.738503816036497 
2.1400000000000916, -0.7457334744188054 
2.1500000000001127, -0.750179407167874 
2.160000000000134, -0.7528265050814404 
2.170000000000155, -0.7543476711790984 
2.180000000000176, -0.7551567577956392 
2.190000000000197, -0.7554912479001582 
2.2000000000002182, -0.7554734013892173 
2.2100000000002393, -0.755144456122928 
2.2200000000002604, -0.7544764302899202 
2.2300000000002815, -0.7533647114570357 
2.2400000000003026, -0.7516021495979655 
2.2500000000003237, -0.7488378069171332 
2.260000000000345, -0.7445405774304771 
2.270000000000366, -0.7380316115037835 
2.280000000000387, -0.7286993137005722 
2.290000000000408, -0.7164426631973031 
2.3000000000004293, -0.7020746651201651 
2.3100000000004504, -0.6871889846062356 
2.3200000000004715, -0.6734527888597432 
2.3300000000004926, -0.6619486772046231 
2.3400000000005137, -0.6530228786606255 
2.3500000000005348, -0.6465042319179148 
2.360000000000556, -0.6419823829728395 
2.370000000000577, -0.638996107208051 
2.380000000000598, -0.6371263449680504 
2.390000000000619, -0.6360299803169879 
2.4000000000006403, -0.6354439896497296 
2.4100000000006614, -0.6351765083318568 
2.4200000000006825, -0.6350930597846947 
2.4300000000007036, -0.6351021922716704 
2.4400000000007247, -0.6351428920362961 
2.450000000000746, -0.6351751109726979 
2.460000000000767, -0.6351740233953215 
2.470000000000788, -0.635127825820655 
2.480000000000809, -0.6350376671101001 
2.49000000000083, -0.6349168886111936 
2.5000000000008513, -0.6347865316218008 
2.5100000000008724, -0.6346664198164789 
2.5200000000008935, -0.6345650489663746 
2.5300000000009146, -0.6344737164168546 
2.5400000000009357, -0.6343686420820314 
2.550000000000957, -0.6342202357211564 
2.560000000000978, -0.6340043122145047 
2.570000000000999, -0.6337094695530205 
2.58000000000102, -0.6333386439789206 
2.5900000000010412, -0.6329073702660909 
2.6000000000010624, -0.6324428580511021 
2.6100000000010835, -0.6319868892839665 
2.6200000000011046, -0.6316040129284701 
2.6300000000011257, -0.6313957417167335 
2.6400000000011468, -0.6315211361871091 
2.650000000001168, -0.6322234506455793 
2.660000000001189, -0.633860445957012 
2.67000000000121, -0.6369309923179276 
2.680000000001231, -0.6420796006311993 
2.6900000000012523, -0.6500392299648156 
2.7000000000012734, -0.6614440315893387 
2.7100000000012945, -0.676447274235962 
2.7200000000013156, -0.6942249099857627 
2.7300000000013367, -0.7127848821526819 
2.740000000001358, -0.7296132798103124 
2.750000000001379, -0.7429061867681428 
2.7600000000014, -0.7522580987272102 
2.770000000001421, -0.7583085014155576 
2.780000000001442, -0.7620124171753951 
2.7900000000014633, -0.7641874717808071 
2.8000000000014844, -0.7653966649208057 
2.8100000000015055, -0.765985962863476 
2.8200000000015266, -0.766149829974651 
2.8300000000015477, -0.7659802454184155 
2.840000000001569, -0.7654923984190664 
2.85000000000159, -0.764629081091046 
2.860000000001611, -0.7632443617817473 
2.870000000001632, -0.7610641857108502 
2.8800000000016532, -0.757623745986389 
2.8900000000016743, -0.7522026653545779 
2.9000000000016954, -0.7438430572918139 
2.9100000000017165, -0.7316317631144152 
2.9200000000017377, -0.7153736619951884 
2.9300000000017588, -0.6962827230769258 
2.94000000000178, -0.676809106266175 
2.950000000001801, -0.6594412830501062 
2.960000000001822, -0.6456074077374123 
2.970000000001843, -0.635521729494581 
2.9800000000018643, -0.6286587008275087 
2.9900000000018854, -0.6242500027007842 
3.0000000000019065, -0.6215685913819453 
3.0100000000019276, -0.6200334579310416 
3.0200000000019487, -0.6192208018136436 
3.03000000000197, -0.6188392007119817 
3.040000000001991, -0.6186965468227156 
3.050000000002012, -0.6186698319992925 
3.060000000002033, -0.6186813086715286 
3.070000000002054, -0.6186815186010952 
3.0800000000020753, -0.6186386763822851 
3.0900000000020964, -0.6185336418229047 
3.1000000000021175, -0.6183593101116565 
3.1100000000021386, -0.618122108029616 
3.1200000000021597, -0.6178418918378069 
3.130000000002181, -0.617546828093131 
3.140000000002202, -0.6172632138407768 
3.150000000002223, -0.6170046504886864 
3.160000000002244, -0.616766478635516 
3.1700000000022652, -0.6165285613715821 
3.1800000000022863, -0.6162646618423099 
3.1900000000023074, -0.6159531204178335 
3.2000000000023285, -0.615583771368967 
3.2100000000023496, -0.6151597485338477 
3.2200000000023707, -0.6146966371843854 
3.230000000002392, -0.6142225818541414 
3.240000000002413, -0.6137819499005465 
3.250000000002434, -0.6134438769434952 
3.260000000002455, -0.6133163899705992 
3.2700000000024763, -0.6135665421953922 
3.2800000000024974, -0.6144463831992228 
3.2900000000025185, -0.6163226580818482 
3.3000000000025396, -0.619703035644253 
3.3100000000025607, -0.625239641268813 
3.3200000000025818, -0.6336666730852032 
3.330000000002603, -0.6455970337212639 
3.340000000002624, -0.6611114211832164 
3.350000000002645, -0.6792473247116371 
3.360000000002666, -0.6978681218466897 
3.3700000000026873, -0.7144370358916883 
3.3800000000027084, -0.7272901502262928 
3.3900000000027295, -0.7362033409664996 
3.4000000000027506, -0.741916747747071 
3.4100000000027717, -0.7453980840045247 
3.420000000002793, -0.7474381503328976 
3.430000000002814, -0.7485688635265167 
3.440000000002835, -0.7491127958060348 
3.450000000002856, -0.7492490925048062 
3.460000000002877, -0.7490598291695048 
3.4700000000028983, -0.7485530791310968 
3.4800000000029194, -0.7476653282684596 
3.4900000000029405, -0.7462440338935634 
3.5000000000029616, -0.7440092554380722 
3.5100000000029827, -0.7404987839490632 
3.520000000003004, -0.7350284924144227 
3.530000000003025, -0.7267641602317287 
3.540000000003046, -0.7150584528903591 
3.550000000003067, -0.7000566305228635 
3.5600000000030882, -0.6831000358254529 
3.5700000000031094, -0.666304711969974 
3.5800000000031305, -0.6515444414509057 
3.5900000000031516, -0.6397733317671327 
3.6000000000031727, -0.6310622211335055 
3.6100000000031938, -0.6249817526167051 
3.620000000003215, -0.6209438569290364 
3.630000000003236, -0.6183893204277557 
3.640000000003257, -0.6168589756679931 
3.650000000003278, -0.6160048311202783 
3.6600000000032993, -0.6155767533774581 
3.6700000000033204, -0.6154019334511192 
3.6800000000033415, -0.6153645147749977 
3.6900000000033626, -0.615388342066282 
3.7000000000033837, -0.6154239115408745 
3.710000000003405, -0.6154397909103605 
3.720000000003426, -0.6154182894342874 
3.730000000003447, -0.6153544356295833 
3.740000000003468, -0.6152560990018094 
3.750000000003489, -0.6151420452932415 
3.7600000000035103, -0.6150354650375572 
3.7700000000035314, -0.6149537626570778 
3.7800000000035525, -0.6148990555100975 
3.7900000000035736, -0.6148547357453586 
3.8000000000035947, -0.6147905903203356 
3.810000000003616, -0.6146740178016155 
3.820000000003637, -0.6144811834627452 
3.830000000003658, -0.6142027771397487 
3.840000000003679, -0.613843786113844 
3.8500000000037002, -0.6134208464617276 
3.8600000000037213, -0.6129614115798729 
3.8700000000037424, -0.6125075021267988 
3.8800000000037635, -0.6121255791964173 
3.8900000000037847, -0.6119239158979449 
3.9000000000038058, -0.6120791652450924 
3.910000000003827, -0.6128735632646798 
3.920000000003848, -0.6147417038913403 
3.930000000003869, -0.6183176447710723 
3.94000000000389, -0.6244522925303675 
3.9500000000039113, -0.6341287843029215 
3.9600000000039324, -0.6481510847000331 
3.9700000000039535, -0.666517292949889 
3.9800000000039746, -0.6877309072881954 
3.9900000000039957, -0.7088651897259066 
4.000000000004016, -0.7269121454345314 
4.010000000003993, -0.7403443263994615 
4.02000000000397, -0.7493606009892503 
4.030000000003946, -0.7550241172851166 
4.040000000003923, -0.7584428242436214 
4.0500000000039, -0.7604424173647292 
4.0600000000038765, -0.7615535660467094 
4.070000000003853, -0.762091034416245 
4.08000000000383, -0.7622274828009642 
4.090000000003807, -0.762040410620007 
4.100000000003783, -0.7615341782634568 
4.11000000000376, -0.7606413243213468 
4.120000000003737, -0.7592045605118046 
4.130000000003713, -0.7569396811707142 
4.14000000000369, -0.7533875119013216 
4.150000000003667, -0.7478933639296753 
4.1600000000036434, -0.7397119039677438 
4.17000000000362, -0.7283598862002265 
4.180000000003597, -0.7141465929061525 
4.1900000000035735, -0.6984121424654962 
4.20000000000355, -0.683042273404552 
4.210000000003527, -0.6696087134864903 
4.220000000003504, -0.6588809474563304 
4.23000000000348, -0.650900819471362 
4.240000000003457, -0.6452981752510087 
4.250000000003434, -0.6415634147657345 
4.26000000000341, -0.639201455244297 
4.270000000003387, -0.637795799430277 
4.280000000003364, -0.6370237233447906 
4.2900000000033405, -0.6366491361980248 
4.300000000003317, -0.6365068861896005 
4.310000000003294, -0.636485314355376 
4.320000000003271, -0.6365104934291337 
4.330000000003247, -0.6365338807630796 
4.340000000003224, -0.6365241564017473 
4.350000000003201, -0.6364633141996616 
4.360000000003177, -0.636346117639328 
4.370000000003154, -0.6361805841259459 
4.380000000003131, -0.6359860529458312 
4.390000000003107, -0.6357864267994675 
4.400000000003084, -0.6355998561083456 
4.410000000003061, -0.63542979497526 
4.4200000000030375, -0.6352625976863285 
4.430000000003014, -0.6350732377675659 
4.440000000002991, -0.6348358883463647 
4.450000000002968, -0.634533522646258 
4.460000000002944, -0.6341624954725787 
4.470000000002921, -0.6337325126586143 
4.480000000002898, -0.6332654567621272 
4.490000000002874, -0.6327965557575921 
4.500000000002851, -0.6323798961848683 
4.510000000002828, -0.6320990689738032 
4.520000000002804, -0.6320831324331627 
4.530000000002781, -0.6325275130748158 
4.540000000002758, -0.6337182183918272 
4.5500000000027345, -0.6360549085322652 
4.560000000002711, -0.6400621900184081 
4.570000000002688, -0.6463656988407659 
4.580000000002665, -0.6555880456036295 
4.590000000002641, -0.6681029436077732 
4.600000000002618, -0.6836341782362142 
4.610000000002595, -0.7008958368086307 
4.620000000002571, -0.7177414303728368 
4.630000000002548, -0.7320625921324241 
4.640000000002525, -0.7427831233721452 
4.6500000000025015, -0.7500379453866208 
4.660000000002478, -0.7546133053853123 
4.670000000002455, -0.7573613544535608 
4.6800000000024315, -0.7589355536474363 
4.690000000002408, -0.7597622657651093 
4.700000000002385, -0.7600935379391808 
4.710000000002362, -0.7600618861010789 
4.720000000002338, -0.7597151323128835 
4.730000000002315, -0.759029857741142 
4.740000000002292, -0.7579046641820549 
4.750000000002268, -0.7561317553201705 
4.760000000002245, -0.7533439249578376 
4.770000000002222, -0.7489432007868666 
4.7800000000021985, -0.7420578100068788 
4.790000000002175, -0.73166590367239 
4.800000000002152, -0.7170903523048199 
4.810000000002129, -0.698804848197881 
4.820000000002105, -0.6788119854503614 
4.830000000002082, -0.6598412261818984 
4.840000000002059, -0.6439715160736397 
4.850000000002035, -0.6319700856678011 
4.860000000002012, -0.6235693966765328 
4.870000000001989, -0.6180376868177344 
4.880000000001965, -0.61458504599768 
4.890000000001942, -0.6125443147072684 
4.900000000001919, -0.6114141807984665 
4.9100000000018955, -0.6108430971808275 
4.920000000001872, -0.610595850011398 
