t, s[1].omega / s[0].omega 
0, -0.759997668119309 
0.009999999999999995, -0.7597412063595699 
0.019999999999999934, -0.7594362288059789 
0.029999999999999874, -0.7590774450834048 
0.04000000000000012, -0.7586613069770034 
0.050000000000000405, -0.7581903615519254 
0.06000000000000069, -0.7576755900956986 
0.07000000000000098, -0.7571371203705256 
0.08000000000000126, -0.7566047307427131 
0.09000000000000155, -0.7561189900806125 
0.10000000000000184, -0.7557326169700673 
0.11000000000000212, -0.7555106868502516 
0.12000000000000241, -0.7555281889580093 
0.130000000000002, -0.7558642656085499 
0.1400000000000009, -0.756593893801246 
0.1499999999999998, -0.7577788606181157 
0.1599999999999987, -0.7594596514155932 
0.1699999999999976, -0.7616481953993127 
0.1799999999999965, -0.7643194899333713 
0.1899999999999954, -0.7674000670990029 
0.1999999999999943, -0.7707552155907265 
0.2099999999999932, -0.7741849750997429 
0.2199999999999921, -0.777445132652389 
0.229999999999991, -0.7803006724093298 
0.2399999999999899, -0.7825912729276502 
0.2499999999999888, -0.784268018209935 
0.2599999999999877, -0.7853794082131034 
0.2699999999999866, -0.7860250593690659 
0.2799999999999855, -0.7863107719195706 
0.2899999999999844, -0.7863227493676656 
0.2999999999999833, -0.7861196711873928 
0.3099999999999822, -0.7857347235084424 
0.3199999999999811, -0.7851819654267388 
0.32999999999998, -0.784465842856522 
0.3399999999999789, -0.7835966210215031 
0.3499999999999778, -0.7826176389089777 
0.35999999999997667, -0.781651198198041 
0.36999999999997557, -0.780963257744469 
0.37999999999997447, -0.7810229638939712 
0.38999999999997337, -0.782486936588849 
0.39999999999997227, -0.7860047855603223 
0.40999999999997117, -0.7918254903429787 
0.41999999999997006, -0.7994450688533788 
0.42999999999996896, -0.8076996541166264 
0.43999999999996786, -0.8153416413312942 
0.44999999999996676, -0.8215892558398107 
0.45999999999996566, -0.8262435524158483 
0.46999999999996456, -0.8294833897794026 
0.47999999999996346, -0.8316231073375114 
0.48999999999996235, -0.8329660440785542 
0.49999999999996125, -0.8337488595764059 
0.5099999999999602, -0.8341347740640522 
0.519999999999959, -0.8342240199790432 
0.529999999999958, -0.8340654515839157 
0.5399999999999568, -0.8336628412983511 
0.5499999999999557, -0.8329734485662869 
0.5599999999999546, -0.8318977613331693 
0.5699999999999535, -0.830260707704342 
0.5799999999999524, -0.8277898206345787 
0.5899999999999513, -0.8241099878576277 
0.5999999999999502, -0.8187984576597493 
0.6099999999999491, -0.8115536244392375 
0.619999999999948, -0.8024631506698515 
0.6299999999999469, -0.7921945742707637 
0.6399999999999458, -0.7818687876486763 
0.6499999999999447, -0.7726280611483689 
0.6599999999999436, -0.7652186792851287 
0.6699999999999425, -0.7598526139448494 
0.6799999999999414, -0.7563262923989681 
0.6899999999999403, -0.7542294255058206 
0.6999999999999392, -0.7531189381781168 
0.7099999999999381, -0.7526177951145187 
0.719999999999937, -0.7524486613093021 
0.7299999999999359, -0.7524277482374122 
0.7399999999999348, -0.7524418028295774 
0.7499999999999337, -0.7524228796380541 
0.7599999999999326, -0.7523276433636826 
0.7699999999999315, -0.7521230225399664 
0.7799999999999304, -0.7517781391361447 
0.7899999999999293, -0.7512624185329896 
0.7999999999999282, -0.7505499800399351 
0.8099999999999271, -0.7496290495992886 
0.819999999999926, -0.7485117182230125 
0.8299999999999249, -0.7472368208723787 
0.8399999999999238, -0.745861827742115 
0.8499999999999227, -0.7444477824910078 
0.8599999999999216, -0.7430463922330074 
0.8699999999999205, -0.7416952718972107 
0.8799999999999194, -0.7404206318615246 
0.8899999999999183, -0.73924300708696 
0.8999999999999172, -0.7381821451564863 
0.9099999999999161, -0.737259320650265 
0.919999999999915, -0.7364970038313606 
0.9299999999999139, -0.7359165845640052 
0.9399999999999128, -0.7355351635010936 
0.9499999999999117, -0.7353625607289588 
0.9599999999999106, -0.7353995985322979 
0.9699999999999095, -0.7356382698212596 
0.9799999999999084, -0.736063697049326 
0.9899999999999073, -0.7366571039310507 
0.9999999999999062, -0.7373986180482552 
1.0099999999999052, -0.7382686447808139 
1.019999999999904, -0.7392467394444026 
1.029999999999903, -0.7403074880265773 
1.039999999999902, -0.7414143211212624 
1.0499999999999008, -0.742514548864574 
1.0599999999998997, -0.7435407869582918 
1.0699999999998986, -0.7444222017670914 
1.0799999999998975, -0.7451022163174523 
1.0899999999998964, -0.7455526306851231 
1.0999999999998953, -0.7457757056500313 
1.1099999999998942, -0.7457950371124877 
1.119999999999893, -0.7456430543352763 
1.129999999999892, -0.7453522574088203 
1.1399999999998909, -0.744952932543652 
1.1499999999998898, -0.7444773103211878 
1.1599999999998887, -0.7439699993669584 
1.1699999999998876, -0.7435054689371954 
1.1799999999998865, -0.7432135037785701 
1.1899999999998854, -0.7433111385846075 
1.1999999999998843, -0.7441327906399554 
1.2099999999998832, -0.7461382313682293 
1.219999999999882, -0.7498634273338289 
1.229999999999881, -0.7557739120288582 
1.2399999999998799, -0.7640115940195475 
1.2499999999998788, -0.7741264265551442 
1.2599999999998777, -0.785018418670623 
1.2699999999998766, -0.7952851103179307 
1.2799999999998755, -0.8038192823863428 
1.2899999999998744, -0.810189106128257 
1.2999999999998733, -0.8145605357213743 
1.3099999999998722, -0.8173776458842946 
1.319999999999871, -0.8190989101724796 
1.32999999999987, -0.8200823897044481 
1.3399999999998689, -0.8205705126346456 
1.3499999999998678, -0.8207114857185278 
1.3599999999998666, -0.8205838103277759 
1.3699999999998655, -0.8202126100696148 
1.3799999999998644, -0.8195756767352778 
1.3899999999998633, -0.8185993307996611 
1.3999999999998622, -0.8171442762854095 
1.4099999999998611, -0.8149829400578842 
1.41999999999986, -0.8117764744297098 
1.429999999999859, -0.8070779407997518 
1.4399999999998578, -0.8004196678543695 
1.4499999999998567, -0.7915546896597987 
1.4599999999998556, -0.7808181680155695 
1.4699999999998545, -0.7693221664356007 
1.4799999999998534, -0.7586270194838074 
1.4899999999998523, -0.7500163820541308 
1.4999999999998512, -0.7439903269161614 
1.5099999999998501, -0.7403124381897882 
1.519999999999849, -0.7383773716149512 
1.529999999999848, -0.737548041268331 
1.5399999999998468, -0.7373244071390556 
1.5499999999998457, -0.7373757674208857 
1.5599999999998446, -0.7375083938503169 
1.5699999999998435, -0.7376185284665114 
1.5799999999998424, -0.7376526957095695 
1.5899999999998413, -0.7375802457419831 
1.5999999999998402, -0.7373762422563115 
1.6099999999998391, -0.7370117779957568 
1.619999999999838, -0.736450249784723 
1.629999999999837, -0.7356501315212626 
1.6399999999998358, -0.7345755594943657 
1.6499999999998347, -0.7332133791039015 
1.6599999999998336, -0.7315889939679416 
1.6699999999998325, -0.7297693053405412 
1.6799999999998314, -0.7278474776060904 
1.6899999999998303, -0.7259181376955087 
1.6999999999998292, -0.7240579964173731 
1.709999999999828, -0.7223197161294533 
1.719999999999827, -0.7207362695530344 
1.729999999999826, -0.7193288203039402 
1.7399999999998248, -0.718112995815393 
1.7499999999998237, -0.7171017597288759 
1.7599999999998226, -0.7163053072017905 
1.7699999999998215, -0.7157292956085558 
1.7799999999998204, -0.7153728460084038 
1.7899999999998193, -0.7152274789687925 
1.7999999999998182, -0.7152776120682066 
1.809999999999817, -0.7155025783861492 
1.819999999999816, -0.7158795526436161 
1.8299999999998149, -0.7163864861951503 
1.8399999999998138, -0.7170041474474845 
1.8499999999998127, -0.7177164614584101 
1.8599999999998116, -0.7185084546130768 
1.8699999999998105, -0.7193615317323045 
1.8799999999998094, -0.7202471077007219 
1.8899999999998083, -0.721121800575416 
1.8999999999998072, -0.721928871184107 
1.909999999999806, -0.7226085187270517 
1.919999999999805, -0.7231133805862996 
1.9299999999998039, -0.7234202830255876 
1.9399999999998028, -0.7235315228042218 
1.9499999999998017, -0.7234670451704149 
1.9599999999998006, -0.7232543020606496 
1.9699999999997995, -0.7229216133055345 
1.9799999999997984, -0.7224972758009798 
1.9899999999997973, -0.722014572753275 
1.9999999999997962, -0.7215228335348337 
2.0099999999998173, -0.7211054149207221 
2.0199999999998384, -0.7209053088568302 
2.0299999999998595, -0.721156403851494 
2.0399999999998806, -0.7222114566632383 
2.0499999999999017, -0.7245454045162595 
2.059999999999923, -0.7286971135604821 
2.069999999999944, -0.7351069588540701 
2.079999999999965, -0.7438450348662125 
2.089999999999986, -0.7543435220738506 
2.100000000000007, -0.765389690194115 
2.1100000000000283, -0.7755559876526459 
2.1200000000000494, -0.7838225325218773 
2.1300000000000705, -0.7898861916205278 
2.1400000000000916, -0.794000681066976 
2.1500000000001127, -0.7966372116841913 
2.160000000000134, -0.798245021373655 
2.170000000000155, -0.7991623828924118 
2.180000000000176, -0.7996139490174217 
2.190000000000197, -0.7997351358626128 
2.2000000000002182, -0.7995957336188046 
2.2100000000002393, -0.7992143991976309 
2.2200000000002604, -0.7985627907487031 
2.2300000000002815, -0.7975593944669983 
2.2400000000003026, -0.7960530409209513 
2.2500000000003237, -0.7937981121494663 
2.260000000000345, -0.7904324484307215 
2.270000000000366, -0.7854914767623554 
2.280000000000387, -0.7785234490955345 
2.290000000000408, -0.7693598701342113 
2.3000000000004293, -0.7584479977711476 
2.3100000000004504, -0.7469301016018939 
2.3200000000004715, -0.7362385915590424 
2.3300000000004926, -0.7274718000407325 
2.3400000000005137, -0.7210521944825614 
2.3500000000005348, -0.7168114028252669 
2.360000000000556, -0.7142753347755579 
2.370000000000577, -0.7129150845012535 
2.380000000000598, -0.7122831513408522 
2.390000000000619, -0.712054708806107 
2.4000000000006403, -0.7120171866097491 
2.4100000000006614, -0.7120412941999117 
2.4200000000006825, -0.7120513463102983 
2.4300000000007036, -0.7120017849462897 
2.4400000000007247, -0.7118610656752149 
2.450000000000746, -0.7116021087845728 
2.460000000000767, -0.7111985877657785 
2.470000000000788, -0.7106268954166963 
2.480000000000809, -0.7098731785462877 
2.49000000000083, -0.7089424033265216 
2.5000000000008513, -0.7078634113608543 
2.5100000000008724, -0.7066845696865067 
2.5200000000008935, -0.7054609348131023 
2.5300000000009146, -0.7042404921636407 
2.5400000000009357, -0.7030569559749448 
2.550000000000957, -0.7019307599223622 
2.560000000000978, -0.7008748058037374 
2.570000000000999, -0.6999006767298808 
2.58000000000102, -0.6990228719470386 
2.5900000000010412, -0.6982605846646498 
2.6000000000010624, -0.6976374711359218 
2.6100000000010835, -0.6971799957480033 
2.6200000000011046, -0.696914901254287 
2.6300000000011257, -0.6968664369718873 
2.6400000000011468, -0.697054076566503 
2.650000000001168, -0.6974913368773284 
2.660000000001189, -0.6981858631945841 
2.67000000000121, -0.6991402686050117 
2.680000000001231, -0.7003525082242273 
2.6900000000012523, -0.7018140610544176 
2.7000000000012734, -0.7035042426345013 
2.7100000000012945, -0.7053803025386247 
2.7200000000013156, -0.7073664422204238 
2.7300000000013367, -0.7093499299196637 
2.740000000001358, -0.7111944101500606 
2.750000000001379, -0.7127721101481473 
2.7600000000014, -0.7139997196575119 
2.770000000001421, -0.7148552109014621 
2.780000000001442, -0.7153673060839745 
2.7900000000014633, -0.7155898854497924 
2.8000000000014844, -0.7155785138636801 
2.8100000000015055, -0.7153771460527272 
2.8200000000015266, -0.7150141251760378 
2.8300000000015477, -0.7145039417398669 
2.840000000001569, -0.7138527068478191 
2.85000000000159, -0.7130678777200808 
2.860000000001611, -0.7121750857663935 
2.870000000001632, -0.7112459765815153 
2.8800000000016532, -0.7104380843292868 
2.8900000000016743, -0.7100351208320221 
2.9000000000016954, -0.7104483469756666 
2.9100000000017165, -0.7121113518935527 
2.9200000000017377, -0.7152371279673528 
2.9300000000017588, -0.7195769667064743 
2.94000000000178, -0.7244651235344594 
2.950000000001801, -0.7291864334784894 
2.960000000001822, -0.7332931145795782 
2.970000000001843, -0.7366269866905981 
2.9800000000018643, -0.7391985106565907 
2.9900000000018854, -0.7410941755567861 
3.0000000000019065, -0.7424291474782487 
3.0100000000019276, -0.7433194393852924 
3.0200000000019487, -0.7438646683043981 
3.03000000000197, -0.7441397596599477 
3.040000000001991, -0.7441925985972152 
3.050000000002012, -0.7440438768345584 
3.060000000002033, -0.7436862977406367 
3.070000000002054, -0.7430817825194395 
3.0800000000020753, -0.7421572648237562 
3.0900000000020964, -0.7408029341183862 
3.1000000000021175, -0.7388818573332325 
3.1100000000021386, -0.7362635250015405 
3.1200000000021597, -0.7328857467271842 
3.130000000002181, -0.7288210637827546 
3.140000000002202, -0.7242964934189164 
3.150000000002223, -0.7196361605266524 
3.160000000002244, -0.715161133632086 
3.1700000000022652, -0.7111121988423312 
3.1800000000022863, -0.7076265255613483 
3.1900000000023074, -0.7047533805549804 
3.2000000000023285, -0.702481658100548 
3.2100000000023496, -0.7007632773862893 
3.2200000000023707, -0.6995290433658994 
3.230000000002392, -0.6986991948661816 
3.240000000002413, -0.6981912851375698 
3.250000000002434, -0.6979265787326868 
3.260000000002455, -0.6978348787410447 
3.2700000000024763, -0.6978573512134343 
3.2800000000024974, -0.6979473214129351 
3.2900000000025185, -0.6980696265081888 
3.3000000000025396, -0.6981994248395754 
3.3100000000025607, -0.6983211384170722 
3.3200000000025818, -0.698427473097536 
3.330000000002603, -0.6985176171479263 
3.340000000002624, -0.6985935785115355 
3.350000000002645, -0.6986548519662558 
3.360000000002666, -0.6986936389682109 
3.3700000000026873, -0.6986937573751094 
3.3800000000027084, -0.6986346690946521 
3.3900000000027295, -0.6984986095494501 
3.4000000000027506, -0.6982766698277638 
3.4100000000027717, -0.6979710130985605 
3.420000000002793, -0.6975937776546918 
3.430000000002814, -0.6971654027225697 
3.440000000002835, -0.6967149148102754 
3.450000000002856, -0.6962833590859872 
3.460000000002877, -0.6959303593352134 
3.4700000000028983, -0.6957429444764344 
3.4800000000029194, -0.6958449115765145 
3.4900000000029405, -0.6964038704909332 
3.5000000000029616, -0.6976318181247463 
3.5100000000029827, -0.6997737317434147 
3.520000000003004, -0.7030771367927865 
3.530000000003025, -0.707734430315482 
3.540000000003046, -0.7137931790331916 
3.550000000003067, -0.721048640170342 
3.5600000000030882, -0.7289759988828506 
3.5700000000031094, -0.736797523781904 
3.5800000000031305, -0.7437249974812643 
3.5900000000031516, -0.7492495216720771 
3.6000000000031727, -0.7532649580082613 
3.6100000000031938, -0.7559676740313773 
3.620000000003215, -0.7576696887997862 
3.630000000003236, -0.7586633210707554 
3.640000000003257, -0.7591679469276799 
3.650000000003278, -0.7593269884997219 
3.6600000000032993, -0.7592215898287108 
3.6700000000033204, -0.7588836290204437 
3.6800000000033415, -0.7583020394375628 
3.6900000000033626, -0.7574208534900669 
3.7000000000033837, -0.7561283168142545 
3.710000000003405, -0.7542369553804855 
3.720000000003426, -0.7514580385731134 
3.730000000003447, -0.7473863829943005 
3.740000000003468, -0.7415398096618097 
3.750000000003489, -0.733529487638161 
3.7600000000035103, -0.7233947265408605 
3.7700000000035314, -0.7119158466453863 
3.7800000000035525, -0.700508272128528 
3.7900000000035736, -0.690601218667977 
3.8000000000035947, -0.6830133373214717 
3.810000000003616, -0.677814813177 
3.820000000003637, -0.6745941716574284 
3.830000000003658, -0.6727884549257725 
3.840000000003679, -0.6718884023715507 
3.8500000000037002, -0.6715126389643887 
3.8600000000037213, -0.6714065651748814 
3.8700000000037424, -0.6714130085935622 
3.8800000000037635, -0.6714396436691509 
3.8900000000037847, -0.6714326242026492 
3.9000000000038058, -0.6713581570950045 
3.910000000003827, -0.6711910261461169 
3.920000000003848, -0.670908849260982 
3.930000000003869, -0.6704914653480343 
3.94000000000389, -0.6699250191996928 
3.9500000000039113, -0.6692090136264055 
3.9600000000039324, -0.6683620666859363 
3.9700000000039535, -0.6674210784567676 
3.9800000000039746, -0.6664320855702999 
3.9900000000039957, -0.6654374497954956 
4.000000000004016, -0.6644667898544288 
4.010000000003993, -0.6635355663894131 
4.02000000000397, -0.6626497787620594 
4.030000000003946, -0.6618126742697594 
4.040000000003923, -0.6610302650576788 
4.0500000000039, -0.6603146087223231 
4.0600000000038765, -0.6596852913876928 
4.070000000003853, -0.6591698549868665 
4.08000000000383, -0.6588035596457067 
4.090000000003807, -0.6586285254887405 
4.100000000003783, -0.6586922486480598 
4.11000000000376, -0.6590456596669749 
4.120000000003737, -0.6597410238046347 
4.130000000003713, -0.6608297822965592 
4.14000000000369, -0.6623597204393536 
4.150000000003667, -0.664369665424996 
4.1600000000036434, -0.6668787184902241 
4.17000000000362, -0.6698671047155736 
4.180000000003597, -0.6732496494028389 
4.1900000000035735, -0.6768531431183007 
4.20000000000355, -0.6804213948687484 
4.210000000003527, -0.6836686851068244 
4.220000000003504, -0.6863671832149526 
4.23000000000348, -0.6884134639184414 
4.240000000003457, -0.6898303199685845 
4.250000000003434, -0.6907166057105318 
4.26000000000341, -0.69118984537827 
4.270000000003387, -0.6913500946236714 
4.280000000003364, -0.6912662910722567 
4.2900000000033405, -0.6909748428643644 
4.300000000003317, -0.6904814046194945 
4.310000000003294, -0.6897608640071574 
4.320000000003271, -0.6887531894166252 
4.330000000003247, -0.6873537535478148 
4.340000000003224, -0.6853971044318148 
4.350000000003201, -0.6826349585095716 
4.360000000003177, -0.6787178307818567 
4.370000000003154, -0.6732162018694687 
4.380000000003131, -0.6657616314721013 
4.390000000003107, -0.6563725379474843 
4.400000000003084, -0.6457952501159133 
4.410000000003061, -0.6354065859375357 
4.4200000000030375, -0.6265518623314575 
4.430000000003014, -0.619918990056811 
4.440000000002991, -0.615468415285643 
4.450000000002968, -0.6127523742016978 
4.460000000002944, -0.6112381919841499 
4.470000000002921, -0.6104772681183176 
4.480000000002898, -0.6101487122771415 
4.490000000002874, -0.6100440044077152 
4.500000000002851, -0.6100356759648929 
4.510000000002828, -0.610048379162681 
4.520000000002804, -0.6100373833516337 
4.530000000002781, -0.6099743416012974 
4.540000000002758, -0.6098389350323191 
4.5500000000027345, -0.6096152614811187 
4.560000000002711, -0.6092922602719739 
4.570000000002688, -0.6088671825400027 
4.580000000002665, -0.6083497800259029 
4.590000000002641, -0.6077634865744155 
4.600000000002618, -0.6071406992319266 
4.610000000002595, -0.6065132096717913 
4.620000000002571, -0.6059028273303431 
4.630000000002548, -0.6053172655557585 
4.640000000002525, -0.6047526120025837 
4.6500000000025015, -0.6041998299642501 
4.660000000002478, -0.6036514637036153 
4.670000000002455, -0.6031060881057562 
4.6800000000024315, -0.6025703603387466 
4.690000000002408, -0.6020600373589343 
4.700000000002385, -0.6016014739513429 
4.710000000002362, -0.6012345011936555 
4.720000000002338, -0.6010169253536803 
4.730000000002315, -0.6010304437899731 
4.740000000002292, -0.6013874365254634 
4.750000000002268, -0.6022375842936348 
4.760000000002245, -0.6037721424176244 
4.770000000002222, -0.6062212279948841 
4.7800000000021985, -0.6098348127722268 
4.790000000002175, -0.6148318725810936 
4.800000000002152, -0.6213010963917303 
4.810000000002129, -0.6290598217962144 
4.820000000002105, -0.6375452721542414 
4.830000000002082, -0.6458809693864097 
4.840000000002059, -0.6531839083310494 
4.850000000002035, -0.6589232084361363 
4.860000000002012, -0.663039726305214 
4.870000000001989, -0.6657917326252824 
4.880000000001965, -0.6675315324494407 
4.890000000001942, -0.6685677054138417 
4.900000000001919, -0.6691228087859785 
4.9100000000018955, -0.6693393005540675 
4.920000000001872, -0.6692974085638591 
