t, s[1].omega / s[0].omega 
0, -0.6899976957532913 
0.009999999999999995, -0.689757410227233 
0.019999999999999934, -0.6894931854679893 
0.029999999999999874, -0.6891943822741458 
0.04000000000000012, -0.6888501111030819 
0.050000000000000405, -0.6884550349801902 
0.06000000000000069, -0.6880125062947638 
0.07000000000000098, -0.6875352122590969 
0.08000000000000126, -0.6870452404539881 
0.09000000000000155, -0.6865753648074849 
0.10000000000000184, -0.6861722382255541 
0.11000000000000212, -0.6859010613788343 
0.12000000000000241, -0.6858505086549415 
0.130000000000002, -0.6861362017980798 
0.1400000000000009, -0.6869008129104803 
0.1499999999999998, -0.688308870212049 
0.1599999999999987, -0.690534106550759 
0.1699999999999976, -0.6937360809186657 
0.1799999999999965, -0.6980210522758387 
0.1899999999999954, -0.7033830533284277 
0.1999999999999943, -0.7096329303994637 
0.2099999999999932, -0.7163525498028178 
0.2199999999999921, -0.7229401373567361 
0.229999999999991, -0.7287814967678574 
0.2399999999999899, -0.7334662490215954 
0.2499999999999888, -0.7368935318969665 
0.2599999999999877, -0.7392085352793287 
0.2699999999999866, -0.7406603326523763 
0.2799999999999855, -0.7414899634755129 
0.2899999999999844, -0.7418815377118141 
0.2999999999999833, -0.74195568480436 
0.3099999999999822, -0.7417786067930318 
0.3199999999999811, -0.7413714915581534 
0.32999999999998, -0.7407143436771072 
0.3399999999999789, -0.7397422526137424 
0.3499999999999778, -0.7383330571710081 
0.35999999999997667, -0.7362859478889281 
0.36999999999997557, -0.7332941647775566 
0.37999999999997447, -0.7289281379299478 
0.38999999999997337, -0.7226771181274996 
0.39999999999997227, -0.7141361678812519 
0.40999999999997117, -0.7033797065959286 
0.41999999999997006, -0.691302812703835 
0.42999999999996896, -0.679466824119696 
0.43999999999996786, -0.6693725938111699 
0.44999999999996676, -0.6617959957107628 
0.45999999999996566, -0.6567084866061919 
0.46999999999996456, -0.6536149618409892 
0.47999999999996346, -0.6519100127817828 
0.48999999999996235, -0.6510746555184956 
0.49999999999996125, -0.6507337906811836 
0.5099999999999602, -0.6506431383501698 
0.519999999999959, -0.6506543518756068 
0.529999999999958, -0.6506810282176205 
0.5399999999999568, -0.6506727716111497 
0.5499999999999557, -0.6505977289902487 
0.5599999999999546, -0.650432094328526 
0.5699999999999535, -0.6501552534048238 
0.5799999999999524, -0.6497499059814159 
0.5899999999999513, -0.6492064759570839 
0.5999999999999502, -0.6485296055350619 
0.6099999999999491, -0.6477422301183878 
0.619999999999948, -0.6468825978592856 
0.6299999999999469, -0.6459939316086694 
0.6399999999999458, -0.6451122582800048 
0.6499999999999447, -0.6442592666348734 
0.6599999999999436, -0.6434428460646497 
0.6699999999999425, -0.6426629523857834 
0.6799999999999414, -0.6419186227505758 
0.6899999999999403, -0.6412132723983885 
0.6999999999999392, -0.6405576755402723 
0.7099999999999381, -0.6399714533918754 
0.719999999999937, -0.6394840429789971 
0.7299999999999359, -0.6391355851536555 
0.7399999999999348, -0.6389776387509836 
0.7499999999999337, -0.639073411306202 
0.7599999999999326, -0.6394972591739632 
0.7699999999999315, -0.6403333191080607 
0.7799999999999304, -0.6416729471625794 
0.7899999999999293, -0.6436097941918979 
0.7999999999999282, -0.6462296589157438 
0.8099999999999271, -0.649590235700676 
0.819999999999926, -0.6536857859930173 
0.8299999999999249, -0.6583988219130298 
0.8399999999999238, -0.6634604877914855 
0.8499999999999227, -0.6684647098605023 
0.8599999999999216, -0.6729703194933463 
0.8699999999999205, -0.6766522740284031 
0.8799999999999194, -0.679396454828187 
0.8899999999999183, -0.6812771770278702 
0.8999999999999172, -0.6824632376260629 
0.9099999999999161, -0.6831316911280662 
0.919999999999915, -0.6834235253050281 
0.9299999999999139, -0.6834325213213498 
0.9399999999999128, -0.6832083989784296 
0.9499999999999117, -0.6827615464695775 
0.9599999999999106, -0.6820633653747439 
0.9699999999999095, -0.681039421003111 
0.9799999999999084, -0.6795533773231253 
0.9899999999999073, -0.6773807042331221 
0.9999999999999062, -0.6741771370680747 
1.0099999999999052, -0.6694671576438012 
1.019999999999904, -0.6627194648491899 
1.029999999999903, -0.6536021809470369 
1.039999999999902, -0.6423874167345061 
1.0499999999999008, -0.630161669263747 
1.0599999999998997, -0.6184564560183172 
1.0699999999998986, -0.6085224473591463 
1.0799999999998975, -0.6008982914498955 
1.0899999999998964, -0.5954931139064948 
1.0999999999998953, -0.5918950603188653 
1.1099999999998942, -0.5896257386688604 
1.119999999999893, -0.5882679315491169 
1.129999999999892, -0.587503058924436 
1.1399999999998909, -0.5871056402623315 
1.1499999999998898, -0.5869236184312235 
1.1599999999998887, -0.5868576283752909 
1.1699999999998876, -0.5868438329838158 
1.1799999999998865, -0.5868413182373294 
1.1899999999998854, -0.5868237881274683 
1.1999999999998843, -0.5867750060142571 
1.2099999999998832, -0.5866872854520944 
1.219999999999882, -0.5865618519871255 
1.229999999999881, -0.5864090697737205 
1.2399999999998799, -0.5862461572173431 
1.2499999999998788, -0.5860912599110019 
1.2599999999998777, -0.5859555211179844 
1.2699999999998766, -0.585837057914941 
1.2799999999998755, -0.5857204200473864 
1.2899999999998744, -0.5855821404806173 
1.2999999999998733, -0.5853993597488165 
1.3099999999998722, -0.5851569240312784 
1.319999999999871, -0.5848501454494377 
1.32999999999987, -0.5844838430217882 
1.3399999999998689, -0.5840703819041384 
1.3499999999998678, -0.5836293069515485 
1.3599999999998666, -0.5831901321331306 
1.3699999999998655, -0.5827992151665662 
1.3799999999998644, -0.5825316683143004 
1.3899999999998633, -0.5825094492627351 
1.3999999999998622, -0.5829262422578205 
1.4099999999998611, -0.5840768232654622 
1.41999999999986, -0.5863800794492843 
1.429999999999859, -0.5903660569388955 
1.4399999999998578, -0.5965689557811227 
1.4499999999998567, -0.6052607926881979 
1.4599999999998556, -0.6160658945228528 
1.4699999999998545, -0.6277653628824661 
1.4799999999998534, -0.6387032384991047 
1.4899999999998523, -0.647629915973845 
1.4999999999998512, -0.6541840601457912 
1.5099999999998501, -0.6586780832012626 
1.519999999999849, -0.6616442410087991 
1.529999999999848, -0.663557787662106 
1.5399999999998468, -0.6647624021220813 
1.5499999999998457, -0.6654851789379622 
1.5599999999998446, -0.6658688883142654 
1.5699999999998435, -0.6659978963224412 
1.5799999999998424, -0.6659144907129484 
1.5899999999998413, -0.6656273476059277 
1.5999999999998402, -0.6651143691236363 
1.6099999999998391, -0.6643224188491407 
1.619999999999838, -0.6631681760146382 
1.629999999999837, -0.6615476950412537 
1.6399999999998358, -0.6593645071927088 
1.6499999999998347, -0.6565791009230875 
1.6599999999998336, -0.6532599925701279 
1.6699999999998325, -0.6495954115817623 
1.6799999999998314, -0.6458427344172307 
1.6899999999998303, -0.642246219056881 
1.6999999999998292, -0.6389779845840156 
1.709999999999828, -0.6361259562786572 
1.719999999999827, -0.6337135535394991 
1.729999999999826, -0.6317266608284884 
1.7399999999998248, -0.6301341760023382 
1.7499999999998237, -0.6288995616162978 
1.7599999999998226, -0.6279858324159451 
1.7699999999998215, -0.627357127217104 
1.7799999999998204, -0.6269791308072923 
1.7899999999998193, -0.6268195349751967 
1.7999999999998182, -0.6268489173462016 
1.809999999999817, -0.6270419462975425 
1.819999999999816, -0.6273786287594719 
1.8299999999998149, -0.6278452667466115 
1.8399999999998138, -0.6284346939738744 
1.8499999999998127, -0.6291450979446294 
1.8599999999998116, -0.6299764112414408 
1.8699999999998105, -0.6309234009175543 
1.8799999999998094, -0.6319659875478904 
1.8899999999998083, -0.6330603023158259 
1.8999999999998072, -0.6341370456071641 
1.909999999999806, -0.6351128436475424 
1.919999999999805, -0.6359123855891771 
1.9299999999998039, -0.6364891853111354 
1.9399999999998028, -0.6368324201728852 
1.9499999999998017, -0.6369584354109826 
1.9599999999998006, -0.6368956754112259 
1.9699999999997995, -0.636672039166366 
1.9799999999997984, -0.6363081335240118 
1.9899999999997973, -0.6358157471461195 
1.9999999999997962, -0.6352000393723444 
2.0099999999998173, -0.6344649721860416 
2.0199999999998384, -0.6336228334007032 
2.0299999999998595, -0.6327091229283061 
2.0399999999998806, -0.6318016391061514 
2.0499999999999017, -0.6310334976383639 
2.059999999999923, -0.6305713139197718 
2.069999999999944, -0.6305170618733877 
2.079999999999965, -0.6307462190589457 
2.089999999999986, -0.6308617943205193 
2.100000000000007, -0.6304876019605292 
2.1100000000000283, -0.6296731347034954 
2.1200000000000494, -0.6288456350554104 
2.1300000000000705, -0.6283784312749155 
2.1400000000000916, -0.6283510603674565 
2.1500000000001127, -0.6286350224692809 
2.160000000000134, -0.6290567633899384 
2.170000000000155, -0.6294846354525415 
2.180000000000176, -0.6298434008367931 
2.190000000000197, -0.6300988632336414 
2.2000000000002182, -0.6302387451411415 
2.2100000000002393, -0.6302583411968639 
2.2200000000002604, -0.6301515101349555 
2.2300000000002815, -0.629905689702179 
2.2400000000003026, -0.6295002247951439 
2.2500000000003237, -0.6289085915909536 
2.260000000000345, -0.6281058791538996 
2.270000000000366, -0.6270815720833203 
2.280000000000387, -0.6258532415485062 
2.290000000000408, -0.6244720493115323 
2.3000000000004293, -0.6230130409153671 
2.3100000000004504, -0.6215539843365722 
2.3200000000004715, -0.6201555967468223 
2.3300000000004926, -0.6188533134234306 
2.3400000000005137, -0.6176608927800562 
2.3500000000005348, -0.61657978118369 
2.360000000000556, -0.6156083134257122 
2.370000000000577, -0.6147479639334451 
2.380000000000598, -0.6140065360628109 
2.390000000000619, -0.6133992925071243 
2.4000000000006403, -0.6129490088576037 
2.4100000000006614, -0.6126855376689718 
2.4200000000006825, -0.6126451791057419 
2.4300000000007036, -0.6128700583125612 
2.4400000000007247, -0.6134076716430839 
2.450000000000746, -0.6143105758235474 
2.460000000000767, -0.6156356594034406 
2.470000000000788, -0.6174414126301562 
2.480000000000809, -0.6197801357969545 
2.49000000000083, -0.6226807390148511 
2.5000000000008513, -0.6261188580478991 
2.5100000000008724, -0.6299787077888582 
2.5200000000008935, -0.6340280063218817 
2.5300000000009146, -0.637941803519261 
2.5400000000009357, -0.6413919663657925 
2.550000000000957, -0.6441585639089863 
2.560000000000978, -0.646184250599885 
2.570000000000999, -0.6475429174602919 
2.58000000000102, -0.6483669314750254 
2.5900000000010412, -0.6487871335831813 
2.6000000000010624, -0.64890369602089 
2.6100000000010835, -0.648778965771792 
2.6200000000011046, -0.6484387899152132 
2.6300000000011257, -0.6478735128456689 
2.6400000000011468, -0.6470340889453913 
2.650000000001168, -0.6458205134826462 
2.660000000001189, -0.644060404859586 
2.67000000000121, -0.6414783918888544 
2.680000000001231, -0.6376691921538349 
2.6900000000012523, -0.632119703164702 
2.7000000000012734, -0.6243691274996044 
2.7100000000012945, -0.614359904495186 
2.7200000000013156, -0.6027843170496007 
2.7300000000013367, -0.5909919678469745 
2.740000000001358, -0.5803714282649145 
2.750000000001379, -0.5717568171187921 
2.7600000000014, -0.5653139933677283 
2.770000000001421, -0.5607792885216554 
2.780000000001442, -0.5577339180090541 
2.7900000000014633, -0.5557696953064396 
2.8000000000014844, -0.5545536593401251 
2.8100000000015055, -0.5538375085192037 
2.8200000000015266, -0.553445454226999 
2.8300000000015477, -0.5532571365505339 
2.840000000001569, -0.5531920586072443 
2.85000000000159, -0.5531973861138001 
2.860000000001611, -0.5532392478062786 
2.870000000001632, -0.5532971686500212 
2.8800000000016532, -0.5533610996665799 
2.8900000000016743, -0.5534302160937385 
2.9000000000016954, -0.5535120967677069 
2.9100000000017165, -0.5536204193804364 
2.9200000000017377, -0.5537697098022938 
2.9300000000017588, -0.5539674719683069 
2.94000000000178, -0.5542065005784723 
2.950000000001801, -0.5544616493615939 
2.960000000001822, -0.5546941859582744 
2.970000000001843, -0.5548627551794199 
2.9800000000018643, -0.5549353042789316 
2.9900000000018854, -0.5548955569764239 
3.0000000000019065, -0.5547419839188421 
3.0100000000019276, -0.5544822507825847 
3.0200000000019487, -0.5541275082741602 
3.03000000000197, -0.553689191367569 
3.040000000001991, -0.5531790799052994 
3.050000000002012, -0.5526126800125433 
3.060000000002033, -0.552016234202983 
3.070000000002054, -0.551437905865725 
3.0800000000020753, -0.5509624358694761 
3.0900000000020964, -0.5507229674185479 
3.1000000000021175, -0.5508893017426946 
3.1100000000021386, -0.5515895628783595 
3.1200000000021597, -0.5527271469597005 
3.130000000002181, -0.5537837978614324 
3.140000000002202, -0.5539455398146145 
3.150000000002223, -0.5527438206033961 
3.160000000002244, -0.5505617218907906 
3.1700000000022652, -0.5482687829680558 
3.1800000000022863, -0.5465040441308847 
3.1900000000023074, -0.5454315836384425 
3.2000000000023285, -0.5449207932924092 
3.2100000000023496, -0.5447663579004582 
3.2200000000023707, -0.5447965943288114 
3.230000000002392, -0.5448969749687389 
3.240000000002413, -0.5449996819036151 
3.250000000002434, -0.5450668654390427 
3.260000000002455, -0.5450770114344836 
3.2700000000024763, -0.545015981022838 
3.2800000000024974, -0.5448721441988218 
3.2900000000025185, -0.5446350157643032 
3.3000000000025396, -0.5442971315743499 
3.3100000000025607, -0.5438585660218743 
3.3200000000025818, -0.5433320325872263 
3.330000000002603, -0.5427448005148494 
3.340000000002624, -0.5421341176439953 
3.350000000002645, -0.5415367829217733 
3.360000000002666, -0.540978075350441 
3.3700000000026873, -0.5404658956855235 
3.3800000000027084, -0.5399923615097372 
3.3900000000027295, -0.5395408076755173 
3.4000000000027506, -0.5390940594360532 
3.4100000000027717, -0.5386404889826679 
3.420000000002793, -0.5381767207717966 
3.430000000002814, -0.5377081262168514 
3.440000000002835, -0.5372491631061962 
3.450000000002856, -0.5368253199625226 
3.460000000002877, -0.5364778412891259 
3.4700000000028983, -0.5362721405072083 
3.4800000000029194, -0.5363108450458738 
3.4900000000029405, -0.5367523153234608 
3.5000000000029616, -0.5378342801141033 
3.5100000000029827, -0.5398978766749007 
3.520000000003004, -0.5433959294904134 
3.530000000003025, -0.5488464019859729 
3.540000000003046, -0.5566653434578069 
3.550000000003067, -0.5668374180382723 
3.5600000000030882, -0.5785631503466034 
3.5700000000031094, -0.5903007676434651 
3.5800000000031305, -0.6004619490484934 
3.5900000000031516, -0.6082153108658362 
3.6000000000031727, -0.6136225742952617 
3.6100000000031938, -0.6172034764964364 
3.620000000003215, -0.6195153780940726 
3.630000000003236, -0.620983329411929 
3.640000000003257, -0.6218903348434902 
3.650000000003278, -0.6224140298276505 
3.6600000000032993, -0.6226614270384121 
3.6700000000033204, -0.6226919492611398 
3.6800000000033415, -0.6225304881616465 
3.6900000000033626, -0.622173735839702 
3.7000000000033837, -0.6215927709684148 
3.710000000003405, -0.6207354140458069 
3.720000000003426, -0.619533593501448 
3.730000000003447, -0.6179222168183347 
3.740000000003468, -0.6158719731720834 
3.750000000003489, -0.6134247412779721 
3.7600000000035103, -0.6107055366944658 
3.7700000000035314, -0.6078927634575748 
3.7800000000035525, -0.6051622614810865 
3.7900000000035736, -0.6026422693673681 
3.8000000000035947, -0.6004005533098722 
3.810000000003616, -0.598456898999727 
3.820000000003637, -0.5968036393436503 
3.830000000003658, -0.5954225918290212 
3.840000000003679, -0.5942950970594981 
3.8500000000037002, -0.5934063572107949 
3.8600000000037213, -0.5927463672463882 
3.8700000000037424, -0.5923093297800182 
3.8800000000037635, -0.5920927573856873 
3.8900000000037847, -0.5920969184566528 
3.9000000000038058, -0.5923249045003806 
3.910000000003827, -0.5927833049538815 
3.920000000003848, -0.5934831794134674 
3.930000000003869, -0.5944406236831731 
3.94000000000389, -0.595675651157034 
3.9500000000039113, -0.5972074002819528 
3.9600000000039324, -0.5990433113236817 
3.9700000000039535, -0.6011612101605046 
3.9800000000039746, -0.6034881976455493 
3.9900000000039957, -0.6058890105119892 
4.000000000004016, -0.6081817256427086 
4.010000000003993, -0.6101861170212668 
4.02000000000397, -0.611780449431899 
4.030000000003946, -0.612928711714731 
4.040000000003923, -0.6136653416713996 
4.0500000000039, -0.61405822983651 
4.0600000000038765, -0.6141761295743284 
4.070000000003853, -0.6140705759086909 
4.08000000000383, -0.6137690356103163 
4.090000000003807, -0.6132725554196685 
4.100000000003783, -0.6125526348502535 
4.11000000000376, -0.6115436943781919 
4.120000000003737, -0.6101279196570667 
4.130000000003713, -0.6081092058678539 
4.14000000000369, -0.6051759431254988 
4.150000000003667, -0.6008685745074293 
4.1600000000036434, -0.5946136321504149 
4.17000000000362, -0.5859446045623603 
4.180000000003597, -0.5749532750900024 
4.1900000000035735, -0.5626413136340064 
4.20000000000355, -0.5506247284206202 
4.210000000003527, -0.5403057815251957 
4.220000000003504, -0.5323164870964049 
4.23000000000348, -0.5265863870190456 
4.240000000003457, -0.5226956765890804 
4.250000000003434, -0.5201603921375899 
4.26000000000341, -0.5185660365122066 
4.270000000003387, -0.517600657652211 
4.280000000003364, -0.5170448008612729 
4.2900000000033405, -0.5167499698936852 
4.300000000003317, -0.5166181488729771 
4.310000000003294, -0.5165858701860235 
4.320000000003271, -0.5166129760475995 
4.330000000003247, -0.5166753294987874 
4.340000000003224, -0.5167606378899411 
4.350000000003201, -0.5168665086575417 
4.360000000003177, -0.5169995484242514 
4.370000000003154, -0.5171738219159501 
4.380000000003131, -0.5174068649970509 
4.390000000003107, -0.5177124145742862 
4.400000000003084, -0.5180911772402925 
4.410000000003061, -0.5185233991456182 
4.4200000000030375, -0.518968113985263 
4.430000000003014, -0.5193718474850291 
4.440000000002991, -0.5196838279219904 
4.450000000002968, -0.5198694549316165 
4.460000000002944, -0.5199148792724516 
4.470000000002921, -0.5198224133945784 
4.480000000002898, -0.5196018561875959 
4.490000000002874, -0.5192626796432667 
4.500000000002851, -0.5188089807941763 
4.510000000002828, -0.5182366894381499 
4.520000000002804, -0.5175315756438469 
4.530000000002781, -0.5166661552982228 
4.540000000002758, -0.5155923133345518 
4.5500000000027345, -0.5142230133187817 
4.560000000002711, -0.5123906146964123 
4.570000000002688, -0.5097689671885586 
4.580000000002665, -0.5057856600596535 
4.590000000002641, -0.4996817445225791 
4.600000000002618, -0.49098346366832424 
4.610000000002595, -0.48024142311184637 
4.620000000002571, -0.46910104539515185 
4.630000000002548, -0.45930237051147715 
4.640000000002525, -0.4517343526972387 
4.6500000000025015, -0.44639457390897974 
4.660000000002478, -0.44284129703352965 
4.670000000002455, -0.44056523567749173 
4.6800000000024315, -0.4391480200871415 
4.690000000002408, -0.4382901582007336 
4.700000000002385, -0.4377911584548225 
4.710000000002362, -0.43752155007276816 
4.720000000002338, -0.4373997080537467 
4.730000000002315, -0.43737557082679857 
4.740000000002292, -0.4374201835870327 
4.750000000002268, -0.4375195639710383 
4.760000000002245, -0.4376715946083386 
4.770000000002222, -0.4378847373948635 
4.7800000000021985, -0.43817713144661086 
4.790000000002175, -0.43857425298121794 
4.800000000002152, -0.43910327130372295 
4.810000000002129, -0.43978308532021765 
4.820000000002105, -0.44061114449273003 
4.830000000002082, -0.4415516390689544 
4.840000000002059, -0.4425331371847 
4.850000000002035, -0.44346254540873975 
4.860000000002012, -0.4442521547670659 
4.870000000001989, -0.4448443942280985 
4.880000000001965, -0.44521965062186697 
4.890000000001942, -0.44538662046085226 
4.900000000001919, -0.44536559148862115 
4.9100000000018955, -0.44517391212955193 
