t, s[1].omega / s[0].omega 
0, -0.9399875766354278 
0.009999999999999995, -0.938672933553797 
0.019999999999999934, -0.9372447682348014 
0.029999999999999874, -0.9357481184457999 
0.04000000000000012, -0.9342295518627575 
0.050000000000000405, -0.9327397655768076 
0.06000000000000069, -0.9313353126230401 
0.07000000000000098, -0.9300765852085148 
0.08000000000000126, -0.9290209526394776 
0.09000000000000155, -0.9282121039897133 
0.10000000000000184, -0.9276688964140567 
0.11000000000000212, -0.9273785120297481 
0.12000000000000241, -0.9272979411791713 
0.130000000000002, -0.9273639317751989 
0.1400000000000009, -0.9275067795418701 
0.1499999999999998, -0.9276618322389971 
0.1599999999999987, -0.927775554380546 
0.1699999999999976, -0.9278071735063215 
0.1799999999999965, -0.9277286719240413 
0.1899999999999954, -0.9275246428165369 
0.1999999999999943, -0.9271913645086783 
0.2099999999999932, -0.9267339250227129 
0.2199999999999921, -0.9261620280907374 
0.229999999999991, -0.9254869945872024 
0.2399999999999899, -0.924721910039831 
0.2499999999999888, -0.9238844584239196 
0.2599999999999877, -0.92300040359986 
0.2699999999999866, -0.9221059361796318 
0.2799999999999855, -0.9212478359051083 
0.2899999999999844, -0.9204805232507877 
0.2999999999999833, -0.919859308239651 
0.3099999999999822, -0.9194305782223655 
0.3199999999999811, -0.9192217820718863 
0.32999999999998, -0.9192350215684517 
0.3399999999999789, -0.9194468360978766 
0.3499999999999778, -0.919814158864648 
0.35999999999997667, -0.9202839483385432 
0.36999999999997557, -0.9208028859568789 
0.37999999999997447, -0.9213242655903272 
0.38999999999997337, -0.9218110154320607 
0.39999999999997227, -0.9222352667142116 
0.40999999999997117, -0.9225755461459639 
0.41999999999997006, -0.9228132351853839 
0.42999999999996896, -0.9229306182013305 
0.43999999999996786, -0.9229123950360616 
0.44999999999996676, -0.9227501587383372 
0.45999999999996566, -0.9224469052938454 
0.46999999999996456, -0.9220189845860022 
0.47999999999996346, -0.9214957276251463 
0.48999999999996235, -0.920918930938653 
0.49999999999996125, -0.9203433632262914 
0.5099999999999602, -0.9198366566987936 
0.519999999999959, -0.9194750156635058 
0.529999999999958, -0.9193323588568315 
0.5399999999999568, -0.919465002564705 
0.5499999999999557, -0.9198984743604178 
0.5599999999999546, -0.9206229276659335 
0.5699999999999535, -0.9215985381174511 
0.5799999999999524, -0.9227668557206357 
0.5899999999999513, -0.9240623032069017 
0.5999999999999502, -0.9254196189736457 
0.6099999999999491, -0.9267759337612679 
0.619999999999948, -0.9280690569740233 
0.6299999999999469, -0.9292358935846208 
0.6399999999999458, -0.9302155319743207 
0.6499999999999447, -0.9309585945070546 
0.6599999999999436, -0.9314385282432319 
0.6699999999999425, -0.9316571069152733 
0.6799999999999414, -0.9316404180022901 
0.6899999999999403, -0.9314293618871184 
0.6999999999999392, -0.9310721400237494 
0.7099999999999381, -0.9306235284489451 
0.719999999999937, -0.9301509968264223 
0.7299999999999359, -0.9297436559250738 
0.7399999999999348, -0.9295166655115296 
0.7499999999999337, -0.9296025816264573 
0.7599999999999326, -0.9301262293680903 
0.7699999999999315, -0.931171457918891 
0.7799999999999304, -0.9327570080718249 
0.7899999999999293, -0.9348336775652925 
0.7999999999999282, -0.9372997756754226 
0.8099999999999271, -0.9400217150604429 
0.819999999999926, -0.942848972319414 
0.8299999999999249, -0.9456222339728828 
0.8399999999999238, -0.9481819309697599 
0.8499999999999227, -0.9503855429148494 
0.8599999999999216, -0.9521332234146325 
0.8699999999999205, -0.9533883030969351 
0.8799999999999194, -0.9541771981572866 
0.8899999999999183, -0.9545680198002726 
0.8999999999999172, -0.954642683905463 
0.9099999999999161, -0.9544777891856331 
0.919999999999915, -0.954139949921794 
0.9299999999999139, -0.9536940208790945 
0.9399999999999128, -0.9532207098243743 
0.9499999999999117, -0.9528386409912013 
0.9599999999999106, -0.9527206398162896 
0.9699999999999095, -0.9530872234688983 
0.9799999999999084, -0.9541636278727559 
0.9899999999999073, -0.9561096450379054 
0.9999999999999062, -0.9589586147789475 
1.0099999999999052, -0.9626000541356298 
1.019999999999904, -0.9668070198248842 
1.029999999999903, -0.9712823539473346 
1.039999999999902, -0.9757026158252167 
1.0499999999999008, -0.9797591684587779 
1.0599999999998997, -0.9832041526865616 
1.0699999999998986, -0.9858949826577185 
1.0799999999998975, -0.9878133372379834 
1.0899999999998964, -0.9890423661530763 
1.0999999999998953, -0.9897159203766925 
1.1099999999998942, -0.9899703746930733 
1.119999999999893, -0.9899183398636853 
1.129999999999892, -0.9896449712557833 
1.1399999999998909, -0.9892199728415203 
1.1499999999998898, -0.9887202941818188 
1.1599999999998887, -0.9882605677680273 
1.1699999999998876, -0.988023233043631 
1.1799999999998865, -0.9882673520289085 
1.1899999999998854, -0.9892880938133983 
1.1999999999998843, -0.9913223200267292 
1.2099999999998832, -0.9944460201619363 
1.219999999999882, -0.9985301061398296 
1.229999999999881, -1.0032758851117687 
1.2399999999998799, -1.0082932535779046 
1.2499999999998788, -1.0131775293145193 
1.2599999999998777, -1.0175716520067868 
1.2699999999998766, -1.0212188627828716 
1.2799999999998755, -1.0239998888421815 
1.2899999999998744, -1.0259346913107479 
1.2999999999998733, -1.0271421239245275 
1.3099999999998722, -1.0277800070470333 
1.319999999999871, -1.0279969899872574 
1.32999999999987, -1.0279108065565878 
1.3399999999998689, -1.0276096405023534 
1.3499999999998678, -1.0271684889727315 
1.3599999999998666, -1.0266752950986233 
1.3699999999998655, -1.0262617965308487 
1.3799999999998644, -1.0261253755758306 
1.3899999999998633, -1.0265159585314563 
1.3999999999998622, -1.0276689934689198 
1.4099999999998611, -1.0297085573450975 
1.41999999999986, -1.032585912326965 
1.429999999999859, -1.0360960110362372 
1.4399999999998578, -1.0399477366155894 
1.4499999999998567, -1.043834803637023 
1.4599999999998556, -1.0474807397177666 
1.4699999999998545, -1.0506645966084758 
1.4799999999998534, -1.053241007129242 
1.4899999999998523, -1.0551543553451959 
1.4999999999998512, -1.056435141519104 
1.5099999999998501, -1.0571735968900364 
1.519999999999849, -1.0574828350357506 
1.529999999999848, -1.0574699873545992 
1.5399999999998468, -1.0572249621310426 
1.5499999999998457, -1.0568259535525633 
1.5599999999998446, -1.0563564258140437 
1.5699999999998435, -1.055926093045028 
1.5799999999998424, -1.0556827951511587 
1.5899999999998413, -1.0557971363238974 
1.5999999999998402, -1.0564130074231284 
1.6099999999998391, -1.0575888467313193 
1.619999999999838, -1.0592728489462708 
1.629999999999837, -1.061328235626309 
1.6399999999998358, -1.0635828698060086 
1.6499999999998347, -1.0658695889229535 
1.6599999999998336, -1.068044937156379 
1.6699999999998325, -1.0699929508635244 
1.6799999999998314, -1.0716254688146174 
1.6899999999998303, -1.0728857164488712 
1.6999999999998292, -1.0737537330231022 
1.709999999999828, -1.0742468442920505 
1.719999999999827, -1.074411051216433 
1.729999999999826, -1.0743072162584857 
1.7399999999998248, -1.074000415784944 
1.7499999999998237, -1.073558096039256 
1.7599999999998226, -1.0730564937835783 
1.7699999999998215, -1.0725887115941426 
1.7799999999998204, -1.0722634833795834 
1.7899999999998193, -1.072185911355775 
1.7999999999998182, -1.0724252897459066 
1.809999999999817, -1.072990700122863 
1.819999999999816, -1.0738316619754973 
1.8299999999998149, -1.0748601899722474 
1.8399999999998138, -1.0759774544278093 
1.8499999999998127, -1.0770927119844516 
1.8599999999998116, -1.0781318041478527 
1.8699999999998105, -1.0790378756130141 
1.8799999999998094, -1.0797684670027217 
1.8899999999998083, -1.0802928717690197 
1.8999999999998072, -1.08059207813636 
1.909999999999806, -1.0806609424892781 
1.919999999999805, -1.0805100356940756 
1.9299999999998039, -1.0801651238181447 
1.9399999999998028, -1.0796651428649684 
1.9499999999998017, -1.0790612739285381 
1.9599999999998006, -1.078417787538646 
1.9699999999997995, -1.0778111548217721 
1.9799999999997984, -1.0773219415867668 
1.9899999999997973, -1.0770182297516029 
1.9999999999997962, -1.0769375711823796 
2.0099999999998173, -1.0770775417228777 
2.0199999999998384, -1.0773988374501153 
2.0299999999998595, -1.0778374562925799 
2.0399999999998806, -1.0783201524805592 
2.0499999999999017, -1.0787779316175137 
2.059999999999923, -1.0791541813807937 
2.069999999999944, -1.0794071758088348 
2.079999999999965, -1.0795090490784092 
2.089999999999986, -1.0794434019258827 
2.100000000000007, -1.0792028569506957 
2.1100000000000283, -1.0787875576200192 
2.1200000000000494, -1.0782053340658349 
2.1300000000000705, -1.077473407670839 
2.1400000000000916, -1.0766207903875007 
2.1500000000001127, -1.0756904575560489 
2.160000000000134, -1.0747400440152282 
2.170000000000155, -1.0738388780882329 
2.180000000000176, -1.073059336847686 
2.190000000000197, -1.0724631170830672 
2.2000000000002182, -1.0720862283771602 
2.2100000000002393, -1.071927989329149 
2.2200000000002604, -1.0719492460750994 
2.2300000000002815, -1.072082352485229 
2.2400000000003026, -1.0722486653356118 
2.2500000000003237, -1.0723741912563385 
2.260000000000345, -1.0723972481458963 
2.270000000000366, -1.072269538448325 
2.280000000000387, -1.0719555964395813 
2.290000000000408, -1.0714335060116766 
2.3000000000004293, -1.070696068435504 
2.3100000000004504, -1.0697503129835382 
2.3200000000004715, -1.068615191167993 
2.3300000000004926, -1.06731964620033 
2.3400000000005137, -1.0659031020462688 
2.3500000000005348, -1.064418155772469 
2.360000000000556, -1.0629330576058216 
2.370000000000577, -1.0615305459240236 
2.380000000000598, -1.0602998121075942 
2.390000000000619, -1.0593199998380292 
2.4000000000006403, -1.0586377697934153 
2.4100000000006614, -1.0582484005990993 
2.4200000000006825, -1.058093648798217 
2.4300000000007036, -1.0580806337827366 
2.4400000000007247, -1.058109399762756 
2.450000000000746, -1.0580917812778632 
2.460000000000767, -1.0579553665311954 
2.470000000000788, -1.0576386851631936 
2.480000000000809, -1.0570869518994488 
2.49000000000083, -1.056254027236157 
2.5000000000008513, -1.0551103616493862 
2.5100000000008724, -1.0536515853112396 
2.5200000000008935, -1.0519016189070043 
2.5300000000009146, -1.0499091313458444 
2.5400000000009357, -1.0477419809282649 
2.550000000000957, -1.0454847064990962 
2.560000000000978, -1.043239403553023 
2.570000000000999, -1.0411251690809933 
2.58000000000102, -1.0392689048787964 
2.5900000000010412, -1.037782240065542 
2.6000000000010624, -1.0367280941801718 
2.6100000000010835, -1.036094063834976 
2.6200000000011046, -1.0357939484845065 
2.6300000000011257, -1.0357000702109116 
2.6400000000011468, -1.035683715616903 
2.650000000001168, -1.0356387725413996 
2.660000000001189, -1.0354828903066244 
2.67000000000121, -1.035146278195945 
2.680000000001231, -1.0345604819701717 
2.6900000000012523, -1.0336552741744192 
2.7000000000012734, -1.032367024208004 
2.7100000000012945, -1.0306560271921141 
2.7200000000013156, -1.0285236215687417 
2.7300000000013367, -1.026018640823088 
2.740000000001358, -1.023230951752077 
2.750000000001379, -1.0202798310961432 
2.7600000000014, -1.0173056327040917 
2.770000000001421, -1.0144649931201097 
2.780000000001442, -1.0119216467245977 
2.7900000000014633, -1.0098236666276954 
2.8000000000014844, -1.0082667548241164 
2.8100000000015055, -1.0072598569880067 
2.8200000000015266, -1.0067189348195085 
2.8300000000015477, -1.0064990361127535 
2.840000000001569, -1.0064440501330219 
2.85000000000159, -1.0064226349998922 
2.860000000001611, -1.0063369427013928 
2.870000000001632, -1.0061120632249005 
2.8800000000016532, -1.0056802697489724 
2.8900000000016743, -1.004970265452704 
2.9000000000016954, -1.0039071832296755 
2.9100000000017165, -1.0024254384223439 
2.9200000000017377, -1.000490402924938 
2.9300000000017588, -0.9981173450631232 
2.94000000000178, -0.9953756518262982 
2.950000000001801, -0.992377303428646 
2.960000000001822, -0.9892601331765057 
2.970000000001843, -0.9861758755119208 
2.9800000000018643, -0.983283016206187 
2.9900000000018854, -0.9807363340030083 
3.0000000000019065, -0.9786653482223382 
3.0100000000019276, -0.977143260561042 
3.0200000000019487, -0.9761615963306486 
3.03000000000197, -0.9756305886713468 
3.040000000001991, -0.9754102631817169 
3.050000000002012, -0.9753536204739481 
3.060000000002033, -0.9753369297065403 
3.070000000002054, -0.9752671946783094 
3.0800000000020753, -0.9750735398396355 
3.0900000000020964, -0.9746943306901535 
3.1000000000021175, -0.9740689118881264 
3.1100000000021386, -0.973138785102211 
3.1200000000021597, -0.9718589400860267 
3.130000000002181, -0.9702141968252809 
3.140000000002202, -0.9682302648109579 
3.150000000002223, -0.9659715566521255 
3.160000000002244, -0.9635280885068355 
3.1700000000022652, -0.9610014997987859 
3.1800000000022863, -0.9584974990971228 
3.1900000000023074, -0.9561237942961288 
3.2000000000023285, -0.9539872731839187 
3.2100000000023496, -0.9521845196681762 
3.2200000000023707, -0.9507843905075773 
3.230000000002392, -0.9498085210461114 
3.240000000002413, -0.9492212934486792 
3.250000000002434, -0.9489383465090684 
3.260000000002455, -0.9488508156014394 
3.2700000000024763, -0.9488515687761258 
3.2800000000024974, -0.9488507485865052 
3.2900000000025185, -0.948778060724041 
3.3000000000025396, -0.948577599174041 
3.3100000000025607, -0.9482027305498034 
3.3200000000025818, -0.9476159159610654 
3.330000000002603, -0.9467940375438617 
3.340000000002624, -0.9457352522762512 
3.350000000002645, -0.944461302608896 
3.360000000002666, -0.9430124446577901 
3.3700000000026873, -0.9414384428195308 
3.3800000000027084, -0.9397918202510274 
3.3900000000027295, -0.9381263935430868 
3.4000000000027506, -0.9364993275205917 
3.4100000000027717, -0.9349727273815456 
3.420000000002793, -0.9336113963349542 
3.430000000002814, -0.9324753647023849 
3.440000000002835, -0.9316083172723314 
3.450000000002856, -0.9310257397807341 
3.460000000002877, -0.9307083728590747 
3.4700000000028983, -0.9306053339018747 
3.4800000000029194, -0.9306462934966507 
3.4900000000029405, -0.9307567231222176 
3.5000000000029616, -0.9308694016674289 
3.5100000000029827, -0.9309294962252489 
3.520000000003004, -0.9308951984738059 
3.530000000003025, -0.9307373764162445 
3.540000000003046, -0.9304399259403857 
3.550000000003067, -0.9299998019361748 
3.5600000000030882, -0.9294248125673219 
3.5700000000031094, -0.9287291979180946 
3.5800000000031305, -0.9279295819370535 
3.5900000000031516, -0.9270439403368682 
3.6000000000031727, -0.9260937862964772 
3.6100000000031938, -0.9251076414751793 
3.620000000003215, -0.9241236020621804 
3.630000000003236, -0.9231894736961228 
3.640000000003257, -0.9223594256830078 
3.650000000003278, -0.9216867838706888 
3.6600000000032993, -0.9212141418583432 
3.6700000000033204, -0.9209638023642789 
3.6800000000033415, -0.9209321759070264 
3.6900000000033626, -0.9210904889595002 
3.7000000000033837, -0.9213915980431112 
3.710000000003405, -0.9217801536617589 
3.720000000003426, -0.922202293920491 
3.730000000003447, -0.9226121394533733 
3.740000000003468, -0.9229744770978817 
3.750000000003489, -0.9232643616763958 
3.7600000000035103, -0.9234645676570843 
3.7700000000035314, -0.9235620185618189 
3.7800000000035525, -0.923545087278457 
3.7900000000035736, -0.9234037764916415 
3.8000000000035947, -0.923133014494074 
3.810000000003616, -0.9227368999063834 
3.820000000003637, -0.922231398568224 
3.830000000003658, -0.9216450603273942 
3.840000000003679, -0.9210190777248577 
3.8500000000037002, -0.920407348213638 
3.8600000000037213, -0.9198749750838232 
3.8700000000037424, -0.9194923987909711 
3.8800000000037635, -0.9193240645734255 
3.8900000000037847, -0.9194146629128364 
3.9000000000038058, -0.919779004925419 
3.910000000003827, -0.920400233735481 
3.920000000003848, -0.9212363652946027 
3.930000000003869, -0.9222311871918395 
3.94000000000389, -0.923324665526453 
3.9500000000039113, -0.9244595018084005 
3.9600000000039324, -0.9255827895943225 
3.9700000000039535, -0.9266440104650826 
3.9800000000039746, -0.9275925683462412 
3.9900000000039957, -0.9283788655564166 
4.000000000004016, -0.9289609679221209 
4.010000000003993, -0.9293141198506593 
4.02000000000397, -0.9294367850730673 
4.030000000003946, -0.9293491717443404 
4.040000000003923, -0.9290865609355412 
4.0500000000039, -0.9286935009193533 
4.0600000000038765, -0.9282232875171473 
4.070000000003853, -0.9277428707655322 
4.08000000000383, -0.9273391945071582 
4.090000000003807, -0.927120029324484 
4.100000000003783, -0.9272025770959258 
4.11000000000376, -0.9276893319661804 
4.120000000003737, -0.9286408566259791 
4.130000000003713, -0.9300598978263063 
4.14000000000369, -0.9318940498643741 
4.150000000003667, -0.934051577274207 
4.1600000000036434, -0.9364188997090211 
4.17000000000362, -0.9388717359931329 
4.180000000003597, -0.9412797163489971 
4.1900000000035735, -0.9435107842452088 
4.20000000000355, -0.9454430883623678 
4.210000000003527, -0.9469856099520515 
4.220000000003504, -0.948097570216319 
4.23000000000348, -0.9487925488661668 
4.240000000003457, -0.9491237083971186 
4.250000000003434, -0.9491608156198307 
4.26000000000341, -0.9489728564614172 
4.270000000003387, -0.9486229439080762 
4.280000000003364, -0.9481752119039099 
4.2900000000033405, -0.9477104637229015 
4.300000000003317, -0.9473451410912761 
4.310000000003294, -0.9472432864061572 
4.320000000003271, -0.947606453043049 
4.330000000003247, -0.9486321428094836 
4.340000000003224, -0.9504527156867967 
4.350000000003201, -0.9530872016769198 
4.360000000003177, -0.9564320611266653 
4.370000000003154, -0.9602874372703255 
4.380000000003131, -0.9643955655401962 
4.390000000003107, -0.968474665311154 
4.400000000003084, -0.9722500419821796 
4.410000000003061, -0.9754916638290739 
4.4200000000030375, -0.9780553026960426 
4.430000000003014, -0.97990613435212 
4.440000000002991, -0.9811058793601234 
4.450000000002968, -0.9817705394033167 
4.460000000002944, -0.9820253645174042 
4.470000000002921, -0.9819775473867283 
4.480000000002898, -0.9817101701693206 
4.490000000002874, -0.9812920173300123 
4.500000000002851, -0.9807983527115601 
4.510000000002828, -0.9803394408490516 
4.520000000002804, -0.9800892155828104 
4.530000000002781, -0.9802949287009032 
4.540000000002758, -0.9812417579634204 
4.5500000000027345, -0.9831663679358211 
4.560000000002711, -0.9861589635975008 
4.570000000002688, -0.9901154255043713 
4.580000000002665, -0.9947634735536462 
4.590000000002641, -0.9997324128707881 
4.600000000002618, -1.0046254625493458 
4.610000000002595, -1.0090806952494837 
4.620000000002571, -1.0128253351064123 
4.630000000002548, -1.0157183028165433 
4.640000000002525, -1.0177598222721955 
4.6500000000025015, -1.0190569806565046 
4.660000000002478, -1.019764512160283 
4.670000000002455, -1.0200334424694781 
4.6800000000024315, -1.0199854253016558 
4.690000000002408, -1.0197112105401644 
4.700000000002385, -1.0192850565489053 
4.710000000002362, -1.0187895529701103 
4.720000000002338, -1.0183468055444682 
4.730000000002315, -1.0181450090881234 
4.740000000002292, -1.0184360916392923 
4.750000000002268, -1.0194797199147285 
4.760000000002245, -1.0214447265594113 
4.770000000002222, -1.024328528452473 
4.7800000000021985, -1.0279514275974857 
4.790000000002175, -1.0320187860625232 
4.800000000002152, -1.0361988131061226 
4.810000000002129, -1.040179167548369 
4.820000000002105, -1.043701987579533 
4.830000000002082, -1.0465904572109301 
4.840000000002059, -1.0487678983017363 
4.850000000002035, -1.0502566729446896 
4.860000000002012, -1.05115030175192 
4.870000000001989, -1.051571704205642 
4.880000000001965, -1.0516387957225581 
4.890000000001942, -1.0514492198165488 
4.900000000001919, -1.0510836298093822 
4.9100000000018955, -1.0506220288171884 
4.920000000001872, -1.0501667598544606 
4.930000000001849, -1.0498613600037219 
