t, s[1].omega / s[0].omega 
0, -1.4799970939757567 
0.009999999999999995, -1.4794588030059739 
0.019999999999999934, -1.4784273752975055 
0.029999999999999874, -1.476896045375539 
0.04000000000000012, -1.4748580229168133 
0.050000000000000405, -1.4723143747997847 
0.06000000000000069, -1.4692945397154695 
0.07000000000000098, -1.4659175929341228 
0.08000000000000126, -1.4625097138271559 
0.09000000000000155, -1.459652037748129 
0.10000000000000184, -1.4578948374367395 
0.11000000000000212, -1.4572714632117494 
0.12000000000000241, -1.4572826886166363 
0.130000000000002, -1.4573565430212103 
0.1400000000000009, -1.4571059139023221 
0.1499999999999998, -1.4562270593372297 
0.1599999999999987, -1.4542492583302669 
0.1699999999999976, -1.4501533803895694 
0.1799999999999965, -1.4416112624057285 
0.1899999999999954, -1.423332992321418 
0.1999999999999943, -1.3839957667849592 
0.2099999999999932, -1.3037093662917234 
0.2199999999999921, -1.1635492322293015 
0.229999999999991, -0.9770603014132124 
0.2399999999999899, -0.7967597687727658 
0.2499999999999888, -0.663917427957968 
0.2599999999999877, -0.5824806592580095 
0.2699999999999866, -0.537518436477222 
0.2799999999999855, -0.5139529996645453 
0.2899999999999844, -0.5019297236308893 
0.2999999999999833, -0.49593277123984203 
0.3099999999999822, -0.49304339042719175 
0.3199999999999811, -0.4917403197321015 
0.32999999999998, -0.4912298552468673 
0.3399999999999789, -0.4910948910025628 
0.3499999999999778, -0.4911136248286615 
0.35999999999997667, -0.4911656829276286 
0.36999999999997557, -0.4911836786923951 
0.37999999999997447, -0.4911294184621844 
0.38999999999997337, -0.4909845656955442 
0.39999999999997227, -0.4907501523808897 
0.40999999999997117, -0.49045004932231406 
0.41999999999997006, -0.49013245763336327 
0.42999999999996896, -0.48986397005588866 
0.43999999999996786, -0.4897150676524915 
0.44999999999996676, -0.48974147907855836 
0.45999999999996566, -0.48996755899574596 
0.46999999999996456, -0.49037580856664204 
0.47999999999996346, -0.49090565928178187 
0.48999999999996235, -0.4914650393910553 
0.49999999999996125, -0.4919542439185697 
0.5099999999999602, -0.4922924456454417 
0.519999999999959, -0.4924331155564157 
0.529999999999958, -0.4923627508262768 
0.5399999999999568, -0.492088992009335 
0.5499999999999557, -0.4916280216273704 
0.5599999999999546, -0.49099754861574785 
0.5699999999999535, -0.49021768740229393 
0.5799999999999524, -0.4893215315322658 
0.5899999999999513, -0.48838034642211603 
0.5999999999999502, -0.48755428975469467 
0.6099999999999491, -0.48718558719372984 
0.619999999999948, -0.48793849394770866 
0.6299999999999469, -0.49086631502995015 
0.6399999999999458, -0.4966978231106166 
0.6499999999999447, -0.5017847591389941 
0.6599999999999436, -0.48615303770987583 
0.6699999999999425, -0.40247712152773024 
0.6799999999999414, -0.2243847703639532 
0.6899999999999403, -0.037885123699860586 
0.6999999999999392, 0.07281609378232486 
0.7099999999999381, 0.12383360420372409 
0.719999999999937, 0.14694400430410992 
0.7299999999999359, 0.15807539473239274 
0.7399999999999348, 0.163796005207699 
0.7499999999999337, 0.16685761411137953 
0.7599999999999326, 0.16848839391049608 
0.7699999999999315, 0.16926765934372495 
0.7799999999999304, 0.16947011075637278 
0.7899999999999293, 0.1692053020950175 
0.7999999999999282, 0.16846897122304785 
0.8099999999999271, 0.16714713461886455 
0.819999999999926, 0.16498613787210664 
0.8299999999999249, 0.1615470576770883 
0.8399999999999238, 0.15627038280283315 
0.8499999999999227, 0.14933929613849448 
0.8599999999999216, 0.1459761593017305 
0.8699999999999205, 0.16686574368829943 
0.8799999999999194, 0.2367885896071033 
0.8899999999999183, 0.3223472582076543 
0.8999999999999172, 0.37588938623586365 
0.9099999999999161, 0.40092172090530376 
0.919999999999915, 0.41216607444614406 
0.9299999999999139, 0.41741115254883693 
0.9399999999999128, 0.4199225132335305 
0.9499999999999117, 0.4210810868813306 
0.9599999999999106, 0.4215183363061427 
0.9699999999999095, 0.4215583468318311 
0.9799999999999084, 0.4213945975668442 
0.9899999999999073, 0.4211633449812781 
0.9999999999999062, 0.42097469630853424 
1.0099999999999052, 0.4209259982327625 
1.019999999999904, 0.4211066033516583 
1.029999999999903, 0.42159412022334386 
1.039999999999902, 0.4224377930468329 
1.0499999999999008, 0.42362840662170226 
1.0599999999998997, 0.425069187589097 
1.0699999999998986, 0.4265771669401187 
1.0799999999998975, 0.42793102165532143 
1.0899999999998964, 0.4289367781718693 
1.0999999999998953, 0.42945912217565496 
1.1099999999998942, 0.42939522424573456 
1.119999999999893, 0.4286043954647517 
1.129999999999892, 0.4268058661528205 
1.1399999999998909, 0.423434892228917 
1.1499999999998898, 0.41746378460130334 
1.1599999999998887, 0.40739039723750586 
1.1699999999998876, 0.39215528560150004 
1.1799999999998865, 0.37361608122107737 
1.1899999999998854, 0.3572507349687859 
1.1999999999998843, 0.347077820153318 
1.2099999999998832, 0.3423852900202727 
1.219999999999882, 0.34066164410802985 
1.229999999999881, 0.34013324418406676 
1.2399999999998799, 0.339959495166031 
1.2499999999998788, 0.33979630447805786 
1.2599999999998777, 0.33949306705813476 
1.2699999999998766, 0.33894622656766105 
1.2799999999998755, 0.3380211586773236 
1.2899999999998744, 0.3364777503390455 
1.2999999999998733, 0.33383715638128864 
1.3099999999998722, 0.32906524925631025 
1.319999999999871, 0.31971978759944764 
1.32999999999987, 0.2994626837000897 
1.3399999999998689, 0.25096883435421846 
1.3499999999998678, 0.1351415194925109 
1.3599999999998666, -0.05783903152773582 
1.3699999999998655, -0.1781448576007715 
1.3799999999998644, -0.15006234736807725 
1.3899999999998633, -0.07892249440053245 
1.3999999999998622, -0.028683358723372566 
1.4099999999998611, -0.0011167527409102513 
1.41999999999986, 0.01304441828518571 
1.429999999999859, 0.020565621012430833 
1.4399999999998578, 0.024668352012545806 
1.4499999999998567, 0.026903626612508884 
1.4599999999998556, 0.02803683524768527 
1.4699999999998545, 0.028447420926060982 
1.4799999999998534, 0.028307803213184102 
1.4899999999998523, 0.027658215403310277 
1.4999999999998512, 0.026424892404540167 
1.5099999999998501, 0.024393005352380235 
1.519999999999849, 0.021117906842912492 
1.529999999999848, 0.01571594968018074 
1.5399999999998468, 0.006381758031162181 
1.5499999999998457, -0.010485512362404182 
1.5599999999998446, -0.04343660076051444 
1.5699999999998435, -0.1103483162572953 
1.5799999999998424, -0.23681743593253676 
1.5899999999998413, -0.42087054263379214 
1.5999999999998402, -0.597874541617121 
1.6099999999998391, -0.7170347114103177 
1.619999999999838, -0.7848052325911233 
1.629999999999837, -0.8219731941113222 
1.6399999999998358, -0.84249265364335 
1.6499999999998347, -0.8539508893340364 
1.6599999999998336, -0.8603987752315976 
1.6699999999998325, -0.864018009445584 
1.6799999999998314, -0.8659859388611906 
1.6899999999998303, -0.8669288038033066 
1.6999999999998292, -0.8671569187543303 
1.709999999999828, -0.8667771023919645 
1.719999999999827, -0.8657270798488412 
1.729999999999826, -0.863743936835519 
1.7399999999998248, -0.8602509888432269 
1.7499999999998237, -0.8541206598464186 
1.7599999999998226, -0.8432683908066019 
1.7699999999998215, -0.8241720701209372 
1.7799999999998204, -0.791982048147731 
1.7899999999998193, -0.7428452686718889 
1.7999999999998182, -0.6789751101071186 
1.809999999999817, -0.6109462630347553 
1.819999999999816, -0.5510869330722534 
1.8299999999998149, -0.5054206078981174 
1.8399999999998138, -0.4733911621682924 
1.8499999999998127, -0.4517794862593896 
1.8599999999998116, -0.4373736592887093 
1.8699999999998105, -0.4277730671557302 
1.8799999999998094, -0.4213589855917176 
1.8899999999998083, -0.41707783328889897 
1.8999999999998072, -0.41424836797094183 
1.909999999999806, -0.41242800630055865 
1.919999999999805, -0.4113274269491223 
1.9299999999998039, -0.41075763307806595 
1.9399999999998028, -0.4105976334577894 
1.9499999999998017, -0.41077522223148594 
1.9599999999998006, -0.41125642158740217 
1.9699999999997995, -0.41204107947116314 
1.9799999999997984, -0.41316315892244954 
1.9899999999997973, -0.414694584583308 
1.9999999999997962, -0.4167511553506022 
2.0099999999998173, -0.41949770850183316 
2.0199999999998384, -0.4231463213997888 
2.0299999999998595, -0.4279338210560056 
2.0399999999998806, -0.43405375072699803 
2.0499999999999017, -0.4415182813058074 
2.059999999999923, -0.44997859221611064 
2.069999999999944, -0.45865489194023273 
2.079999999999965, -0.46656459268864375 
2.089999999999986, -0.47296528039705193 
2.100000000000007, -0.477626151807069 
2.1100000000000283, -0.48073566331648154 
2.1200000000000494, -0.48264522997154374 
2.1300000000000705, -0.48368099529761294 
2.1400000000000916, -0.4840710296246538 
2.1500000000001127, -0.48393651140905886 
2.160000000000134, -0.48329749094212326 
2.170000000000155, -0.4820676573694852 
2.180000000000176, -0.4800263801131765 
2.190000000000197, -0.4767641391993163 
2.2000000000002182, -0.47161799771994556 
2.2100000000002393, -0.463678457730176 
2.2200000000002604, -0.4520627713065458 
2.2300000000002815, -0.4366203103846311 
2.2400000000003026, -0.4186602073337464 
2.2500000000003237, -0.400652765494176 
2.260000000000345, -0.3848345871540152 
2.270000000000366, -0.37220394931657175 
2.280000000000387, -0.3626619163427386 
2.290000000000408, -0.3556232385649156 
2.3000000000004293, -0.3504500605617615 
2.3100000000004504, -0.34662068905547133 
2.3200000000004715, -0.34375517204017597 
2.3300000000004926, -0.341593067547201 
2.3400000000005137, -0.33996456871150404 
2.3500000000005348, -0.3387673649197825 
2.360000000000556, -0.337951380377549 
2.370000000000577, -0.3375110685158512 
2.380000000000598, -0.33748505199794526 
2.390000000000619, -0.33796394567027244 
2.4000000000006403, -0.33910901625041023 
2.4100000000006614, -0.3411873805710929 
2.4200000000006825, -0.34463471241417404 
2.4300000000007036, -0.3501654956226745 
2.4400000000007247, -0.35896511267052744 
2.450000000000746, -0.37301305078354746 
2.460000000000767, -0.3955663524592645 
2.470000000000788, -0.43162378894377107 
2.480000000000809, -0.48738630796920684 
2.49000000000083, -0.5662600282176966 
2.5000000000008513, -0.6607411239036114 
2.5100000000008724, -0.7507484610820413 
2.5200000000008935, -0.8185607639014413 
2.5300000000009146, -0.8612050561613984 
2.5400000000009357, -0.885317865204682 
2.550000000000957, -0.898327572540006 
2.560000000000978, -0.9052439409797021 
2.570000000000999, -0.9088798300916076 
2.58000000000102, -0.9107032192796938 
2.5900000000010412, -0.9114517183925205 
2.6000000000010624, -0.9114687724706433 
2.6100000000010835, -0.9108628569457022 
2.6200000000011046, -0.9095627164572906 
2.6300000000011257, -0.9073006059638055 
2.6400000000011468, -0.903525411871317 
2.650000000001168, -0.8972268964164835 
2.660000000001189, -0.8866434244758605 
2.67000000000121, -0.8688295491341294 
2.680000000001231, -0.8389882503897315 
2.6900000000012523, -0.7889421979153957 
2.7000000000012734, -0.7034745603475752 
2.7100000000012945, -0.5605740882307322 
2.7200000000013156, -0.36448904086099904 
2.7300000000013367, -0.18406792071657027 
2.740000000001358, -0.07273607767853156 
2.750000000001379, -0.01674287548724203 
2.7600000000014, 0.010436195458390498 
2.770000000001421, 0.024051033561788938 
2.780000000001442, 0.03131024750234972 
2.7900000000014633, 0.03533278715151094 
2.8000000000014844, 0.03757560942344567 
2.8100000000015055, 0.038749740230076185 
2.8200000000015266, 0.03920492241482472 
2.8300000000015477, 0.039093415821839464 
2.840000000001569, 0.038433761167903376 
2.85000000000159, 0.03711725361966788 
2.860000000001611, 0.03486117687041076 
2.870000000001632, 0.031078211391135546 
2.8800000000016532, 0.02457109307677421 
2.8900000000016743, 0.012828620162607602 
2.9000000000016954, -0.009383508197378479 
2.9100000000017165, -0.05301130724385755 
2.9200000000017377, -0.13482411727456375 
2.9300000000017588, -0.24956864371826817 
2.94000000000178, -0.3149782817998557 
2.950000000001801, -0.2404365494505283 
2.960000000001822, -0.08766428200958296 
2.970000000001843, 0.02610173631879157 
2.9800000000018643, 0.08372079067451454 
2.9900000000018854, 0.11068280166509518 
3.0000000000019065, 0.12376325483833818 
3.0100000000019276, 0.130482582400161 
3.0200000000019487, 0.13407446665268244 
3.03000000000197, 0.135988442038939 
3.040000000001991, 0.13690402630788012 
3.050000000002012, 0.13713746897630177 
3.060000000002033, 0.13680546723269033 
3.070000000002054, 0.13587998662185172 
3.0800000000020753, 0.13417587001124176 
3.0900000000020964, 0.1312644502218678 
3.1000000000021175, 0.12625679946309662 
3.1100000000021386, 0.11732221971636615 
3.1200000000021597, 0.10076600068564626 
3.130000000002181, 0.07040018216070977 
3.140000000002202, 0.02519398629335039 
3.150000000002223, 0.010262485279049077 
3.160000000002244, 0.12575300269704348 
3.1700000000022652, 0.3001487005766656 
3.1800000000022863, 0.3945539634931377 
3.1900000000023074, 0.43103805809932527 
3.2000000000023285, 0.4454714179529874 
3.2100000000023496, 0.45175581238077245 
3.2200000000023707, 0.4546962080326064 
3.230000000002392, 0.45610285013087865 
3.240000000002413, 0.45674527340573573 
3.250000000002434, 0.4569974913915919 
3.260000000002455, 0.45707492025648744 
3.2700000000024763, 0.45713529336981545 
3.2800000000024974, 0.4573327905593512 
3.2900000000025185, 0.4578548441816837 
3.3000000000025396, 0.4589406292294402 
3.3100000000025607, 0.46085006302204834 
3.3200000000025818, 0.463736177066915 
3.330000000002603, 0.4674453717208601 
3.340000000002624, 0.471443637177844 
3.350000000002645, 0.4750539694362255 
3.360000000002666, 0.4778113656807845 
3.3700000000026873, 0.4795810773318156 
3.3800000000027084, 0.4804243424154423 
3.3900000000027295, 0.48041784797325127 
3.4000000000027506, 0.4795327689114603 
3.4100000000027717, 0.4775605913719357 
3.420000000002793, 0.4740684921320604 
3.430000000002814, 0.46846016626900144 
3.440000000002835, 0.4603716953833979 
3.450000000002856, 0.4505011371939393 
3.460000000002877, 0.44094281670982205 
3.4700000000028983, 0.4337804616741282 
3.4800000000029194, 0.4294940568057032 
3.4900000000029405, 0.42729695906547743 
3.5000000000029616, 0.4262394382161937 
3.5100000000029827, 0.4256842160608288 
3.520000000003004, 0.4252794082958883 
3.530000000003025, 0.4248248640767149 
3.540000000003046, 0.42416687500472455 
3.550000000003067, 0.42311715754691026 
3.5600000000030882, 0.42135335457285894 
3.5700000000031094, 0.41821919765466864 
3.5800000000031305, 0.41220992648245264 
3.5900000000031516, 0.3994607753267384 
3.6000000000031727, 0.3689928296789967 
3.6100000000031938, 0.290137317263229 
3.620000000003215, 0.12009539987631425 
3.630000000003236, -0.034303911247764 
3.640000000003257, -0.003434947848679056 
3.650000000003278, 0.09619174018199966 
3.6600000000032993, 0.16009738410297114 
3.6700000000033204, 0.19080835337617033 
3.6800000000033415, 0.20533222820191374 
3.6900000000033626, 0.2125492407538033 
3.7000000000033837, 0.2162909267858735 
3.710000000003405, 0.2182284044946176 
3.720000000003426, 0.21912110371611346 
3.730000000003447, 0.21931221755029928 
3.740000000003468, 0.21892308832469545 
3.750000000003489, 0.21791661523917097 
3.7600000000035103, 0.21608286301171262 
3.7700000000035314, 0.21294314930839714 
3.7800000000035525, 0.20752647540118058 
3.7900000000035736, 0.19797895385208877 
3.8000000000035947, 0.18149168410052008 
3.810000000003616, 0.15875825649310285 
3.820000000003637, 0.1573780152602672 
3.830000000003658, 0.24255426998519986 
3.840000000003679, 0.3731861393219927 
3.8500000000037002, 0.448917058505082 
3.8600000000037213, 0.4796717091465444 
3.8700000000037424, 0.49210061279968015 
3.8800000000037635, 0.4975188320615073 
3.8900000000037847, 0.5000036407041037 
3.9000000000038058, 0.5011210755020024 
3.910000000003827, 0.5015447674630689 
3.920000000003848, 0.5016073449617042 
3.930000000003869, 0.5015034998109323 
3.94000000000389, 0.5013708312483366 
3.9500000000039113, 0.501323535542089 
3.9600000000039324, 0.5014650167953046 
3.9700000000039535, 0.5018863987972931 
3.9800000000039746, 0.5026497371910364 
3.9900000000039957, 0.5037567149015595 
4.000000000004016, 0.5051182480887217 
4.010000000003993, 0.5065556247123838 
4.02000000000397, 0.5078495002822375 
4.030000000003946, 0.5088066705380271 
4.040000000003923, 0.5092906132313622 
4.0500000000039, 0.5091916280916147 
4.0600000000038765, 0.5083466152424436 
4.070000000003853, 0.5064088449374285 
4.08000000000383, 0.5026239020648477 
4.090000000003807, 0.49544319652816743 
4.100000000003783, 0.482151160311764 
4.11000000000376, 0.46005254250550165 
4.120000000003737, 0.43213684517666895 
4.130000000003713, 0.40978007036106184 
4.14000000000369, 0.3993913264166368 
4.150000000003667, 0.39689885543084363 
4.1600000000036434, 0.39721517983565774 
4.17000000000362, 0.3980184583417224 
4.180000000003597, 0.3986149669175584 
4.1900000000035735, 0.39885797671721684 
4.20000000000355, 0.3987184276073714 
4.210000000003527, 0.3981405727254168 
4.220000000003504, 0.3969682368451328 
4.23000000000348, 0.39484044655988554 
4.240000000003457, 0.390947200534367 
4.250000000003434, 0.3833782044926071 
4.26000000000341, 0.36727223658339353 
4.270000000003387, 0.32982115308767723 
4.280000000003364, 0.24495347829271408 
4.2900000000033405, 0.13194024438993746 
4.300000000003317, 0.18449414571146497 
4.310000000003294, 0.3736201119212652 
4.320000000003271, 0.47702621469861195 
4.330000000003247, 0.5140604545503507 
4.340000000003224, 0.5278916901684843 
4.350000000003201, 0.5336825243489098 
4.360000000003177, 0.5363029163955428 
4.370000000003154, 0.5375060573373734 
4.380000000003131, 0.5380181786357744 
4.390000000003107, 0.5381916944393113 
4.400000000003084, 0.5382404388401434 
4.410000000003061, 0.5383437523771131 
4.4200000000030375, 0.5387073207986328 
4.430000000003014, 0.5395990867910242 
4.440000000002991, 0.5413304043172782 
4.450000000002968, 0.544119200083232 
4.460000000002944, 0.5478451203923639 
4.470000000002921, 0.5519352934850648 
4.480000000002898, 0.5556353196944744 
4.490000000002874, 0.5584345570184034 
4.500000000002851, 0.5601992800410946 
4.510000000002828, 0.5610064667432969 
4.520000000002804, 0.5609344656411402 
4.530000000002781, 0.5599220313904785 
4.540000000002758, 0.5576599089780292 
4.5500000000027345, 0.5534733971306535 
4.560000000002711, 0.546297117327304 
4.570000000002688, 0.5352352096515741 
4.580000000002665, 0.5213003754036717 
4.590000000002641, 0.508435864961943 
4.600000000002618, 0.5001896402089544 
4.610000000002595, 0.4964517057056177 
4.620000000002571, 0.4952365192660787 
4.630000000002548, 0.49499421706570157 
4.640000000002525, 0.49496787216235744 
4.6500000000025015, 0.49484164674202236 
4.660000000002478, 0.49445784865630515 
4.670000000002455, 0.4936629962439925 
4.6800000000024315, 0.49219231791513907 
4.690000000002408, 0.489487589449273 
4.700000000002385, 0.48425039246546825 
4.710000000002362, 0.47315168840260713 
4.720000000002338, 0.4469177932056891 
4.730000000002315, 0.3816359476669605 
4.740000000002292, 0.2641308903135178 
4.750000000002268, 0.2669968077839506 
4.760000000002245, 0.45443158453847465 
4.770000000002222, 0.5654545709955718 
4.7800000000021985, 0.6032346104135445 
4.790000000002175, 0.6165873916731538 
4.800000000002152, 0.6219394434239991 
4.810000000002129, 0.6242629666942721 
4.820000000002105, 0.6252734185361961 
4.830000000002082, 0.6256646229593559 
4.840000000002059, 0.625772745298524 
4.850000000002035, 0.6258036972293514 
4.860000000002012, 0.6259226128686226 
4.870000000001989, 0.6262890076498744 
4.880000000001965, 0.6270546746077013 
4.890000000001942, 0.6283196321253676 
4.900000000001919, 0.6300562507910302 
4.9100000000018955, 0.6320612547277744 
4.920000000001872, 0.6340109759866798 
4.930000000001849, 0.6355997449831047 
