t, s[1].omega / s[0].omega 
0, -1.0399983404402413 
0.009999999999999995, -1.039737731793629 
0.019999999999999934, -1.0392896837899541 
0.029999999999999874, -1.0386995255945886 
0.04000000000000012, -1.038106209932946 
0.050000000000000405, -1.03769154032062 
0.06000000000000069, -1.0375601835197565 
0.07000000000000098, -1.0376582380360149 
0.08000000000000126, -1.0377932736925968 
0.09000000000000155, -1.0377807827971326 
0.10000000000000184, -1.0375405124690154 
0.11000000000000212, -1.0370860356862133 
0.12000000000000241, -1.0364536950591392 
0.130000000000002, -1.0356846346444173 
0.1400000000000009, -1.0348837182396033 
0.1499999999999998, -1.0342259906152393 
0.1599999999999987, -1.0338702422194415 
0.1699999999999976, -1.0338221217791448 
0.1799999999999965, -1.03388021669164 
0.1899999999999954, -1.0338062773895356 
0.1999999999999943, -1.0334600872815172 
0.2099999999999932, -1.032826516885358 
0.2199999999999921, -1.0319745976167858 
0.229999999999991, -1.030975289643096 
0.2399999999999899, -1.0299211443511829 
0.2499999999999888, -1.0289818638645198 
0.2599999999999877, -1.0283688867083538 
0.2699999999999866, -1.0281627944510028 
0.2799999999999855, -1.028165294159067 
0.2899999999999844, -1.028082047975699 
0.2999999999999833, -1.0277068677275765 
0.3099999999999822, -1.0269560019237647 
0.3199999999999811, -1.025892727413591 
0.32999999999998, -1.0246370090594419 
0.3399999999999789, -1.023298757755898 
0.3499999999999778, -1.0220433877417854 
0.35999999999997667, -1.0211234157845892 
0.36999999999997557, -1.020713101872615 
0.37999999999997447, -1.0206512712317437 
0.38999999999997337, -1.0205900997444863 
0.39999999999997227, -1.020261794377606 
0.40999999999997117, -1.0195027208481207 
0.41999999999997006, -1.0183114209311017 
0.42999999999996896, -1.016837409790884 
0.43999999999996786, -1.0152360881047013 
0.44999999999996676, -1.0136733173141987 
0.45999999999996566, -1.0124143353853439 
0.46999999999996456, -1.0117285826058777 
0.47999999999996346, -1.01155502598083 
0.48999999999996235, -1.0115183044634386 
0.49999999999996125, -1.0112883143223725 
0.5099999999999602, -1.0106420767011177 
0.519999999999959, -1.009481379630572 
0.529999999999958, -1.0079219735782892 
0.5399999999999568, -1.0061655635970501 
0.5499999999999557, -1.0043892325618775 
0.5599999999999546, -1.0028338879431868 
0.5699999999999535, -1.0018197293035673 
0.5799999999999524, -1.0014474779967129 
0.5899999999999513, -1.0013976629704948 
0.5999999999999502, -1.0012781789478886 
0.6099999999999491, -1.0008242352608085 
0.619999999999948, -0.9998644579506019 
0.6299999999999469, -0.9984221954843905 
0.6399999999999458, -0.9966992142435249 
0.6499999999999447, -0.9948902313234379 
0.6599999999999436, -0.9931914384551783 
0.6699999999999425, -0.9918927459597102 
0.6799999999999414, -0.9912367689725061 
0.6899999999999403, -0.9910880563666712 
0.6999999999999392, -0.9910472811812381 
0.7099999999999381, -0.9907990835691868 
0.719999999999937, -0.9901375644431848 
0.7299999999999359, -0.9889937072381578 
0.7399999999999348, -0.9875054265865281 
0.7499999999999337, -0.9858683197264309 
0.7599999999999326, -0.9842408427041847 
0.7699999999999315, -0.9828308895273052 
0.7799999999999304, -0.9819055208212685 
0.7899999999999293, -0.981554214958309 
0.7999999999999282, -0.9815131523846776 
0.8099999999999271, -0.9814305343494082 
0.819999999999926, -0.9810684514647143 
0.8299999999999249, -0.9803028820116328 
0.8399999999999238, -0.979181103646081 
0.8499999999999227, -0.9778633064793011 
0.8599999999999216, -0.9764822779400024 
0.8699999999999205, -0.9751714014758713 
0.8799999999999194, -0.9741314675992696 
0.8899999999999183, -0.9735548779800522 
0.8999999999999172, -0.9734084067278891 
0.9099999999999161, -0.9734128798369795 
0.919999999999915, -0.9732928875356199 
0.9299999999999139, -0.9728861284831642 
0.9399999999999128, -0.972164712938161 
0.9499999999999117, -0.9712265192973508 
0.9599999999999106, -0.9701776026371908 
0.9699999999999095, -0.969101343948177 
0.9799999999999084, -0.968128308250902 
0.9899999999999073, -0.9674361643017135 
0.9999999999999062, -0.9671357359183752 
1.0099999999999052, -0.967129197253203 
1.019999999999904, -0.9671707002081573 
1.029999999999903, -0.9670575097702505 
1.039999999999902, -0.9667042001039308 
1.0499999999999008, -0.9661428462691953 
1.0599999999998997, -0.9654447383747131 
1.0699999999998986, -0.9646564854168449 
1.0799999999998975, -0.9638532316443911 
1.0899999999998964, -0.963178510816976 
1.0999999999998953, -0.9627813483201445 
1.1099999999998942, -0.9627044632381994 
1.119999999999893, -0.9628219087494875 
1.129999999999892, -0.9629310108198963 
1.1399999999998909, -0.9628946423930882 
1.1499999999998898, -0.9626844076538825 
1.1599999999998887, -0.9623312222263933 
1.1699999999998876, -0.9618501995209592 
1.1799999999998865, -0.9612650707751023 
1.1899999999998854, -0.9606781165379426 
1.1999999999998843, -0.9602556201974343 
1.2099999999998832, -0.9601193244638321 
1.219999999999882, -0.9602557062629197 
1.229999999999881, -0.9605244398563839 
1.2399999999998799, -0.9607628403892802 
1.2499999999998788, -0.9608850858170985 
1.2599999999998777, -0.9608776070475468 
1.2699999999998766, -0.9607250747017082 
1.2799999999998755, -0.9604027808690276 
1.2899999999998744, -0.9599561921880188 
1.2999999999998733, -0.9595377969019067 
1.3099999999998722, -0.959345421317461 
1.319999999999871, -0.9594759516192928 
1.32999999999987, -0.9598622385815677 
1.3399999999998689, -0.9603501442787064 
1.3499999999998678, -0.9608073696367532 
1.3599999999998666, -0.9611702561765902 
1.3699999999998655, -0.9613901550336612 
1.3799999999998644, -0.9613938167325576 
1.3899999999998633, -0.9611633373071283 
1.3999999999998622, -0.9608027849716765 
1.4099999999998611, -0.96052971974523 
1.41999999999986, -0.9605851061606178 
1.429999999999859, -0.9610385455772452 
1.4399999999998578, -0.961760613537626 
1.4499999999998567, -0.9625757893881989 
1.4599999999998556, -0.9633621789022004 
1.4699999999998545, -0.9640304261052316 
1.4799999999998534, -0.9644557267271014 
1.4899999999998523, -0.9645427155807516 
1.4999999999998512, -0.9643419175922961 
1.5099999999998501, -0.9640348920867915 
1.519999999999849, -0.9639194792356676 
1.529999999999848, -0.9642926730722279 
1.5399999999998468, -0.9651789992934505 
1.5499999999998457, -0.9663657979743187 
1.5599999999998446, -0.9676413359867928 
1.5699999999998435, -0.9688550801410039 
1.5799999999998424, -0.969829237226031 
1.5899999999998413, -0.9703688333809748 
1.5999999999998402, -0.9704493646504874 
1.6099999999998391, -0.9702307539905679 
1.619999999999838, -0.9699734622082301 
1.629999999999837, -0.9700809828384962 
1.6399999999998358, -0.9709013587229405 
1.6499999999998347, -0.9723618886187866 
1.6599999999998336, -0.9741391273838488 
1.6699999999998325, -0.9759643566888053 
1.6799999999998314, -0.977597362702648 
1.6899999999998303, -0.9787405244261471 
1.6999999999998292, -0.9792391963994304 
1.709999999999828, -0.979232877218393 
1.719999999999827, -0.9789748156170874 
1.729999999999826, -0.9788130754448023 
1.7399999999998248, -0.9792827103149933 
1.7499999999998237, -0.9807027579245003 
1.7599999999998226, -0.9828115489905557 
1.7699999999998215, -0.9851721776046249 
1.7799999999998204, -0.9874426430727453 
1.7899999999998193, -0.9892540043233466 
1.7999999999998182, -0.9902905466994459 
1.809999999999817, -0.990599251464156 
1.819999999999816, -0.9904643824451865 
1.8299999999998149, -0.9901910961461683 
1.8399999999998138, -0.9902571719481845 
1.8499999999998127, -0.9912723295300581 
1.8599999999998116, -0.993315916576384 
1.8699999999998105, -0.9958986351304452 
1.8799999999998094, -0.9985439160504523 
1.8899999999998083, -1.000852592719977 
1.8999999999998072, -1.0024118140646983 
1.909999999999806, -1.0030922471978905 
1.919999999999805, -1.003148437123017 
1.9299999999998039, -1.0029000270897834 
1.9399999999998028, -1.0027218186768234 
1.9499999999998017, -1.003227188800921 
1.9599999999998006, -1.004820812642037 
1.9699999999997995, -1.0071802446678997 
1.9799999999997984, -1.0097604158615465 
1.9899999999997973, -1.0121603354076725 
1.9999999999997962, -1.0139939943308707 
2.0099999999998173, -1.0149870559243825 
2.0199999999998384, -1.0152478866194032 
2.0299999999998595, -1.015084145800389 
2.0399999999998806, -1.0148176764802819 
2.0499999999999017, -1.014943495613424 
2.059999999999923, -1.0159671720762757 
2.069999999999944, -1.0177958580727533 
2.079999999999965, -1.019941965167191 
2.089999999999986, -1.0220296599434426 
2.100000000000007, -1.0237697194703594 
2.1100000000000283, -1.0248785637390125 
2.1200000000000494, -1.0252917954689267 
2.1300000000000705, -1.0252180717718522 
2.1400000000000916, -1.0249397379364003 
2.1500000000001127, -1.0248437742807308 
2.160000000000134, -1.0253891391864662 
2.170000000000155, -1.0266309790869719 
2.180000000000176, -1.0282081177544113 
2.190000000000197, -1.029794355994355 
2.2000000000002182, -1.031184985662135 
2.2100000000002393, -1.0321798702242173 
2.2200000000002604, -1.0326360676454356 
2.2300000000002815, -1.0326214943077452 
2.2400000000003026, -1.0323498646447022 
2.2500000000003237, -1.0321275732931068 
2.260000000000345, -1.0323307907524624 
2.270000000000366, -1.0330787952407592 
2.280000000000387, -1.0341362651308776 
2.290000000000408, -1.035235295095808 
2.3000000000004293, -1.0362144373558646 
2.3100000000004504, -1.0369553110004537 
2.3200000000004715, -1.0373351728833646 
2.3300000000004926, -1.0373247541108763 
2.3400000000005137, -1.0370466940078624 
2.3500000000005348, -1.0367366427125386 
2.360000000000556, -1.036696836554503 
2.370000000000577, -1.0370696907368455 
2.380000000000598, -1.0377208597294163 
2.390000000000619, -1.0384354321607008 
2.4000000000006403, -1.0390613994432103 
2.4100000000006614, -1.03951889027299 
2.4200000000006825, -1.0397390683219003 
2.4300000000007036, -1.0396684844021489 
2.4400000000007247, -1.039352193983328 
2.450000000000746, -1.0389569675376813 
2.460000000000767, -1.0387258329967664 
2.470000000000788, -1.038811820842696 
2.480000000000809, -1.039159804633155 
2.49000000000083, -1.0395985762966422 
2.5000000000008513, -1.0399648715324783 
2.5100000000008724, -1.0401750188621781 
2.5200000000008935, -1.0401993582293998 
2.5300000000009146, -1.0400089241559471 
2.5400000000009357, -1.039610178671825 
2.550000000000957, -1.0391092270851183 
2.560000000000978, -1.0387006349949892 
2.570000000000999, -1.0385468539971092 
2.58000000000102, -1.0386599944521868 
2.5900000000010412, -1.038906211032653 
2.6000000000010624, -1.039099935168238 
2.6100000000010835, -1.039123495971384 
2.6200000000011046, -1.0389524666952343 
2.6300000000011257, -1.0385956200654143 
2.6400000000011468, -1.0380625840911726 
2.650000000001168, -1.0374186400037329 
2.660000000001189, -1.0368183004065952 
2.67000000000121, -1.0364347957494113 
2.680000000001231, -1.0363441792524015 
2.6900000000012523, -1.0364500165139932 
2.7000000000012734, -1.0365397032408086 
2.7100000000012945, -1.0364440485277666 
2.7200000000013156, -1.0361064259589894 
2.7300000000013367, -1.0355567096442022 
2.740000000001358, -1.0348373874183634 
2.750000000001379, -1.0340025032598477 
2.7600000000014, -1.0331766295646903 
2.770000000001421, -1.0325437273464888 
2.780000000001442, -1.0322457347344955 
2.7900000000014633, -1.032232871600828 
2.8000000000014844, -1.0322660255012472 
2.8100000000015055, -1.0321175882085492 
2.8200000000015266, -1.0316703863075565 
2.8300000000015477, -1.0309350429592314 
2.840000000001569, -1.0299930857138473 
2.85000000000159, -1.028921332770746 
2.860000000001611, -1.0278300536299647 
2.870000000001632, -1.0269102406509771 
2.8800000000016532, -1.026370521565102 
2.8900000000016743, -1.026228881775067 
2.9000000000016954, -1.0262299003985331 
2.9100000000017165, -1.0260858065317051 
2.9200000000017377, -1.02561074695763 
2.9300000000017588, -1.0247499278006083 
2.94000000000178, -1.0235937687271228 
2.950000000001801, -1.0222673771335586 
2.960000000001822, -1.020890099926931 
2.970000000001843, -1.0196523620819877 
2.9800000000018643, -1.0188181424517153 
2.9900000000018854, -1.0185027347290116 
3.0000000000019065, -1.0184676628681704 
3.0100000000019276, -1.018365115372514 
3.0200000000019487, -1.0179485722639325 
3.03000000000197, -1.0170786643949141 
3.040000000001991, -1.0157945965976773 
3.050000000002012, -1.0142617907101246 
3.060000000002033, -1.0126344598726873 
3.070000000002054, -1.0110955968236444 
3.0800000000020753, -1.0099305406666232 
3.0900000000020964, -1.0093672794386745 
3.1000000000021175, -1.00925439683822 
3.1100000000021386, -1.0092010579020454 
3.1200000000021597, -1.008903837065687 
3.130000000002181, -1.0081591312890277 
3.140000000002202, -1.0069112118250434 
3.150000000002223, -1.0053106591200414 
3.160000000002244, -1.0035539568041951 
3.1700000000022652, -1.0018182502680684 
3.1800000000022863, -1.0003616250550889 
3.1900000000023074, -0.9994872058556356 
3.2000000000023285, -0.9992125505953464 
3.2100000000023496, -0.9991769589706815 
3.2200000000023707, -0.9990157647499505 
3.230000000002392, -0.99848643396189 
3.240000000002413, -0.9974512591874793 
3.250000000002434, -0.9959816312888915 
3.260000000002455, -0.9942834787084356 
3.2700000000024763, -0.9925353796653432 
3.2800000000024974, -0.9909377876242033 
3.2900000000025185, -0.9897800991491996 
3.3000000000025396, -0.9892514094725519 
3.3100000000025607, -0.9891545238982346 
3.3200000000025818, -0.9891003173347181 
3.330000000002603, -0.9888031338798076 
3.340000000002624, -0.9880830787713057 
3.350000000002645, -0.9869169238320696 
3.360000000002666, -0.985463253177579 
3.3700000000026873, -0.9838973466821569 
3.3800000000027084, -0.982367551126328 
3.3900000000027295, -0.9810849907455064 
3.4000000000027506, -0.9802956185731582 
3.4100000000027717, -0.9800332983656865 
3.420000000002793, -0.9800124265123413 
3.430000000002814, -0.9799070658082902 
3.440000000002835, -0.9795056841143804 
3.450000000002856, -0.9787191821672536 
3.460000000002877, -0.9776252080098923 
3.4700000000028983, -0.9763726941552406 
3.4800000000029194, -0.9750757021530789 
3.4900000000029405, -0.9738682980945834 
3.5000000000029616, -0.9729492517501297 
3.5100000000029827, -0.9724811842363584 
3.520000000003004, -0.9723918488002965 
3.530000000003025, -0.9724027004367904 
3.540000000003046, -0.9722638243596491 
3.550000000003067, -0.9718407368161703 
3.5600000000030882, -0.9711349932331388 
3.5700000000031094, -0.9702461746595018 
3.5800000000031305, -0.9692609902539301 
3.5900000000031516, -0.9682590367332995 
3.6000000000031727, -0.9673777838613482 
3.6100000000031938, -0.9667875768705736 
3.620000000003215, -0.9665700514708734 
3.630000000003236, -0.9666034157475055 
3.640000000003257, -0.9666501708798825 
3.650000000003278, -0.9665314919601453 
3.6600000000032993, -0.9661873227778075 
3.6700000000033204, -0.9656600551195366 
3.6800000000033415, -0.9650067599634546 
3.6900000000033626, -0.9642653692030578 
3.7000000000033837, -0.963520660790725 
3.710000000003405, -0.9629242063793544 
3.720000000003426, -0.9626133759221129 
3.730000000003447, -0.9626046298325044 
3.740000000003468, -0.9627573040321981 
3.750000000003489, -0.9628795678635317 
3.7600000000035103, -0.9628559644093656 
3.7700000000035314, -0.9626724467302313 
3.7800000000035525, -0.9623524784451742 
3.7900000000035736, -0.9618988363755816 
3.8000000000035947, -0.9613422076905265 
3.810000000003616, -0.960802286343007 
3.820000000003637, -0.9604516949135009 
3.830000000003658, -0.9603960951800372 
3.840000000003679, -0.9605976011438084 
3.8500000000037002, -0.9609068518417299 
3.8600000000037213, -0.9611729314284124 
3.8700000000037424, -0.9613254251101022 
3.8800000000037635, -0.9613494962205218 
3.8900000000037847, -0.9612154009581537 
3.9000000000038058, -0.9608999028527702 
3.910000000003827, -0.9604684913915982 
3.920000000003848, -0.9600943813602404 
3.930000000003869, -0.959978798919123 
3.94000000000389, -0.9601962889360462 
3.9500000000039113, -0.9606554173238534 
3.9600000000039324, -0.9611972095383811 
3.9700000000039535, -0.9616998654688986 
3.9800000000039746, -0.9621031530692022 
3.9900000000039957, -0.9623434486186022 
4.000000000004016, -0.9623412574226066 
4.010000000003993, -0.962099354701986 
4.02000000000397, -0.961748345083642 
4.030000000003946, -0.9615283815772958 
4.040000000003923, -0.9616793179238268 
4.0500000000039, -0.9622377798098805 
4.0600000000038765, -0.9630486975208935 
4.070000000003853, -0.9639352162223801 
4.08000000000383, -0.9647800031362044 
4.090000000003807, -0.9654803273281323 
4.100000000003783, -0.965894835820305 
4.11000000000376, -0.965947726030706 
4.120000000003737, -0.9657235785996943 
4.130000000003713, -0.965430430579055 
4.14000000000369, -0.9653925774417287 
4.150000000003667, -0.9658952647512573 
4.1600000000036434, -0.9669117748300332 
4.17000000000362, -0.9682032319452899 
4.180000000003597, -0.9695591013235527 
4.1900000000035735, -0.9708203528274263 
4.20000000000355, -0.9717837071183979 
4.210000000003527, -0.9722648831860013 
4.220000000003504, -0.9722886799667589 
4.23000000000348, -0.9720443922567401 
4.240000000003457, -0.9718201859573424 
4.250000000003434, -0.9720505726934988 
4.26000000000341, -0.9730426265519959 
4.270000000003387, -0.9746474801232221 
4.280000000003364, -0.9765224676662022 
4.2900000000033405, -0.9784005502301232 
4.300000000003317, -0.9800183223953176 
4.310000000003294, -0.9810725703452009 
4.320000000003271, -0.9814703917514672 
4.330000000003247, -0.9813995336394855 
4.340000000003224, -0.9811272760002142 
4.350000000003201, -0.9810421633297393 
4.360000000003177, -0.9816967100841307 
4.370000000003154, -0.9833071859893503 
4.380000000003131, -0.9855264823090293 
4.390000000003107, -0.9879224627020198 
4.400000000003084, -0.9901536324456 
4.410000000003061, -0.9918375815943333 
4.4200000000030375, -0.9927150863647505 
4.430000000003014, -0.9929108842008583 
4.440000000002991, -0.9927216046988235 
4.450000000002968, -0.992468837196968 
4.460000000002944, -0.9926838366480213 
4.470000000002921, -0.9939198985602321 
4.480000000002898, -0.9960945220957418 
4.490000000002874, -0.9986836098480042 
4.500000000002851, -1.001246205647311 
4.510000000002828, -1.0033877949115277 
4.520000000002804, -1.0047317932421458 
4.530000000002781, -1.005241902943913 
4.540000000002758, -1.005204416799427 
4.5500000000027345, -1.004932413005831 
4.560000000002711, -1.0048434715634964 
4.570000000002688, -1.00555586005214 
4.580000000002665, -1.0073037321940361 
4.590000000002641, -1.009658922254138 
4.600000000002618, -1.0121237050449616 
4.610000000002595, -1.0143358447333395 
4.620000000002571, -1.015930888744065 
4.630000000002548, -1.0167098312331777 
4.640000000002525, -1.01683888352829 
4.6500000000025015, -1.0166189238047616 
4.660000000002478, -1.0163893384932547 
4.670000000002455, -1.0166742088756155 
4.6800000000024315, -1.017854681101815 
4.690000000002408, -1.019692403456783 
4.700000000002385, -1.021725781962865 
4.710000000002362, -1.02363827952828 
4.720000000002338, -1.0251620803811599 
4.730000000002315, -1.0260534618410033 
4.740000000002292, -1.0263106655257055 
4.750000000002268, -1.0261563113313754 
4.760000000002245, -1.025877423748717 
4.770000000002222, -1.025886932518423 
4.7800000000021985, -1.0265675441478825 
4.790000000002175, -1.0278366726754427 
4.800000000002152, -1.0293300995149965 
4.810000000002129, -1.0307769652599 
4.820000000002105, -1.0319989572004633 
4.830000000002082, -1.0328113140703183 
4.840000000002059, -1.0331126127769885 
4.850000000002035, -1.0330027526697418 
4.860000000002012, -1.0327049035992597 
4.870000000001989, -1.0325436061113762 
4.880000000001965, -1.032850544525878 
4.890000000001942, -1.033637006546402 
4.900000000001919, -1.034645478016582 
4.9100000000018955, -1.0356449498852902 
4.920000000001872, -1.036501381785751 
4.930000000001849, -1.0371059435918566 
