t, s[1].omega / s[0].omega 
0, -0.7799976598099639 
0.009999999999999995, -0.779737016362655 
0.019999999999999934, -0.7794212788582252 
0.029999999999999874, -0.779045437815332 
0.04000000000000012, -0.7786067010971786 
0.050000000000000405, -0.778109067996945 
0.06000000000000069, -0.7775657974105402 
0.07000000000000098, -0.7770002085490011 
0.08000000000000126, -0.776446224064764 
0.09000000000000155, -0.775949298471802 
0.10000000000000184, -0.7755669690755369 
0.11000000000000212, -0.7753674033844438 
0.12000000000000241, -0.7754246198934862 
0.130000000000002, -0.7758105128180482 
0.1400000000000009, -0.7765856043338276 
0.1499999999999998, -0.7777912240682358 
0.1599999999999987, -0.7794447153914493 
0.1699999999999976, -0.7815368428895808 
0.1799999999999965, -0.7840285158643634 
0.1899999999999954, -0.786844093762495 
0.1999999999999943, -0.7898622323424295 
0.2099999999999932, -0.7929122286443266 
0.2199999999999921, -0.7957893789367454 
0.229999999999991, -0.7982966658813662 
0.2399999999999899, -0.8002980014196386 
0.2499999999999888, -0.8017501300374068 
0.2599999999999877, -0.8026931714608272 
0.2699999999999866, -0.8032126726184119 
0.2799999999999855, -0.8034010366974333 
0.2899999999999844, -0.8033346935587318 
0.2999999999999833, -0.8030672806410981 
0.3099999999999822, -0.8026329795529585 
0.3199999999999811, -0.8020561295924699 
0.32999999999998, -0.8013676611372101 
0.3399999999999789, -0.8006329014973714 
0.3499999999999778, -0.7999972620020905 
0.35999999999997667, -0.7997524411765734 
0.36999999999997557, -0.8004085112823208 
0.37999999999997447, -0.802719638618618 
0.38999999999997337, -0.8075646305941138 
0.39999999999997227, -0.8155878811053107 
0.40999999999997117, -0.8266670697754954 
0.41999999999997006, -0.83958876393818 
0.42999999999996896, -0.8524052209495435 
0.43999999999996786, -0.8633698655416613 
0.44999999999996676, -0.8716595018517397 
0.45999999999996566, -0.8773637481829715 
0.46999999999996456, -0.8810319517031825 
0.47999999999996346, -0.8832704676122258 
0.48999999999996235, -0.8845604765276306 
0.49999999999996125, -0.8852286583685357 
0.5099999999999602, -0.8854754946889717 
0.519999999999959, -0.8854101174099108 
0.529999999999958, -0.8850746837083404 
0.5399999999999568, -0.8844555200405463 
0.5499999999999557, -0.8834819680675567 
0.5599999999999546, -0.8820143900855302 
0.5699999999999535, -0.8798246631507467 
0.5799999999999524, -0.8765800279714828 
0.5899999999999513, -0.8718592213094836 
0.5999999999999502, -0.8652567537491633 
0.6099999999999491, -0.8566353696064244 
0.619999999999948, -0.8464847827242009 
0.6299999999999469, -0.8360977378226812 
0.6399999999999458, -0.8271704897889121 
0.6499999999999447, -0.8209344306091445 
0.6599999999999436, -0.8175788225519902 
0.6699999999999425, -0.8164396214134084 
0.6799999999999414, -0.8165891970249888 
0.6899999999999403, -0.8172739961292981 
0.6999999999999392, -0.8180408613688177 
0.7099999999999381, -0.8186782533319568 
0.719999999999937, -0.8191152008115564 
0.7299999999999359, -0.819342974146115 
0.7399999999999348, -0.8193688069409314 
0.7499999999999337, -0.81919151777455 
0.7599999999999326, -0.8187877956287016 
0.7699999999999315, -0.818101989202067 
0.7799999999999304, -0.8170370764415751 
0.7899999999999293, -0.815450389534519 
0.7999999999999282, -0.8131652899336295 
0.8099999999999271, -0.8100147746699504 
0.819999999999926, -0.8059211247938679 
0.8299999999999249, -0.8009783687973343 
0.8399999999999238, -0.7954732236908364 
0.8499999999999227, -0.7898124140889422 
0.8599999999999216, -0.7844024649922575 
0.8699999999999205, -0.7795574485513573 
0.8799999999999194, -0.7754661609387165 
0.8899999999999183, -0.7722016619006477 
0.8999999999999172, -0.7697460861480881 
0.9099999999999161, -0.7680165519701817 
0.919999999999915, -0.7668895699450012 
0.9299999999999139, -0.7662242811613799 
0.9399999999999128, -0.7658829122690569 
0.9499999999999117, -0.7657453411828848 
0.9599999999999106, -0.765715844748662 
0.9699999999999095, -0.7657227968212212 
0.9799999999999084, -0.765714156399786 
0.9899999999999073, -0.7656520723756637 
0.9999999999999062, -0.7655091964406905 
1.0099999999999052, -0.7652679082401306 
1.019999999999904, -0.7649218023989306 
1.029999999999903, -0.7644769035158736 
1.039999999999902, -0.7639496289107217 
1.0499999999999008, -0.7633608164931378 
1.0599999999998997, -0.7627287307678136 
1.0699999999998986, -0.7620652406507717 
1.0799999999998975, -0.7613769719193051 
1.0899999999998964, -0.7606697883729362 
1.0999999999998953, -0.7599535971123886 
1.1099999999998942, -0.759245598522675 
1.119999999999893, -0.7585718186356998 
1.129999999999892, -0.7579674203487557 
1.1399999999998909, -0.7574758717891767 
1.1499999999998898, -0.7571465240528318 
1.1599999999998887, -0.7570302898696599 
1.1699999999998876, -0.757173956937352 
1.1799999999998865, -0.757614596721434 
1.1899999999998854, -0.7583757399836917 
1.1999999999998843, -0.7594661327553136 
1.2099999999998832, -0.7608803526485002 
1.219999999999882, -0.7625991751081342 
1.229999999999881, -0.7645871106954044 
1.2399999999998799, -0.7667856723168491 
1.2499999999998788, -0.7691043476534769 
1.2599999999998777, -0.7714165969553677 
1.2699999999998766, -0.7735715200826387 
1.2799999999998755, -0.7754255631134102 
1.2899999999998744, -0.7768815108102127 
1.2999999999998733, -0.7779103363966512 
1.3099999999998722, -0.7785429368468042 
1.319999999999871, -0.7788422939369335 
1.32999999999987, -0.7788759124483862 
1.3399999999998689, -0.7786997976308242 
1.3499999999998678, -0.7783543101372931 
1.3599999999998666, -0.7778683724783766 
1.3699999999998655, -0.7772702222298141 
1.3799999999998644, -0.7766063319290298 
1.3899999999998633, -0.7759729154670275 
1.3999999999998622, -0.775564481915109 
1.4099999999998611, -0.7757369453388956 
1.41999999999986, -0.7770623286100926 
1.429999999999859, -0.780315301687532 
1.4399999999998578, -0.7862973090340779 
1.4499999999998567, -0.7954372253004113 
1.4599999999998556, -0.8073004608897485 
1.4699999999998545, -0.8204272388996531 
1.4799999999998534, -0.8328708965600307 
1.4899999999998523, -0.8431313166308041 
1.4999999999998512, -0.8506805001310835 
1.5099999999998501, -0.8557838232024029 
1.519999999999849, -0.8590313013587331 
1.529999999999848, -0.8609989869130137 
1.5399999999998468, -0.8621214733366562 
1.5499999999998457, -0.8626861479697316 
1.5599999999998446, -0.8628658017267252 
1.5699999999998435, -0.8627507935440184 
1.5799999999998424, -0.8623694164945546 
1.5899999999998413, -0.8616951459388765 
1.5999999999998402, -0.8606413353596368 
1.6099999999998391, -0.8590437173306519 
1.619999999999838, -0.8566327323814651 
1.629999999999837, -0.853006371805118 
1.6399999999998358, -0.8476375284428792 
1.6499999999998347, -0.8399888490929335 
1.6599999999998336, -0.8298201487487514 
1.6699999999998325, -0.8176354548667722 
1.6799999999998314, -0.8048897269501113 
1.6899999999998303, -0.7935023709627551 
1.6999999999998292, -0.7848983342584092 
1.709999999999828, -0.779428741374744 
1.719999999999827, -0.7765598291448422 
1.729999999999826, -0.7754229539352722 
1.7399999999998248, -0.7752362369806487 
1.7499999999998237, -0.775461950246312 
1.7599999999998226, -0.7757915959625923 
1.7699999999998215, -0.7760727655351728 
1.7799999999998204, -0.7762395891055319 
1.7899999999998193, -0.7762646068488708 
1.7999999999998182, -0.7761298326899925 
1.809999999999817, -0.7758100864401258 
1.819999999999816, -0.7752633345471673 
1.8299999999998149, -0.7744264380270184 
1.8399999999998138, -0.7732188592337149 
1.8499999999998127, -0.7715596708443241 
1.8599999999998116, -0.7694000708453359 
1.8699999999998105, -0.766760686505475 
1.8799999999998094, -0.7637488421570361 
1.8899999999998083, -0.76053726512543 
1.8999999999998072, -0.7573153823360856 
1.909999999999806, -0.7542448750722908 
1.919999999999805, -0.7514401140983318 
1.9299999999998039, -0.7489707484437352 
1.9399999999998028, -0.7468730476680803 
1.9499999999998017, -0.7451598424843534 
1.9599999999998006, -0.7438258427000234 
1.9699999999997995, -0.7428496436766179 
1.9799999999997984, -0.7421951398782809 
1.9899999999997973, -0.7418144142895212 
1.9999999999997962, -0.7416525999964275 
2.0099999999998173, -0.741653735074984 
2.0199999999998384, -0.7417660305255189 
2.0299999999998595, -0.7419454134843818 
2.0399999999998806, -0.7421571787980986 
2.0499999999999017, -0.7423763026626832 
2.059999999999923, -0.7425869445772914 
2.069999999999944, -0.7427809907875361 
2.079999999999965, -0.7429549354690924 
2.089999999999986, -0.7431049518733159 
2.100000000000007, -0.743221792148226 
2.1100000000000283, -0.7432886265234049 
2.1200000000000494, -0.7432840260500234 
2.1300000000000705, -0.7431889285351592 
2.1400000000000916, -0.7429934604839062 
2.1500000000001127, -0.7427000167413611 
2.160000000000134, -0.742322491801026 
2.170000000000155, -0.7418844355054872 
2.180000000000176, -0.7414190581390457 
2.190000000000197, -0.740972398557596 
2.2000000000002182, -0.7406092260333025 
2.2100000000002393, -0.7404199003247883 
2.2200000000002604, -0.7405253655463022 
2.2300000000002815, -0.7410769059828609 
2.2400000000003026, -0.7422477819521228 
2.2500000000003237, -0.7442154136548454 
2.260000000000345, -0.7471342421416844 
2.270000000000366, -0.7510993829413354 
2.280000000000387, -0.7561007354983025 
2.290000000000408, -0.7619718828721522 
2.3000000000004293, -0.7683548346241392 
2.3100000000004504, -0.7747244346145155 
2.3200000000004715, -0.7805093167429181 
2.3300000000004926, -0.7852742449664729 
2.3400000000005137, -0.7888473613491581 
2.3500000000005348, -0.7913071478961143 
2.360000000000556, -0.792868415264131 
2.370000000000577, -0.7937665755172774 
2.380000000000598, -0.7941939237554536 
2.390000000000619, -0.794282581879717 
2.4000000000006403, -0.7941097980397738 
2.4100000000006614, -0.7937081243331987 
2.4200000000006825, -0.7930731363441458 
2.4300000000007036, -0.7921675232139702 
2.4400000000007247, -0.7909236956898562 
2.450000000000746, -0.7892498610800375 
2.460000000000767, -0.7870476052917748 
2.470000000000788, -0.7842498282061268 
2.480000000000809, -0.7808790508478782 
2.49000000000083, -0.7771028089483406 
2.5000000000008513, -0.7732464073639721 
2.5100000000008724, -0.7697530852315747 
2.5200000000008935, -0.7671078347415831 
2.5300000000009146, -0.7656839053261362 
2.5400000000009357, -0.7655324241225476 
2.550000000000957, -0.7663351951276816 
2.560000000000978, -0.7676068860486589 
2.570000000000999, -0.7689348613345037 
2.58000000000102, -0.7700792157357814 
2.5900000000010412, -0.7709491715335794 
2.6000000000010624, -0.771539851696704 
2.6100000000010835, -0.7718796452002215 
2.6200000000011046, -0.7719988856573593 
2.6300000000011257, -0.7719139397476134 
2.6400000000011468, -0.7716187508105694 
2.650000000001168, -0.7710784916184195 
2.660000000001189, -0.7702233802677277 
2.67000000000121, -0.7689448785831196 
2.680000000001231, -0.7671022018181363 
2.6900000000012523, -0.7645520105166282 
2.7000000000012734, -0.7612086758450631 
2.7100000000012945, -0.7571159735555424 
2.7200000000013156, -0.7524794279682707 
2.7300000000013367, -0.7476205467209102 
2.740000000001358, -0.7428780340776552 
2.750000000001379, -0.7385224306373936 
2.7600000000014, -0.7347228578972268 
2.770000000001421, -0.7315561493187388 
2.780000000001442, -0.7290313046136686 
2.7900000000014633, -0.7271117747716402 
2.8000000000014844, -0.7257312985873237 
2.8100000000015055, -0.7248054617922703 
2.8200000000015266, -0.7242416613545525 
2.8300000000015477, -0.7239482584832511 
2.840000000001569, -0.7238420458900274 
2.85000000000159, -0.7238528661217533 
2.860000000001611, -0.7239250820209369 
2.870000000001632, -0.7240167249153482 
2.8800000000016532, -0.7240977573215652 
2.8900000000016743, -0.7241486827941573 
2.9000000000016954, -0.724159793144992 
2.9100000000017165, -0.7241301016072852 
2.9200000000017377, -0.7240644260475304 
2.9300000000017588, -0.7239681551990977 
2.94000000000178, -0.7238415900065289 
2.950000000001801, -0.7236772322069313 
2.960000000001822, -0.7234620848137185 
2.970000000001843, -0.7231836801147085 
2.9800000000018643, -0.7228361630583124 
2.9900000000018854, -0.7224235346302218 
3.0000000000019065, -0.7219600579809361 
3.0100000000019276, -0.7214699456722579 
3.0200000000019487, -0.7209883968339431 
3.03000000000197, -0.7205646900727048 
3.040000000001991, -0.7202665982806351 
3.050000000002012, -0.7201843777564545 
3.060000000002033, -0.7204321078024811 
3.070000000002054, -0.7211443783526925 
3.0800000000020753, -0.7224672348525857 
3.0900000000020964, -0.7245432468005341 
3.1000000000021175, -0.7274904496793925 
3.1100000000021386, -0.7313733818330392 
3.1200000000021597, -0.7361637582375946 
3.130000000002181, -0.7416942168935099 
3.140000000002202, -0.7476265819663647 
3.150000000002223, -0.7534778085123357 
3.160000000002244, -0.7587359313065354 
3.1700000000022652, -0.7630261575071196 
3.1800000000022863, -0.7662168956287498 
3.1900000000023074, -0.7683964562759281 
3.2000000000023285, -0.7697659023272474 
3.2100000000023496, -0.7705374531827932 
3.2200000000023707, -0.7708811407522328 
3.230000000002392, -0.7709116643270134 
3.240000000002413, -0.7706934947502899 
3.250000000002434, -0.7702492526389376 
3.260000000002455, -0.7695651153422401 
3.2700000000024763, -0.7685919924026321 
3.2800000000024974, -0.7672436515517135 
3.2900000000025185, -0.7653948577054625 
3.3000000000025396, -0.7628848170322938 
3.3100000000025607, -0.7595331305460495 
3.3200000000025818, -0.7551759713967656 
3.330000000002603, -0.7497334433389092 
3.340000000002624, -0.7433302374637711 
3.350000000002645, -0.7364602093137237 
3.360000000002666, -0.7300186171968356 
3.3700000000026873, -0.7249576696737609 
3.3800000000027084, -0.7217594150185016 
3.3900000000027295, -0.7202633277707784 
3.4000000000027506, -0.719938672653244 
3.4100000000027717, -0.7202335230119372 
3.420000000002793, -0.7207510460363322 
3.430000000002814, -0.7212655000007457 
3.440000000002835, -0.7216723020749126 
3.450000000002856, -0.7219337520585285 
3.460000000002877, -0.7220405026328967 
3.4700000000028983, -0.7219885364380667 
3.4800000000029194, -0.7217662076205895 
3.4900000000029405, -0.7213468771210014 
3.5000000000029616, -0.7206854393875047 
3.5100000000029827, -0.719720277596219 
3.520000000003004, -0.7183848501200669 
3.530000000003025, -0.7166321389494448 
3.540000000003046, -0.7144665069760491 
3.550000000003067, -0.711964322608755 
3.5600000000030882, -0.7092636199775113 
3.5700000000031094, -0.7065247837176185 
3.5800000000031305, -0.7038879234003188 
3.5900000000031516, -0.7014505010330986 
3.6000000000031727, -0.6992679953013908 
3.6100000000031938, -0.6973662492315682 
3.620000000003215, -0.6957542720861849 
3.630000000003236, -0.6944323923405398 
3.640000000003257, -0.6933955327031424 
3.650000000003278, -0.6926334414650993 
3.6600000000032993, -0.6921299597029507 
3.6700000000033204, -0.6918628560461232 
3.6800000000033415, -0.6918049505462898 
3.6900000000033626, -0.6919264623992512 
3.7000000000033837, -0.6921979803649344 
3.710000000003405, -0.6925932902769663 
3.720000000003426, -0.6930914062574361 
3.730000000003447, -0.6936772723756841 
3.740000000003468, -0.6943405335199457 
3.750000000003489, -0.6950717121133868 
3.7600000000035103, -0.6958557258990586 
3.7700000000035314, -0.6966645149045821 
3.7800000000035525, -0.6974530063100339 
3.7900000000035736, -0.6981632697691331 
3.8000000000035947, -0.6987377531063419 
3.810000000003616, -0.69913529688776 
3.820000000003637, -0.6993402856914381 
3.830000000003658, -0.6993605574364778 
3.840000000003679, -0.699218113375961 
3.8500000000037002, -0.6989398684710306 
3.8600000000037213, -0.6985531294813985 
3.8700000000037424, -0.6980871338565862 
3.8800000000037635, -0.697580807499261 
3.8900000000037847, -0.6970975273250729 
3.9000000000038058, -0.6967485589871132 
3.910000000003827, -0.6967263384098809 
3.920000000003848, -0.6973447804183492 
3.930000000003869, -0.6990733498740389 
3.94000000000389, -0.7025319263254475 
3.9500000000039113, -0.7083879556583169 
3.9600000000039324, -0.7170928944927253 
3.9700000000039535, -0.72848097396271 
3.9800000000039746, -0.7414791557535583 
3.9900000000039957, -0.7543346878989853 
4.000000000004016, -0.7654023263494638 
4.010000000003993, -0.7738562615451967 
4.02000000000397, -0.7797501938846122 
4.030000000003946, -0.783606257957451 
4.040000000003923, -0.7860172863969979 
4.0500000000039, -0.787460291860647 
4.0600000000038765, -0.7882637732317563 
4.070000000003853, -0.788633945220361 
4.08000000000383, -0.7886884837593149 
4.090000000003807, -0.7884807713759244 
4.100000000003783, -0.7880117428118087 
4.11000000000376, -0.787229765175175 
4.120000000003737, -0.7860187816763804 
4.130000000003713, -0.7841753231863083 
4.14000000000369, -0.781380378685193 
4.150000000003667, -0.7771894152443389 
4.1600000000036434, -0.7710959077402548 
4.17000000000362, -0.7627401169081416 
4.180000000003597, -0.7522453692447455 
4.1900000000035735, -0.7404417036346274 
4.20000000000355, -0.7286668105105012 
4.210000000003527, -0.7182080367574685 
4.220000000003504, -0.7098350481462499 
4.23000000000348, -0.703710790383806 
4.240000000003457, -0.6995775293578261 
4.250000000003434, -0.6969946024663337 
4.26000000000341, -0.6955074629356245 
4.270000000003387, -0.6947324884255716 
4.280000000003364, -0.6943823102782207 
4.2900000000033405, -0.6942589318172864 
4.300000000003317, -0.6942338584787537 
4.310000000003294, -0.6942263423151758 
4.320000000003271, -0.6941849963575023 
4.330000000003247, -0.6940745822110129 
4.340000000003224, -0.6938682454514657 
4.350000000003201, -0.6935450433765495 
4.360000000003177, -0.6930921767777951 
4.370000000003154, -0.6925099298079832 
4.380000000003131, -0.6918152453917986 
4.390000000003107, -0.6910395261600415 
4.400000000003084, -0.6902198641238027 
4.410000000003061, -0.6893882417237331 
4.4200000000030375, -0.6885649400411101 
4.430000000003014, -0.6877588937535615 
4.440000000002991, -0.6869730324857931 
4.450000000002968, -0.686210722831435 
4.460000000002944, -0.6854805860716151 
4.470000000002921, -0.6847991235847131 
4.480000000002898, -0.6841918515109193 
4.490000000002874, -0.6836936443239632 
4.500000000002851, -0.6833484139480106 
4.510000000002828, -0.6832078649746247 
4.520000000002804, -0.683329156741019 
4.530000000002781, -0.68377171774775 
4.540000000002758, -0.6845937982955537 
4.5500000000027345, -0.6858491875803453 
4.560000000002711, -0.6875836399362807 
4.570000000002688, -0.6898291057273565 
4.580000000002665, -0.6925925298357566 
4.590000000002641, -0.6958363272374022 
4.600000000002618, -0.6994524029680319 
4.610000000002595, -0.7032428148588792 
4.620000000002571, -0.7069321344760717 
4.630000000002548, -0.7102295125515019 
4.640000000002525, -0.7129189544711855 
4.6500000000025015, -0.7149189852390648 
4.660000000002478, -0.7162734251622274 
4.670000000002455, -0.7170945018024482 
4.6800000000024315, -0.7175051055190383 
4.690000000002408, -0.7176053508863381 
4.700000000002385, -0.7174615694197681 
4.710000000002362, -0.7171065717556654 
4.720000000002338, -0.7165425569446688 
4.730000000002315, -0.7157426048359038 
4.740000000002292, -0.7146496749651082 
4.750000000002268, -0.7131735574157032 
4.760000000002245, -0.7111868794822985 
4.770000000002222, -0.7085210700475788 
4.7800000000021985, -0.7049630160407961 
4.790000000002175, -0.7002616250673336 
4.800000000002152, -0.6941911571010997 
4.810000000002129, -0.68676166928159 
4.820000000002105, -0.6785351945172918 
4.830000000002082, -0.6706499739344121 
4.840000000002059, -0.6642613692404986 
4.850000000002035, -0.6599044490550883 
4.860000000002012, -0.657410103261223 
4.870000000001989, -0.6562541552049176 
4.880000000001965, -0.6558980964705403 
4.890000000001942, -0.6559412971733463 
4.900000000001919, -0.6561345189443605 
4.9100000000018955, -0.6563406107540053 
4.920000000001872, -0.6564906039486431 
