t, s[1].omega / s[0].omega 
0, -0.600004822150915 
0.009999999999999995, -0.6004989003586862 
0.019999999999999934, -0.6009846453093753 
0.029999999999999874, -0.6014075266224337 
0.04000000000000012, -0.6017171480495973 
0.050000000000000405, -0.601881254130903 
0.06000000000000069, -0.6018901633110272 
0.07000000000000098, -0.6017516596041612 
0.08000000000000126, -0.6014822771012758 
0.09000000000000155, -0.6011007117673638 
0.10000000000000184, -0.6006259417982956 
0.11000000000000212, -0.6000806153059741 
0.12000000000000241, -0.5995003734118852 
0.130000000000002, -0.598951133983412 
0.1400000000000009, -0.5985577043526588 
0.1499999999999998, -0.5985463093410064 
0.1599999999999987, -0.5992955382069671 
0.1699999999999976, -0.6013641259557301 
0.1799999999999965, -0.6054101722963543 
0.1899999999999954, -0.6118719621880935 
0.1999999999999943, -0.6204207238515456 
0.2099999999999932, -0.6296831592370105 
0.2199999999999921, -0.6379219158924168 
0.229999999999991, -0.6441999582598046 
0.2399999999999899, -0.648645074656595 
0.2499999999999888, -0.651799145606821 
0.2599999999999877, -0.6540961380006882 
0.2699999999999866, -0.6557821844929017 
0.2799999999999855, -0.656998291327545 
0.2899999999999844, -0.657841676466403 
0.2999999999999833, -0.6583870456957371 
0.3099999999999822, -0.6586900896728995 
0.3199999999999811, -0.6587868228494165 
0.32999999999998, -0.6586926252328229 
0.3399999999999789, -0.6584012472580982 
0.3499999999999778, -0.6578839830918708 
0.35999999999997667, -0.6570908525848079 
0.36999999999997557, -0.6559580815449223 
0.37999999999997447, -0.654427370143576 
0.38999999999997337, -0.6524776474311411 
0.39999999999997227, -0.6501563452231697 
0.40999999999997117, -0.6475855490750535 
0.41999999999997006, -0.6449300960251728 
0.42999999999996896, -0.642346431859732 
0.43999999999996786, -0.639945702423618 
0.44999999999996676, -0.637786313089866 
0.45999999999996566, -0.6358872209738735 
0.46999999999996456, -0.6342464593600711 
0.47999999999996346, -0.6328554395587733 
0.48999999999996235, -0.6317067355240888 
0.49999999999996125, -0.6307967010832609 
0.5099999999999602, -0.6301250788204793 
0.519999999999959, -0.6296933864002596 
0.529999999999958, -0.6295032926625292 
0.5399999999999568, -0.6295557184879843 
0.5499999999999557, -0.6298509972247153 
0.5599999999999546, -0.6303900452541705 
0.5699999999999535, -0.6311760990583474 
0.5799999999999524, -0.632216137009073 
0.5899999999999513, -0.6335205583149202 
0.5999999999999502, -0.6350990773854257 
0.6099999999999491, -0.6369505866732934 
0.619999999999948, -0.6390462305334986 
0.6299999999999469, -0.641309919868072 
0.6399999999999458, -0.6436087538962637 
0.6499999999999447, -0.6457698844864328 
0.6599999999999436, -0.6476272348685856 
0.6699999999999425, -0.6490736746052469 
0.6799999999999414, -0.650083410867634 
0.6899999999999403, -0.6506947268690935 
0.6999999999999392, -0.6509741058568393 
0.7099999999999381, -0.650985964155089 
0.719999999999937, -0.6507765472669449 
0.7299999999999359, -0.6503684710690686 
0.7399999999999348, -0.649759808795759 
0.7499999999999337, -0.6489235308597878 
0.7599999999999326, -0.6478051527923965 
0.7699999999999315, -0.6463170852511367 
0.7799999999999304, -0.644326627779299 
0.7899999999999293, -0.641629703984542 
0.7999999999999282, -0.6378969899329362 
0.8099999999999271, -0.6325978584359645 
0.819999999999926, -0.6250161240520246 
0.8299999999999249, -0.6146441677686496 
0.8399999999999238, -0.6019975847992873 
0.8499999999999227, -0.5889337461367574 
0.8599999999999216, -0.577627507528667 
0.8699999999999205, -0.5692590332176313 
0.8799999999999194, -0.5637913398163172 
0.8899999999999183, -0.5605556403793159 
0.8999999999999172, -0.5588025573068094 
0.9099999999999161, -0.5579424491111352 
0.919999999999915, -0.5575790754872798 
0.9299999999999139, -0.557468161745835 
0.9399999999999128, -0.5574665358122141 
0.9499999999999117, -0.5574923142818781 
0.9599999999999106, -0.5574982658260336 
0.9699999999999095, -0.557455548309602 
0.9799999999999084, -0.5573448901567286 
0.9899999999999073, -0.5571533001196235 
0.9999999999999062, -0.5568750523931335 
1.0099999999999052, -0.5565152626507707 
1.019999999999904, -0.5560929178707937 
1.029999999999903, -0.555639371221561 
1.039999999999902, -0.555190379614245 
1.0499999999999008, -0.5547744274200648 
1.0599999999998997, -0.5544033308158566 
1.0699999999998986, -0.5540699166863747 
1.0799999999998975, -0.5537533681404252 
1.0899999999998964, -0.5534288736137116 
1.0999999999998953, -0.5530766445370942 
1.1099999999998942, -0.5526868876868816 
1.119999999999893, -0.5522606522210973 
1.129999999999892, -0.5518089861424867 
1.1399999999998909, -0.5513532348481239 
1.1499999999998898, -0.5509285072163099 
1.1599999999998887, -0.5505917081421937 
1.1699999999998876, -0.5504356034683798 
1.1799999999998865, -0.5506108508486893 
1.1899999999998854, -0.5513579797120877 
1.1999999999998843, -0.5530491144250542 
1.2099999999998832, -0.5562304473641809 
1.219999999999882, -0.561632347823849 
1.229999999999881, -0.5700659115219768 
1.2399999999998799, -0.5820785021597831 
1.2499999999998788, -0.5973383736754087 
1.2599999999998777, -0.614159959978579 
1.2699999999998766, -0.6299782933428377 
1.2799999999998755, -0.6427576035280678 
1.2899999999998744, -0.6519226937392589 
1.2999999999998733, -0.6580223280765012 
1.3099999999998722, -0.6619327294065693 
1.319999999999871, -0.664396443323535 
1.32999999999987, -0.6659239529810963 
1.3399999999998689, -0.6668378540540215 
1.3499999999998678, -0.6673339449319751 
1.3599999999998666, -0.6675253691482902 
1.3699999999998655, -0.6674688649713981 
1.3799999999998644, -0.6671780459665072 
1.3899999999998633, -0.6666279353907344 
1.3999999999998622, -0.6657544545633928 
1.4099999999998611, -0.6644543318271577 
1.41999999999986, -0.6625954874514955 
1.429999999999859, -0.6600519267319037 
1.4399999999998578, -0.6567688467566353 
1.4499999999998567, -0.6528319230493398 
1.4599999999998556, -0.6484828269586452 
1.4699999999998545, -0.6440486714957332 
1.4799999999998534, -0.6398309802055847 
1.4899999999998523, -0.6360316182434742 
1.4999999999998512, -0.6327438367181711 
1.5099999999998501, -0.6299827494108122 
1.519999999999849, -0.6277214983874645 
1.529999999999848, -0.6259167352585474 
1.5399999999998468, -0.6245218399318666 
1.5499999999998457, -0.6234919013769686 
1.5599999999998446, -0.6227847094258364 
1.5699999999998435, -0.6223605931526506 
1.5799999999998424, -0.6221825239004073 
1.5899999999998413, -0.6222169037616202 
1.5999999999998402, -0.6224348994565592 
1.6099999999998391, -0.6228139623605997 
1.619999999999838, -0.6233391321560547 
1.629999999999837, -0.624003629687406 
1.6399999999998358, -0.624807925084806 
1.6499999999998347, -0.6257560060749686 
1.6599999999998336, -0.6268475379876621 
1.6699999999998325, -0.6280659817685461 
1.6799999999998314, -0.6293662141455997 
1.6899999999998303, -0.6306696103507191 
1.6999999999998292, -0.631875174871572 
1.709999999999828, -0.6328865394413911 
1.719999999999827, -0.6336404219128002 
1.729999999999826, -0.6341185037239903 
1.7399999999998248, -0.6343383719787562 
1.7499999999998237, -0.6343343390200636 
1.7599999999998226, -0.6341406729336506 
1.7699999999998215, -0.6337823805235009 
1.7799999999998204, -0.633272676590706 
1.7899999999998193, -0.6326149360982684 
1.7999999999998182, -0.6318082849914244 
1.809999999999817, -0.6308578634836207 
1.819999999999816, -0.6297917338133096 
1.8299999999998149, -0.6286838619315976 
1.8399999999998138, -0.6276706676434065 
1.8499999999998127, -0.6269204263735267 
1.8599999999998116, -0.626487959141558 
1.8699999999998105, -0.6260643316528378 
1.8799999999998094, -0.6249304694609631 
1.8899999999998083, -0.6225376143607403 
1.8999999999998072, -0.6192510841338176 
1.909999999999806, -0.6161195166744396 
1.919999999999805, -0.6139376952166524 
1.9299999999998039, -0.6128348548821311 
1.9399999999998028, -0.6125279158495295 
1.9499999999998017, -0.6126630195711094 
1.9599999999998006, -0.6129745660344121 
1.9699999999997995, -0.6133048103740288 
1.9799999999997984, -0.6135736809749766 
1.9899999999997973, -0.6137450947505344 
1.9999999999997962, -0.6138027676042798 
2.0099999999998173, -0.6137354657581032 
2.0199999999998384, -0.6135289851817005 
2.0299999999998595, -0.613163096943833 
2.0399999999998806, -0.6126133913425923 
2.0499999999999017, -0.6118588808989596 
2.059999999999923, -0.6108947392124882 
2.069999999999944, -0.6097449330686848 
2.079999999999965, -0.6084653244128807 
2.089999999999986, -0.607131295454417 
2.100000000000007, -0.6058155287011671 
2.1100000000000283, -0.6045694884931234 
2.1200000000000494, -0.6034176882247607 
2.1300000000000705, -0.6023636236642467 
2.1400000000000916, -0.6014006602601242 
2.1500000000001127, -0.6005219536245127 
2.160000000000134, -0.5997268769825833 
2.170000000000155, -0.5990242373048665 
2.180000000000176, -0.5984337004408655 
2.190000000000197, -0.5979866662766489 
2.2000000000002182, -0.5977271900602033 
2.2100000000002393, -0.5977130555839448 
2.2200000000002604, -0.5980169371924356 
2.2300000000002815, -0.5987275970683104 
2.2400000000003026, -0.5999509511533452 
2.2500000000003237, -0.601810188729923 
2.260000000000345, -0.6044424355626673 
2.270000000000366, -0.6079862765516546 
2.280000000000387, -0.61255032055782 
2.290000000000408, -0.6181519315841544 
2.3000000000004293, -0.6246285341983218 
2.3100000000004504, -0.6315647799906269 
2.3200000000004715, -0.6383268255425275 
2.3300000000004926, -0.6442603241612055 
2.3400000000005137, -0.6489470412747957 
2.3500000000005348, -0.6523163031517295 
2.360000000000556, -0.6545530116915314 
2.370000000000577, -0.655931441422864 
2.380000000000598, -0.6566998705165152 
2.390000000000619, -0.6570383025193358 
2.4000000000006403, -0.6570576741520948 
2.4100000000006614, -0.6568106722733394 
2.4200000000006825, -0.6562992947525134 
2.4300000000007036, -0.6554734666813682 
2.4400000000007247, -0.6542179383957845 
2.450000000000746, -0.6523254569730853 
2.460000000000767, -0.6494584985831287 
2.470000000000788, -0.6451199473200926 
2.480000000000809, -0.6386970692389943 
2.49000000000083, -0.6296889314646235 
2.5000000000008513, -0.6181418310215654 
2.5100000000008724, -0.6049853163678691 
2.5200000000008935, -0.5917859604642162 
2.5300000000009146, -0.5800005624827697 
2.5400000000009357, -0.5704179195837511 
2.550000000000957, -0.5631449011768884 
2.560000000000978, -0.5578905767803989 
2.570000000000999, -0.5542335379286226 
2.58000000000102, -0.551769390425527 
2.5900000000010412, -0.5501649043316563 
2.6000000000010624, -0.5491650808035172 
2.6100000000010835, -0.5485826984993821 
2.6200000000011046, -0.548283992644282 
2.6300000000011257, -0.5481755052025404 
2.6400000000011468, -0.5481935085527879 
2.650000000001168, -0.5482961528498761 
2.660000000001189, -0.5484581383112788 
2.67000000000121, -0.5486675425617956 
2.680000000001231, -0.54892407503741 
2.6900000000012523, -0.5492373962854621 
2.7000000000012734, -0.5496235763431123 
2.7100000000012945, -0.5500980507179537 
2.7200000000013156, -0.5506651934981635 
2.7300000000013367, -0.5513075962877847 
2.740000000001358, -0.5519809065402931 
2.750000000001379, -0.5526199750396062 
2.7600000000014, -0.55315638573758 
2.770000000001421, -0.553538525908994 
2.780000000001442, -0.5537423439642625 
2.7900000000014633, -0.5537684857585732 
2.8000000000014844, -0.5536312632774247 
2.8100000000015055, -0.553347385466191 
2.8200000000015266, -0.5529286192390506 
2.8300000000015477, -0.5523785538650816 
2.840000000001569, -0.5516920828915733 
2.85000000000159, -0.5508562357431448 
2.860000000001611, -0.5498508303334922 
2.870000000001632, -0.5486450422390015 
2.8800000000016532, -0.547178151167158 
2.8900000000016743, -0.5452964258691575 
2.9000000000016954, -0.5426071038456501 
2.9100000000017165, -0.5382847816173177 
2.9200000000017377, -0.531155273518494 
2.9300000000017588, -0.520577218285269 
2.94000000000178, -0.5076384427534786 
2.950000000001801, -0.4948573952046599 
2.960000000001822, -0.4843712185486503 
2.970000000001843, -0.4768750501677973 
2.9800000000018643, -0.4719930224303101 
2.9900000000018854, -0.4690053673076453 
3.0000000000019065, -0.4672594186886566 
3.0100000000019276, -0.46628221994839725 
3.0200000000019487, -0.4657639113541858 
3.03000000000197, -0.46551144657500465 
3.040000000001991, -0.46540766055371574 
3.050000000002012, -0.46538247544243366 
3.060000000002033, -0.4653945865927878 
3.070000000002054, -0.46542071685755504 
3.0800000000020753, -0.4654501273029723 
3.0900000000020964, -0.4654826795331063 
3.1000000000021175, -0.46552878259477887 
3.1100000000021386, -0.4656090824371658 
3.1200000000021597, -0.4657514606833864 
3.130000000002181, -0.4659837690816964 
3.140000000002202, -0.4663229356588758 
3.150000000002223, -0.46676371522130633 
3.160000000002244, -0.46727234253248706 
3.1700000000022652, -0.46779039778545206 
3.1800000000022863, -0.46825004459355474 
3.1900000000023074, -0.4685938648438735 
3.2000000000023285, -0.4687880316068439 
3.2100000000023496, -0.46882272219866206 
3.2200000000023707, -0.46870304317465744 
3.230000000002392, -0.46843763096681934 
3.240000000002413, -0.4680293705964342 
3.250000000002434, -0.4674684570554367 
3.260000000002455, -0.46672540584105626 
3.2700000000024763, -0.46574005654304573 
3.2800000000024974, -0.46440027998161815 
3.2900000000025185, -0.4624997236854445 
3.3000000000025396, -0.459660097294517 
3.3100000000025607, -0.45521911071986454 
3.3200000000025818, -0.448177357108383 
3.330000000002603, -0.43750281661138424 
3.340000000002624, -0.4230670272415207 
3.350000000002645, -0.4065176058091783 
3.360000000002666, -0.3906125054799967 
3.3700000000026873, -0.37743996696289195 
3.3800000000027084, -0.36759742302983506 
3.3900000000027295, -0.36066933927521516 
3.4000000000027506, -0.35593259950650197 
3.4100000000027717, -0.3527319174024382 
3.420000000002793, -0.3505804474774507 
3.430000000002814, -0.3491459555692792 
3.440000000002835, -0.34821089243724906 
3.450000000002856, -0.3476368050763067 
3.460000000002877, -0.3473391410125103 
3.4700000000028983, -0.3472712671497994 
3.4800000000029194, -0.3474153860804023 
3.4900000000029405, -0.34777850715258146 
3.5000000000029616, -0.3483922337726678 
3.5100000000029827, -0.34931536639670574 
3.520000000003004, -0.3506378507643866 
3.530000000003025, -0.35248285316314637 
3.540000000003046, -0.3549997927092969 
3.550000000003067, -0.358334699142822 
3.5600000000030882, -0.36256030526245386 
3.5700000000031094, -0.3675658137062434 
3.5800000000031305, -0.3729686732993552 
3.5900000000031516, -0.3781735675283905 
3.6000000000031727, -0.38261711502929635 
3.6100000000031938, -0.3860119514333158 
3.620000000003215, -0.3883813701124544 
3.630000000003236, -0.38992100143226016 
3.640000000003257, -0.3908539438966706 
3.650000000003278, -0.39135880461414535 
3.6600000000032993, -0.39155497105424464 
3.6700000000033204, -0.39151075812901304 
3.6800000000033415, -0.3912549229660622 
3.6900000000033626, -0.3907856523544389 
3.7000000000033837, -0.3900779787609937 
3.710000000003405, -0.3890938665628558 
3.720000000003426, -0.3878002579601582 
3.730000000003447, -0.38619652189850046 
3.740000000003468, -0.384341093344858 
3.750000000003489, -0.3823554391301669 
3.7600000000035103, -0.3803920816387599 
3.7700000000035314, -0.378583905686843 
3.7800000000035525, -0.3770088028734024 
3.7900000000035736, -0.3756855750936621 
3.8000000000035947, -0.37459113732392185 
3.810000000003616, -0.37368237813093835 
3.820000000003637, -0.37291325928961383 
3.830000000003658, -0.37224503000748943 
3.840000000003679, -0.3716507637448626 
3.8500000000037002, -0.3711164669177138 
3.8600000000037213, -0.37064113255890463 
3.8700000000037424, -0.37023778182500056 
3.8800000000037635, -0.3699371584703256 
3.8900000000037847, -0.36979570915801563 
3.9000000000038058, -0.36990988566614386 
3.910000000003827, -0.37043914442691545 
3.920000000003848, -0.3716382944084271 
3.930000000003869, -0.3738897367622037 
3.94000000000389, -0.37769174259784244 
3.9500000000039113, -0.38347881092068303 
3.9600000000039324, -0.39107660247458637 
3.9700000000039535, -0.39889035524739397 
3.9800000000039746, -0.404002375898221 
3.9900000000039957, -0.4044000600607924 
4.000000000004016, -0.40100747487981847 
4.010000000003993, -0.3963888927041158 
4.02000000000397, -0.3923852363205468 
4.030000000003946, -0.38955610774559535 
4.040000000003923, -0.38776661152515346 
4.0500000000039, -0.3867094791510259 
4.0600000000038765, -0.38611745977711015 
4.070000000003853, -0.38580504134381755 
4.08000000000383, -0.38565497618084865 
4.090000000003807, -0.3855966368655259 
4.100000000003783, -0.3855890686589385 
4.11000000000376, -0.3856101967333113 
4.120000000003737, -0.3856509891331118 
4.130000000003713, -0.38571317707678887 
4.14000000000369, -0.3858091904061721 
4.150000000003667, -0.3859626730079677 
4.1600000000036434, -0.3862074737489546 
4.17000000000362, -0.3865829826734868 
4.180000000003597, -0.38712455880145424 
4.1900000000035735, -0.38784949480564374 
4.20000000000355, -0.38874163325642713 
4.210000000003527, -0.38974182580194366 
4.220000000003504, -0.39075410533782373 
4.23000000000348, -0.3916712579233599 
4.240000000003457, -0.3924078200886906 
4.250000000003434, -0.39291984409311853 
4.26000000000341, -0.39320201260403587 
4.270000000003387, -0.3932702779163243 
4.280000000003364, -0.3931430526929685 
4.2900000000033405, -0.39282724614757025 
4.300000000003317, -0.39230819176053455 
4.310000000003294, -0.3915394399252087 
4.320000000003271, -0.3904282676632037 
4.330000000003247, -0.38881474595390475 
4.340000000003224, -0.38644950785067617 
4.350000000003201, -0.382995713309061 
4.360000000003177, -0.3781141234546024 
4.370000000003154, -0.3716854762815016 
4.380000000003131, -0.3640734077377021 
4.390000000003107, -0.3561220964151826 
4.400000000003084, -0.3487587542173538 
4.410000000003061, -0.34256465952668946 
4.4200000000030375, -0.33767888531498036 
4.430000000003014, -0.33396006795801897 
4.440000000002991, -0.33117112258602294 
4.450000000002968, -0.3290847400891262 
4.460000000002944, -0.3275209003999149 
4.470000000002921, -0.3263507554407537 
4.480000000002898, -0.3254893442577444 
4.490000000002874, -0.32488723858366575 
4.500000000002851, -0.3245247613477278 
4.510000000002828, -0.3244099445745663 
4.520000000002804, -0.32458083128803306 
4.530000000002781, -0.3251130226284387 
4.540000000002758, -0.3261340392738533 
4.5500000000027345, -0.32784661910824386 
4.560000000002711, -0.33056215895471075 
4.570000000002688, -0.3347389725185364 
4.580000000002665, -0.34099738671947927 
4.590000000002641, -0.35002859093021493 
4.600000000002618, -0.3622421647804267 
4.610000000002595, -0.37708831312868063 
4.620000000002571, -0.3925764902838148 
4.630000000002548, -0.40604144491491595 
4.640000000002525, -0.41587172815075546 
4.6500000000025015, -0.42218145333744606 
4.660000000002478, -0.42597251918985907 
4.670000000002455, -0.4282194774014479 
4.6800000000024315, -0.4295682736366488 
4.690000000002408, -0.43038653137468785 
4.700000000002385, -0.4308732058191823 
4.710000000002362, -0.43113520816885736 
4.720000000002338, -0.43122931825714933 
4.730000000002315, -0.43118350371239333 
4.740000000002292, -0.4310082071342154 
4.750000000002268, -0.4307038262345146 
4.760000000002245, -0.4302680540591183 
4.770000000002222, -0.42970475037990663 
4.7800000000021985, -0.4290331702362888 
4.790000000002175, -0.4282930082298737 
4.800000000002152, -0.427540060064468 
4.810000000002129, -0.4268322674260986 
4.820000000002105, -0.4262130224113975 
4.830000000002082, -0.42570035679672713 
4.840000000002059, -0.4252858839963295 
4.850000000002035, -0.424941926722507 
4.860000000002012, -0.4246327130449564 
4.870000000001989, -0.4243250649489684 
4.880000000001965, -0.42399503633134916 
4.890000000001942, -0.4236295168999674 
4.900000000001919, -0.4232244621386442 
