t, s[1].omega / s[0].omega 
0, -0.4999977623785927 
0.009999999999999995, -0.4998442693966191 
0.019999999999999934, -0.499810371226835 
0.029999999999999874, -0.49984409614015374 
0.04000000000000012, -0.49987816177290795 
0.050000000000000405, -0.49985110839595615 
0.06000000000000069, -0.49972254895547613 
0.07000000000000098, -0.49947672250258013 
0.08000000000000126, -0.4991172761856588 
0.09000000000000155, -0.49866085050757025 
0.10000000000000184, -0.49813578726818797 
0.11000000000000212, -0.49759001084307275 
0.12000000000000241, -0.49711286412179556 
0.130000000000002, -0.4968806549642997 
0.1400000000000009, -0.4972455051474068 
0.1499999999999998, -0.498901302143026 
0.1599999999999987, -0.5031663269963997 
0.1699999999999976, -0.5123487403602935 
0.1799999999999965, -0.5297684020853949 
0.1899999999999954, -0.5579877418500472 
0.1999999999999943, -0.5937477762283022 
0.2099999999999932, -0.624925166207296 
0.2199999999999921, -0.6406849235055903 
0.229999999999991, -0.6433538459287682 
0.2399999999999899, -0.6418259085451394 
0.2499999999999888, -0.6411150307587531 
0.2599999999999877, -0.641846967004487 
0.2699999999999866, -0.6432697432424785 
0.2799999999999855, -0.64474555250122 
0.2899999999999844, -0.6459761567981597 
0.2999999999999833, -0.6468784282879262 
0.3099999999999822, -0.6474600761913013 
0.3199999999999811, -0.647749728298582 
0.32999999999998, -0.6477643216176296 
0.3399999999999789, -0.6474946180805528 
0.3499999999999778, -0.6468990313945061 
0.35999999999997667, -0.645904898688864 
0.36999999999997557, -0.6444237982057921 
0.37999999999997447, -0.6423895596250481 
0.38999999999997337, -0.6398139865691166 
0.39999999999997227, -0.636825652151935 
0.40999999999997117, -0.6336476857893414 
0.41999999999997006, -0.6305179990904903 
0.42999999999996896, -0.6276116693369086 
0.43999999999996786, -0.6250138267493842 
0.44999999999996676, -0.6227383746746253 
0.45999999999996566, -0.620762430085483 
0.46999999999996456, -0.6190551346986053 
0.47999999999996346, -0.6175945238781237 
0.48999999999996235, -0.6163741853241131 
0.49999999999996125, -0.6154035191241404 
0.5099999999999602, -0.6147048232129956 
0.519999999999959, -0.614309250074028 
0.529999999999958, -0.6142528820361643 
0.5399999999999568, -0.6145738803911498 
0.5499999999999557, -0.615311550719184 
0.5599999999999546, -0.6165078892765284 
0.5699999999999535, -0.6182115632176575 
0.5799999999999524, -0.6204832393151953 
0.5899999999999513, -0.6233994886347634 
0.5999999999999502, -0.6270497420656671 
0.6099999999999491, -0.6315168382446482 
0.619999999999948, -0.6368287846287565 
0.6299999999999469, -0.6428765783644452 
0.6399999999999458, -0.6493275692323158 
0.6499999999999447, -0.655622145142057 
0.6599999999999436, -0.6611385693762153 
0.6699999999999425, -0.6654542585243861 
0.6799999999999414, -0.668484872365756 
0.6899999999999403, -0.6704057032432296 
0.6999999999999392, -0.6714811993314723 
0.7099999999999381, -0.6719433734625768 
0.719999999999937, -0.6719465482352036 
0.7299999999999359, -0.6715634898185406 
0.7399999999999348, -0.6707892425695492 
0.7499999999999337, -0.6695340922677833 
0.7599999999999326, -0.6675929716795773 
0.7699999999999315, -0.6645714433539756 
0.7799999999999304, -0.6597226568104997 
0.7899999999999293, -0.6515908983127245 
0.7999999999999282, -0.6372800712083372 
0.8099999999999271, -0.6113841831742621 
0.819999999999926, -0.5663978603698614 
0.8299999999999249, -0.49964428175569725 
0.8399999999999238, -0.42385811550484204 
0.8499999999999227, -0.35971754877593876 
0.8599999999999216, -0.3161763924789851 
0.8699999999999205, -0.2897787394286602 
0.8799999999999194, -0.27429762455460005 
0.8899999999999183, -0.2651514439619565 
0.8999999999999172, -0.25963050592454884 
0.9099999999999161, -0.25622828108754503 
0.919999999999915, -0.25411241318872907 
0.9299999999999139, -0.2528186904195662 
0.9399999999999128, -0.25208809783306596 
0.9499999999999117, -0.25178221274695767 
0.9599999999999106, -0.2518407079283 
0.9699999999999095, -0.2522629017249719 
0.9799999999999084, -0.2531053868510401 
0.9899999999999073, -0.2544936970584205 
0.9999999999999062, -0.25665018545395946 
1.0099999999999052, -0.25994362813680266 
1.019999999999904, -0.2649659936562139 
1.029999999999903, -0.27262507829862337 
1.039999999999902, -0.2841674806690992 
1.0499999999999008, -0.3008508379541626 
1.0599999999998997, -0.3228102667455405 
1.0699999999998986, -0.34746317248749475 
1.0799999999998975, -0.36993181631252936 
1.0899999999998964, -0.3865704128384467 
1.0999999999998953, -0.39712920461586476 
1.1099999999998942, -0.4032980864212381 
1.119999999999893, -0.4068016594764726 
1.129999999999892, -0.40877761218764697 
1.1399999999998909, -0.40986484046437804 
1.1499999999998898, -0.41039969392989784 
1.1599999999998887, -0.41055032441390643 
1.1699999999998876, -0.410389568985115 
1.1799999999998865, -0.4099327242386554 
1.1899999999998854, -0.4091609673651616 
1.1999999999998843, -0.4080450807860645 
1.2099999999998832, -0.4065778586544594 
1.219999999999882, -0.40481025035734586 
1.229999999999881, -0.40286798636863513 
1.2399999999998799, -0.40092525129145196 
1.2499999999998788, -0.39914575657815726 
1.2599999999998777, -0.3976328679594491 
1.2699999999998766, -0.39641640330126526 
1.2799999999998755, -0.39546861969263086 
1.2899999999998744, -0.39472935058681075 
1.2999999999998733, -0.3941286932913575 
1.3099999999998722, -0.3936039114756789 
1.319999999999871, -0.3931094454949656 
1.32999999999987, -0.3926201681027671 
1.3399999999998689, -0.3921304676112588 
1.3499999999998678, -0.39165340173564306 
1.3599999999998666, -0.39122419288328164 
1.3699999999998655, -0.3909123488180895 
1.3799999999998644, -0.39084869524010873 
1.3899999999998633, -0.3912790077229332 
1.3999999999998622, -0.3926654023261926 
1.4099999999998611, -0.39586548194637455 
1.41999999999986, -0.4023914040622162 
1.429999999999859, -0.41452363413748194 
1.4399999999998578, -0.4341816127438484 
1.4499999999998567, -0.458092108069753 
1.4599999999998556, -0.47093050431470573 
1.4699999999998545, -0.4538737933389094 
1.4799999999998534, -0.4111627202282017 
1.4899999999998523, -0.3667874888682431 
1.4999999999998512, -0.33515851405568464 
1.5099999999998501, -0.31621875957147644 
1.519999999999849, -0.30558009502419636 
1.529999999999848, -0.29967916951387 
1.5399999999998468, -0.2963894124098526 
1.5499999999998457, -0.2945481127321659 
1.5599999999998446, -0.29353052291482945 
1.5699999999998435, -0.29299927199911396 
1.5799999999998424, -0.29277170805299646 
1.5899999999998413, -0.2927518445789458 
1.5999999999998402, -0.2928963532745042 
1.6099999999998391, -0.2931990058382278 
1.619999999999838, -0.29368577855566635 
1.629999999999837, -0.2944164607989901 
1.6399999999998358, -0.295489981888695 
1.6499999999998347, -0.2970506115948 
1.6599999999998336, -0.29928987127134693 
1.6699999999998325, -0.302431423431582 
1.6799999999998314, -0.306672164550402 
1.6899999999998303, -0.31204880484949415 
1.6999999999998292, -0.31825814668059726 
1.709999999999828, -0.3246022659559159 
1.719999999999827, -0.3302486362120215 
1.729999999999826, -0.33465181017394324 
1.7399999999998248, -0.3377268900743347 
1.7499999999998237, -0.33969126729842936 
1.7599999999998226, -0.3408345602247973 
1.7699999999998215, -0.34139138112802253 
1.7799999999998204, -0.3415094316832805 
1.7899999999998193, -0.34125666572035707 
1.7999999999998182, -0.3406342687841836 
1.809999999999817, -0.3395871606343377 
1.819999999999816, -0.3380188450273379 
1.8299999999998149, -0.33582717501478865 
1.8399999999998138, -0.33297533999715145 
1.8499999999998127, -0.3295780473213601 
1.8599999999998116, -0.32592754875607854 
1.8699999999998105, -0.3223982505330002 
1.8799999999998094, -0.3192911308915917 
1.8899999999998083, -0.3167459656598311 
1.8999999999998072, -0.3147585726236571 
1.909999999999806, -0.31324418826906614 
1.919999999999805, -0.3120915891207957 
1.9299999999998039, -0.31119405578594905 
1.9399999999998028, -0.31046386966562445 
1.9499999999998017, -0.30983766630363696 
1.9599999999998006, -0.3092765918779164 
1.9699999999997995, -0.30876414131464874 
1.9799999999997984, -0.308304791800198 
1.9899999999997973, -0.3079266298047194 
1.9999999999997962, -0.30769146239105005 
2.0099999999998173, -0.30771740081351495 
2.0199999999998384, -0.30822171719598634 
2.0299999999998595, -0.3095919366147422 
2.0399999999998806, -0.3124675508769057 
2.0499999999999017, -0.31766156667933376 
2.059999999999923, -0.3251451979878052 
2.069999999999944, -0.3300198663899662 
2.079999999999965, -0.3156152992299156 
2.089999999999986, -0.26209392604994936 
2.100000000000007, -0.1834279531260703 
2.1100000000000283, -0.11807243770635063 
2.1200000000000494, -0.07874248796592546 
2.1300000000000705, -0.05759896728094045 
2.1400000000000916, -0.04622766827261138 
2.1500000000001127, -0.03985572982390613 
2.160000000000134, -0.036115206271716035 
2.170000000000155, -0.03384240535960307 
2.180000000000176, -0.03245436871086704 
2.190000000000197, -0.03166023537343459 
2.2000000000002182, -0.031331883322162524 
2.2100000000002393, -0.031452010346199724 
2.2200000000002604, -0.03210819300444244 
2.2300000000002815, -0.033529668793205965 
2.2400000000003026, -0.03618936233800211 
2.2500000000003237, -0.04103523211795447 
2.260000000000345, -0.04999162681001561 
2.270000000000366, -0.06693909662457798 
2.280000000000387, -0.09882821244982574 
2.290000000000408, -0.1524673011635309 
2.3000000000004293, -0.2153887313497042 
2.3100000000004504, -0.2439796367667783 
2.3200000000004715, -0.22199403597906361 
2.3300000000004926, -0.18383240869264159 
2.3400000000005137, -0.1549712217900167 
2.3500000000005348, -0.13778975315228542 
2.360000000000556, -0.12814517394725072 
2.370000000000577, -0.1226905086197179 
2.380000000000598, -0.11952684551275808 
2.390000000000619, -0.11765760513571621 
2.4000000000006403, -0.11656482524650594 
2.4100000000006614, -0.11598139926075227 
2.4200000000006825, -0.11577932343082402 
2.4300000000007036, -0.1159185468092058 
2.4400000000007247, -0.1164294325121094 
2.450000000000746, -0.11741887645037011 
2.460000000000767, -0.11910132604338117 
2.470000000000788, -0.12186695937907803 
2.480000000000809, -0.1264140229820992 
2.49000000000083, -0.13398672621991325 
2.5000000000008513, -0.14672580971546373 
2.5100000000008724, -0.1678362515082486 
2.5200000000008935, -0.20024639829360663 
2.5300000000009146, -0.24186484799018554 
2.5400000000009357, -0.2821330412456532 
2.550000000000957, -0.31064162369012815 
2.560000000000978, -0.3265919127620237 
2.570000000000999, -0.3346076309921705 
2.58000000000102, -0.3386334266969203 
2.5900000000010412, -0.34076581039276627 
2.6000000000010624, -0.3419615620117662 
2.6100000000010835, -0.34264794368727197 
2.6200000000011046, -0.34302168147787093 
2.6300000000011257, -0.3431762445677453 
2.6400000000011468, -0.343155783162473 
2.650000000001168, -0.342980601245673 
2.660000000001189, -0.3426630961856542 
2.67000000000121, -0.3422216911719151 
2.680000000001231, -0.34169340874874654 
2.6900000000012523, -0.34114034108634284 
2.7000000000012734, -0.3406441989968936 
2.7100000000012945, -0.3402892295052948 
2.7200000000013156, -0.3401415347715108 
2.7300000000013367, -0.34023286121928376 
2.740000000001358, -0.340550983593218 
2.750000000001379, -0.3410372693955767 
2.7600000000014, -0.34159606900343925 
2.770000000001421, -0.34211899539090496 
2.780000000001442, -0.3425148974417649 
2.7900000000014633, -0.3427279086430532 
2.8000000000014844, -0.34273486618076854 
2.8100000000015055, -0.34252852979065185 
2.8200000000015266, -0.3420970774854399 
2.8300000000015477, -0.34140356022602614 
2.840000000001569, -0.34036011889803003 
2.85000000000159, -0.33878327489314086 
2.860000000001611, -0.3363050114755622 
2.870000000001632, -0.3322011803680295 
2.8800000000016532, -0.3251260031112707 
2.8900000000016743, -0.31298208994661936 
2.9000000000016954, -0.2938028811404833 
2.9100000000017165, -0.26837491277511943 
2.9200000000017377, -0.24168044936653094 
2.9300000000017588, -0.2192393923868324 
2.94000000000178, -0.20308268652899483 
2.950000000001801, -0.19232446618802423 
2.960000000001822, -0.1853201502874155 
2.970000000001843, -0.1807223805946482 
2.9800000000018643, -0.17763871633780035 
2.9900000000018854, -0.175520080525128 
3.0000000000019065, -0.17403791842558647 
3.0100000000019276, -0.1730011266286921 
3.0200000000019487, -0.17230779755494188 
3.03000000000197, -0.17192094187408993 
3.040000000001991, -0.17186193795837598 
3.050000000002012, -0.1722212388903378 
3.060000000002033, -0.17319284614375635 
3.070000000002054, -0.17515031492936547 
3.0800000000020753, -0.17880282574451195 
3.0900000000020964, -0.1855034646936725 
3.1000000000021175, -0.1977916888532659 
3.1100000000021386, -0.21995002976577616 
3.1200000000021597, -0.2565625953614321 
3.130000000002181, -0.30314242723171014 
3.140000000002202, -0.33255634607765194 
3.150000000002223, -0.31746231605784064 
3.160000000002244, -0.27339128371235766 
3.1700000000022652, -0.23257714730134543 
3.1800000000022863, -0.20612076749019076 
3.1900000000023074, -0.19097847566760917 
3.2000000000023285, -0.18250460528284426 
3.2100000000023496, -0.17768771498595787 
3.2200000000023707, -0.17488633764489106 
3.230000000002392, -0.17323786407314395 
3.240000000002413, -0.17228820112919016 
3.250000000002434, -0.1717992068099081 
3.260000000002455, -0.17165366214418804 
3.2700000000024763, -0.1718106210766296 
3.2800000000024974, -0.17228838845501998 
3.2900000000025185, -0.1731658035074898 
3.3000000000025396, -0.1746003243028305 
3.3100000000025607, -0.1768673499405799 
3.3200000000025818, -0.18043054222681995 
3.330000000002603, -0.1860527038880643 
3.340000000002624, -0.19492483199481522 
3.350000000002645, -0.20864672646784027 
3.360000000002666, -0.2285437477845988 
3.3700000000026873, -0.2537571981375967 
3.3800000000027084, -0.2796678329024927 
3.3900000000027295, -0.3005453035645867 
3.4000000000027506, -0.3142187940382311 
3.4100000000027717, -0.3221223707026593 
3.420000000002793, -0.32648819496762554 
3.430000000002814, -0.3289026177799892 
3.440000000002835, -0.3302496268613485 
3.450000000002856, -0.33098237282488696 
3.460000000002877, -0.3313277817420573 
3.4700000000028983, -0.33139689956302865 
3.4800000000029194, -0.33124004875980617 
3.4900000000029405, -0.330876669040994 
3.5000000000029616, -0.33031643472954375 
3.5100000000029827, -0.3295790463713478 
3.520000000003004, -0.32871163845565243 
3.530000000003025, -0.32779531572314224 
3.540000000003046, -0.3269329996291711 
3.550000000003067, -0.32622295612448104 
3.5600000000030882, -0.32573338778327904 
3.5700000000031094, -0.3254892351032289 
3.5800000000031305, -0.3254704708195597 
3.5900000000031516, -0.32561769287113695 
3.6000000000031727, -0.3258452166967628 
3.6100000000031938, -0.32606194318630843 
3.620000000003215, -0.32619284312834673 
3.630000000003236, -0.32618998772324337 
3.640000000003257, -0.32602894079219147 
3.650000000003278, -0.3256955234308764 
3.6600000000032993, -0.32516944246408197 
3.6700000000033204, -0.3244059228179923 
3.6800000000033415, -0.3233090251032997 
3.6900000000033626, -0.32168046704329184 
3.7000000000033837, -0.3191099895314231 
3.710000000003405, -0.3147460671941775 
3.720000000003426, -0.30690087908800934 
3.730000000003447, -0.29277186280608325 
3.740000000003468, -0.2696210050223754 
3.750000000003489, -0.2386723879083002 
3.7600000000035103, -0.20698561660370593 
3.7700000000035314, -0.18154830549180423 
3.7800000000035525, -0.1641152935647773 
3.7900000000035736, -0.15298192881918032 
3.8000000000035947, -0.14596150191750643 
3.810000000003616, -0.14146189361042402 
3.820000000003637, -0.13849854442006337 
3.830000000003658, -0.13649259574300138 
3.840000000003679, -0.13510873850391505 
3.8500000000037002, -0.13415714269803047 
3.8600000000037213, -0.1335400971362934 
3.8700000000037424, -0.1332267087780321 
3.8800000000037635, -0.1332475316348468 
3.8900000000037847, -0.13370870462777434 
3.9000000000038058, -0.13483365674087064 
3.910000000003827, -0.13705332756048777 
3.920000000003848, -0.14118605057095227 
3.930000000003869, -0.14875962784592592 
3.94000000000389, -0.16238463467151182 
3.9500000000039113, -0.18506428977938902 
3.9600000000039324, -0.21392166523490097 
3.9700000000039535, -0.22546078779138473 
3.9800000000039746, -0.18681925839176305 
3.9900000000039957, -0.11496075004826425 
4.000000000004016, -0.05612642030981109 
4.010000000003993, -0.022135656181416948 
4.02000000000397, -0.004332365243265657 
4.030000000003946, 0.004857719164413172 
4.040000000003923, 0.00969164914610672 
4.0500000000039, 0.012335275239236745 
4.0600000000038765, 0.013750586983508653 
4.070000000003853, 0.014409471194243881 
4.08000000000383, 0.01453576339185913 
4.090000000003807, 0.014208289459472195 
4.100000000003783, 0.01339432113901104 
4.11000000000376, 0.011935060097072254 
4.120000000003737, 0.009474051412027949 
4.130000000003713, 0.005282637994915649 
4.14000000000369, -0.002026706090828562 
4.150000000003667, -0.015256081796663462 
4.1600000000036434, -0.04037630176640119 
4.17000000000362, -0.08358529466301298 
4.180000000003597, -0.1342929436970918 
4.1900000000035735, -0.1458640882472894 
4.20000000000355, -0.09871194815083807 
4.210000000003527, -0.041012334260604216 
4.220000000003504, -0.003518677783838068 
4.23000000000348, 0.01617944947012507 
4.240000000003457, 0.026300371351892744 
4.250000000003434, 0.03164313340401614 
4.26000000000341, 0.034525381977412964 
4.270000000003387, 0.03605600713006927 
4.280000000003364, 0.03677305042266229 
4.2900000000033405, 0.03693138060188494 
4.300000000003317, 0.03662568253970886 
4.310000000003294, 0.03583278228102478 
4.320000000003271, 0.03440142690036145 
4.330000000003247, 0.031982951076859306 
4.340000000003224, 0.027856849122758792 
4.350000000003201, 0.02053558534576403 
4.360000000003177, 0.006937329834098971 
4.370000000003154, -0.018530414066578453 
4.380000000003131, -0.06298646595272142 
4.390000000003107, -0.11682823412592866 
4.400000000003084, -0.1318151058260924 
4.410000000003061, -0.08661569602547237 
4.4200000000030375, -0.030235676936397653 
4.430000000003014, 0.006224689969958684 
4.440000000002991, 0.025313359260069446 
4.450000000002968, 0.03513577648126221 
4.460000000002944, 0.040314407137261386 
4.470000000002921, 0.043102031228739825 
4.480000000002898, 0.044574282240817574 
4.490000000002874, 0.045251652801017915 
4.500000000002851, 0.04537866999924774 
4.510000000002828, 0.045042319370093814 
4.520000000002804, 0.04421115808377009 
4.530000000002781, 0.04272130646009589 
4.540000000002758, 0.04020025371451137 
4.5500000000027345, 0.03587772916425853 
4.560000000002711, 0.02815976953005377 
4.570000000002688, 0.013759542278770959 
4.580000000002665, -0.013199143462446624 
4.590000000002641, -0.0584091257991578 
4.600000000002618, -0.10632535858071943 
4.610000000002595, -0.10525614915776742 
4.620000000002571, -0.04867305524387421 
4.630000000002548, 0.00780716343910213 
4.640000000002525, 0.04100235030650983 
4.6500000000025015, 0.057954917240045166 
4.660000000002478, 0.06658094717976196 
4.670000000002455, 0.07111117898670141 
4.6800000000024315, 0.07353621303976464 
4.690000000002408, 0.07479373657377995 
4.700000000002385, 0.07533236175059753 
4.710000000002362, 0.07535554021915575 
4.720000000002338, 0.07492088495698933 
4.730000000002315, 0.07396638461030786 
4.740000000002292, 0.07228217157221625 
4.750000000002268, 0.06941066398790578 
4.760000000002245, 0.06441505067341803 
4.770000000002222, 0.05541100920331608 
4.7800000000021985, 0.03894754413217092 
4.790000000002175, 0.011362515534304575 
4.800000000002152, -0.017954983446225186 
4.810000000002129, -0.006178322643727737 
4.820000000002105, 0.06391594037669913 
4.830000000002082, 0.1320075999138186 
4.840000000002059, 0.16942944846552854 
4.850000000002035, 0.18702768932310357 
