t, s[1].omega / s[0].omega 
0, -1.6000497217719816 
0.009999999999999995, -1.6039814440667886 
0.019999999999999934, -1.6062521960741794 
0.029999999999999874, -1.6073923581444807 
0.04000000000000012, -1.6077873162425906 
0.050000000000000405, -1.6076898881533848 
0.06000000000000069, -1.607265952325487 
0.07000000000000098, -1.6066436734690364 
0.08000000000000126, -1.6059471188458017 
0.09000000000000155, -1.6052952699919945 
0.10000000000000184, -1.6047803452328124 
0.11000000000000212, -1.6044580483351847 
0.12000000000000241, -1.6043286397869223 
0.130000000000002, -1.6043069548774096 
0.1400000000000009, -1.6042465161073394 
0.1499999999999998, -1.6039937287755812 
0.1599999999999987, -1.603388172112449 
0.1699999999999976, -1.6021999317241746 
0.1799999999999965, -1.6000303690882638 
0.1899999999999954, -1.5961919999389491 
0.1999999999999943, -1.5896345802792922 
0.2099999999999932, -1.5792160548245207 
0.2199999999999921, -1.565026571059817 
0.229999999999991, -1.5507303372928676 
0.2399999999999899, -1.5425418144421739 
0.2499999999999888, -1.5420732225169096 
0.2599999999999877, -1.5450457219477576 
0.2699999999999866, -1.5478188387670424 
0.2799999999999855, -1.5494676115848967 
0.2899999999999844, -1.5501998416964948 
0.2999999999999833, -1.5503268172244586 
0.3099999999999822, -1.550035581806593 
0.3199999999999811, -1.5494225266110777 
0.32999999999998, -1.548610616361047 
0.3399999999999789, -1.5479440632542756 
0.3499999999999778, -1.5481005615304326 
0.35999999999997667, -1.5496821248310466 
0.36999999999997557, -1.5525077336459527 
0.37999999999997447, -1.5557434462671902 
0.38999999999997337, -1.5586586671920966 
0.39999999999997227, -1.5609332135046372 
0.40999999999997117, -1.5625232647239702 
0.41999999999997006, -1.5634931317964829 
0.42999999999996896, -1.563931022741001 
0.43999999999996786, -1.5639191334701747 
0.44999999999996676, -1.5635263109668753 
0.45999999999996566, -1.5628110247696498 
0.46999999999996456, -1.5618320317989 
0.47999999999996346, -1.5606642452497588 
0.48999999999996235, -1.5594163760669528 
0.49999999999996125, -1.5582475453139382 
0.5099999999999602, -1.5573517795677212 
0.519999999999959, -1.5568526688880748 
0.529999999999958, -1.556682611122653 
0.5399999999999568, -1.5566276061069304 
0.5499999999999557, -1.5564727726832759 
0.5599999999999546, -1.5560486559832492 
0.5699999999999535, -1.5551619084612205 
0.5799999999999524, -1.5534714493090682 
0.5899999999999513, -1.5503155692821617 
0.5999999999999502, -1.54450918629993 
0.6099999999999491, -1.5344209840161236 
0.619999999999948, -1.5194434543052462 
0.6299999999999469, -1.5037021261711099 
0.6399999999999458, -1.4961616218561002 
0.6499999999999447, -1.4999418315131454 
0.6599999999999436, -1.5082996810994675 
0.6699999999999425, -1.5151240465613596 
0.6799999999999414, -1.5191626149624073 
0.6899999999999403, -1.5211905991802683 
0.6999999999999392, -1.5220416781929702 
0.7099999999999381, -1.5222190075700894 
0.719999999999937, -1.5219811164566694 
0.7299999999999359, -1.5214749346402705 
0.7399999999999348, -1.520864790577599 
0.7499999999999337, -1.5204495761210954 
0.7599999999999326, -1.5206369462856602 
0.7699999999999315, -1.521648549418961 
0.7799999999999304, -1.5232780192580224 
0.7899999999999293, -1.52508553025954 
0.7999999999999282, -1.5267192885635643 
0.8099999999999271, -1.5280054562388605 
0.819999999999926, -1.5288880842265375 
0.8299999999999249, -1.5293644019338704 
0.8399999999999238, -1.5294496515798053 
0.8499999999999227, -1.5291620221078839 
0.8599999999999216, -1.528518103801529 
0.8699999999999205, -1.5275349412207402 
0.8799999999999194, -1.5262389715351796 
0.8899999999999183, -1.5246842390201256 
0.8999999999999172, -1.5229829954216658 
0.9099999999999161, -1.5213416527404817 
0.919999999999915, -1.5200440076860473 
0.9299999999999139, -1.519295783900795 
0.9399999999999128, -1.5190399773146899 
0.9499999999999117, -1.519009076092926 
0.9599999999999106, -1.5189360759329258 
0.9699999999999095, -1.5186401179337403 
0.9799999999999084, -1.5179618570975146 
0.9899999999999073, -1.5166465897481904 
0.9999999999999062, -1.5141968427720554 
1.0099999999999052, -1.5096905682018353 
1.019999999999904, -1.501750391491424 
1.029999999999903, -1.4894985820793636 
1.039999999999902, -1.4756756855124187 
1.0499999999999008, -1.4684428944003778 
1.0599999999998997, -1.4730309255401184 
1.0699999999998986, -1.4839527215116117 
1.0799999999998975, -1.4936234212448718 
1.0899999999998964, -1.499677846028311 
1.0999999999998953, -1.50288186681865 
1.1099999999998942, -1.504381800382808 
1.119999999999893, -1.5049311448787595 
1.129999999999892, -1.504931582500331 
1.1399999999998909, -1.5045896073815472 
1.1499999999998898, -1.5040497046524357 
1.1599999999998887, -1.5035124750453341 
1.1699999999998876, -1.5032971984420782 
1.1799999999998865, -1.5037165054457236 
1.1899999999998854, -1.5048075816221653 
1.1999999999998843, -1.5062872732545902 
1.2099999999998832, -1.5077990875964133 
1.219999999999882, -1.509102768091294 
1.229999999999881, -1.5100845350829522 
1.2399999999998799, -1.510704505949804 
1.2499999999998788, -1.5109558225633266 
1.2599999999998777, -1.5108431155038935 
1.2699999999998766, -1.510373248792952 
1.2799999999998755, -1.5095533993522046 
1.2899999999998744, -1.5083950435083924 
1.2999999999998733, -1.506925464976702 
1.3099999999998722, -1.5052103092500502 
1.319999999999871, -1.5033898999572202 
1.32999999999987, -1.5017105682638299 
1.3399999999998689, -1.5004710505101717 
1.3499999999998678, -1.499827127344098 
1.3599999999998666, -1.4996465075939118 
1.3699999999998655, -1.4996341145714127 
1.3799999999998644, -1.499538164879813 
1.3899999999998633, -1.4991932140253335 
1.3999999999998622, -1.4984377395310582 
1.4099999999998611, -1.496996110351948 
1.41999999999986, -1.4943308508035427 
1.429999999999859, -1.4894694080364068 
1.4399999999998578, -1.4810338224120063 
1.4499999999998567, -1.4683579333446497 
1.4599999999998556, -1.45463001295272 
1.4699999999998545, -1.4479776178469395 
1.4799999999998534, -1.4528096295670891 
1.4899999999998523, -1.4634248899799875 
1.4999999999998512, -1.472710070420967 
1.5099999999998501, -1.4785315310177278 
1.519999999999849, -1.4816291631410843 
1.529999999999848, -1.4830871350472228 
1.5399999999998468, -1.4836220407819425 
1.5499999999998457, -1.4836181982013326 
1.5599999999998446, -1.4832730068925455 
1.5699999999998435, -1.4827232530105092 
1.5799999999998424, -1.482162743533857 
1.5899999999998413, -1.4819180400831464 
1.5999999999998402, -1.4823425397235073 
1.6099999999998391, -1.4835263736767972 
1.619999999999838, -1.4851936471188942 
1.629999999999837, -1.4869453421653602 
1.6399999999998358, -1.4884949565586203 
1.6499999999998347, -1.4897041870543115 
1.6599999999998336, -1.490527359712188 
1.6699999999998325, -1.4909618615036957 
1.6799999999998314, -1.4910213860936368 
1.6899999999998303, -1.4907242533654161 
1.6999999999998292, -1.4900900039967095 
1.709999999999828, -1.4891415967532562 
1.719999999999827, -1.4879135504652061 
1.729999999999826, -1.486467037055275 
1.7399999999998248, -1.4849121446006623 
1.7499999999998237, -1.4834302256481566 
1.7599999999998226, -1.4822552335827008 
1.7699999999998215, -1.481555155904914 
1.7799999999998204, -1.4812895263009547 
1.7899999999998193, -1.4812377689142622 
1.7999999999998182, -1.481161636769422 
1.809999999999817, -1.480886889113007 
1.819999999999816, -1.4802598150774564 
1.8299999999998149, -1.4790496478188506 
1.8399999999998138, -1.4768213520169085 
1.8499999999998127, -1.4727685993181325 
1.8599999999998116, -1.4655862212613096 
1.8699999999998105, -1.453832386831266 
1.8799999999998094, -1.4377952121435067 
1.8899999999998083, -1.4224619291193574 
1.8999999999998072, -1.415530368452632 
1.909999999999806, -1.418429316817867 
1.919999999999805, -1.4252849429752381 
1.9299999999998039, -1.4311273715505137 
1.9399999999998028, -1.4347498623954074 
1.9499999999998017, -1.436651001006846 
1.9599999999998006, -1.437486590925801 
1.9699999999997995, -1.4376831928323512 
1.9799999999997984, -1.4374656690909702 
1.9899999999997973, -1.436950475088488 
1.9999999999997962, -1.4362504658680613 
2.0099999999998173, -1.4356111698904015 
2.0199999999998384, -1.4355152839440846 
2.0299999999998595, -1.4365144501652927 
2.0399999999998806, -1.4387475699952605 
2.0499999999999017, -1.4417477400041716 
2.059999999999923, -1.4448423383716713 
2.069999999999944, -1.447562895329284 
2.079999999999965, -1.4497101796053766 
2.089999999999986, -1.4512517035436387 
2.100000000000007, -1.452229463886646 
2.1100000000000283, -1.4527118177952558 
2.1200000000000494, -1.4527725715167086 
2.1300000000000705, -1.4524825387007483 
2.1400000000000916, -1.4519086723477836 
2.1500000000001127, -1.451120233366469 
2.160000000000134, -1.450198491685579 
2.170000000000155, -1.44924173228178 
2.180000000000176, -1.4483611490175439 
2.190000000000197, -1.4476675976973925 
2.2000000000002182, -1.447236503384041 
2.2100000000002393, -1.447054070082637 
2.2200000000002604, -1.447006279266811 
2.2300000000002815, -1.4469371729100111 
2.2400000000003026, -1.4467028041361096 
2.2500000000003237, -1.446165180246063 
2.260000000000345, -1.4451426020983 
2.270000000000366, -1.4433440864582727 
2.280000000000387, -1.4403032782820675 
2.290000000000408, -1.4353458100577146 
2.3000000000004293, -1.4276924713233394 
2.3100000000004504, -1.416907172899464 
2.3200000000004715, -1.403852577523093 
2.3300000000004926, -1.3914982675100693 
2.3400000000005137, -1.3835713079810033 
2.3500000000005348, -1.3811460322422264 
2.360000000000556, -1.382028366238918 
2.370000000000577, -1.3836910034298033 
2.380000000000598, -1.3849675970800819 
2.390000000000619, -1.385654953845505 
2.4000000000006403, -1.3858479157067716 
2.4100000000006614, -1.3856437350743813 
2.4200000000006825, -1.3850703343516892 
2.4300000000007036, -1.3840955239014827 
2.4400000000007247, -1.382706681517549 
2.450000000000746, -1.3811550209182222 
2.460000000000767, -1.380413004945902 
2.470000000000788, -1.3823097700766689 
2.480000000000809, -1.3882412006319185 
2.49000000000083, -1.397360580345705 
2.5000000000008513, -1.4071353327757157 
2.5100000000008724, -1.4154757936822329 
2.5200000000008935, -1.4216080813456098 
2.5300000000009146, -1.4256629323067143 
2.5400000000009357, -1.4281049304165574 
2.550000000000957, -1.4294126643400291 
2.560000000000978, -1.4299622235269331 
2.570000000000999, -1.4300137663560875 
2.58000000000102, -1.4297409049470553 
2.5900000000010412, -1.4292740992304105 
2.6000000000010624, -1.4287406217623597 
2.6100000000010835, -1.4282776370352004 
2.6200000000011046, -1.4280000484182787 
2.6300000000011257, -1.4279525676037468 
2.6400000000011468, -1.4281026284233873 
2.650000000001168, -1.4283708807801647 
2.660000000001189, -1.4286581393570568 
2.67000000000121, -1.428862653077124 
2.680000000001231, -1.4288928448435425 
2.6900000000012523, -1.4286685378075403 
2.7000000000012734, -1.4281119466406844 
2.7100000000012945, -1.4271392693277856 
2.7200000000013156, -1.4256600239777537 
2.7300000000013367, -1.4235852701132625 
2.740000000001358, -1.4208466286230703 
2.750000000001379, -1.4174367124766039 
2.7600000000014, -1.4134900049640238 
2.770000000001421, -1.4093983936953127 
2.780000000001442, -1.4058397837829697 
2.7900000000014633, -1.40348657242281 
2.8000000000014844, -1.402490236451318 
2.8100000000015055, -1.4023909090178484 
2.8200000000015266, -1.4025891449165244 
2.8300000000015477, -1.4027093201208332 
2.840000000001569, -1.4025895305733236 
2.85000000000159, -1.4021393010669014 
2.860000000001611, -1.4012229207065192 
2.870000000001632, -1.3995679512628105 
2.8800000000016532, -1.396681228386172 
2.8900000000016743, -1.3918680199655733 
2.9000000000016954, -1.3847699558486024 
2.9100000000017165, -1.3770676760256766 
2.9200000000017377, -1.3740662921160296 
2.9300000000017588, -1.3809314728502728 
2.94000000000178, -1.395419477607632 
2.950000000001801, -1.4101760565761103 
2.960000000001822, -1.420785172957157 
2.970000000001843, -1.4270856218275552 
2.9800000000018643, -1.430435442076201 
2.9900000000018854, -1.432053311724376 
3.0000000000019065, -1.4326954386119755 
3.0100000000019276, -1.4327713534289148 
3.0200000000019487, -1.4324968732198853 
3.03000000000197, -1.432012611667005 
3.040000000001991, -1.4314826276089205 
3.050000000002012, -1.4311595815354832 
3.060000000002033, -1.43133244336006 
3.070000000002054, -1.4321333115077042 
3.0800000000020753, -1.4334184237864978 
3.0900000000020964, -1.4348912864026673 
3.1000000000021175, -1.4362899044259037 
3.1100000000021386, -1.4374554247056648 
3.1200000000021597, -1.4383117620182848 
3.130000000002181, -1.4388305178141938 
3.140000000002202, -1.4390069522361593 
3.150000000002223, -1.438847190229661 
3.160000000002244, -1.438362902614221 
3.1700000000022652, -1.437570897275023 
3.1800000000022863, -1.4364971641601794 
3.1900000000023074, -1.4351861230381677 
3.2000000000023285, -1.4337150575979347 
3.2100000000023496, -1.43221145721675 
3.2200000000023707, -1.4308601417695619 
3.230000000002392, -1.4298600681491735 
3.240000000002413, -1.4293087840420475 
3.250000000002434, -1.429116670656617 
3.260000000002455, -1.4290720108791692 
3.2700000000024763, -1.428970331551862 
3.2800000000024974, -1.428658330125661 
3.2900000000025185, -1.427987041111327 
3.3000000000025396, -1.4267280282080006 
3.3100000000025607, -1.4244677752063928 
3.3200000000025818, -1.4204784303232054 
3.330000000002603, -1.4136302481492575 
3.340000000002624, -1.4026334429985967 
3.350000000002645, -1.387208551736284 
3.360000000002666, -1.3701929891424496 
3.3700000000026873, -1.3575957750702778 
3.3800000000027084, -1.3533685991097302 
3.3900000000027295, -1.3553719357148941 
3.4000000000027506, -1.3591320086455494 
3.4100000000027717, -1.3621654709448587 
3.420000000002793, -1.3640119926426162 
3.430000000002814, -1.3649323036868233 
3.440000000002835, -1.3652314605061808 
3.450000000002856, -1.3650991277825635 
3.460000000002877, -1.3646201586295517 
3.4700000000028983, -1.3638269074204064 
3.4800000000029194, -1.3627993364751467 
3.4900000000029405, -1.3618644746413688 
3.5000000000029616, -1.3618290935442503 
3.5100000000029827, -1.363812232961717 
3.520000000003004, -1.3683347386710012 
3.530000000003025, -1.3746264067291052 
3.540000000003046, -1.3812319061445488 
3.550000000003067, -1.387021687663964 
3.5600000000030882, -1.3915147209874852 
3.5700000000031094, -1.394687952007946 
3.5800000000031305, -1.3967306265419848 
3.5900000000031516, -1.3978915648942445 
3.6000000000031727, -1.398403393678405 
3.6100000000031938, -1.3984530454028328 
3.620000000003215, -1.398181514805247 
3.630000000003236, -1.3977020253659451 
3.640000000003257, -1.3971244178827027 
3.650000000003278, -1.396566969284525 
3.6600000000032993, -1.3961386808208025 
3.6700000000033204, -1.3959043943110756 
3.6800000000033415, -1.3958689974014182 
3.6900000000033626, -1.3959870139500947 
3.7000000000033837, -1.3961768166499158 
3.710000000003405, -1.3963376360384188 
3.720000000003426, -1.3963699043531999 
3.730000000003447, -1.3961842972840497 
3.740000000003468, -1.3956950000064499 
3.750000000003489, -1.3948088673949537 
3.7600000000035103, -1.3934217782905463 
3.7700000000035314, -1.3914258291873138 
3.7800000000035525, -1.388727523552196 
3.7900000000035736, -1.3852818732921723 
3.8000000000035947, -1.3811575944325472 
3.810000000003616, -1.376644019372493 
3.820000000003637, -1.3723400811238737 
3.830000000003658, -1.3690240766671402 
3.840000000003679, -1.3671798330162728 
3.8500000000037002, -1.3666154041584249 
3.8600000000037213, -1.3667111535968701 
3.8700000000037424, -1.3669288593896458 
3.8800000000037635, -1.3669926564074162 
3.8900000000037847, -1.3667888622607396 
3.9000000000038058, -1.36623013186433 
3.910000000003827, -1.3651573877837397 
3.920000000003848, -1.3632544583085136 
3.930000000003869, -1.359967033200271 
3.94000000000389, -1.3545449248401487 
3.9500000000039113, -1.3466414036408614 
3.9600000000039324, -1.3380241689223573 
3.9700000000039535, -1.3339412776267976 
3.9800000000039746, -1.3393793034176649 
3.9900000000039957, -1.3524044138243307 
4.000000000004016, -1.366186419577358 
4.010000000003993, -1.3763528364497326 
4.02000000000397, -1.382509804738808 
4.030000000003946, -1.385836774776193 
4.040000000003923, -1.387471284276409 
4.0500000000039, -1.3881397165727616 
4.0600000000038765, -1.3882403585266174 
4.070000000003853, -1.3879804854626463 
4.08000000000383, -1.3874861716899 
4.090000000003807, -1.386900409789588 
4.100000000003783, -1.3864740462816678 
4.11000000000376, -1.386571410185517 
4.120000000003737, -1.3874819465037669 
4.130000000003713, -1.3891705738473574 
4.14000000000369, -1.3912936583745632 
4.150000000003667, -1.3934521685887247 
4.1600000000036434, -1.395371090160141 
4.17000000000362, -1.3969151956675558 
4.180000000003597, -1.3980397073648547 
4.1900000000035735, -1.3987467991640232 
4.20000000000355, -1.3990611542274698 
4.210000000003527, -1.3990183925131028 
4.220000000003504, -1.3986599939112874 
4.23000000000348, -1.398032336725294 
4.240000000003457, -1.3971902059970236 
4.250000000003434, -1.3962036802027975 
4.26000000000341, -1.3951632630981987 
4.270000000003387, -1.3941781773849613 
4.280000000003364, -1.3933648351849448 
4.2900000000033405, -1.3928151041386934 
4.300000000003317, -1.392543546650351 
4.310000000003294, -1.392462140617209 
4.320000000003271, -1.3924233336321672 
4.330000000003247, -1.3922819615194586 
4.340000000003224, -1.3919104191012805 
4.350000000003201, -1.3911668415978384 
4.360000000003177, -1.3898450123385695 
4.370000000003154, -1.3876245529054319 
4.380000000003131, -1.3840400620633584 
4.390000000003107, -1.3785135627627187 
4.400000000003084, -1.3705382449137384 
4.410000000003061, -1.3601243020450497 
4.4200000000030375, -1.3484558709608367 
4.430000000003014, -1.33808869871735 
4.440000000002991, -1.331584760971114 
4.450000000002968, -1.3293711681611888 
4.460000000002944, -1.329748050861428 
4.470000000002921, -1.3308607612651073 
4.480000000002898, -1.3317803325384818 
4.490000000002874, -1.3322762039132823 
4.500000000002851, -1.3323687956745762 
4.510000000002828, -1.332098344102843 
4.520000000002804, -1.331447492451394 
4.530000000002781, -1.3303230994413213 
4.540000000002758, -1.328585971716668 
4.5500000000027345, -1.3262239698170994 
4.560000000002711, -1.3238627997529675 
4.570000000002688, -1.323514190636404 
4.580000000002665, -1.328209395001465 
4.590000000002641, -1.3391488776711722 
4.600000000002618, -1.353568152988257 
4.610000000002595, -1.3671613402319789 
4.620000000002571, -1.3774415857773479 
4.630000000002548, -1.3841656685878694 
4.640000000002525, -1.388140373192995 
4.6500000000025015, -1.390289512675057 
4.660000000002478, -1.3913096499004012 
4.670000000002455, -1.3916438790749512 
4.6800000000024315, -1.3915538383969228 
4.690000000002408, -1.391201387482274 
4.700000000002385, -1.3907205242275413 
4.710000000002362, -1.3902708140903992 
4.720000000002338, -1.3900399584900627 
4.730000000002315, -1.3901687564938408 
4.740000000002292, -1.3906631702672774 
4.750000000002268, -1.3914019142460274 
4.760000000002245, -1.3922217712015186 
4.770000000002222, -1.3929825218155005 
4.7800000000021985, -1.3935838512019563 
4.790000000002175, -1.3939599485603902 
4.800000000002152, -1.3940692613638554 
4.810000000002129, -1.3938851231244167 
4.820000000002105, -1.393389853296179 
4.830000000002082, -1.3925727648217807 
4.840000000002059, -1.3914316947304504 
4.850000000002035, -1.3899788615716029 
4.860000000002012, -1.3882532323220722 
4.870000000001989, -1.3863413788009598 
4.880000000001965, -1.384403458667096 
4.890000000001942, -1.3826794292355924 
4.900000000001919, -1.3814200783627522 
4.9100000000018955, -1.3807352745222226 
4.920000000001872, -1.380504725623316 
4.930000000001849, -1.3804753962353753 
4.940000000001826, -1.3804176187096375 
