t, s[1].omega / s[0].omega 
0, -0.5799829894920968 
0.009999999999999995, -0.5783341765722183 
0.019999999999999934, -0.5768189205774907 
0.029999999999999874, -0.5754567192359861 
0.04000000000000012, -0.5742440551179199 
0.050000000000000405, -0.5731684262301557 
0.06000000000000069, -0.5722188728084934 
0.07000000000000098, -0.5713919246471922 
0.08000000000000126, -0.5706942192832971 
0.09000000000000155, -0.5701434929440187 
0.10000000000000184, -0.5697691602321691 
0.11000000000000212, -0.569613082622524 
0.12000000000000241, -0.5697307551279713 
0.130000000000002, -0.570193012715244 
0.1400000000000009, -0.5710882684914176 
0.1499999999999998, -0.5725249305832465 
0.1599999999999987, -0.5746325670679268 
0.1699999999999976, -0.5775580197509615 
0.1799999999999965, -0.5814485773058302 
0.1899999999999954, -0.5864096818626102 
0.1999999999999943, -0.5924261426688197 
0.2099999999999932, -0.5992594139320142 
0.2199999999999921, -0.6063896016496467 
0.229999999999991, -0.6131099780968385 
0.2399999999999899, -0.6187882638869702 
0.2499999999999888, -0.623112953563816 
0.2599999999999877, -0.6261271542128383 
0.2699999999999866, -0.6280784372380499 
0.2799999999999855, -0.629251938532035 
0.2899999999999844, -0.6298804543028835 
0.2999999999999833, -0.630122284478078 
0.3099999999999822, -0.6300686945594121 
0.3199999999999811, -0.6297556823325537 
0.32999999999998, -0.6291695493810878 
0.3399999999999789, -0.628242745371756 
0.3499999999999778, -0.626838682698577 
0.35999999999997667, -0.6247269417276831 
0.36999999999997557, -0.6215604914078027 
0.37999999999997447, -0.6168925283543117 
0.38999999999997337, -0.6103038521217998 
0.39999999999997227, -0.6016826888449225 
0.40999999999997117, -0.59151192397 
0.41999999999997006, -0.5808334245919435 
0.42999999999996896, -0.5707988526132804 
0.43999999999996786, -0.5621945153357737 
0.44999999999996676, -0.5553013955572649 
0.45999999999996566, -0.5500362569748332 
0.46999999999996456, -0.5461490912931833 
0.47999999999996346, -0.5433565573732413 
0.48999999999996235, -0.5414038059207984 
0.49999999999996125, -0.5400830335690439 
0.5099999999999602, -0.5392328072140349 
0.519999999999959, -0.5387311352960877 
0.529999999999958, -0.5384877788549366 
0.5399999999999568, -0.5384376426196278 
0.5499999999999557, -0.5385356522225189 
0.5599999999999546, -0.5387530828317851 
0.5699999999999535, -0.539075165362783 
0.5799999999999524, -0.5394995801691269 
0.5899999999999513, -0.5400349698624758 
0.5999999999999502, -0.5406979363462032 
0.6099999999999491, -0.5415065993056265 
0.619999999999948, -0.5424694841190234 
0.6299999999999469, -0.5435710452711552 
0.6399999999999458, -0.5447595531375871 
0.6499999999999447, -0.5459469906834677 
0.6599999999999436, -0.5470278904266352 
0.6699999999999425, -0.5479109645710907 
0.6799999999999414, -0.5485444244429052 
0.6899999999999403, -0.548919984744538 
0.6999999999999392, -0.5490582768802607 
0.7099999999999381, -0.5489891077386467 
0.719999999999937, -0.5487364041463596 
0.7299999999999359, -0.548309523975483 
0.7399999999999348, -0.5476980044401769 
0.7499999999999337, -0.5468658144778498 
0.7599999999999326, -0.5457409258963081 
0.7699999999999315, -0.5441943701830974 
0.7799999999999304, -0.5419990358903319 
0.7899999999999293, -0.5387552469245408 
0.7999999999999282, -0.53378661180951 
0.8099999999999271, -0.5261009604236764 
0.819999999999926, -0.514706486297184 
0.8299999999999249, -0.4995328067376141 
0.8399999999999238, -0.48227219517053477 
0.8499999999999227, -0.4657305170812851 
0.8599999999999216, -0.45207110174771115 
0.8699999999999205, -0.44194852075014807 
0.8799999999999194, -0.4349447674243878 
0.8899999999999183, -0.4302890534222635 
0.8999999999999172, -0.4272661819053022 
0.9099999999999161, -0.42533713994400957 
0.919999999999915, -0.42413077204506305 
0.9299999999999139, -0.423402188071251 
0.9399999999999128, -0.42299341997025375 
0.9499999999999117, -0.4228044555364163 
0.9599999999999106, -0.4227739571609953 
0.9699999999999095, -0.4228672295649291 
0.9799999999999084, -0.4230692826388405 
0.9899999999999073, -0.42338136334172766 
0.9999999999999062, -0.42381953793370697 
1.0099999999999052, -0.4244136564872429 
1.019999999999904, -0.42520444789474776 
1.029999999999903, -0.4262359443925822 
1.039999999999902, -0.4275405808824025 
1.0499999999999008, -0.42911654201098826 
1.0599999999998997, -0.43090351421687856 
1.0699999999998986, -0.4327732698573038 
1.0799999999998975, -0.4345538564359419 
1.0899999999998964, -0.43608478208299556 
1.0999999999998953, -0.43726872111212495 
1.1099999999998942, -0.4380851156084896 
1.119999999999893, -0.4385665984273027 
1.129999999999892, -0.4387643783794141 
1.1399999999998909, -0.43872242495234887 
1.1499999999998898, -0.43846360094002595 
1.1599999999998887, -0.4379821944150556 
1.1699999999998876, -0.43723658173602586 
1.1799999999998865, -0.43613785780521247 
1.1899999999998854, -0.43453376379592445 
1.1999999999998843, -0.43219537627729715 
1.2099999999998832, -0.4288321763509293 
1.219999999999882, -0.42418310834036105 
1.229999999999881, -0.4182085984888492 
1.2399999999998799, -0.4112766253198198 
1.2499999999998788, -0.40411336898611455 
1.2599999999998777, -0.39747471918624716 
1.2699999999998766, -0.3918308274090154 
1.2799999999998755, -0.38730411228801975 
1.2899999999998744, -0.3837923111375583 
1.2999999999998733, -0.38110943501150174 
1.3099999999998722, -0.3790703940899633 
1.319999999999871, -0.3775244265142633 
1.32999999999987, -0.3763612360433749 
1.3399999999998689, -0.3755068780355877 
1.3499999999998678, -0.3749177677144715 
1.3599999999998666, -0.3745761664218846 
1.3699999999998655, -0.3744883242603725 
1.3799999999998644, -0.37468577220483096 
1.3899999999998633, -0.3752302454184612 
1.3999999999998622, -0.3762229185688959 
1.4099999999998611, -0.37781858178903915 
1.41999999999986, -0.3802441220539727 
1.429999999999859, -0.3838158526593537 
1.4399999999998578, -0.38893704041694444 
1.4499999999998567, -0.3960302392034642 
1.4599999999998556, -0.40533179080840787 
1.4699999999998545, -0.4165282083261353 
1.4799999999998534, -0.42847309605606654 
1.4899999999998523, -0.4394838956813641 
1.4999999999998512, -0.44824217411023615 
1.5099999999998501, -0.45441147320111713 
1.519999999999849, -0.4584196998380111 
1.529999999999848, -0.46091229897663 
1.5399999999998468, -0.4624258555779234 
1.5499999999998457, -0.4633188283725616 
1.5599999999998446, -0.46380783741727705 
1.5699999999998435, -0.46401628457264116 
1.5799999999998424, -0.46400895821160876 
1.5899999999998413, -0.46381254341478845 
1.5999999999998402, -0.4634274468456998 
1.6099999999998391, -0.4628363907055367 
1.619999999999838, -0.46201476504756445 
1.629999999999837, -0.4609464047673761 
1.6399999999998358, -0.45964373500426003 
1.6499999999998347, -0.4581627943311838 
1.6599999999998336, -0.45659930483314976 
1.6699999999998325, -0.4550623354015402 
1.6799999999998314, -0.4536408590431372 
1.6899999999998303, -0.4523835945080187 
1.6999999999998292, -0.4512989743838455 
1.709999999999828, -0.45036801629319756 
1.719999999999827, -0.4495599992172569 
1.729999999999826, -0.44884485502752486 
1.7399999999998248, -0.4482005105750268 
1.7499999999998237, -0.4476160931927339 
1.7599999999998226, -0.4470931141307798 
1.7699999999998215, -0.4466468530628613 
1.7799999999998204, -0.44630976343021145 
1.7899999999998193, -0.4461384402663923 
1.7999999999998182, -0.44622587715993883 
1.809999999999817, -0.4467213303935399 
1.819999999999816, -0.4478605579559063 
1.8299999999998149, -0.45000773450766224 
1.8399999999998138, -0.4537018230959509 
1.8499999999998127, -0.4596725648239602 
1.8599999999998116, -0.46872843986213564 
1.8699999999998105, -0.4813474627627909 
1.8799999999998094, -0.49692820010289906 
1.8899999999998083, -0.5133032922373622 
1.8999999999998072, -0.5276117232762467 
1.909999999999806, -0.5381454207107561 
1.919999999999805, -0.5450298428118505 
1.9299999999998039, -0.5493089125413777 
1.9399999999998028, -0.5519765601440411 
1.9499999999998017, -0.5536786085511677 
1.9599999999998006, -0.5547810822947249 
1.9699999999997995, -0.5554872905047069 
1.9799999999997984, -0.555913093521553 
1.9899999999997973, -0.5561251686683384 
1.9999999999997962, -0.55615913794669 
2.0099999999998173, -0.5560281442769863 
2.0199999999998384, -0.5557273762908305 
2.0299999999998595, -0.5552380377150519 
2.0399999999998806, -0.5545339972224491 
2.0499999999999017, -0.5535939123275442 
2.059999999999923, -0.5524184702899572 
2.069999999999944, -0.5510456047831205 
2.079999999999965, -0.5495515585279225 
2.089999999999986, -0.5480319819991661 
2.100000000000007, -0.546573030469992 
2.1100000000000283, -0.5452303019986773 
2.1200000000000494, -0.5440248192704038 
2.1300000000000705, -0.5429522304554345 
2.1400000000000916, -0.541996381315447 
2.1500000000001127, -0.5411408014378549 
2.160000000000134, -0.5403758568325145 
2.170000000000155, -0.5397022654225098 
2.180000000000176, -0.5391328094810642 
2.190000000000197, -0.5386939268212347 
2.2000000000002182, -0.5384282256300408 
2.2100000000002393, -0.538398433173997 
2.2200000000002604, -0.5386930289157321 
2.2300000000002815, -0.5394336905525415 
2.2400000000003026, -0.5407843480573046 
2.2500000000003237, -0.5429604335136683 
2.260000000000345, -0.5462335793177288 
2.270000000000366, -0.5509196108583551 
2.280000000000387, -0.5573251991887634 
2.290000000000408, -0.5656185333259136 
2.3000000000004293, -0.5756142126372682 
2.3100000000004504, -0.5865739086503339 
2.3200000000004715, -0.5972734162240292 
2.3300000000004926, -0.6064815599176495 
2.3400000000005137, -0.6135229517297638 
2.3500000000005348, -0.61841839731595 
2.360000000000556, -0.6215976417948125 
2.370000000000577, -0.623562168466633 
2.380000000000598, -0.6247145114526204 
2.390000000000619, -0.62532684743388 
2.4000000000006403, -0.6255644538932793 
2.4100000000006614, -0.6255152987309643 
2.4200000000006825, -0.625210028327434 
2.4300000000007036, -0.6246303731911425 
2.4400000000007247, -0.623707639544795 
2.450000000000746, -0.622314693370399 
2.460000000000767, -0.6202598568014566 
2.470000000000788, -0.6173023992324188 
2.480000000000809, -0.6132205744984368 
2.49000000000083, -0.6079454090672938 
2.5000000000008513, -0.601695997843417 
2.5100000000008724, -0.5949798831386581 
2.5200000000008935, -0.5884079117903697 
2.5300000000009146, -0.5824645155736338 
2.5400000000009357, -0.5774006700021997 
2.550000000000957, -0.5732647809666231 
2.560000000000978, -0.5699870457891378 
2.570000000000999, -0.5674511821802319 
2.58000000000102, -0.5655356782870655 
2.5900000000010412, -0.5641314309800549 
2.6000000000010624, -0.5631465425740745 
2.6100000000010835, -0.5625057698380169 
2.6200000000011046, -0.5621485223684461 
2.6300000000011257, -0.5620270186140675 
2.6400000000011468, -0.5621050583794643 
2.650000000001168, -0.5623574061877902 
2.660000000001189, -0.5627696252260147 
2.67000000000121, -0.5633380698578118 
2.680000000001231, -0.5640694178514992 
2.6900000000012523, -0.564978521027853 
2.7000000000012734, -0.5660827068964123 
2.7100000000012945, -0.5673906980358321 
2.7200000000013156, -0.5688862371822699 
2.7300000000013367, -0.5705113879823706 
2.740000000001358, -0.5721609331423131 
2.750000000001379, -0.5737000186764847 
2.7600000000014, -0.575003355498193 
2.770000000001421, -0.575993428414346 
2.780000000001442, -0.5766528655361385 
2.7900000000014633, -0.5770085562788595 
2.8000000000014844, -0.5771048891349697 
2.8100000000015055, -0.5769821660502414 
2.8200000000015266, -0.5766645755129276 
2.8300000000015477, -0.5761543976298208 
2.840000000001569, -0.575427465397933 
2.85000000000159, -0.5744254424459299 
2.860000000001611, -0.5730401862385689 
2.870000000001632, -0.5710831909117072 
2.8800000000016532, -0.5682299135522583 
2.8900000000016743, -0.5639340692104874 
2.9000000000016954, -0.557354861098983 
2.9100000000017165, -0.5474824770945625 
2.9200000000017377, -0.5337669179862495 
2.9300000000017588, -0.5170880924780521 
2.94000000000178, -0.49987365703074216 
2.950000000001801, -0.48471103132651655 
2.960000000001822, -0.4729436728187138 
2.970000000001843, -0.46457562545093145 
2.9800000000018643, -0.4589432031513666 
2.9900000000018854, -0.4552787523062962 
3.0000000000019065, -0.4529505217072817 
3.0100000000019276, -0.45150431548275094 
3.0200000000019487, -0.450633587662447 
3.03000000000197, -0.4501378815826692 
3.040000000001991, -0.44988853944256385 
3.050000000002012, -0.4498044957730204 
3.060000000002033, -0.4498364313122057 
3.070000000002054, -0.449957032587637 
3.0800000000020753, -0.4501555451459403 
3.0900000000020964, -0.45043517287043144 
3.1000000000021175, -0.45081183259939694 
3.1100000000021386, -0.4513123573596542 
3.1200000000021597, -0.4519698359017201 
3.130000000002181, -0.45281399892799384 
3.140000000002202, -0.45385606919833926 
3.150000000002223, -0.455071052484288 
3.160000000002244, -0.45638617731642855 
3.1700000000022652, -0.4576879190280385 
3.1800000000022863, -0.45885244408659975 
3.1900000000023074, -0.45978481209253885 
3.2000000000023285, -0.4604415643118573 
3.2100000000023496, -0.46082567410371106 
3.2200000000023707, -0.4609647778538239 
3.230000000002392, -0.4608890244384691 
3.240000000002413, -0.4606159853717302 
3.250000000002434, -0.4601411791781236 
3.260000000002455, -0.4594293146617529 
3.2700000000024763, -0.4584010206174149 
3.2800000000024974, -0.45691022272136966 
3.2900000000025185, -0.4547097392787404 
3.3000000000025396, -0.4514148029477966 
3.3100000000025607, -0.44651114575639095 
3.3200000000025818, -0.4395123658251028 
3.330000000002603, -0.430340689020673 
3.340000000002624, -0.4197019985776488 
3.350000000002645, -0.40893670809217475 
3.360000000002666, -0.3993165360143718 
3.3700000000026873, -0.39149266789912757 
3.3800000000027084, -0.38550331085479833 
3.3900000000027295, -0.38106728513271654 
3.4000000000027506, -0.3778307787519202 
3.4100000000027717, -0.3754837884717904 
3.420000000002793, -0.3737907198244365 
3.430000000002814, -0.3725851785008546 
3.440000000002835, -0.371755592294629 
3.450000000002856, -0.37123186701114885 
3.460000000002877, -0.3709758655794006 
3.4700000000028983, -0.3709759357521473 
3.4800000000029194, -0.3712451371806796 
3.4900000000029405, -0.371822901940092 
3.5000000000029616, -0.3727800046828425 
3.5100000000029827, -0.3742264738194309 
3.520000000003004, -0.3763207083730721 
3.530000000003025, -0.3792740808302284 
3.540000000003046, -0.38333636466818855 
3.550000000003067, -0.38873323368705615 
3.5600000000030882, -0.3955224988367712 
3.5700000000031094, -0.4033888838003657 
3.5800000000031305, -0.4115435140676483 
3.5900000000031516, -0.41896410397070405 
3.6000000000031727, -0.42489673437511355 
3.6100000000031938, -0.4291524141550941 
3.620000000003215, -0.4319760335854902 
3.630000000003236, -0.4337524297931991 
3.640000000003257, -0.4348184269184735 
3.650000000003278, -0.4354099503328787 
3.6600000000032993, -0.43567350951354716 
3.6700000000033204, -0.4356909265240227 
3.6800000000033415, -0.43549908014679123 
3.6900000000033626, -0.4351025316188977 
3.7000000000033837, -0.4344821736254671 
3.710000000003405, -0.43360479840587446 
3.720000000003426, -0.4324388487062441 
3.730000000003447, -0.4309784394117777 
3.740000000003468, -0.4292681284422968 
3.750000000003489, -0.42741015112778447 
3.7600000000035103, -0.4255404947730247 
3.7700000000035314, -0.4237849871162084 
3.7800000000035525, -0.4222244062498751 
3.7900000000035736, -0.4208861080007408 
3.8000000000035947, -0.41975680214951117 
3.810000000003616, -0.4188021350647733 
3.820000000003637, -0.4179832947409567 
3.830000000003658, -0.41726750092706527 
3.840000000003679, -0.41663304277853574 
3.8500000000037002, -0.41607101077354997 
3.8600000000037213, -0.4155861246561795 
3.8700000000037424, -0.4151987160596341 
3.8800000000037635, -0.41494954355843 
3.8900000000037847, -0.4149091271628299 
3.9000000000038058, -0.4151938105690145 
3.910000000003827, -0.4159915192565755 
3.920000000003848, -0.417600032734544 
3.930000000003869, -0.4204757724099566 
3.94000000000389, -0.42527131430114523 
3.9500000000039113, -0.43278525278560487 
3.9600000000039324, -0.4436553420174885 
3.9700000000039535, -0.45763999500168034 
3.9800000000039746, -0.4728733796544523 
3.9900000000039957, -0.486360409355743 
4.000000000004016, -0.496012650552866 
4.010000000003993, -0.5018694629313385 
4.02000000000397, -0.5051800788100432 
4.030000000003946, -0.5071105963373603 
4.040000000003923, -0.5083357671576766 
4.0500000000039, -0.5091704263043615 
4.0600000000038765, -0.509753300560772 
4.070000000003853, -0.5101500383675537 
4.08000000000383, -0.5103959143243548 
4.090000000003807, -0.5105108590625912 
4.100000000003783, -0.510504263773232 
4.11000000000376, -0.5103767616375638 
4.120000000003737, -0.5101220111351861 
4.130000000003713, -0.5097302794502065 
4.14000000000369, -0.5091950307700975 
4.150000000003667, -0.5085220858232042 
4.1600000000036434, -0.5077376808033073 
4.17000000000362, -0.5068892240078685 
4.180000000003597, -0.5060351083977903 
4.1900000000035735, -0.5052276599276181 
4.20000000000355, -0.5044987425883364 
4.210000000003527, -0.5038549692996459 
4.220000000003504, -0.503282652106184 
4.23000000000348, -0.5027580321538967 
4.240000000003457, -0.5022575912888907 
4.250000000003434, -0.5017649980024756 
4.26000000000341, -0.5012740235728658 
4.270000000003387, -0.5007890647087035 
4.280000000003364, -0.5003257134601551 
4.2900000000033405, -0.49991345240908985 
4.300000000003317, -0.4996020483819802 
4.310000000003294, -0.4994732173533777 
4.320000000003271, -0.4996596377385716 
4.330000000003247, -0.5003738664635666 
4.340000000003224, -0.5019486800054503 
4.350000000003201, -0.5048837872151593 
4.360000000003177, -0.509872340703247 
4.370000000003154, -0.5177304465494663 
4.380000000003131, -0.5290857802100851 
4.390000000003107, -0.5437358278285923 
4.400000000003084, -0.5600464774125131 
4.410000000003061, -0.5753490232438756 
4.4200000000030375, -0.5875086724334627 
4.430000000003014, -0.5960200929683097 
4.440000000002991, -0.6015766274289973 
4.450000000002968, -0.6051272069106605 
4.460000000002944, -0.6074008395695463 
4.470000000002921, -0.6088598563034893 
4.480000000002898, -0.6097816601478939 
4.490000000002874, -0.6103320631256117 
4.500000000002851, -0.6106092788946433 
4.510000000002828, -0.6106673805516897 
4.520000000002804, -0.6105281327701609 
4.530000000002781, -0.6101865538502174 
4.540000000002758, -0.6096138674106648 
4.5500000000027345, -0.6087618540270818 
4.560000000002711, -0.6075739715361892 
4.570000000002688, -0.6060080225356362 
4.580000000002665, -0.6040677190885412 
4.590000000002641, -0.6018263189204467 
4.600000000002618, -0.5994197048692218 
4.610000000002595, -0.5970058726392081 
4.620000000002571, -0.594717076116036 
4.630000000002548, -0.592633996289859 
4.640000000002525, -0.5907879708831658 
4.6500000000025015, -0.5891783564868203 
4.660000000002478, -0.5877909702446992 
4.670000000002455, -0.5866109259283983 
4.6800000000024315, -0.5856292486321084 
4.690000000002408, -0.5848451274610981 
4.700000000002385, -0.5842658452332335 
4.710000000002362, -0.583905811554528 
4.720000000002338, -0.5837855337431718 
4.730000000002315, -0.5839310080642399 
4.740000000002292, -0.5843738135741291 
4.750000000002268, -0.5851519689031222 
4.760000000002245, -0.586311197992429 
4.770000000002222, -0.5879054712053069 
4.7800000000021985, -0.5899943737470839 
4.790000000002175, -0.5926330449798961 
4.800000000002152, -0.5958491089929806 
4.810000000002129, -0.599603513316296 
4.820000000002105, -0.6037445396038256 
4.830000000002082, -0.6079875485970057 
4.840000000002059, -0.6119643754942028 
4.850000000002035, -0.6153441678569487 
4.860000000002012, -0.617949180504595 
4.870000000001989, -0.6197799801333962 
4.880000000001965, -0.6209525051566618 
4.890000000001942, -0.6216154695989633 
4.900000000001919, -0.6218970917190318 
