t, s[1].omega / s[0].omega 
0, -1.0199974927758875 
0.009999999999999995, -1.0196596431257758 
0.019999999999999934, -1.01914654190179 
0.029999999999999874, -1.0184545373144875 
0.04000000000000012, -1.0175895970577018 
0.050000000000000405, -1.016577518605383 
0.06000000000000069, -1.0154694987528496 
0.07000000000000098, -1.014341526601468 
0.08000000000000126, -1.013286268434881 
0.09000000000000155, -1.0123973745189214 
0.10000000000000184, -1.0117511787453901 
0.11000000000000212, -1.011393264486151 
0.12000000000000241, -1.0113318668842106 
0.130000000000002, -1.011535164884017 
0.1400000000000009, -1.0119336752752026 
0.1499999999999998, -1.012432574006089 
0.1599999999999987, -1.0129319529491407 
0.1699999999999976, -1.013345560015566 
0.1799999999999965, -1.0136114669430525 
0.1899999999999954, -1.0136950848658264 
0.1999999999999943, -1.013586531853644 
0.2099999999999932, -1.0132926078103983 
0.2199999999999921, -1.0128251584632644 
0.229999999999991, -1.0121917041785327 
0.2399999999999899, -1.011394353953592 
0.2499999999999888, -1.0104374479280107 
0.2599999999999877, -1.0093386703094802 
0.2699999999999866, -1.0081376201359502 
0.2799999999999855, -1.0068984974952784 
0.2899999999999844, -1.0057053969179561 
0.2999999999999833, -1.004649995903134 
0.3099999999999822, -1.003814973383733 
0.3199999999999811, -1.0032592915765712 
0.32999999999998, -1.0030082341607958 
0.3399999999999789, -1.003046709945493 
0.3499999999999778, -1.003317436600084 
0.35999999999997667, -1.0037299886492472 
0.36999999999997557, -1.0041807758240542 
0.37999999999997447, -1.0045743917258674 
0.38999999999997337, -1.0048374062430556 
0.39999999999997227, -1.0049237683612888 
0.40999999999997117, -1.004814646727196 
0.41999999999997006, -1.004513198815168 
0.42999999999996896, -1.0040340212030985 
0.43999999999996786, -1.0033911776793158 
0.44999999999996676, -1.0025919491002715 
0.45999999999996566, -1.0016402472694343 
0.46999999999996456, -1.000546859648227 
0.47999999999996346, -0.9993400815134723 
0.48999999999996235, -0.9980717301325166 
0.49999999999996125, -0.9968162275668331 
0.5099999999999602, -0.9956619293984021 
0.519999999999959, -0.9946962860452222 
0.529999999999958, -0.9939899387344928 
0.5399999999999568, -0.9935844674328823 
0.5499999999999557, -0.9934839639778903 
0.5599999999999546, -0.993650280597677 
0.5699999999999535, -0.9940067350061278 
0.5799999999999524, -0.9944538598981825 
0.5899999999999513, -0.994891285509815 
0.5999999999999502, -0.9952353480800727 
0.6099999999999491, -0.995427973934211 
0.619999999999948, -0.995438800407174 
0.6299999999999469, -0.9952622515382845 
0.6399999999999458, -0.994909066911603 
0.6499999999999447, -0.9943940219409336 
0.6599999999999436, -0.9937261796513182 
0.6699999999999425, -0.9929079161302263 
0.6799999999999414, -0.991942961292285 
0.6899999999999403, -0.99084789007025 
0.6999999999999392, -0.989660894511808 
0.7099999999999381, -0.9884445599969572 
0.719999999999937, -0.9872813305323052 
0.7299999999999359, -0.9862614372455527 
0.7399999999999348, -0.9854662414726797 
0.7499999999999337, -0.9849530753379454 
0.7599999999999326, -0.9847454529872527 
0.7699999999999315, -0.9848279291085432 
0.7799999999999304, -0.9851459298592965 
0.7899999999999293, -0.9856144680611733 
0.7999999999999282, -0.9861360310710384 
0.8099999999999271, -0.9866202742416869 
0.819999999999926, -0.9869976140429464 
0.8299999999999249, -0.987224853332002 
0.8399999999999238, -0.9872844666443964 
0.8499999999999227, -0.9871781757805184 
0.8599999999999216, -0.9869157027412587 
0.8699999999999205, -0.9865033931301764 
0.8799999999999194, -0.985939606414926 
0.8899999999999183, -0.9852199308271758 
0.8999999999999172, -0.9843485287939461 
0.9099999999999161, -0.9833488721927887 
0.919999999999915, -0.9822695173318317 
0.9299999999999139, -0.9811836730643623 
0.9399999999999128, -0.9801816150387432 
0.9499999999999117, -0.9793556017734162 
0.9599999999999106, -0.9787812687593691 
0.9699999999999095, -0.9785030341701181 
0.9799999999999084, -0.9785276121986951 
0.9899999999999073, -0.9788238649883905 
0.9999999999999062, -0.9793275833049905 
1.0099999999999052, -0.9799528751459068 
1.019999999999904, -0.9806091907917343 
1.029999999999903, -0.981217869596509 
1.039999999999902, -0.9817224913217624 
1.0499999999999008, -0.9820916153294258 
1.0599999999998997, -0.9823146742779957 
1.0699999999998986, -0.982392232274642 
1.0799999999998975, -0.9823241856111986 
1.0899999999998964, -0.9821024430220081 
1.0999999999998953, -0.9817132044348028 
1.1099999999998942, -0.9811475810781928 
1.119999999999893, -0.9804138288487718 
1.129999999999892, -0.9795452661566995 
1.1399999999998909, -0.9786026120429733 
1.1499999999998898, -0.9776711615576394 
1.1599999999998887, -0.9768510153919353 
1.1699999999998876, -0.9762390099423646 
1.1799999999998865, -0.9759074036411087 
1.1899999999998854, -0.9758892908887427 
1.1999999999998843, -0.9761758722978092 
1.2099999999998832, -0.976722147210272 
1.219999999999882, -0.9774565495237968 
1.229999999999881, -0.978293913895541 
1.2399999999998799, -0.979150792115939 
1.2499999999998788, -0.9799588045828705 
1.2599999999998777, -0.9806717110674137 
1.2699999999998766, -0.9812647234988319 
1.2799999999998755, -0.981726872693695 
1.2899999999998744, -0.9820494747115464 
1.2999999999998733, -0.9822167114696874 
1.3099999999998722, -0.9822048525694944 
1.319999999999871, -0.981991646897786 
1.32999999999987, -0.981570046877296 
1.3399999999998689, -0.9809582442550154 
1.3499999999998678, -0.9802032118023829 
1.3599999999998666, -0.979380144443075 
1.3699999999998655, -0.9785885494608008 
1.3799999999998644, -0.9779408733505027 
1.3899999999998633, -0.9775408798998413 
1.3999999999998622, -0.9774586773011643 
1.4099999999998611, -0.9777158910014092 
1.41999999999986, -0.9782872927605702 
1.429999999999859, -0.9791129374860496 
1.4399999999998578, -0.9801126941075028 
1.4499999999998567, -0.9812005847339359 
1.4599999999998556, -0.982298315288032 
1.4699999999998545, -0.9833452360312418 
1.4799999999998534, -0.9843015275175543 
1.4899999999998523, -0.9851435942634148 
1.4999999999998512, -0.9858536249226584 
1.5099999999998501, -0.9864086171028352 
1.519999999999849, -0.9867762147912388 
1.529999999999848, -0.9869218073395271 
1.5399999999998468, -0.9868233386350329 
1.5499999999998457, -0.9864842958385339 
1.5599999999998446, -0.9859386361141247 
1.5699999999998435, -0.9852499245280928 
1.5799999999998424, -0.9845095245267328 
1.5899999999998413, -0.98383249987363 
1.5999999999998402, -0.9833437995767351 
1.6099999999998391, -0.9831517101426436 
1.619999999999838, -0.9833193946796772 
1.629999999999837, -0.9838519117234046 
1.6399999999998358, -0.9847041907486752 
1.6499999999998347, -0.9857998151821143 
1.6599999999998336, -0.9870494457525384 
1.6699999999998325, -0.988365698002167 
1.6799999999998314, -0.9896745238766042 
1.6899999999998303, -0.9909213964866732 
1.6999999999998292, -0.9920701476151561 
1.709999999999828, -0.9930946566635341 
1.719999999999827, -0.9939672750925499 
1.729999999999826, -0.9946511937396744 
1.7399999999998248, -0.9951035789793975 
1.7499999999998237, -0.9952895516579272 
1.7599999999998226, -0.9951981887866845 
1.7699999999998215, -0.9948506357993369 
1.7799999999998204, -0.9942993505699914 
1.7899999999998193, -0.993625199685348 
1.7999999999998182, -0.9929360856381507 
1.809999999999817, -0.9923612769113168 
1.819999999999816, -0.9920319053213104 
1.8299999999998149, -0.9920485844627808 
1.8399999999998138, -0.9924536559149635 
1.8499999999998127, -0.9932262425252045 
1.8599999999998116, -0.9942990893166106 
1.8699999999998105, -0.9955818130693042 
1.8799999999998094, -0.9969798276003881 
1.8899999999998083, -0.9984077784813249 
1.8999999999998072, -0.9997981097056768 
1.909999999999806, -1.001103288497757 
1.919999999999805, -1.002290559221879 
1.9299999999998039, -1.0033312174002382 
1.9399999999998028, -1.0041903168769883 
1.9499999999998017, -1.004824587704882 
1.9599999999998006, -1.0051924264168743 
1.9699999999997995, -1.0052706166198928 
1.9799999999997984, -1.0050666242099746 
1.9899999999997973, -1.0046207284535964 
1.9999999999997962, -1.0040026613846946 
2.0099999999998173, -1.0033095807575716 
2.0199999999998384, -1.0026638778325767 
2.0299999999998595, -1.0022009163693097 
2.0399999999998806, -1.002040654918053 
2.0499999999999017, -1.0022541656901756 
2.059999999999923, -1.0028470136832632 
2.069999999999944, -1.0037685258587676 
2.079999999999965, -1.004934799614165 
2.089999999999986, -1.0062501846858403 
2.100000000000007, -1.0076228137572778 
2.1100000000000283, -1.0089754941648905 
2.1200000000000494, -1.0102513881707291 
2.1300000000000705, -1.0114125944922843 
2.1400000000000916, -1.0124318621306925 
2.1500000000001127, -1.0132814083101607 
2.160000000000134, -1.0139259517652495 
2.170000000000155, -1.0143262828878226 
2.180000000000176, -1.0144528059225923 
2.190000000000197, -1.014300267799829 
2.2000000000002182, -1.0138947715445235 
2.2100000000002393, -1.0132929842827372 
2.2200000000002604, -1.0125797333993192 
2.2300000000002815, -1.011865911082193 
2.2400000000003026, -1.0112796644175044 
2.2500000000003237, -1.0109431610005826 
2.260000000000345, -1.0109406314745586 
2.270000000000366, -1.0112971518776033 
2.280000000000387, -1.0119809542928593 
2.290000000000408, -1.0129217037979177 
2.3000000000004293, -1.0140301255434523 
2.3100000000004504, -1.0152136067083382 
2.3200000000004715, -1.0163889948029354 
2.3300000000004926, -1.0174918375646225 
2.3400000000005137, -1.018479223468546 
2.3500000000005348, -1.0193250883087437 
2.360000000000556, -1.0200101353009539 
2.370000000000577, -1.0205118160358027 
2.380000000000598, -1.020801290911128 
2.390000000000619, -1.020850802030329 
2.4000000000006403, -1.0206472304680752 
2.4100000000006614, -1.0202031074993763 
2.4200000000006825, -1.0195605251185558 
2.4300000000007036, -1.0187905226684895 
2.4400000000007247, -1.0179907015942102 
2.450000000000746, -1.0172773249984046 
2.460000000000767, -1.0167657888518298 
2.470000000000788, -1.0165428330937931 
2.480000000000809, -1.0166458479986036 
2.49000000000083, -1.017060847543642 
2.5000000000008513, -1.0177342436549535 
2.5100000000008724, -1.0185872702292504 
2.5200000000008935, -1.0195296525693736 
2.5300000000009146, -1.0204738686387567 
2.5400000000009357, -1.0213479273211563 
2.550000000000957, -1.022102353649747 
2.560000000000978, -1.0227094032778485 
2.570000000000999, -1.0231555164365875 
2.58000000000102, -1.0234305280077731 
2.5900000000010412, -1.0235196284496935 
2.6000000000010624, -1.0234037757745484 
2.6100000000010835, -1.0230689587002042 
2.6200000000011046, -1.0225183235668058 
2.6300000000011257, -1.021780487621708 
2.6400000000011468, -1.0209123623851604 
2.650000000001168, -1.0199977637504427 
2.660000000001189, -1.0191402031068018 
2.67000000000121, -1.0184462240215044 
2.680000000001231, -1.0180019694246003 
2.6900000000012523, -1.0178544924163841 
2.7000000000012734, -1.018006562406065 
2.7100000000012945, -1.0184216043183205 
2.7200000000013156, -1.0190318126396363 
2.7300000000013367, -1.0197492438183555 
2.740000000001358, -1.0204814947865397 
2.750000000001379, -1.0211478872937922 
2.7600000000014, -1.0216900315347301 
2.770000000001421, -1.0220744994215003 
2.780000000001442, -1.022288451964592 
2.7900000000014633, -1.0223300813578535 
2.8000000000014844, -1.0221978820182496 
2.8100000000015055, -1.0218849549747577 
2.8200000000015266, -1.0213823845050254 
2.8300000000015477, -1.0206895161431357 
2.840000000001569, -1.0198247494350314 
2.85000000000159, -1.0188320563318014 
2.860000000001611, -1.0177819937960475 
2.870000000001632, -1.0167662255798682 
2.8800000000016532, -1.01588377385833 
2.8900000000016743, -1.015221310828792 
2.9000000000016954, -1.0148359237857671 
2.9100000000017165, -1.014746825921049 
2.9200000000017377, -1.0149339794270453 
2.9300000000017588, -1.0153402615713236 
2.94000000000178, -1.015879902504472 
2.950000000001801, -1.0164553013286697 
2.960000000001822, -1.016976302520189 
2.970000000001843, -1.0173737865649959 
2.9800000000018643, -1.0176050661950264 
2.9900000000018854, -1.017652594091395 
3.0000000000019065, -1.0175170211472515 
3.0100000000019276, -1.0172061880732592 
3.0200000000019487, -1.0167251019051697 
3.03000000000197, -1.0160731732134751 
3.040000000001991, -1.0152505063026667 
3.050000000002012, -1.014268872404641 
3.060000000002033, -1.0131611416179331 
3.070000000002054, -1.0119854707876432 
3.0800000000020753, -1.0108226837066867 
3.0900000000020964, -1.009765803085321 
3.1000000000021175, -1.0089034060109285 
3.1100000000021386, -1.008303001943236 
3.1200000000021597, -1.0079999006690508 
3.130000000002181, -1.0079909399370002 
3.140000000002202, -1.0082316936676325 
3.150000000002223, -1.0086415475191248 
3.160000000002244, -1.009120102357034 
3.1700000000022652, -1.0095687375508076 
3.1800000000022863, -1.0099072054398026 
3.1900000000023074, -1.0100814831062028 
3.2000000000023285, -1.0100650006530976 
3.2100000000023496, -1.0098546928258163 
3.2200000000023707, -1.009461680882509 
3.230000000002392, -1.0088992955850362 
3.240000000002413, -1.0081751111410924 
3.250000000002434, -1.0072921466433276 
3.260000000002455, -1.006257982389573 
3.2700000000024763, -1.0050957728615584 
3.2800000000024974, -1.00385159219175 
3.2900000000025185, -1.0025953096642386 
3.3000000000025396, -1.0014137848056224 
3.3100000000025607, -1.0003970638960924 
3.3200000000025818, -0.9996220157058843 
3.330000000002603, -0.9991389648138159 
3.340000000002624, -0.9989625142733476 
3.350000000002645, -0.99906546988906 
3.360000000002666, -0.9993795570838051 
3.3700000000026873, -0.9998082582695133 
3.3800000000027084, -1.0002484478360074 
3.3900000000027295, -1.0006101127022238 
3.4000000000027506, -1.0008274704423568 
3.4100000000027717, -1.0008625449112711 
3.420000000002793, -1.0007036699970862 
3.430000000002814, -1.0003586643865767 
3.440000000002835, -0.999843191172616 
3.450000000002856, -0.9991695656223345 
3.460000000002877, -0.9983430055914269 
3.4700000000028983, -0.9973674901716981 
3.4800000000029194, -0.9962568516057008 
3.4900000000029405, -0.9950446070078781 
3.5000000000029616, -0.9937883418281496 
3.5100000000029827, -0.9925668752252278 
3.520000000003004, -0.9914697549487008 
3.530000000003025, -0.9905814565990204 
3.540000000003046, -0.9899658993757056 
3.550000000003067, -0.9896553653168161 
3.5600000000030882, -0.9896434158522018 
3.5700000000031094, -0.9898822573746492 
3.5800000000031305, -0.9902893398524335 
3.5900000000031516, -0.9907648626194091 
3.6000000000031727, -0.991212886938537 
3.6100000000031938, -0.9915567735603835 
3.620000000003215, -0.9917462221443697 
3.630000000003236, -0.9917579921685391 
3.640000000003257, -0.9915912949134061 
3.650000000003278, -0.9912577468371648 
3.6600000000032993, -0.9907691358102235 
3.6700000000033204, -0.9901299399405382 
3.6800000000033415, -0.9893394542015133 
3.6900000000033626, -0.9884017185603676 
3.7000000000033837, -0.9873368692412975 
3.710000000003405, -0.986188481606134 
3.720000000003426, -0.9850246199432757 
3.730000000003447, -0.9839315699670437 
3.740000000003468, -0.983000159897862 
3.750000000003489, -0.9823082657673847 
3.7600000000035103, -0.9819061494067063 
3.7700000000035314, -0.9818082788475022 
3.7800000000035525, -0.9819904127263808 
3.7900000000035736, -0.9823918769549587 
3.8000000000035947, -0.9829260329512255 
3.810000000003616, -0.9834981812288004 
3.820000000003637, -0.9840237595933607 
3.830000000003658, -0.9844401607935332 
3.840000000003679, -0.9847108532573015 
3.8500000000037002, -0.9848230116179766 
3.8600000000037213, -0.9847793231990508 
3.8700000000037424, -0.9845861047992452 
3.8800000000037635, -0.9842435601398238 
3.8900000000037847, -0.9837444520349717 
3.9000000000038058, -0.9830821610847783 
3.910000000003827, -0.9822627793182073 
3.920000000003848, -0.9813146650968386 
3.930000000003869, -0.9802924882112268 
3.94000000000389, -0.979275358514646 
3.9500000000039113, -0.978357851802599 
3.9600000000039324, -0.9776333793459997 
3.9700000000039535, -0.9771745727084968 
3.9800000000039746, -0.9770191492549756 
3.9900000000039957, -0.9771654015321806 
4.000000000004016, -0.9775747130412882 
4.010000000003993, -0.9781786202229321 
4.02000000000397, -0.9788911660898145 
4.030000000003946, -0.9796253006962905 
4.040000000003923, -0.9803078797542444 
4.0500000000039, -0.9808883384142959 
4.0600000000038765, -0.9813397189297746 
4.070000000003853, -0.9816527466050698 
4.08000000000383, -0.9818249369775804 
4.090000000003807, -0.9818495909388858 
4.100000000003783, -0.9817114379277823 
4.11000000000376, -0.9813924482028423 
4.120000000003737, -0.9808842858085702 
4.130000000003713, -0.9801998149216313 
4.14000000000369, -0.9793790118376807 
4.150000000003667, -0.978489737353033 
4.1600000000036434, -0.9776240394254794 
4.17000000000362, -0.9768872683440056 
4.180000000003597, -0.9763782563973427 
4.1900000000035735, -0.9761666602728187 
4.20000000000355, -0.976278824476031 
4.210000000003527, -0.9766973650857677 
4.220000000003504, -0.977369788450321 
4.23000000000348, -0.9782203066396755 
4.240000000003457, -0.9791634960916014 
4.250000000003434, -0.9801188467792622 
4.26000000000341, -0.9810224922321563 
4.270000000003387, -0.9818323644512631 
4.280000000003364, -0.9825255277665403 
4.2900000000033405, -0.9830889833606478 
4.300000000003317, -0.9835080801687118 
4.310000000003294, -0.983759353520916 
4.320000000003271, -0.9838135281064098 
4.330000000003247, -0.9836478369528268 
4.340000000003224, -0.9832598314510944 
4.350000000003201, -0.9826751843053154 
4.360000000003177, -0.9819490231005614 
4.370000000003154, -0.9811645150413258 
4.380000000003131, -0.9804285943989669 
4.390000000003107, -0.9798592332394181 
4.400000000003084, -0.9795614996413121 
4.410000000003061, -0.9796012152013167 
4.4200000000030375, -0.9799913441855813 
4.430000000003014, -0.9806967556128936 
4.440000000002991, -0.9816494346656387 
4.450000000002968, -0.9827648088269194 
4.460000000002944, -0.9839564020203506 
4.470000000002921, -0.9851484058543962 
4.480000000002898, -0.9862838227078163 
4.490000000002874, -0.987325476166051 
4.500000000002851, -0.9882494398973466 
4.510000000002828, -0.9890337600072394 
4.520000000002804, -0.9896487996563922 
4.530000000002781, -0.9900565364979435 
4.540000000002758, -0.9902213133719022 
4.5500000000027345, -0.9901257661305448 
4.560000000002711, -0.989781757234073 
4.570000000002688, -0.9892324168947975 
4.580000000002665, -0.9885499903909208 
4.590000000002641, -0.9878341043059825 
4.600000000002618, -0.9872069906914365 
4.610000000002595, -0.9867970281574557 
4.620000000002571, -0.9867092738703207 
4.630000000002548, -0.9869970531395674 
4.640000000002525, -0.9876526786910313 
4.6500000000025015, -0.9886198214824257 
4.660000000002478, -0.9898147128183379 
4.670000000002455, -0.9911450269770862 
4.6800000000024315, -0.9925241812750446 
4.690000000002408, -0.9938813819441703 
4.700000000002385, -0.9951658194981695 
4.710000000002362, -0.9963433506222642 
4.720000000002338, -0.9973867388086538 
4.730000000002315, -0.9982644104521413 
4.740000000002292, -0.9989354380880141 
4.750000000002268, -0.99935635424107 
4.760000000002245, -0.9994971014604065 
4.770000000002222, -0.9993556139432124 
4.7800000000021985, -0.9989627966207419 
4.790000000002175, -0.9983800108214529 
4.800000000002152, -0.9976964399686172 
4.810000000002129, -0.9970277007823358 
4.820000000002105, -0.9965074868836626 
4.830000000002082, -0.9962636213827559 
4.840000000002059, -0.996384077157793 
4.850000000002035, -0.9968935973485659 
4.860000000002012, -0.9977557617453895 
4.870000000001989, -0.9988937601102421 
4.880000000001965, -1.000213486278734 
4.890000000001942, -1.0016209568521421 
4.900000000001919, -1.0030344229814268 
4.9100000000018955, -1.004391430293719 
4.920000000001872, -1.0056491160045133 
4.930000000001849, -1.0067772332071825 
