t, s[1].omega / s[0].omega 
0, -0.6599977069409289 
0.009999999999999995, -0.6597654768074149 
0.019999999999999934, -0.6595217601801757 
0.029999999999999874, -0.6592525144299796 
0.04000000000000012, -0.6589423695582723 
0.050000000000000405, -0.6585815585107525 
0.06000000000000069, -0.6581697185484431 
0.07000000000000098, -0.657716551855893 
0.08000000000000126, -0.6572415254829791 
0.09000000000000155, -0.6567749090936683 
0.10000000000000184, -0.6563613705310369 
0.11000000000000212, -0.6560662519404405 
0.12000000000000241, -0.6559838788875392 
0.130000000000002, -0.6562465983454193 
0.1400000000000009, -0.6570324461842971 
0.1499999999999998, -0.6585681913204076 
0.1599999999999987, -0.6611225323752217 
0.1699999999999976, -0.6649806811634036 
0.1799999999999965, -0.6703867305218959 
0.1899999999999954, -0.6774396818969327 
0.1999999999999943, -0.6859497371783656 
0.2099999999999932, -0.695323342944896 
0.2199999999999921, -0.7046166467961515 
0.229999999999991, -0.7128413003398243 
0.2399999999999899, -0.7193587155499133 
0.2499999999999888, -0.7240506560758264 
0.2599999999999877, -0.727180004838358 
0.2699999999999866, -0.7291416640964922 
0.2799999999999855, -0.7302930617920331 
0.2899999999999844, -0.7308952202575925 
0.2999999999999833, -0.731115362630288 
0.3099999999999822, -0.7310469035624819 
0.3199999999999811, -0.7307263558159579 
0.32999999999998, -0.73014092631755 
0.3399999999999789, -0.7292253258897988 
0.3499999999999778, -0.7278468179574769 
0.35999999999997667, -0.7257780278063246 
0.36999999999997557, -0.7226626872003656 
0.37999999999997447, -0.7179993688554784 
0.38999999999997337, -0.7112093120477821 
0.39999999999997227, -0.7018831854450316 
0.40999999999997117, -0.6901945127371703 
0.41999999999997006, -0.6771658749440713 
0.42999999999996896, -0.6643773036835976 
0.43999999999996786, -0.6532450264710474 
0.44999999999996676, -0.644500358526815 
0.45999999999996566, -0.6381821509588624 
0.46999999999996456, -0.6339208484309056 
0.47999999999996346, -0.6312168563813455 
0.48999999999996235, -0.6296023543187675 
0.49999999999996125, -0.6287035577473646 
0.5099999999999602, -0.6282478829429017 
0.519999999999959, -0.6280482524631468 
0.529999999999958, -0.6279815581238853 
0.5399999999999568, -0.6279687379495379 
0.5499999999999557, -0.627959091413811 
0.5599999999999546, -0.6279193472671346 
0.5699999999999535, -0.62782726034434 
0.5799999999999524, -0.6276692524869129 
0.5899999999999513, -0.6274411102163229 
0.5999999999999502, -0.6271496664919759 
0.6099999999999491, -0.6268123986488634 
0.619999999999948, -0.6264526180978607 
0.6299999999999469, -0.6260910709970859 
0.6399999999999458, -0.625738084416588 
0.6499999999999447, -0.6253906983981328 
0.6599999999999436, -0.6250361523872915 
0.6699999999999425, -0.624659264840496 
0.6799999999999414, -0.6242495309640124 
0.6899999999999403, -0.6238051302400625 
0.6999999999999392, -0.6233339345517748 
0.7099999999999381, -0.6228535742587702 
0.719999999999937, -0.6223927227411785 
0.7299999999999359, -0.6219948543100322 
0.7399999999999348, -0.62172485719234 
0.7499999999999337, -0.6216783282093907 
0.7599999999999326, -0.6219928852193334 
0.7699999999999315, -0.6228600045606382 
0.7799999999999304, -0.6245341790193893 
0.7899999999999293, -0.6273326433702183 
0.7999999999999282, -0.6316122267634519 
0.8099999999999271, -0.6377004630146198 
0.819999999999926, -0.6457551626385395 
0.8299999999999249, -0.6555591272403419 
0.8399999999999238, -0.6663577476134096 
0.8499999999999227, -0.6769540714344806 
0.8599999999999216, -0.6861566844955644 
0.8699999999999205, -0.6932859960436116 
0.8799999999999194, -0.6983140466175984 
0.8899999999999183, -0.7016211737844278 
0.8999999999999172, -0.7036847795525704 
0.9099999999999161, -0.7049051612856602 
0.919999999999915, -0.7055622655721578 
0.9299999999999139, -0.7058314070939056 
0.9399999999999128, -0.7058100804202195 
0.9499999999999117, -0.705537809399791 
0.9599999999999106, -0.7050051312305733 
0.9699999999999095, -0.7041517259138895 
0.9799999999999084, -0.7028542235976825 
0.9899999999999073, -0.7009060466728965 
0.9999999999999062, -0.6979998517032542 
1.0099999999999052, -0.6937430528142964 
1.019999999999904, -0.6877609309172259 
1.029999999999903, -0.6799204231716361 
1.039999999999902, -0.670574483095131 
1.0499999999999008, -0.6605806528750512 
1.0599999999998997, -0.6509815947339577 
1.0699999999998986, -0.6425913962924391 
1.0799999999998975, -0.6357991143073888 
1.0899999999998964, -0.6306249378356199 
1.0999999999998953, -0.6268757837191943 
1.1099999999998942, -0.6242789619986293 
1.119999999999893, -0.6225609811273969 
1.129999999999892, -0.6214832664832911 
1.1399999999998909, -0.6208532233090834 
1.1499999999998898, -0.6205233045480985 
1.1599999999998887, -0.620384932886558 
1.1699999999998876, -0.6203607540650837 
1.1799999999998865, -0.6203970831177792 
1.1899999999998854, -0.6204576334097391 
1.1999999999998843, -0.6205191452886737 
1.2099999999998832, -0.6205690386318736 
1.219999999999882, -0.6206044808037142 
1.229999999999881, -0.6206313459983092 
1.2399999999998799, -0.6206611014849183 
1.2499999999998788, -0.6207046603671469 
1.2599999999998777, -0.6207647170798501 
1.2699999999998766, -0.620830349753113 
1.2799999999998755, -0.6208775743148673 
1.2899999999998744, -0.6208764313857497 
1.2999999999998733, -0.6208009379586175 
1.3099999999998722, -0.620636419185798 
1.319999999999871, -0.6203812539080438 
1.32999999999987, -0.6200444170843673 
1.3399999999998689, -0.6196424551984777 
1.3499999999998678, -0.6191989434539849 
1.3599999999998666, -0.6187480314162948 
1.3699999999998655, -0.6183429671831158 
1.3799999999998644, -0.6180705822924444 
1.3899999999998633, -0.6180728862969795 
1.3999999999998622, -0.618576075701349 
1.4099999999998611, -0.6199236367507083 
1.41999999999986, -0.6226006105491264 
1.429999999999859, -0.6272161439535389 
1.4399999999998578, -0.6343825049999301 
1.4499999999998567, -0.6444223791948442 
1.4599999999998556, -0.6569442291234653 
1.4699999999998545, -0.6706046289957565 
1.4799999999998534, -0.683509469889863 
1.4899999999998523, -0.6941413132476053 
1.4999999999998512, -0.7019729388412822 
1.5099999999998501, -0.7073061458498773 
1.519999999999849, -0.7107635393822525 
1.529999999999848, -0.7129329468742223 
1.5399999999998468, -0.7142490580076226 
1.5499999999998457, -0.7149988242179275 
1.5599999999998446, -0.7153590467132 
1.5699999999998435, -0.715429870836612 
1.5799999999998424, -0.715256235144429 
1.5899999999998413, -0.7148379647108996 
1.5999999999998402, -0.714130506932695 
1.6099999999998391, -0.7130384956780822 
1.619999999999838, -0.7114066560375405 
1.629999999999837, -0.7090197042774797 
1.6399999999998358, -0.7056344302483712 
1.6499999999998347, -0.7010695697177194 
1.6599999999998336, -0.6953420145810736 
1.6699999999998325, -0.6887606607076218 
1.6799999999998314, -0.6818692314576518 
1.6899999999998303, -0.6752523655246803 
1.6999999999998292, -0.669350106648454 
1.709999999999828, -0.6643892121392087 
1.719999999999827, -0.6604164447709775 
1.729999999999826, -0.6573663348271495 
1.7399999999998248, -0.6551187911814752 
1.7499999999998237, -0.6535355107966444 
1.7599999999998226, -0.6524799025679657 
1.7699999999998215, -0.6518273860938152 
1.7799999999998204, -0.6514704946385902 
1.7899999999998193, -0.6513208443927831 
1.7999999999998182, -0.6513088854271515 
1.809999999999817, -0.6513821337889109 
1.819999999999816, -0.6515027079219162 
1.8299999999998149, -0.6516450123658591 
1.8399999999998138, -0.6517940925902694 
1.8499999999998127, -0.651944462218054 
1.8599999999998116, -0.6520983064339231 
1.8699999999998105, -0.6522616077393709 
1.8799999999998094, -0.6524377772068591 
1.8899999999998083, -0.6526206986125409 
1.8999999999998072, -0.6527910190953661 
1.909999999999806, -0.6529188988939101 
1.919999999999805, -0.6529727428660658 
1.9299999999998039, -0.6529291725132804 
1.9399999999998028, -0.6527787332985178 
1.9499999999998017, -0.6525255780673842 
1.9599999999998006, -0.6521837984599894 
1.9699999999997995, -0.6517744539375947 
1.9799999999997984, -0.651326061923118 
1.9899999999997973, -0.6508797713125318 
1.9999999999997962, -0.6504998495544034 
2.0099999999998173, -0.6502901114582216 
2.0199999999998384, -0.6504165503692805 
2.0299999999998595, -0.6511345777434929 
2.0399999999998806, -0.6528144258406987 
2.0499999999999017, -0.6559482414191475 
2.059999999999923, -0.661105531168521 
2.069999999999944, -0.6687860185914285 
2.079999999999965, -0.6791336283284976 
2.089999999999986, -0.6915909725412814 
2.100000000000007, -0.7047903520884603 
2.1100000000000283, -0.716998461249452 
2.1200000000000494, -0.7269184517272427 
2.1300000000000705, -0.7341546226530176 
2.1400000000000916, -0.7390320264916672 
2.1500000000001127, -0.7421476867761669 
2.160000000000134, -0.744058204969572 
2.170000000000155, -0.7451733705662815 
2.180000000000176, -0.7457609369139065 
2.190000000000197, -0.7459817597401442 
2.2000000000002182, -0.7459211147655503 
2.2100000000002393, -0.7456077864334552 
2.2200000000002604, -0.7450208282313853 
2.2300000000002815, -0.7440850227480116 
2.2400000000003026, -0.7426559865498606 
2.2500000000003237, -0.7404986277344487 
2.260000000000345, -0.7372734164752451 
2.270000000000366, -0.7325675333495132 
2.280000000000387, -0.7260272579013571 
2.290000000000408, -0.7176044206601826 
2.3000000000004293, -0.7077770106224153 
2.3100000000004504, -0.6974976363876747 
2.3200000000004715, -0.6878271921687383 
2.3300000000004926, -0.679540010947673 
2.3400000000005137, -0.672970308183763 
2.3500000000005348, -0.6680903910447312 
2.360000000000556, -0.664668010117091 
2.370000000000577, -0.662397444253647 
2.380000000000598, -0.6609782791960692 
2.390000000000619, -0.6601527002107248 
2.4000000000006403, -0.6597173566646397 
2.4100000000006614, -0.6595214499294342 
2.4200000000006825, -0.659458283962288 
2.4300000000007036, -0.6594547259112992 
2.4400000000007247, -0.6594613009897099 
2.450000000000746, -0.6594445035165147 
2.460000000000767, -0.6593821093348324 
2.470000000000788, -0.6592615454155261 
2.480000000000809, -0.6590803569515626 
2.49000000000083, -0.6588465651440034 
2.5000000000008513, -0.6585762498983823 
2.5100000000008724, -0.6582873322013051 
2.5200000000008935, -0.6579917838860732 
2.5300000000009146, -0.6576905649638675 
2.5400000000009357, -0.6573743068607045 
2.550000000000957, -0.6570291054627275 
2.560000000000978, -0.6566438014625952 
2.570000000000999, -0.6562151028010128 
2.58000000000102, -0.6557494517521174 
2.5900000000010412, -0.6552631373999802 
2.6000000000010624, -0.654782929715476 
2.6100000000010835, -0.654348736734357 
2.6200000000011046, -0.6540186518958849 
2.6300000000011257, -0.6538758976191192 
2.6400000000011468, -0.6540365466296099 
2.650000000001168, -0.6546563031619088 
2.660000000001189, -0.6559338624771706 
2.67000000000121, -0.658107070593396 
2.680000000001231, -0.6614355515897574 
2.6900000000012523, -0.6661592605566977 
2.7000000000012734, -0.6724193541344359 
2.7100000000012945, -0.6801372530001775 
2.7200000000013156, -0.6888897153643752 
2.7300000000013367, -0.6978884845152721 
2.740000000001358, -0.7061812831434996 
2.750000000001379, -0.7130179423777675 
2.7600000000014, -0.7181107780266858 
2.770000000001421, -0.7216006678269299 
2.780000000001442, -0.7238372428859534 
2.7900000000014633, -0.7251820566770101 
2.8000000000014844, -0.7259176307046331 
2.8100000000015055, -0.7262333923199318 
2.8200000000015266, -0.7262410547447669 
2.8300000000015477, -0.7259923046028749 
2.840000000001569, -0.7254889614356517 
2.85000000000159, -0.7246830103607004 
2.860000000001611, -0.72346537718994 
2.870000000001632, -0.7216424116120942 
2.8800000000016532, -0.7189022278361914 
2.8900000000016743, -0.7147870853799985 
2.9000000000016954, -0.7087229382115956 
2.9100000000017165, -0.7002001730103347 
2.9200000000017377, -0.6891546294127979 
2.9300000000017588, -0.6763397372440414 
2.94000000000178, -0.66323829079055 
2.950000000001801, -0.6514108815180681 
2.960000000001822, -0.6418370050671436 
2.970000000001843, -0.6347490383983679 
2.9800000000018643, -0.6298673648499128 
2.9900000000018854, -0.6267063969165274 
3.0000000000019065, -0.6247761873783089 
3.0100000000019276, -0.6236706401560237 
3.0200000000019487, -0.6230868010931607 
3.03000000000197, -0.622813313835408 
3.040000000001991, -0.6227093884885357 
3.050000000002012, -0.6226839818096629 
3.060000000002033, -0.6226788005678878 
3.070000000002054, -0.622656011702307 
3.0800000000020753, -0.6225905320120482 
3.0900000000020964, -0.6224664638207924 
3.1000000000021175, -0.6222768908036505 
3.1100000000021386, -0.6220253618906473 
3.1200000000021597, -0.6217262716038607 
3.130000000002181, -0.6214014046403813 
3.140000000002202, -0.6210723519530612 
3.150000000002223, -0.6207520473774101 
3.160000000002244, -0.6204401176903549 
3.1700000000022652, -0.6201246100456128 
3.1800000000022863, -0.6197887511427027 
3.1900000000023074, -0.6194187191507752 
3.2000000000023285, -0.6190087968722694 
3.2100000000023496, -0.6185630227387794 
3.2200000000023707, -0.6180950414074617 
3.230000000002392, -0.6176285784436673 
3.240000000002413, -0.6172002441695412 
3.250000000002434, -0.6168654265753574 
3.260000000002455, -0.6167074356435405 
3.2700000000024763, -0.6168496476867927 
3.2800000000024974, -0.6174697191841881 
3.2900000000025185, -0.6188134084247822 
3.3000000000025396, -0.621202192926257 
3.3100000000025607, -0.6250221521681857 
3.3200000000025818, -0.6306706065556884 
3.330000000002603, -0.6384276583211036 
3.340000000002624, -0.6482382373764286 
3.350000000002645, -0.6594829695291369 
3.360000000002666, -0.6709639504896858 
3.3700000000026873, -0.6813041356054317 
3.3800000000027084, -0.68955699718063 
3.3900000000027295, -0.695507152126527 
3.4000000000027506, -0.699484390435639 
3.4100000000027717, -0.7020035289875206 
3.420000000002793, -0.7035269928451944 
3.430000000002814, -0.7043893090614896 
3.440000000002835, -0.70480564084229 
3.450000000002856, -0.7049015235922056 
3.460000000002877, -0.704737748394377 
3.4700000000028983, -0.7043241521435369 
3.4800000000029194, -0.7036222874371247 
3.4900000000029405, -0.7025378865417988 
3.5000000000029616, -0.7009049911511194 
3.5100000000029827, -0.6984690151480373 
3.520000000003004, -0.694890685612834 
3.530000000003025, -0.6898143771176536 
3.540000000003046, -0.6830405101568165 
3.550000000003067, -0.6747517449467604 
3.5600000000030882, -0.665600921153368 
3.5700000000031094, -0.6565058036384714 
3.5800000000031305, -0.648283094609065 
3.5900000000031516, -0.6414085424169258 
3.6000000000031727, -0.6360074369296513 
3.6100000000031938, -0.6319726219311811 
3.620000000003215, -0.629089050391802 
3.630000000003236, -0.6271163858340113 
3.640000000003257, -0.6258313578316046 
3.650000000003278, -0.6250448472588861 
3.6600000000032993, -0.6246057630374706 
3.6700000000033204, -0.6243986029154318 
3.6800000000033415, -0.6243382370942562 
3.6900000000033626, -0.6243638468863874 
3.7000000000033837, -0.6244332498625339 
3.710000000003405, -0.6245184490749897 
3.720000000003426, -0.6246028319747046 
3.730000000003447, -0.6246798096746206 
3.740000000003468, -0.6247517995482463 
3.750000000003489, -0.6248277586757325 
3.7600000000035103, -0.62491789701856 
3.7700000000035314, -0.6250262174860075 
3.7800000000035525, -0.6251440685646169 
3.7900000000035736, -0.6252487726391937 
3.8000000000035947, -0.6253091935794943 
3.810000000003616, -0.6252957491778843 
3.820000000003637, -0.6251892718051837 
3.830000000003658, -0.6249844081609919 
3.840000000003679, -0.6246877338005766 
3.8500000000037002, -0.6243140782850325 
3.8600000000037213, -0.623884645265028 
3.8700000000037424, -0.6234289802050978 
3.8800000000037635, -0.6229917739988372 
3.8900000000037847, -0.6226454163953428 
3.9000000000038058, -0.622509519190581 
3.910000000003827, -0.6227782958897794 
3.920000000003848, -0.6237541807000373 
3.930000000003869, -0.6258786385029926 
3.94000000000389, -0.6297344380846616 
3.9500000000039113, -0.6359657065415887 
3.9600000000039324, -0.6450413587064483 
3.9700000000039535, -0.6568479990168152 
3.9800000000039746, -0.6703360258973128 
3.9900000000039957, -0.6836900460937256 
4.000000000004016, -0.6951659294750975 
4.010000000003993, -0.7039008226571645 
4.02000000000397, -0.7099824973987819 
4.030000000003946, -0.7139806954837455 
4.040000000003923, -0.7165155425840337 
4.0500000000039, -0.7180732429588373 
4.0600000000038765, -0.7189845832373362 
4.070000000003853, -0.7194579425121557 
4.08000000000383, -0.7196155152470565 
4.090000000003807, -0.7195186070758895 
4.100000000003783, -0.7191810931124716 
4.11000000000376, -0.7185728542629863 
4.120000000003737, -0.7176151298137579 
4.130000000003713, -0.7161710259163884 
4.14000000000369, -0.7140397870969186 
4.150000000003667, -0.7109743820793437 
4.1600000000036434, -0.7067508714714578 
4.17000000000362, -0.7012979293312505 
4.180000000003597, -0.694824001930533 
4.1900000000035735, -0.6878212874513058 
4.20000000000355, -0.6809027625169467 
4.210000000003527, -0.6745889909478066 
4.220000000003504, -0.6691902121309733 
4.23000000000348, -0.6648108423469524 
4.240000000003457, -0.6614140691538645 
4.250000000003434, -0.6588878608050344 
4.26000000000341, -0.6570904344398051 
4.270000000003387, -0.6558763591882133 
4.280000000003364, -0.6551103789417427 
4.2900000000033405, -0.6546744093714945 
4.300000000003317, -0.6544705115839902 
4.310000000003294, -0.6544211097143149 
4.320000000003271, -0.6544672911979826 
4.330000000003247, -0.6545661012834713 
4.340000000003224, -0.6546878015972886 
4.350000000003201, -0.6548138273579078 
4.360000000003177, -0.6549355390454523 
4.370000000003154, -0.6550529258234029 
4.380000000003131, -0.6551717355244797 
4.390000000003107, -0.6552980091825422 
4.400000000003084, -0.6554310359720013 
4.410000000003061, -0.6555580714558455 
4.4200000000030375, -0.6556545408174841 
4.430000000003014, -0.6556906955209433 
4.440000000002991, -0.6556413490141624 
4.450000000002968, -0.6554931750965836 
4.460000000002944, -0.6552464180550256 
4.470000000002921, -0.6549123449249024 
4.480000000002898, -0.6545101948229095 
4.490000000002874, -0.6540667953557655 
4.500000000002851, -0.6536204312926323 
4.510000000002828, -0.6532296146514878 
4.520000000002804, -0.6529871660409736 
4.530000000002781, -0.653039681468645 
4.540000000002758, -0.653611075287276 
4.5500000000027345, -0.6550253601864687 
4.560000000002711, -0.657716628137559 
4.570000000002688, -0.6622017433515381 
4.580000000002665, -0.6689757603119082 
4.590000000002641, -0.678290316562722 
4.600000000002618, -0.6898420114822328 
4.610000000002595, -0.7025694159860174 
4.620000000002571, -0.7148782861796069 
4.630000000002548, -0.725324216872892 
4.640000000002525, -0.7332214108986338 
4.6500000000025015, -0.7386793176065368 
4.660000000002478, -0.7422204950490028 
4.670000000002455, -0.7444149046161365 
4.6800000000024315, -0.7457122490330839 
4.690000000002408, -0.7464173077562892 
4.700000000002385, -0.7467181354531266 
4.710000000002362, -0.7467190533399793 
4.720000000002338, -0.7464632478161458 
4.730000000002315, -0.7459428612897425 
4.740000000002292, -0.7450972811108348 
4.750000000002268, -0.7438001736166137 
4.760000000002245, -0.741837048269628 
4.770000000002222, -0.738882731855907 
4.7800000000021985, -0.7345083654660594 
4.790000000002175, -0.7282763639096954 
4.800000000002152, -0.7199728336481862 
4.810000000002129, -0.7098984279684167 
4.820000000002105, -0.6989527793090621 
4.830000000002082, -0.6883271729092988 
4.840000000002059, -0.6790177563103789 
4.850000000002035, -0.6715399853514314 
4.860000000002012, -0.6659508518206192 
4.870000000001989, -0.6620237946288461 
4.880000000001965, -0.659418736900965 
4.890000000001942, -0.6577903589433833 
4.900000000001919, -0.6568403526624916 
4.9100000000018955, -0.6563343047575834 
4.920000000001872, -0.6560998275747141 
4.930000000001849, -0.656016274557956 
