t, s[1].omega / s[0].omega 
0, -0.6999976922423377 
0.009999999999999995, -0.699757864452369 
0.019999999999999934, -0.6994946967463431 
0.029999999999999874, -0.6991951048803304 
0.04000000000000012, -0.698845594910657 
0.050000000000000405, -0.6984393241258056 
0.06000000000000069, -0.6979799248627894 
0.07000000000000098, -0.6974823094079313 
0.08000000000000126, -0.6969727915113071 
0.09000000000000155, -0.6964906591254006 
0.10000000000000184, -0.6960918754221121 
0.11000000000000212, -0.6958541462446458 
0.12000000000000241, -0.6958816341688229 
0.130000000000002, -0.696307182532869 
0.1400000000000009, -0.6972901004247112 
0.1499999999999998, -0.6990081861532919 
0.1599999999999987, -0.7016429393824983 
0.1699999999999976, -0.7053556784619873 
0.1799999999999965, -0.7102494630603956 
0.1899999999999954, -0.7163107992694615 
0.1999999999999943, -0.7233352249888887 
0.2099999999999932, -0.7308719736823995 
0.2199999999999921, -0.7382606707616612 
0.229999999999991, -0.7448115071321841 
0.2399999999999899, -0.7500529136623943 
0.2499999999999888, -0.7538655092364401 
0.2599999999999877, -0.7564170515052411 
0.2699999999999866, -0.7579969338991392 
0.2799999999999855, -0.7588834300510872 
0.2899999999999844, -0.7592863842965822 
0.2999999999999833, -0.7593406748112901 
0.3099999999999822, -0.7591178118016776 
0.3199999999999811, -0.758637434871596 
0.32999999999998, -0.7578720176904918 
0.3399999999999789, -0.7567429628866396 
0.3499999999999778, -0.7551074699015519 
0.35999999999997667, -0.7527360071587034 
0.36999999999997557, -0.7492826245631423 
0.37999999999997447, -0.7442600640309294 
0.38999999999997337, -0.7370615918634797 
0.39999999999997227, -0.7271337337381498 
0.40999999999997117, -0.7144259346511678 
0.41999999999997006, -0.6999596511582202 
0.42999999999996896, -0.6858059720852433 
0.43999999999996786, -0.6740569694725901 
0.44999999999996676, -0.665721199415914 
0.45999999999996566, -0.6605927866765191 
0.46999999999996456, -0.6578446498173965 
0.47999999999996346, -0.6565983610693374 
0.48999999999996235, -0.6561822145849994 
0.49999999999996125, -0.656163250335693 
0.5099999999999602, -0.656291470610243 
0.519999999999959, -0.6564333312734124 
0.529999999999958, -0.6565204645061604 
0.5399999999999568, -0.656516215560792 
0.5499999999999557, -0.6563957261014113 
0.5599999999999546, -0.6561352295617456 
0.5699999999999535, -0.6557082055689468 
0.5799999999999524, -0.6550880012641525 
0.5899999999999513, -0.6542569141393277 
0.5999999999999502, -0.653219060783904 
0.6099999999999491, -0.6520095200062724 
0.619999999999948, -0.6506909676349155 
0.6299999999999469, -0.6493366572865789 
0.6399999999999458, -0.6480096328196552 
0.6499999999999447, -0.6467503204525265 
0.6599999999999436, -0.6455766262820911 
0.6699999999999425, -0.6444922454286963 
0.6799999999999414, -0.6434966471547185 
0.6899999999999403, -0.6425926071610136 
0.6999999999999392, -0.6417903283712455 
0.7099999999999381, -0.6411089799309817 
0.719999999999937, -0.6405767512421885 
0.7299999999999359, -0.6402300792927695 
0.7399999999999348, -0.6401123253992832 
0.7499999999999337, -0.6402721225333844 
0.7599999999999326, -0.6407617489211772 
0.7699999999999315, -0.6416359045209838 
0.7799999999999304, -0.6429508918771065 
0.7899999999999293, -0.6447632609206566 
0.7999999999999282, -0.6471254559257894 
0.8099999999999271, -0.6500742374197968 
0.819999999999926, -0.6536069907281442 
0.8299999999999249, -0.6576449466395743 
0.8399999999999238, -0.6619957300529068 
0.8499999999999227, -0.666348219930738 
0.8599999999999216, -0.6703356060019657 
0.8699999999999205, -0.673655215402253 
0.8799999999999194, -0.6761669578476008 
0.8899999999999183, -0.6779003117135664 
0.8999999999999172, -0.6789853339069025 
0.9099999999999161, -0.6795739497315906 
0.919999999999915, -0.6797925005481242 
0.9299999999999139, -0.67972552113677 
0.9399999999999128, -0.6794151623885379 
0.9499999999999117, -0.6788635415504085 
0.9599999999999106, -0.678031201275683 
0.9699999999999095, -0.6768279045876314 
0.9799999999999084, -0.67509220435587 
0.9899999999999073, -0.6725552647427019 
0.9999999999999062, -0.6687864412728012 
1.0099999999999052, -0.663136711828806 
1.019999999999904, -0.6547613519542451 
1.029999999999903, -0.6429161173582318 
1.039999999999902, -0.6276638894385789 
1.0499999999999008, -0.610517454083532 
1.0599999999998997, -0.5940115404297888 
1.0699999999998986, -0.580290541290178 
1.0799999999998975, -0.5701775746182397 
1.0899999999998964, -0.563370638928917 
1.0999999999998953, -0.5590903967774108 
1.1099999999998942, -0.5565447931255162 
1.119999999999893, -0.5551107735412345 
1.129999999999892, -0.5543538554908967 
1.1399999999998909, -0.5539904986320429 
1.1499999999998898, -0.5538428333649323 
1.1599999999998887, -0.5538017952205466 
1.1699999999998876, -0.553801033724308 
1.1799999999998865, -0.5537998990209664 
1.1899999999998854, -0.553773332926501 
1.1999999999998843, -0.5537069755850025 
1.2099999999998832, -0.5535961101705743 
1.219999999999882, -0.5534466799968912 
1.229999999999881, -0.5532756912775004 
1.2399999999998799, -0.5531080605952764 
1.2499999999998788, -0.5529687953756015 
1.2599999999998777, -0.5528728620315094 
1.2699999999998766, -0.5528175729445928 
1.2799999999998755, -0.5527817599938666 
1.2899999999998744, -0.5527326748316088 
1.2999999999998733, -0.5526372405595679 
1.3099999999998722, -0.5524717823786585 
1.319999999999871, -0.5522260328264573 
1.32999999999987, -0.5519016750107311 
1.3399999999998689, -0.5515088682634581 
1.3499999999998678, -0.5510642803749021 
1.3599999999998666, -0.5505927522717219 
1.3699999999998655, -0.5501338751971886 
1.3799999999998644, -0.549755052960507 
1.3899999999998633, -0.549573577201876 
1.3999999999998622, -0.549790759238012 
1.4099999999998611, -0.5507386519986316 
1.41999999999986, -0.5529278565527099 
1.429999999999859, -0.5570507005175441 
1.4399999999998578, -0.5638302075054662 
1.4499999999998567, -0.5735737380763649 
1.4599999999998556, -0.5855242244563397 
1.4699999999998545, -0.5977146137470466 
1.4799999999998534, -0.6080250447646847 
1.4899999999998523, -0.6155340464736537 
1.4999999999998512, -0.62059508483829 
1.5099999999998501, -0.6239788761977443 
1.519999999999849, -0.6262927786172808 
1.529999999999848, -0.6278997652603815 
1.5399999999998468, -0.6290088407370141 
1.5499999999998457, -0.6297496339098785 
1.5599999999998446, -0.6302079299617251 
1.5699999999998435, -0.6304398437419432 
1.5799999999998424, -0.6304774585140344 
1.5899999999998413, -0.6303310967175729 
1.5999999999998402, -0.6299901189095624 
1.6099999999998391, -0.6294238640588862 
1.619999999999838, -0.6285856449172489 
1.629999999999837, -0.6274242515052808 
1.6399999999998358, -0.6259062253837591 
1.6499999999998347, -0.624044271693889 
1.6599999999998336, -0.621914869779665 
1.6699999999998325, -0.6196466227801403 
1.6799999999998314, -0.6173814245017896 
1.6899999999998303, -0.6152338688944633 
1.6999999999998292, -0.613272210246451 
1.709999999999828, -0.6115229405272671 
1.719999999999827, -0.6099868028176305 
1.729999999999826, -0.6086546303251735 
1.7399999999998248, -0.6075179071411143 
1.7499999999998237, -0.6065738748327602 
1.7599999999998226, -0.6058268997948424 
1.7699999999998215, -0.6052878605085418 
1.7799999999998204, -0.6049727803292043 
1.7899999999998193, -0.6049014681085167 
1.7999999999998182, -0.6050966587965616 
1.809999999999817, -0.6055839483895236 
1.819999999999816, -0.6063925369179677 
1.8299999999998149, -0.6075563091534012 
1.8399999999998138, -0.6091139922765508 
1.8499999999998127, -0.6111059676050903 
1.8599999999998116, -0.613563996278494 
1.8699999999998105, -0.6164898186724719 
1.8799999999998094, -0.6198223573400716 
1.8899999999998083, -0.6234051126497497 
1.8999999999998072, -0.6269824075974118 
1.909999999999806, -0.6302534270128063 
1.919999999999805, -0.6329713975466957 
1.9299999999998039, -0.6350222436890056 
1.9399999999998028, -0.636428281041839 
1.9499999999998017, -0.637292143814369 
1.9599999999998006, -0.6377338187127979 
1.9699999999997995, -0.6378522899230492 
1.9799999999997984, -0.6377114250447631 
1.9899999999997973, -0.6373377661523933 
1.9999999999997962, -0.636719846619383 
2.0099999999998173, -0.6358027758654549 
2.0199999999998384, -0.6344735694449711 
2.0299999999998595, -0.6325321702201644 
2.0399999999998806, -0.6296429380180564 
2.0499999999999017, -0.6252702599266847 
2.059999999999923, -0.6186429928154007 
2.069999999999944, -0.6088908550919876 
2.079999999999965, -0.5955584616888719 
2.089999999999986, -0.5793692779180889 
2.100000000000007, -0.5623904595907672 
2.1100000000000283, -0.5470126405127342 
2.1200000000000494, -0.5347041919193262 
2.1300000000000705, -0.5257150085132952 
2.1400000000000916, -0.5195521240487533 
2.1500000000001127, -0.5155081789778987 
2.160000000000134, -0.512943162094839 
2.170000000000155, -0.5113682004087982 
2.180000000000176, -0.5104389448490521 
2.190000000000197, -0.5099230585186277 
2.2000000000002182, -0.5096676739331146 
2.2100000000002393, -0.5095739489318513 
2.2200000000002604, -0.5095790856140248 
2.2300000000002815, -0.5096444450330351 
2.2400000000003026, -0.5097483220626463 
2.2500000000003237, -0.5098821641163692 
2.260000000000345, -0.5100489665678016 
2.270000000000366, -0.5102621270729141 
2.280000000000387, -0.5105425623359301 
2.290000000000408, -0.5109122042786661 
2.3000000000004293, -0.5113837043309546 
2.3100000000004504, -0.5119489723288051 
2.3200000000004715, -0.512571930404934 
2.3300000000004926, -0.5131915866009165 
2.3400000000005137, -0.5137373848906653 
2.3500000000005348, -0.5141500860095765 
2.360000000000556, -0.51439602883181 
2.370000000000577, -0.5144677747439507 
2.380000000000598, -0.5143744541453148 
2.390000000000619, -0.514129753450594 
2.4000000000006403, -0.5137427062002013 
2.4100000000006614, -0.5132119591480071 
2.4200000000006825, -0.512521666732362 
2.4300000000007036, -0.5116362450059039 
2.4400000000007247, -0.5104899895540352 
2.450000000000746, -0.5089640177416069 
2.460000000000767, -0.5068355624430901 
2.470000000000788, -0.5036775670331752 
2.480000000000809, -0.4987124044760759 
2.49000000000083, -0.49077358674143196 
2.5000000000008513, -0.4788054608475691 
2.5100000000008724, -0.4630851522120644 
2.5200000000008935, -0.44590912903864116 
2.5300000000009146, -0.43027920934631336 
2.5400000000009357, -0.41798749069067354 
2.550000000000957, -0.40922292327979387 
2.560000000000978, -0.4033227693074969 
2.570000000000999, -0.3994722103773928 
2.58000000000102, -0.39700253884630665 
2.5900000000010412, -0.39544083419756915 
2.6000000000010624, -0.39447402027401235 
2.6100000000010835, -0.3939012893223991 
2.6200000000011046, -0.3935963928748807 
2.6300000000011257, -0.3934820343280178 
2.6400000000011468, -0.393513772410799 
2.650000000001168, -0.3936705995647162 
2.660000000001189, -0.3939500642961583 
2.67000000000121, -0.3943663398990241 
2.680000000001231, -0.39494969613533815 
2.6900000000012523, -0.3957453757947677 
2.7000000000012734, -0.3968090533368028 
2.7100000000012945, -0.39819520634657823 
2.7200000000013156, -0.3999349207919899 
2.7300000000013367, -0.402003848123897 
2.740000000001358, -0.4042930567192025 
2.750000000001379, -0.4066101841293438 
2.7600000000014, -0.4087313896582473 
2.770000000001421, -0.4104814365613533 
2.780000000001442, -0.41178452913797675 
2.7900000000014633, -0.41265606340147665 
2.8000000000014844, -0.4131590854079919 
2.8100000000015055, -0.41336279323314296 
2.8200000000015266, -0.41331867859366495 
2.8300000000015477, -0.41305066648598504 
2.840000000001569, -0.41255082960776746 
2.85000000000159, -0.411774848788771 
2.860000000001611, -0.4106355681144107 
2.870000000001632, -0.4089986751078434 
2.8800000000016532, -0.4066939460678219 
2.8900000000016743, -0.4035655350089164 
2.9000000000016954, -0.3995744073289545 
2.9100000000017165, -0.39490627258877953 
2.9200000000017377, -0.3899718216318099 
2.9300000000017588, -0.38524888921191236 
2.94000000000178, -0.3810879150373255 
2.950000000001801, -0.37763249088276646 
2.960000000001822, -0.3748631531881944 
2.970000000001843, -0.37268018767314615 
2.9800000000018643, -0.37096620730608043 
2.9900000000018854, -0.36961785025639415 
3.0000000000019065, -0.3685567020287548 
3.0100000000019276, -0.36773035858389735 
3.0200000000019487, -0.3671103916786762 
3.03000000000197, -0.3666906880936979 
3.040000000001991, -0.3664879100847704 
3.050000000002012, -0.3665452056799826 
3.060000000002033, -0.3669403706427771 
3.070000000002054, -0.36780013690801716 
3.0800000000020753, -0.3693227260978151 
3.0900000000020964, -0.37181011627117405 
3.1000000000021175, -0.37570618800759076 
3.1100000000021386, -0.38161831272245694 
3.1200000000021597, -0.3902532258315078 
3.130000000002181, -0.4021279789747216 
3.140000000002202, -0.4169531889891812 
3.150000000002223, -0.43304124908046193 
3.160000000002244, -0.4477309085288839 
3.1700000000022652, -0.4590076489504666 
3.1800000000022863, -0.46656013974534877 
3.1900000000023074, -0.47123814096348315 
3.2000000000023285, -0.4740644665134048 
3.2100000000023496, -0.4757811312984229 
3.2200000000023707, -0.4768327559551853 
3.230000000002392, -0.4774681104897652 
3.240000000002413, -0.4778242947260506 
3.250000000002434, -0.4779758893168412 
3.260000000002455, -0.4779605863050004 
3.2700000000024763, -0.4777924083050845 
3.2800000000024974, -0.4774695293852507 
3.2900000000025185, -0.4769812374858368 
3.3000000000025396, -0.4763171668512006 
3.3100000000025607, -0.4754796902371753 
3.3200000000025818, -0.4744959600067028 
3.330000000002603, -0.4734216881375032 
3.340000000002624, -0.4723305164053363 
3.350000000002645, -0.4712927483487833 
3.360000000002666, -0.47035582826659655 
3.3700000000026873, -0.4695365064971229 
3.3800000000027084, -0.46882529808241813 
3.3900000000027295, -0.4681976504331997 
3.4000000000027506, -0.4676257370727958 
3.4100000000027717, -0.46708703625375064 
3.420000000002793, -0.46656862139520194 
3.430000000002814, -0.4660683726930993 
3.440000000002835, -0.46559538681701956 
3.450000000002856, -0.46517176213160927 
3.460000000002877, -0.4648374780958804 
3.4700000000028983, -0.46466000076375397 
3.4800000000029194, -0.464750725240991 
3.4900000000029405, -0.46529106779240886 
3.5000000000029616, -0.46657072178928205 
3.5100000000029827, -0.4690356222740341 
3.520000000003004, -0.47332402027694204 
3.530000000003025, -0.48021879396589445 
3.540000000003046, -0.4903635149017436 
3.550000000003067, -0.503609825981822 
3.5600000000030882, -0.5183341274714344 
3.5700000000031094, -0.5318125196852905 
3.5800000000031305, -0.5419740871846879 
3.5900000000031516, -0.5485950136326234 
3.6000000000031727, -0.5526490290420536 
3.6100000000031938, -0.5551722602648752 
3.620000000003215, -0.5568229357100913 
3.630000000003236, -0.5579442192050974 
3.640000000003257, -0.5587103253416942 
3.650000000003278, -0.5592165768353672 
3.6600000000032993, -0.5595195861838242 
3.6700000000033204, -0.5596529535348636 
3.6800000000033415, -0.559633198895664 
3.6900000000033626, -0.559462243396655 
3.7000000000033837, -0.5591293364164017 
3.710000000003405, -0.5586146568280119 
3.720000000003426, -0.5578969170012981 
3.730000000003447, -0.5569661452378895 
3.740000000003468, -0.5558386043624138 
3.750000000003489, -0.5545650141261835 
3.7600000000035103, -0.5532229910718921 
3.7700000000035314, -0.551894893684716 
3.7800000000035525, -0.5506442829552479 
3.7900000000035736, -0.5495041973002672 
3.8000000000035947, -0.5484798397086564 
3.810000000003616, -0.5475595867491863 
3.820000000003637, -0.5467270136281919 
3.830000000003658, -0.5459697263526181 
3.840000000003679, -0.5452842514948746 
3.8500000000037002, -0.5446783272423203 
3.8600000000037213, -0.5441724626588766 
3.8700000000037424, -0.5438021857359552 
3.8800000000037635, -0.543621755324564 
3.8900000000037847, -0.5437096952301251 
3.9000000000038058, -0.5441763340748634 
3.910000000003827, -0.5451733492131156 
3.920000000003848, -0.546904608156453 
3.930000000003869, -0.549635374530713 
3.94000000000389, -0.5536913750516257 
3.9500000000039113, -0.55942811236439 
3.9600000000039324, -0.5671359165101371 
3.9700000000039535, -0.5768472760698883 
3.9800000000039746, -0.5880830790010174 
3.9900000000039957, -0.5997426447195331 
4.000000000004016, -0.6104151620996661 
4.010000000003993, -0.6190270308879616 
4.02000000000397, -0.6252611669926621 
4.030000000003946, -0.6294235893608121 
4.040000000003923, -0.6320522688160044 
4.0500000000039, -0.633639480638605 
4.0600000000038765, -0.6345402740384021 
4.070000000003853, -0.6349806599855495 
4.08000000000383, -0.6350908248833684 
4.090000000003807, -0.6349327665883229 
4.100000000003783, -0.6345156656426807 
4.11000000000376, -0.6337997937047628 
4.120000000003737, -0.6326914351130187 
4.130000000003713, -0.6310337387864775 
4.14000000000369, -0.6286059855053462 
4.150000000003667, -0.6251570981524279 
4.1600000000036434, -0.6205037121453406 
4.17000000000362, -0.6146812344497982 
4.180000000003597, -0.6080428527602348 
4.1900000000035735, -0.6011784187354593 
4.20000000000355, -0.5946831391978711 
4.210000000003527, -0.588960915801679 
4.220000000003504, -0.5841783898997728 
4.23000000000348, -0.5803284407509566 
4.240000000003457, -0.5773151936172678 
4.250000000003434, -0.5750144538670281 
4.26000000000341, -0.573304817780927 
4.270000000003387, -0.5720795203793299 
4.280000000003364, -0.5712488318871624 
4.2900000000033405, -0.5707389551264833 
4.300000000003317, -0.5704902302512738 
4.310000000003294, -0.5704556587419478 
4.320000000003271, -0.5705999465189064 
4.330000000003247, -0.5708989925717554 
4.340000000003224, -0.5713396640582468 
4.350000000003201, -0.571919529296106 
4.360000000003177, -0.5726457908700855 
4.370000000003154, -0.5735320176023969 
4.380000000003131, -0.5745908673104957 
4.390000000003107, -0.5758217312218051 
4.400000000003084, -0.5771951705756251 
4.410000000003061, -0.578641241044264 
4.4200000000030375, -0.5800529060904152 
4.430000000003014, -0.5813109634697936 
4.440000000002991, -0.5823204901214043 
4.450000000002968, -0.5830358328281231 
4.460000000002944, -0.5834598462341021 
4.470000000002921, -0.5836242311853426 
4.480000000002898, -0.5835671885959341 
4.490000000002874, -0.5833181348767338 
4.500000000002851, -0.58288997146282 
4.510000000002828, -0.5822752490182561 
4.520000000002804, -0.5814423543520358 
4.530000000002781, -0.580328286378254 
4.540000000002758, -0.5788235965124864 
4.5500000000027345, -0.5767414784466769 
4.560000000002711, -0.5737575487009287 
4.570000000002688, -0.5693116225462307 
4.580000000002665, -0.5625250145629436 
4.590000000002641, -0.5523707483871759 
4.600000000002618, -0.538439072991287 
4.610000000002595, -0.5219458580430725 
4.620000000002571, -0.5055504291712841 
4.630000000002548, -0.49169514550437 
4.640000000002525, -0.4813721933054106 
4.6500000000025015, -0.47431570883816027 
4.660000000002478, -0.46975202406729694 
4.670000000002455, -0.4669073877047733 
4.6800000000024315, -0.46518554218496977 
4.690000000002408, -0.4641758327819006 
4.700000000002385, -0.4636104584063636 
4.710000000002362, -0.46331963978913365 
4.720000000002338, -0.46319755615284813 
4.730000000002315, -0.46317935535003885 
4.740000000002292, -0.4632266572201832 
4.750000000002268, -0.4633190748541834 
4.760000000002245, -0.46344989676247683 
4.770000000002222, -0.46362438082124635 
4.7800000000021985, -0.46385891425909714 
4.790000000002175, -0.464178860654709 
4.800000000002152, -0.46461293572013024 
4.810000000002129, -0.4651830887173117 
4.820000000002105, -0.46589121976001036 
4.830000000002082, -0.46670731011479516 
4.840000000002059, -0.46756652067125326 
4.850000000002035, -0.46838171229983044 
4.860000000002012, -0.4690687493777023 
4.870000000001989, -0.469570474297823 
4.880000000001965, -0.4698651593071932 
4.890000000001942, -0.4699581138218285 
4.900000000001919, -0.4698659027237454 
4.9100000000018955, -0.4696021151776167 
