t, s[1].omega / s[0].omega 
0, -1.2598966327238692 
0.009999999999999995, -1.2485057782209097 
0.019999999999999934, -1.2361507949591064 
0.029999999999999874, -1.2252051055489224 
0.04000000000000012, -1.2178450240819356 
0.050000000000000405, -1.2145550539426169 
0.06000000000000069, -1.2140872481940594 
0.07000000000000098, -1.2148012821671057 
0.08000000000000126, -1.2156538403948223 
0.09000000000000155, -1.216241572077223 
0.10000000000000184, -1.216486813801085 
0.11000000000000212, -1.2164019265931354 
0.12000000000000241, -1.2159805030109223 
0.130000000000002, -1.2151495107043304 
0.1400000000000009, -1.213735063954473 
0.1499999999999998, -1.211433467357518 
0.1599999999999987, -1.20783975169182 
0.1699999999999976, -1.2027055925349666 
0.1799999999999965, -1.1966921639926669 
0.1899999999999954, -1.1923952433499718 
0.1999999999999943, -1.1938781703206374 
0.2099999999999932, -1.2031575695867947 
0.2199999999999921, -1.2173370314691598 
0.229999999999991, -1.2312045786617527 
0.2399999999999899, -1.2415955962250547 
0.2499999999999888, -1.2481933699477559 
0.2599999999999877, -1.251970969934423 
0.2699999999999866, -1.2539669181241528 
0.2799999999999855, -1.2549032527171353 
0.2899999999999844, -1.2552031708877613 
0.2999999999999833, -1.2550922366124422 
0.3099999999999822, -1.2546855399797088 
0.3199999999999811, -1.2540597156200088 
0.32999999999998, -1.2533367912154958 
0.3399999999999789, -1.2527949193846966 
0.3499999999999778, -1.2529420658705124 
0.35999999999997667, -1.2543774547309123 
0.36999999999997557, -1.2573912112753383 
0.37999999999997447, -1.2616778416424546 
0.38999999999997337, -1.2665226396297464 
0.39999999999997227, -1.2712159856666878 
0.40999999999997117, -1.2752903316708184 
0.41999999999997006, -1.2785316375674125 
0.42999999999996896, -1.2809056683773972 
0.43999999999996786, -1.2824865176364242 
0.44999999999996676, -1.283402876866274 
0.45999999999996566, -1.2837978078550476 
0.46999999999996456, -1.2838025303026668 
0.47999999999996346, -1.2835273004194039 
0.48999999999996235, -1.2830684477610546 
0.49999999999996125, -1.282524329901839 
0.5099999999999602, -1.2820057339059223 
0.519999999999959, -1.2816239103649059 
0.529999999999958, -1.2814566627248722 
0.5399999999999568, -1.2815208220524552 
0.5499999999999557, -1.2817746628231526 
0.5599999999999546, -1.2821398831394684 
0.5699999999999535, -1.2825240578534864 
0.5799999999999524, -1.2828382280290715 
0.5899999999999513, -1.2830077222620178 
0.5999999999999502, -1.2829743207932842 
0.6099999999999491, -1.2826932751408882 
0.619999999999948, -1.282130735779355 
0.6299999999999469, -1.2812637032710144 
0.6399999999999458, -1.2800816561461539 
0.6499999999999447, -1.278589492990134 
0.6599999999999436, -1.2768134268402571 
0.6699999999999425, -1.2748120462057115 
0.6799999999999414, -1.272692412833412 
0.6899999999999403, -1.2706238044470426 
0.6999999999999392, -1.268826706416522 
0.7099999999999381, -1.2675061300618966 
0.719999999999937, -1.2667422070601395 
0.7299999999999359, -1.2664343975797407 
0.7399999999999348, -1.2663697230682174 
0.7499999999999337, -1.2663391220038045 
0.7599999999999326, -1.2661910506635952 
0.7699999999999315, -1.2658109654165153 
0.7799999999999304, -1.2650702718506373 
0.7899999999999293, -1.263770386279602 
0.7999999999999282, -1.2615865830708217 
0.8099999999999271, -1.258023153879225 
0.819999999999926, -1.2524264832484078 
0.8299999999999249, -1.2441516176476806 
0.8399999999999238, -1.232982721770361 
0.8499999999999227, -1.2197429709280578 
0.8599999999999216, -1.2066074153843778 
0.8699999999999205, -1.1963384478589134 
0.8799999999999194, -1.1905390683496293 
0.8899999999999183, -1.188671890950708 
0.8999999999999172, -1.1889795070013809 
0.9099999999999161, -1.1899400815960015 
0.919999999999915, -1.1907906890526376 
0.9299999999999139, -1.1913031692059022 
0.9399999999999128, -1.19146492088972 
0.9499999999999117, -1.1912989929474964 
0.9599999999999106, -1.1907892368902409 
0.9699999999999095, -1.1898441721049218 
0.9799999999999084, -1.1882648188889071 
0.9899999999999073, -1.1857179340825559 
0.9999999999999062, -1.1817771182999475 
1.0099999999999052, -1.1762111465595164 
1.019999999999904, -1.1697556718423574 
1.029999999999903, -1.1650485048458612 
1.039999999999902, -1.1659930974058477 
1.0499999999999008, -1.1743796031380676 
1.0599999999998997, -1.1874262964570652 
1.0699999999998986, -1.2002962685182472 
1.0799999999998975, -1.2100332370183684 
1.0899999999998964, -1.2162829779417554 
1.0999999999998953, -1.2199013658495448 
1.1099999999998942, -1.2218345137941633 
1.119999999999893, -1.222752025856681 
1.129999999999892, -1.2230508162824167 
1.1399999999998909, -1.2229423071470362 
1.1499999999998898, -1.222529427471882 
1.1599999999998887, -1.221869610797235 
1.1699999999998876, -1.221050752626889 
1.1799999999998865, -1.2203097309873754 
1.1899999999998854, -1.2201670810021437 
1.1999999999998843, -1.2214034716302242 
1.2099999999998832, -1.2246650161868073 
1.219999999999882, -1.2299151579991914 
1.229999999999881, -1.2363584196179578 
1.2399999999998799, -1.2429313130007906 
1.2499999999998788, -1.248799810005501 
1.2599999999998777, -1.2535267821352223 
1.2699999999998766, -1.2570099223120095 
1.2799999999998755, -1.2593589584073233 
1.2899999999998744, -1.2607841662626416 
1.2999999999998733, -1.261513581782485 
1.3099999999998722, -1.2617446033569224 
1.319999999999871, -1.2616288563972937 
1.32999999999987, -1.261281973353246 
1.3399999999998689, -1.2608074261126425 
1.3499999999998678, -1.2603212941284896 
1.3599999999998666, -1.2599580147359424 
1.3699999999998655, -1.2598396700174435 
1.3799999999998644, -1.2600244407327783 
1.3899999999998633, -1.2604827041759938 
1.3999999999998622, -1.261121659468123 
1.4099999999998611, -1.2618279205501277 
1.41999999999986, -1.2624970746295578 
1.429999999999859, -1.2630463751631626 
1.4399999999998578, -1.2634168445197251 
1.4499999999998567, -1.2635698350056397 
1.4599999999998556, -1.2634821626890038 
1.4699999999998545, -1.2631424537507423 
1.4799999999998534, -1.2625494114005147 
1.4899999999998523, -1.2617119825487797 
1.4999999999998512, -1.2606516365953946 
1.5099999999998501, -1.2594069924477633 
1.519999999999849, -1.2580400498435054 
1.529999999999848, -1.2566413621116517 
1.5399999999998468, -1.2553291825405744 
1.5499999999998457, -1.2542340396192684 
1.5599999999998446, -1.2534593397871139 
1.5699999999998435, -1.2530285997457558 
1.5799999999998424, -1.252863837927861 
1.5899999999998413, -1.252823908546277 
1.5999999999998402, -1.2527649431252006 
1.6099999999998391, -1.2525684124718661 
1.619999999999838, -1.252128667933741 
1.629999999999837, -1.25132271097887 
1.6399999999998358, -1.249981879392763 
1.6499999999998347, -1.247878035041432 
1.6599999999998336, -1.2447380438064348 
1.6699999999998325, -1.2403012444888994 
1.6799999999998314, -1.234425916928261 
1.6899999999998303, -1.2272347188159094 
1.6999999999998292, -1.2192632111926056 
1.709999999999828, -1.2115078840868851 
1.719999999999827, -1.205182096781895 
1.729999999999826, -1.201123222102641 
1.7399999999998248, -1.199292379332931 
1.7499999999998237, -1.1989371329682736 
1.7599999999998226, -1.19920853250848 
1.7699999999998215, -1.1995591504115473 
1.7799999999998204, -1.1997468191145102 
1.7899999999998193, -1.1996873313019372 
1.7999999999998182, -1.19933214960979 
1.809999999999817, -1.198593823202545 
1.819999999999816, -1.197288004031155 
1.8299999999998149, -1.195063915567762 
1.8399999999998138, -1.1913195579269522 
1.8499999999998127, -1.185165268397768 
1.8599999999998116, -1.175654991547963 
1.8699999999998105, -1.1626463613000777 
1.8799999999998094, -1.1481594501172296 
1.8899999999998083, -1.1365025616555768 
1.8999999999998072, -1.1313864224419226 
1.909999999999806, -1.1326932898329187 
1.919999999999805, -1.1372506023006352 
1.9299999999998039, -1.1420231523307924 
1.9399999999998028, -1.1456416341565474 
1.9499999999998017, -1.1479626957479703 
1.9599999999998006, -1.149280524013108 
1.9699999999997995, -1.1499095487784117 
1.9799999999997984, -1.1500651334430598 
1.9899999999997973, -1.1498597235517036 
1.9999999999997962, -1.1493223345598844 
2.0099999999998173, -1.148416513072809 
2.0199999999998384, -1.147067077761888 
2.0299999999998595, -1.145239174027444 
2.0399999999998806, -1.143154129603373 
2.0499999999999017, -1.141700536927766 
2.059999999999923, -1.1427839797697101 
2.069999999999944, -1.1487788941728463 
2.079999999999965, -1.1606258746942864 
2.089999999999986, -1.1763152832815011 
2.100000000000007, -1.1920346889827313 
2.1100000000000283, -1.2048042972138826 
2.1200000000000494, -1.213698192723292 
2.1300000000000705, -1.219249583318158 
2.1400000000000916, -1.2224422923217904 
2.1500000000001127, -1.2241353388759166 
2.160000000000134, -1.2249137669028247 
2.170000000000155, -1.2251289816516604 
2.180000000000176, -1.2249787514518393 
2.190000000000197, -1.2245786795601359 
2.2000000000002182, -1.2240263729810439 
2.2100000000002393, -1.223470461448224 
2.2200000000002604, -1.2231733240131384 
2.2300000000002815, -1.2235016834976666 
2.2400000000003026, -1.2247724139160185 
2.2500000000003237, -1.2270352406783014 
2.260000000000345, -1.2300186980443824 
2.270000000000366, -1.2332948922060134 
2.280000000000387, -1.2364752814430346 
2.290000000000408, -1.2392967194377709 
2.3000000000004293, -1.2416164677556465 
2.3100000000004504, -1.2433802564967975 
2.3200000000004715, -1.2445954571126454 
2.3300000000004926, -1.2453118056661783 
2.3400000000005137, -1.2456040558771675 
2.3500000000005348, -1.245555749921392 
2.360000000000556, -1.2452488016137324 
2.370000000000577, -1.2447630218220287 
2.380000000000598, -1.2441837925880468 
2.390000000000619, -1.2436083632213515 
2.4000000000006403, -1.2431377446494305 
2.4100000000006614, -1.2428515900812087 
2.4200000000006825, -1.2427832821693 
2.4300000000007036, -1.2429140243477703 
2.4400000000007247, -1.2431842239486555 
2.450000000000746, -1.243511019139508 
2.460000000000767, -1.2438065939144378 
2.470000000000788, -1.2439925984943738 
2.480000000000809, -1.2440059475116827 
2.49000000000083, -1.2437976874471928 
2.5000000000008513, -1.2433307074703355 
2.5100000000008724, -1.242579536585385 
2.5200000000008935, -1.2415316828901983 
2.5300000000009146, -1.240189399769605 
2.5400000000009357, -1.2385726930681948 
2.550000000000957, -1.236725652675772 
2.560000000000978, -1.2347269842683708 
2.570000000000999, -1.2327017006393046 
2.58000000000102, -1.2308232038486977 
2.5900000000010412, -1.2292849680471458 
2.6000000000010624, -1.2282283266663265 
2.6100000000010835, -1.2276626122837375 
2.6200000000011046, -1.2274559344963019 
2.6300000000011257, -1.2274130270409074 
2.6400000000011468, -1.227359796389155 
2.650000000001168, -1.2271686394111847 
2.660000000001189, -1.22673322872793 
2.67000000000121, -1.2259262282109058 
2.680000000001231, -1.2245578092179654 
2.6900000000012523, -1.2223430956010095 
2.7000000000012734, -1.2188955129178711 
2.7100000000012945, -1.2137804542584836 
2.7200000000013156, -1.206667775912316 
2.7300000000013367, -1.1975870097182095 
2.740000000001358, -1.1872037612479858 
2.750000000001379, -1.176906800518633 
2.7600000000014, -1.1684188172620877 
2.770000000001421, -1.1629275544696656 
2.780000000001442, -1.1604126063178994 
2.7900000000014633, -1.1598924642399457 
2.8000000000014844, -1.1602513603959506 
2.8100000000015055, -1.1607667573773277 
2.8200000000015266, -1.161122455117163 
2.8300000000015477, -1.1612228861050293 
2.840000000001569, -1.1610402113091467 
2.85000000000159, -1.1605297854791135 
2.860000000001611, -1.1595789512054435 
2.870000000001632, -1.1579553537354041 
2.8800000000016532, -1.155238095762683 
2.8900000000016743, -1.150748687060719 
2.9000000000016954, -1.1435854618248875 
2.9100000000017165, -1.1330186235708426 
2.9200000000017377, -1.119493083900545 
2.9300000000017588, -1.1056793994330316 
2.94000000000178, -1.0957304945952153 
2.950000000001801, -1.0922167130419669 
2.960000000001822, -1.0941218715450847 
2.970000000001843, -1.0984109755355815 
2.9800000000018643, -1.1026328565159829 
2.9900000000018854, -1.1057842585372952 
3.0000000000019065, -1.1078052486014287 
3.0100000000019276, -1.1089536545789915 
3.0200000000019487, -1.1094918351125087 
3.03000000000197, -1.1095971351621259 
3.040000000001991, -1.1093575140116907 
3.050000000002012, -1.108783301296834 
3.060000000002033, -1.1078146732173209 
3.070000000002054, -1.10633009337014 
3.0800000000020753, -1.1041876453291783 
3.0900000000020964, -1.1013758930705664 
3.1000000000021175, -1.0983823846324114 
3.1100000000021386, -1.0967283095251876 
3.1200000000021597, -1.0990336631084527 
3.130000000002181, -1.1075792649005973 
3.140000000002202, -1.1219021860076102 
3.150000000002223, -1.1383909960773124 
3.160000000002244, -1.1529638886719213 
3.1700000000022652, -1.1636037012964726 
3.1800000000022863, -1.1704153823323034 
3.1900000000023074, -1.174406334021709 
3.2000000000023285, -1.176584470623107 
3.2100000000023496, -1.1776626742509406 
3.2200000000023707, -1.1780722896797147 
3.230000000002392, -1.178050958534842 
3.240000000002413, -1.1777204018257559 
3.250000000002434, -1.177146654179687 
3.260000000002455, -1.1764027805550878 
3.2700000000024763, -1.1756599517565578 
3.2800000000024974, -1.1753047247900597 
3.2900000000025185, -1.175984908486495 
3.3000000000025396, -1.1783987944537697 
3.3100000000025607, -1.1828334684761062 
3.3200000000025818, -1.1888709923993503 
3.330000000002603, -1.1956001342810327 
3.340000000002624, -1.202083395681064 
3.350000000002645, -1.207667015326388 
3.360000000002666, -1.2120446420221185 
3.3700000000026873, -1.2151898780925847 
3.3800000000027084, -1.217252469492589 
3.3900000000027295, -1.2184580710468917 
3.4000000000027506, -1.2190324311706864 
3.4100000000027717, -1.219161215767401 
3.420000000002793, -1.2189830164304358 
3.430000000002814, -1.2186048119148414 
3.440000000002835, -1.218128795911714 
3.450000000002856, -1.217677799214503 
3.460000000002877, -1.2173986550220788 
3.4700000000028983, -1.217425319333623 
3.4800000000029194, -1.2178192083110684 
3.4900000000029405, -1.2185406127728287 
3.5000000000029616, -1.2194769290731562 
3.5100000000029827, -1.2204946459450827 
3.520000000003004, -1.221475947590144 
3.530000000003025, -1.2223322615610084 
3.540000000003046, -1.2230039125176955 
3.550000000003067, -1.2234543759792846 
3.5600000000030882, -1.2236641003104256 
3.5700000000031094, -1.2236263166101546 
3.5800000000031305, -1.22334527623151 
3.5900000000031516, -1.2228362126967969 
3.6000000000031727, -1.2221263641959559 
3.6100000000031938, -1.2212570669854657 
3.620000000003215, -1.2202865235558886 
3.630000000003236, -1.2192906245085635 
3.640000000003257, -1.2183578164347633 
3.650000000003278, -1.2175761957513553 
3.6600000000032993, -1.217013800910047 
3.6700000000033204, -1.216695121986861 
3.6800000000033415, -1.216585091400439 
3.6900000000033626, -1.2165972494376378 
3.7000000000033837, -1.2166240839918347 
3.710000000003405, -1.216564512026995 
3.720000000003426, -1.2163307520122115 
3.730000000003447, -1.21583967702828 
3.740000000003468, -1.2150031722233696 
3.750000000003489, -1.2137278951858375 
3.7600000000035103, -1.2119272992317711 
3.7700000000035314, -1.2095418578641493 
3.7800000000035525, -1.2065603844184187 
3.7900000000035736, -1.20303959466484 
3.8000000000035947, -1.19912592144204 
3.810000000003616, -1.1950799773132905 
3.820000000003637, -1.1912805660968429 
3.830000000003658, -1.1881559302752447 
3.840000000003679, -1.1860154657808972 
3.8500000000037002, -1.1848800682830947 
3.8600000000037213, -1.184485370958454 
3.8700000000037424, -1.1844648283131494 
3.8800000000037635, -1.1845239520761695 
3.8900000000037847, -1.1844856470160536 
3.9000000000038058, -1.1842458361591055 
3.910000000003827, -1.1837098720212866 
3.920000000003848, -1.182735294845886 
3.930000000003869, -1.1810759461445641 
3.94000000000389, -1.1783222587133295 
3.9500000000039113, -1.1738583083222762 
3.9600000000039324, -1.1669101888719533 
3.9700000000039535, -1.1568173706202225 
3.9800000000039746, -1.1436040293964582 
3.9900000000039957, -1.1286008271914558 
4.000000000004016, -1.1144144080358092 
4.010000000003993, -1.1037303054702952 
4.02000000000397, -1.097711902266027 
4.030000000003946, -1.0955783197051063 
4.040000000003923, -1.095638728794912 
4.0500000000039, -1.0964680591057752 
4.0600000000038765, -1.0973031454119562 
4.070000000003853, -1.0978711524458373 
4.08000000000383, -1.0981249912449742 
4.090000000003807, -1.0980771080754357 
4.100000000003783, -1.097722053614548 
4.11000000000376, -1.0969980346238641 
4.120000000003737, -1.0957523687988864 
4.130000000003713, -1.093692627763319 
4.14000000000369, -1.0903230204600436 
4.150000000003667, -1.0849069250380534 
4.1600000000036434, -1.07659030659077 
4.17000000000362, -1.0649220252936962 
4.180000000003597, -1.0508098011873561 
4.1900000000035735, -1.0370862077175622 
4.20000000000355, -1.0273017679042948 
4.210000000003527, -1.0232198376595711 
4.220000000003504, -1.0237924422806766 
4.23000000000348, -1.026606239482991 
4.240000000003457, -1.0297062498853347 
4.250000000003434, -1.032184423717097 
4.26000000000341, -1.0338636536303336 
4.270000000003387, -1.0348636188072666 
4.280000000003364, -1.035352683678728 
4.2900000000033405, -1.035456392762902 
4.300000000003317, -1.0352364234901292 
4.310000000003294, -1.034687314345453 
4.320000000003271, -1.0337283302918523 
4.330000000003247, -1.0321826499614508 
4.340000000003224, -1.0297464359115873 
4.350000000003201, -1.0259716451779262 
4.360000000003177, -1.020334830562243 
4.370000000003154, -1.0125258988859178 
4.380000000003131, -1.0030306502870707 
4.390000000003107, -0.9936510373113497 
4.400000000003084, -0.9870570893301318 
4.410000000003061, -0.9850871982688538 
4.4200000000030375, -0.9873708769768543 
4.430000000003014, -0.9918804349721311 
4.440000000002991, -0.996577504163416 
4.450000000002968, -1.0003666278901062 
4.460000000002944, -1.0030077706673461 
4.470000000002921, -1.0046706795461033 
4.480000000002898, -1.0056128975206995 
4.490000000002874, -1.0060450151679112 
4.500000000002851, -1.0060998187422732 
4.510000000002828, -1.005835765801192 
4.520000000002804, -1.005241850608296 
4.530000000002781, -1.0042317370001963 
4.540000000002758, -1.002623793885974 
4.5500000000027345, -1.0001112665622425 
4.560000000002711, -0.9962458792551786 
4.570000000002688, -0.9905013920484633 
4.580000000002665, -0.9825363375662013 
4.590000000002641, -0.9727204331123337 
4.600000000002618, -0.9626244955563233 
4.610000000002595, -0.9547044926664382 
4.620000000002571, -0.9508758285805265 
4.630000000002548, -0.9511998631803712 
4.640000000002525, -0.9541192752275496 
4.6500000000025015, -0.9577897409356154 
4.660000000002478, -0.9610367736812726 
4.670000000002455, -0.9634451323133403 
4.6800000000024315, -0.9650378148359549 
4.690000000002408, -0.9659842142041845 
4.700000000002385, -0.9664517086415293 
4.710000000002362, -0.9665558826240362 
4.720000000002338, -0.966351554982284 
4.730000000002315, -0.9658313554391984 
4.740000000002292, -0.9649166191023582 
4.750000000002268, -0.9634330559942661 
4.760000000002245, -0.9610675885388525 
4.770000000002222, -0.9573128577231765 
4.7800000000021985, -0.951438024375858 
4.790000000002175, -0.9425928123876988 
4.800000000002152, -0.9302122549284725 
4.810000000002129, -0.9147400991221861 
4.820000000002105, -0.8981413735401615 
4.830000000002082, -0.8833238226755828 
4.840000000002059, -0.8725605433797682 
4.850000000002035, -0.8663722539041687 
4.860000000002012, -0.8637939386455702 
4.870000000001989, -0.863372002570485 
4.880000000001965, -0.8639112289025237 
4.890000000001942, -0.8646927867256785 
4.900000000001919, -0.8653799146741132 
4.9100000000018955, -0.8658549707939771 
4.920000000001872, -0.8660962399559979 
4.930000000001849, -0.8661077123505688 
4.940000000001826, -0.8658834902694759 
