t, s[1].omega / s[0].omega 
0, -1.0598268172141916 
0.009999999999999995, -1.0435518527991088 
0.019999999999999934, -1.0315774437370258 
0.029999999999999874, -1.0253509412225539 
0.04000000000000012, -1.0237654796929818 
0.050000000000000405, -1.024652955405072 
0.06000000000000069, -1.0262726510398932 
0.07000000000000098, -1.0277395867275652 
0.08000000000000126, -1.028776038363932 
0.09000000000000155, -1.0293774493202064 
0.10000000000000184, -1.0296109767549728 
0.11000000000000212, -1.0295292483461362 
0.12000000000000241, -1.02913856882034 
0.130000000000002, -1.0283809096676382 
0.1400000000000009, -1.0271088467456593 
0.1499999999999998, -1.0250434174864442 
0.1599999999999987, -1.0217163825073103 
0.1699999999999976, -1.016429075329926 
0.1799999999999965, -1.0083312268344924 
0.1899999999999954, -0.9968069942343941 
0.1999999999999943, -0.9822478599685942 
0.2099999999999932, -0.9667038614548753 
0.2199999999999921, -0.9533398478473252 
0.229999999999991, -0.9445842261798081 
0.2399999999999899, -0.940728220951742 
0.2499999999999888, -0.940331227576733 
0.2599999999999877, -0.9415833755138104 
0.2699999999999866, -0.9432117601851555 
0.2799999999999855, -0.9446087114522115 
0.2899999999999844, -0.9455963750933943 
0.2999999999999833, -0.9461859914057807 
0.3099999999999822, -0.9464372617920498 
0.3199999999999811, -0.946396121647752 
0.32999999999998, -0.9460698831585624 
0.3399999999999789, -0.9454120508106856 
0.3499999999999778, -0.9443015951679549 
0.35999999999997667, -0.9425085178899266 
0.36999999999997557, -0.939645198955519 
0.37999999999997447, -0.9351232363506314 
0.38999999999997337, -0.9281820137257701 
0.39999999999997227, -0.9181122136466303 
0.40999999999997117, -0.9047512969688201 
0.41999999999997006, -0.8890215274436282 
0.42999999999996896, -0.8729315693181208 
0.43999999999996786, -0.858761204190843 
0.44999999999996676, -0.8480216281850828 
0.45999999999996566, -0.8410138198682471 
0.46999999999996456, -0.8371140239440713 
0.47999999999996346, -0.8353396355405716 
0.48999999999996235, -0.8347850864520518 
0.49999999999996125, -0.8348052375386326 
0.5099999999999602, -0.8350153345776162 
0.519999999999959, -0.8352158852539565 
0.529999999999958, -0.8353131119298494 
0.5399999999999568, -0.8352607487960487 
0.5499999999999557, -0.835023628018688 
0.5599999999999546, -0.8345559103496057 
0.5699999999999535, -0.8337883426413697 
0.5799999999999524, -0.8326240199117736 
0.5899999999999513, -0.830947954966622 
0.5999999999999502, -0.8286577914019497 
0.6099999999999491, -0.8257133641171139 
0.619999999999948, -0.8221810291726059 
0.6299999999999469, -0.8182376476785371 
0.6399999999999458, -0.8141246662838739 
0.6499999999999447, -0.8100835387147296 
0.6599999999999436, -0.8063111761321666 
0.6699999999999425, -0.8029467546487374 
0.6799999999999414, -0.8000771665454153 
0.6899999999999403, -0.7977455643629429 
0.6999999999999392, -0.795956144487547 
0.7099999999999381, -0.7946764881988353 
0.719999999999937, -0.7938419629557708 
0.7299999999999359, -0.7933651361141333 
0.7399999999999348, -0.79314918876971 
0.7499999999999337, -0.7931012160877899 
0.7599999999999326, -0.793141309034552 
0.7699999999999315, -0.7932059459492428 
0.7799999999999304, -0.7932471464829634 
0.7899999999999293, -0.7932302198454698 
0.7999999999999282, -0.7931324390056917 
0.8099999999999271, -0.7929431456924048 
0.819999999999926, -0.7926636559659356 
0.8299999999999249, -0.7923045480350341 
0.8399999999999238, -0.7918797784079106 
0.8499999999999227, -0.79140032966399 
0.8599999999999216, -0.790871315152389 
0.8699999999999205, -0.7902941178194774 
0.8799999999999194, -0.7896716268411932 
0.8899999999999183, -0.7890133065307638 
0.8999999999999172, -0.788338277436781 
0.9099999999999161, -0.7876766159989705 
0.919999999999915, -0.7870696430490867 
0.9299999999999139, -0.7865691211003396 
0.9399999999999128, -0.7862343913715091 
0.9499999999999117, -0.7861266837568625 
0.9599999999999106, -0.7863012239261525 
0.9699999999999095, -0.7867993739872049 
0.9799999999999084, -0.7876435086326561 
0.9899999999999073, -0.788836043502587 
0.9999999999999062, -0.7903617374608541 
1.0099999999999052, -0.7921904733796222 
1.019999999999904, -0.7942771849315716 
1.029999999999903, -0.7965569197941756 
1.039999999999902, -0.798936600244851 
1.0499999999999008, -0.801290508949499 
1.0599999999998997, -0.8034702803917577 
1.0699999999998986, -0.8053347488695147 
1.0799999999998975, -0.8067882159472779 
1.0899999999998964, -0.8078028936526623 
1.0999999999998953, -0.8084113873735579 
1.1099999999998942, -0.8086789313706095 
1.119999999999893, -0.8086756399692167 
1.129999999999892, -0.8084608883993468 
1.1399999999998909, -0.8080807857345388 
1.1499999999998898, -0.8075757895570369 
1.1599999999998887, -0.8069974452451684 
1.1699999999998876, -0.806436474537908 
1.1799999999998865, -0.8060654516975317 
1.1899999999998854, -0.8061944823750634 
1.1999999999998843, -0.8073236364182712 
1.2099999999998832, -0.8101512912701423 
1.219999999999882, -0.8154750557449862 
1.229999999999881, -0.8239306175991107 
1.2399999999998799, -0.8355925073594614 
1.2499999999998788, -0.8496247503028256 
1.2599999999998777, -0.8643181032996186 
1.2699999999998766, -0.8777061132351326 
1.2799999999998755, -0.8884153329756421 
1.2899999999998744, -0.8960808595051711 
1.2999999999998733, -0.901112053087683 
1.3099999999998722, -0.904203461841035 
1.319999999999871, -0.9059926368107492 
1.32999999999987, -0.9069413741874467 
1.3399999999998689, -0.9073429556655878 
1.3499999999998678, -0.9073651016436012 
1.3599999999998666, -0.9070883223530677 
1.3699999999998655, -0.9065302482868413 
1.3799999999998644, -0.9056583681361948 
1.3899999999998633, -0.9043983176054409 
1.3999999999998622, -0.9026507996634001 
1.4099999999998611, -0.900341359453042 
1.41999999999986, -0.8975387156922118 
1.429999999999859, -0.8946599177621843 
1.4399999999998578, -0.8926737011462962 
1.4499999999998567, -0.8930144263262237 
1.4599999999998556, -0.8969039479889783 
1.4699999999998545, -0.9043633677953797 
1.4799999999998534, -0.9139115291116522 
1.4899999999998523, -0.9234413299415147 
1.4999999999998512, -0.9314027218289359 
1.5099999999998501, -0.9372556761101091 
1.519999999999849, -0.9411875947619744 
1.529999999999848, -0.9436588302206959 
1.5399999999998468, -0.9451166083798013 
1.5499999999998457, -0.9458940593712871 
1.5599999999998446, -0.9462051487588891 
1.5699999999998435, -0.9461675733478618 
1.5799999999998424, -0.9458230380157989 
1.5899999999998413, -0.9451449764397797 
1.5999999999998402, -0.9440308982803286 
1.6099999999998391, -0.9422783317766209 
1.619999999999838, -0.9395469357063554 
1.629999999999837, -0.9353238636306495 
1.6399999999998358, -0.9289469489923411 
1.6499999999998347, -0.9197975544364653 
1.6599999999998336, -0.9077718218055184 
1.6699999999998325, -0.8938847550478084 
1.6799999999998314, -0.8803728057818555 
1.6899999999998303, -0.8697199104498148 
1.6999999999998292, -0.8632309865028038 
1.709999999999828, -0.8605410931115095 
1.719999999999827, -0.8603274976196648 
1.729999999999826, -0.8612598904661871 
1.7399999999998248, -0.8624624625733069 
1.7499999999998237, -0.8635129457572404 
1.7599999999998226, -0.8642724080423225 
1.7699999999998215, -0.8647314669476966 
1.7799999999998204, -0.8649186641311639 
1.7899999999998193, -0.8648559523272343 
1.7999999999998182, -0.8645376878885219 
1.809999999999817, -0.863916670874532 
1.819999999999816, -0.8628884031563313 
1.8299999999998149, -0.8612713590750044 
1.8399999999998138, -0.8587907527140146 
1.8499999999998127, -0.8550902621178371 
1.8599999999998116, -0.8498133673044338 
1.8699999999998105, -0.8427782348846687 
1.8799999999998094, -0.8341790115973368 
1.8899999999998083, -0.8246482495364669 
1.8999999999998072, -0.8150809348700137 
1.909999999999806, -0.8063322886961227 
1.919999999999805, -0.798990145966685 
1.9299999999998039, -0.7933066898871173 
1.9399999999998028, -0.7892467727256395 
1.9499999999998017, -0.7865835706210373 
1.9599999999998006, -0.78499834387616 
1.9699999999997995, -0.7841629277677835 
1.9799999999997984, -0.78379387491017 
1.9899999999997973, -0.7836757368994098 
1.9999999999997962, -0.7836597460242001 
2.0099999999998173, -0.7836488862616483 
2.0199999999998384, -0.7835794453146011 
2.0299999999998595, -0.7834053688804251 
2.0399999999998806, -0.7830884169195834 
2.0499999999999017, -0.7825953892291089 
2.059999999999923, -0.7819024419699085 
2.069999999999944, -0.7810039448776875 
2.079999999999965, -0.7799196317427965 
2.089999999999986, -0.778693006717968 
2.100000000000007, -0.7773797331524865 
2.1100000000000283, -0.7760328926718896 
2.1200000000000494, -0.7746938797242351 
2.1300000000000705, -0.7733920748067077 
2.1400000000000916, -0.7721502414916681 
2.1500000000001127, -0.7709907947673778 
2.160000000000134, -0.7699397621172273 
2.170000000000155, -0.7690274603621081 
2.180000000000176, -0.7682861929272788 
2.190000000000197, -0.7677458599886933 
2.2000000000002182, -0.7674288175225986 
2.2100000000002393, -0.7673456348786883 
2.2200000000002604, -0.7674932264658152 
2.2300000000002815, -0.767856016850242 
2.2400000000003026, -0.7684096532968927 
2.2500000000003237, -0.7691258534671622 
2.260000000000345, -0.7699766202229029 
2.270000000000366, -0.7709362176122121 
2.280000000000387, -0.7719797725353664 
2.290000000000408, -0.7730782726484813 
2.3000000000004293, -0.7741915816558562 
2.3100000000004504, -0.7752637816641474 
2.3200000000004715, -0.7762265463178014 
2.3300000000004926, -0.7770128563204806 
2.3400000000005137, -0.7775752117944074 
2.3500000000005348, -0.7778970769122633 
2.360000000000556, -0.7779910730814097 
2.370000000000577, -0.7778878936489712 
2.380000000000598, -0.7776250167983819 
2.390000000000619, -0.7772416265800035 
2.4000000000006403, -0.7767816616234159 
2.4100000000006614, -0.7763048252015629 
2.4200000000006825, -0.7759051253634635 
2.4300000000007036, -0.7757355930964305 
2.4400000000007247, -0.7760343143193771 
2.450000000000746, -0.7771406651729651 
2.460000000000767, -0.7794843157389553 
2.470000000000788, -0.7835280026597742 
2.480000000000809, -0.7896521256861568 
2.49000000000083, -0.7979868969113324 
2.5000000000008513, -0.8082322147209654 
2.5100000000008724, -0.8195629615002421 
2.5200000000008935, -0.8307585035120584 
2.5300000000009146, -0.8406012017885084 
2.5400000000009357, -0.8483324724025261 
2.550000000000957, -0.8538313773607065 
2.560000000000978, -0.8574367439697452 
2.570000000000999, -0.8596437370373871 
2.58000000000102, -0.8608963111359816 
2.5900000000010412, -0.8615153026396818 
2.6000000000010624, -0.8617036820519999 
2.6100000000010835, -0.8615740914326997 
2.6200000000011046, -0.8611733138694705 
2.6300000000011257, -0.8604975310182367 
2.6400000000011468, -0.8595004212422961 
2.650000000001168, -0.8581005150533884 
2.660000000001189, -0.8562000611425544 
2.67000000000121, -0.8537363876795183 
2.680000000001231, -0.8507904614370423 
2.6900000000012523, -0.8477484802959303 
2.7000000000012734, -0.8454146494610677 
2.7100000000012945, -0.8448560336012422 
2.7200000000013156, -0.8468658348675959 
2.7300000000013367, -0.8513855469975862 
2.740000000001358, -0.857460034052148 
2.750000000001379, -0.8637859034212173 
2.7600000000014, -0.8693400385213925 
2.770000000001421, -0.8736532119707313 
2.780000000001442, -0.8767150374928333 
2.7900000000014633, -0.8787424583989992 
2.8000000000014844, -0.8799974922146339 
2.8100000000015055, -0.8806990977994891 
2.8200000000015266, -0.8809989116146791 
2.8300000000015477, -0.8809836057455882 
2.840000000001569, -0.8806813333528887 
2.85000000000159, -0.8800616734651292 
2.860000000001611, -0.879023822682439 
2.870000000001632, -0.8773695988738026 
2.8800000000016532, -0.874761359657368 
2.8900000000016743, -0.8706791835674883 
2.9000000000016954, -0.8644291255183287 
2.9100000000017165, -0.8553089031408835 
2.9200000000017377, -0.8430222354671519 
2.9300000000017588, -0.8281918739149565 
2.94000000000178, -0.8124736228897176 
2.950000000001801, -0.7979378561370702 
2.960000000001822, -0.786150398575974 
2.970000000001843, -0.7776887414530579 
2.9800000000018643, -0.7722761467349395 
2.9900000000018854, -0.7691999866950224 
3.0000000000019065, -0.7676816242884039 
3.0100000000019276, -0.7670784427180386 
3.0200000000019487, -0.7669414268464654 
3.03000000000197, -0.766992254712294 
3.040000000001991, -0.7670729501111698 
3.050000000002012, -0.7670974311675167 
3.060000000002033, -0.767015305857792 
3.070000000002054, -0.7667882900244425 
3.0800000000020753, -0.7663767732501506 
3.0900000000020964, -0.7657350938024164 
3.1000000000021175, -0.7648161020300506 
3.1100000000021386, -0.7635855426516095 
3.1200000000021597, -0.7620419618450464 
3.130000000002181, -0.760230280986274 
3.140000000002202, -0.7582366206821203 
3.150000000002223, -0.7561648071524706 
3.160000000002244, -0.7541096871205528 
3.1700000000022652, -0.75214232643829 
3.1800000000022863, -0.7503099617661998 
3.1900000000023074, -0.7486439916274863 
3.2000000000023285, -0.7471683535156968 
3.2100000000023496, -0.7459042494279807 
3.2200000000023707, -0.7448706362591262 
3.230000000002392, -0.7440817348572313 
3.240000000002413, -0.7435434542469028 
3.250000000002434, -0.7432506126304662 
3.260000000002455, -0.7431863247840198 
3.2700000000024763, -0.7433239991139539 
3.2800000000024974, -0.7436313545140523 
3.2900000000025185, -0.7440751834035221 
3.3000000000025396, -0.7446255036693372 
3.3100000000025607, -0.7452580675689547 
3.3200000000025818, -0.7459545001479462 
3.330000000002603, -0.746699500301734 
3.340000000002624, -0.7474750861442817 
3.350000000002645, -0.7482535197721516 
3.360000000002666, -0.7489929266676615 
3.3700000000026873, -0.7496403978835822 
3.3800000000027084, -0.7501437742993425 
3.3900000000027295, -0.7504664652673886 
3.4000000000027506, -0.750596211988017 
3.4100000000027717, -0.7505434775264103 
3.420000000002793, -0.750333269765772 
3.430000000002814, -0.7499975430123305 
3.440000000002835, -0.7495730389445998 
3.450000000002856, -0.7491061265827577 
3.460000000002877, -0.748664631528595 
3.4700000000028983, -0.7483561038691701 
3.4800000000029194, -0.7483506121354064 
3.4900000000029405, -0.7489027655517033 
3.5000000000029616, -0.7503625448602955 
3.5100000000029827, -0.7531596499353868 
3.520000000003004, -0.7577441444758801 
3.530000000003025, -0.7644695912875117 
3.540000000003046, -0.7734192097054955 
3.550000000003067, -0.7842161518361355 
3.5600000000030882, -0.7959347175209213 
3.5700000000031094, -0.8072749458503514 
3.5800000000031305, -0.8170230365104262 
3.5900000000031516, -0.8245140359899228 
3.6000000000031727, -0.8297436850369554 
3.6100000000031938, -0.8331250173924518 
3.620000000003215, -0.8351740959423394 
3.630000000003236, -0.8363254241999097 
3.640000000003257, -0.836881927421109 
3.650000000003278, -0.8370302034508723 
3.6600000000032993, -0.836869796346192 
3.6700000000033204, -0.8364357257735848 
3.6800000000033415, -0.8357098846613548 
3.6900000000033626, -0.8346226000314363 
3.7000000000033837, -0.8330477722092736 
3.710000000003405, -0.8307982018172246 
3.720000000003426, -0.8276344078513436 
3.730000000003447, -0.8233090377354022 
3.740000000003468, -0.8176697086522378 
3.750000000003489, -0.8108182778179194 
3.7600000000035103, -0.8032714506420898 
3.7700000000035314, -0.79600384695409 
3.7800000000035525, -0.7902003805838379 
3.7900000000035736, -0.78668685572652 
3.8000000000035947, -0.7854724744999209 
3.810000000003616, -0.7858826965972783 
3.820000000003637, -0.7870754717458843 
3.830000000003658, -0.7884230266937744 
3.840000000003679, -0.7895943719952424 
3.8500000000037002, -0.7904730191732285 
3.8600000000037213, -0.7910521911111666 
3.8700000000037424, -0.7913627007664382 
3.8800000000037635, -0.7914345659220501 
3.8900000000037847, -0.7912786796740271 
3.9000000000038058, -0.7908766903893277 
3.910000000003827, -0.7901723018515104 
3.920000000003848, -0.7890622094842595 
3.930000000003869, -0.7873911062587412 
3.94000000000389, -0.7849639326305368 
3.9500000000039113, -0.7815948196337131 
3.9600000000039324, -0.7771988133138751 
3.9700000000039535, -0.7718867504695467 
3.9800000000039746, -0.7659846522218012 
3.9900000000039957, -0.7599412210710252 
4.000000000004016, -0.7541861759150008 
4.010000000003993, -0.7490327651883703 
4.02000000000397, -0.7446553635610474 
4.030000000003946, -0.7411132822989988 
4.040000000003923, -0.7383847939832335 
4.0500000000039, -0.7363947520058579 
4.0600000000038765, -0.7350347853427721 
4.070000000003853, -0.7341797803943563 
4.08000000000383, -0.7337026623419407 
4.090000000003807, -0.7334866578979673 
4.100000000003783, -0.7334331890451528 
4.11000000000376, -0.73346460222227 
4.120000000003737, -0.7335227459547814 
4.130000000003713, -0.7335656006536271 
4.14000000000369, -0.7335642253175787 
4.150000000003667, -0.7335013430246313 
4.1600000000036434, -0.7333712436380483 
4.17000000000362, -0.7331790184421216 
4.180000000003597, -0.732936861917717 
4.1900000000035735, -0.7326573202245525 
4.20000000000355, -0.7323465637513917 
4.210000000003527, -0.732001798335728 
4.220000000003504, -0.731614409528113 
4.23000000000348, -0.7311765834468102 
4.240000000003457, -0.7306874379890965 
4.250000000003434, -0.7301563182364263 
4.26000000000341, -0.7296037921011673 
4.270000000003387, -0.7290622968832392 
4.280000000003364, -0.7285777247830552 
4.2900000000033405, -0.7282116862598272 
4.300000000003317, -0.7280429594831317 
4.310000000003294, -0.7281662887046034 
4.320000000003271, -0.7286873872202252 
4.330000000003247, -0.7297144407542813 
4.340000000003224, -0.7313476520351896 
4.350000000003201, -0.7336681964438246 
4.360000000003177, -0.7367259036430223 
4.370000000003154, -0.7405222121304876 
4.380000000003131, -0.7449845358836521 
4.390000000003107, -0.7499347144645063 
4.400000000003084, -0.7550704211659544 
4.410000000003061, -0.7599944216333037 
4.4200000000030375, -0.7643122771942478 
4.430000000003014, -0.7677587390359528 
4.440000000002991, -0.770266134099012 
4.450000000002968, -0.7719318415938022 
4.460000000002944, -0.7729293731563683 
4.470000000002921, -0.7734310115837097 
4.480000000002898, -0.7735696315496235 
4.490000000002874, -0.7734306527355014 
4.500000000002851, -0.7730570963788872 
4.510000000002828, -0.7724572133740875 
4.520000000002804, -0.7716115590285283 
4.530000000002781, -0.7704815431039956 
4.540000000002758, -0.7690256746352205 
4.5500000000027345, -0.7672335109210946 
4.560000000002711, -0.7651866353325131 
4.570000000002688, -0.7631381295972806 
4.580000000002665, -0.7615521229956594 
4.590000000002641, -0.7609922288684826 
4.600000000002618, -0.7618258104081688 
4.610000000002595, -0.7639834050774147 
4.620000000002571, -0.7670615533054518 
4.630000000002548, -0.7705890663974053 
4.640000000002525, -0.774133052436922 
4.6500000000025015, -0.7773290448531812 
4.660000000002478, -0.7799494075458806 
4.670000000002455, -0.7819307347071369 
4.6800000000024315, -0.7833271937232407 
4.690000000002408, -0.784241841443222 
4.700000000002385, -0.7847773834641553 
4.710000000002362, -0.7850122152773814 
4.720000000002338, -0.7849919282934901 
4.730000000002315, -0.7847261619107152 
4.740000000002292, -0.7841844593022618 
4.750000000002268, -0.7832883094057635 
4.760000000002245, -0.7819004406501955 
4.770000000002222, -0.779819352469682 
4.7800000000021985, -0.7767983724756301 
4.790000000002175, -0.7726157463220197 
4.800000000002152, -0.7671995573573965 
4.810000000002129, -0.760744357554028 
4.820000000002105, -0.7537115266384061 
4.830000000002082, -0.746682959169062 
4.840000000002059, -0.7401729564231962 
4.850000000002035, -0.7345189962410842 
4.860000000002012, -0.7298733518118897 
4.870000000001989, -0.7262470054720679 
4.880000000001965, -0.7235600160090921 
4.890000000001942, -0.7216807379968475 
4.900000000001919, -0.7204539630056337 
4.9100000000018955, -0.7197218558455847 
4.920000000001872, -0.7193394032521785 
