t, s[1].omega / s[0].omega 
0, -0.5199977521201966 
0.009999999999999995, -0.5197939745963291 
0.019999999999999934, -0.5196234735929697 
0.029999999999999874, -0.5194646997229259 
0.04000000000000012, -0.519291002168647 
0.050000000000000405, -0.5190793124229558 
0.06000000000000069, -0.5188154696622411 
0.07000000000000098, -0.5184950310274616 
0.08000000000000126, -0.5181212843440819 
0.09000000000000155, -0.5177031141209449 
0.10000000000000184, -0.517254668622616 
0.11000000000000212, -0.5167978689959762 
0.12000000000000241, -0.516368498365249 
0.130000000000002, -0.5160267919819799 
0.1400000000000009, -0.5158734005752476 
0.1499999999999998, -0.5160697923320096 
0.1599999999999987, -0.5168553053106386 
0.1699999999999976, -0.5185357801307312 
0.1799999999999965, -0.5213907445933312 
0.1899999999999954, -0.5254434354249373 
0.1999999999999943, -0.5301697509262595 
0.2099999999999932, -0.5345133919306166 
0.2199999999999921, -0.5375173930146497 
0.229999999999991, -0.5390230215114494 
0.2399999999999899, -0.5395703431994042 
0.2499999999999888, -0.5397705676290785 
0.2599999999999877, -0.5399514715631113 
0.2699999999999866, -0.5401928542749681 
0.2799999999999855, -0.5404670135913805 
0.2899999999999844, -0.5407275304035751 
0.2999999999999833, -0.5409401194364678 
0.3099999999999822, -0.5410853846244177 
0.3199999999999811, -0.5411533237192167 
0.32999999999998, -0.5411375219377301 
0.3399999999999789, -0.5410312114077456 
0.3499999999999778, -0.5408256090379411 
0.35999999999997667, -0.5405108046938972 
0.36999999999997557, -0.5400795117923942 
0.37999999999997447, -0.5395332031416992 
0.38999999999997337, -0.5388881482732055 
0.39999999999997227, -0.5381769766851344 
0.40999999999997117, -0.5374425366170027 
0.41999999999997006, -0.5367258395977892 
0.42999999999996896, -0.5360545345431652 
0.43999999999996786, -0.5354378558747279 
0.44999999999996676, -0.5348693204118741 
0.45999999999996566, -0.5343342003404298 
0.46999999999996456, -0.5338175124745116 
0.47999999999996346, -0.5333095744064886 
0.48999999999996235, -0.5328085550478738 
0.49999999999996125, -0.5323212930475743 
0.5099999999999602, -0.5318642105390983 
0.519999999999959, -0.5314657904028786 
0.529999999999958, -0.5311715887139873 
0.5399999999999568, -0.5310525262040585 
0.5499999999999557, -0.5312171572890941 
0.5599999999999546, -0.5318283042026026 
0.5699999999999535, -0.5331229282729788 
0.5799999999999524, -0.5354294421140035 
0.5899999999999513, -0.5391654683584102 
0.5999999999999502, -0.5447788600639003 
0.6099999999999491, -0.5525769645305524 
0.619999999999948, -0.5624269615090268 
0.6299999999999469, -0.5734845489642947 
0.6399999999999458, -0.5843155168936494 
0.6499999999999447, -0.5935506622782338 
0.6599999999999436, -0.6005373933987344 
0.6699999999999425, -0.6053895295768594 
0.6799999999999414, -0.6085923048028192 
0.6899999999999403, -0.6106490489374294 
0.6999999999999392, -0.6119419046252023 
0.7099999999999381, -0.6127253678449089 
0.719999999999937, -0.6131586170165411 
0.7299999999999359, -0.6133362425383277 
0.7399999999999348, -0.6133087275699799 
0.7499999999999337, -0.6130939765401036 
0.7599999999999326, -0.612682781877284 
0.7699999999999315, -0.6120411925932309 
0.7799999999999304, -0.6111135868049332 
0.7899999999999293, -0.6098320364345123 
0.7999999999999282, -0.6081380594643985 
0.8099999999999271, -0.6060168705959087 
0.819999999999926, -0.6035291884163352 
0.8299999999999249, -0.6008142167925026 
0.8399999999999238, -0.5980520214319235 
0.8499999999999227, -0.5954077934774429 
0.8599999999999216, -0.5929938601557901 
0.8699999999999205, -0.5908638666598984 
0.8799999999999194, -0.5890283211090275 
0.8899999999999183, -0.5874748186054133 
0.8999999999999172, -0.586183435890103 
0.9099999999999161, -0.5851353673582331 
0.919999999999915, -0.5843164287761418 
0.9299999999999139, -0.5837176589464451 
0.9399999999999128, -0.5833347172094941 
0.9499999999999117, -0.5831671094012968 
0.9599999999999106, -0.583217782409695 
0.9699999999999095, -0.5834932945001048 
0.9799999999999084, -0.5840044985179098 
0.9899999999999073, -0.5847673665392599 
0.9999999999999062, -0.5858031350998488 
1.0099999999999052, -0.5871362863586388 
1.019999999999904, -0.5887881186410417 
1.029999999999903, -0.5907634702032605 
1.039999999999902, -0.5930301924558152 
1.0499999999999008, -0.595497361142969 
1.0599999999998997, -0.5980079193912914 
1.0699999999998986, -0.6003640570426791 
1.0799999999998975, -0.6023845000828255 
1.0899999999998964, -0.6039610092563085 
1.0999999999998953, -0.6050762217366241 
1.1099999999998942, -0.6057789502322732 
1.119999999999893, -0.6061440062735926 
1.129999999999892, -0.6062412924689733 
1.1399999999998909, -0.606120417024852 
1.1499999999998898, -0.6058055138269113 
1.1599999999998887, -0.6052932823019563 
1.1699999999998876, -0.6045492630137815 
1.1799999999998865, -0.6034989488741316 
1.1899999999998854, -0.6020108410363616 
1.1999999999998843, -0.5998696193252209 
1.2099999999998832, -0.5967441985195711 
1.219999999999882, -0.5921782123816555 
1.229999999999881, -0.5856758740643017 
1.2399999999998799, -0.5769740997147321 
1.2499999999998788, -0.5664331062802275 
1.2599999999998777, -0.5551598597400081 
1.2699999999998766, -0.5445553339362554 
1.2799999999998755, -0.5356439829153729 
1.2899999999998744, -0.5287859131978033 
1.2999999999998733, -0.5238339603727635 
1.3099999999998722, -0.5204180552522075 
1.319999999999871, -0.5181431795646152 
1.32999999999987, -0.51667575520551 
1.3399999999998689, -0.5157627971873129 
1.3499999999998678, -0.5152231584672523 
1.3599999999998666, -0.5149315050341263 
1.3699999999998655, -0.5148031816141636 
1.3799999999998644, -0.5147823011169651 
1.3899999999998633, -0.514833220682637 
1.3999999999998622, -0.5149349480928137 
1.4099999999998611, -0.5150778846980159 
1.41999999999986, -0.5152621457442966 
1.429999999999859, -0.5154963139976723 
1.4399999999998578, -0.5157950350137634 
1.4499999999998567, -0.5161738979519686 
1.4599999999998556, -0.5166411720038429 
1.4699999999998545, -0.5171882431610634 
1.4799999999998534, -0.5177831590178936 
1.4899999999998523, -0.51837260382903 
1.4999999999998512, -0.518894363263242 
1.5099999999998501, -0.5192951092688497 
1.519999999999849, -0.5195433843500584 
1.529999999999848, -0.5196312407538657 
1.5399999999998468, -0.5195665349778116 
1.5499999999998457, -0.5193624473165885 
1.5599999999998446, -0.5190290409423076 
1.5699999999998435, -0.5185678913905727 
1.5799999999998424, -0.5179684647065901 
1.5899999999998413, -0.5172041246238835 
1.5999999999998402, -0.5162251122676316 
1.6099999999998391, -0.5149443997154979 
1.619999999999838, -0.5132096106898408 
1.629999999999837, -0.5107532375099101 
1.6399999999998358, -0.5071289806008366 
1.6499999999998347, -0.5017076709766337 
1.6599999999998336, -0.49391367960896027 
1.6699999999998325, -0.4837929601757531 
1.6799999999998314, -0.4724406447152735 
1.6899999999998303, -0.46156032539393 
1.6999999999998292, -0.4524722168123379 
1.709999999999828, -0.4456231670037896 
1.719999999999827, -0.44080510401130474 
1.729999999999826, -0.43756024650791564 
1.7399999999998248, -0.43543615780434203 
1.7499999999998237, -0.434076694186492 
1.7599999999998226, -0.43322866233629165 
1.7699999999998215, -0.43272114780927173 
1.7799999999998204, -0.43244222000390087 
1.7899999999998193, -0.4323204311470191 
1.7999999999998182, -0.43231194147358093 
1.809999999999817, -0.4323922799964122 
1.819999999999816, -0.43255154885528685 
1.8299999999998149, -0.432791999144914 
1.8399999999998138, -0.433126859138124 
1.8499999999998127, -0.4335789680227113 
1.8599999999998116, -0.4341773397804247 
1.8699999999998105, -0.43494970493095053 
1.8799999999998094, -0.4359099992608012 
1.8899999999998083, -0.4370425055727626 
1.8999999999998072, -0.43828929225312574 
1.909999999999806, -0.4395519559776745 
1.919999999999805, -0.44071471386469574 
1.9299999999998039, -0.44168004787782894 
1.9399999999998028, -0.44239476723386095 
1.9499999999998017, -0.4428518261046599 
1.9599999999998006, -0.4430733412020559 
1.9699999999997995, -0.44308974014003033 
1.9799999999997984, -0.44292443004674464 
1.9899999999997973, -0.4425847401532378 
1.9999999999997962, -0.44205571038760194 
2.0099999999998173, -0.441292925414278 
2.0199999999998384, -0.44021171656945757 
2.0299999999998595, -0.43867257627914935 
2.0399999999998806, -0.4364694427784598 
2.0499999999999017, -0.4333428574409187 
2.059999999999923, -0.4290582553096285 
2.069999999999944, -0.4235708087875891 
2.079999999999965, -0.41718962333629744 
2.089999999999986, -0.4105486930058655 
2.100000000000007, -0.4043338431481893 
2.1100000000000283, -0.3989986492083005 
2.1200000000000494, -0.39468740991040674 
2.1300000000000705, -0.3913295796066233 
2.1400000000000916, -0.38876467761269107 
2.1500000000001127, -0.386823607928903 
2.160000000000134, -0.38536390789053504 
2.170000000000155, -0.3842782874850938 
2.180000000000176, -0.38349214882092 
2.190000000000197, -0.38295835510523635 
2.2000000000002182, -0.3826527168215562 
2.2100000000002393, -0.38257139452745237 
2.2200000000002604, -0.38273056610364875 
2.2300000000002815, -0.38316847504954876 
2.2400000000003026, -0.3839498827846892 
2.2500000000003237, -0.38517257171400354 
2.260000000000345, -0.3869742389558889 
2.270000000000366, -0.3895347070880538 
2.280000000000387, -0.39306129131438683 
2.290000000000408, -0.3977350428847266 
2.3000000000004293, -0.4035944823572601 
2.3100000000004504, -0.4103758635171187 
2.3200000000004715, -0.4174359177481044 
2.3300000000004926, -0.42393245497405163 
2.3400000000005137, -0.4292144406946572 
2.3500000000005348, -0.43307836510789854 
2.360000000000556, -0.43569362921498245 
2.370000000000577, -0.43737230590365206 
2.380000000000598, -0.4384038834702978 
2.390000000000619, -0.4389993048160652 
2.4000000000006403, -0.43929446039926556 
2.4100000000006614, -0.4393694162138163 
2.4200000000006825, -0.4392654760490246 
2.4300000000007036, -0.43899668928450486 
2.4400000000007247, -0.43855749694267876 
2.450000000000746, -0.4379296650581675 
2.460000000000767, -0.43709197396925753 
2.470000000000788, -0.43603482856412495 
2.480000000000809, -0.4347773024302663 
2.49000000000083, -0.4333772484524826 
2.5000000000008513, -0.431923703963613 
2.5100000000008724, -0.4305118043311861 
2.5200000000008935, -0.4292150288442545 
2.5300000000009146, -0.4280706735514029 
2.5400000000009357, -0.42708204509017805 
2.550000000000957, -0.4262303557094384 
2.560000000000978, -0.42548802852787226 
2.570000000000999, -0.42482875531456743 
2.58000000000102, -0.42423320962292344 
2.5900000000010412, -0.4236914137183124 
2.6000000000010624, -0.4232035741780459 
2.6100000000010835, -0.42278115818565676 
2.6200000000011046, -0.4224496104017218 
2.6300000000011257, -0.42225386985261026 
2.6400000000011468, -0.4222679023656955 
2.650000000001168, -0.42260960837813544 
2.660000000001189, -0.42346191453911636 
2.67000000000121, -0.42509747592946534 
2.680000000001231, -0.42789319585535723 
2.6900000000012523, -0.4322937374283481 
2.7000000000012734, -0.4386430201806008 
2.7100000000012945, -0.4468166216956468 
2.7200000000013156, -0.4558302926688764 
2.7300000000013367, -0.4640138026262953 
2.740000000001358, -0.4700245399780699 
2.750000000001379, -0.47368388332534916 
2.7600000000014, -0.4756756797295685 
2.770000000001421, -0.4767666343091356 
2.780000000001442, -0.47743527721468143 
2.7900000000014633, -0.47790075957483824 
2.8000000000014844, -0.4782456263274244 
2.8100000000015055, -0.47849798207683325 
2.8200000000015266, -0.47866790882555826 
2.8300000000015477, -0.4787597675472333 
2.840000000001569, -0.47877512717759546 
2.85000000000159, -0.4787130253876226 
2.860000000001611, -0.478570237225485 
2.870000000001632, -0.47834274447459035 
2.8800000000016532, -0.4780289873829592 
2.8900000000016743, -0.47763461683390973 
2.9000000000016954, -0.477176905372215 
2.9100000000017165, -0.47668556967389614 
2.9200000000017377, -0.47619750891310464 
2.9300000000017588, -0.4757465822098511 
2.94000000000178, -0.47535326063631056 
2.950000000001801, -0.4750192736501638 
2.960000000001822, -0.4747293358360133 
2.970000000001843, -0.47445842791289283 
2.9800000000018643, -0.47418083709383013 
2.9900000000018854, -0.47387701233130264 
3.0000000000019065, -0.4735362788673173 
3.0100000000019276, -0.473156149047793 
3.0200000000019487, -0.47274043952099937 
3.03000000000197, -0.47229823075215493 
3.040000000001991, -0.4718448820921738 
3.050000000002012, -0.47140577788691296 
3.060000000002033, -0.47102335934219336 
3.070000000002054, -0.4707677174829474 
3.0800000000020753, -0.47074918032608937 
3.0900000000020964, -0.4711248950148602 
3.1000000000021175, -0.4720755217614537 
3.1100000000021386, -0.4737036274337319 
3.1200000000021597, -0.4758114684520288 
3.130000000002181, -0.4776688951154802 
3.140000000002202, -0.47818664274910744 
3.150000000002223, -0.47674117615420347 
3.160000000002244, -0.47382441099794237 
3.1700000000022652, -0.4705737138659572 
3.1800000000022863, -0.46785755030839615 
3.1900000000023074, -0.4659593881028544 
3.2000000000023285, -0.4647863451667547 
3.2100000000023496, -0.464129458637666 
3.2200000000023707, -0.4637967899253027 
3.230000000002392, -0.4636495623488008 
3.240000000002413, -0.46359780883327806 
3.250000000002434, -0.4635863466239331 
3.260000000002455, -0.4635821481762905 
3.2700000000024763, -0.4635655832038597 
3.2800000000024974, -0.46352533865210904 
3.2900000000025185, -0.4634563393865422 
3.3000000000025396, -0.46335994129029706 
3.3100000000025607, -0.46324532157401643 
3.3200000000025818, -0.46313028881220564 
3.330000000002603, -0.4630393519976799 
3.340000000002624, -0.46299781544173524 
3.350000000002645, -0.4630229700232194 
3.360000000002666, -0.46311573180662985 
3.3700000000026873, -0.46325682276439856 
3.3800000000027084, -0.4634102581819466 
3.3900000000027295, -0.46353351818909727 
3.4000000000027506, -0.46358964998307306 
3.4100000000027717, -0.4635551244572601 
3.420000000002793, -0.46342050358816744 
3.430000000002814, -0.4631857518294812 
3.440000000002835, -0.4628540006330094 
3.450000000002856, -0.462426332141336 
3.460000000002877, -0.4618980326042247 
3.4700000000028983, -0.4612553113754346 
3.4800000000029194, -0.4604705020067774 
3.4900000000029405, -0.45949222739262596 
3.5000000000029616, -0.45822380164144405 
3.5100000000029827, -0.4564785492508478 
3.520000000003004, -0.45390300766375014 
3.530000000003025, -0.4498997219018208 
3.540000000003046, -0.44370437606013435 
3.550000000003067, -0.4348610939239726 
3.5600000000030882, -0.42393656754718806 
3.5700000000031094, -0.4125674165352412 
3.5800000000031305, -0.4024737940758721 
3.5900000000031516, -0.3945429615931809 
3.6000000000031727, -0.3887963127388638 
3.6100000000031938, -0.3848272268892596 
3.620000000003215, -0.38215775919739536 
3.630000000003236, -0.38039081928758217 
3.640000000003257, -0.37923859181897185 
3.650000000003278, -0.3785056588632582 
3.6600000000032993, -0.37806415432783563 
3.6700000000033204, -0.377833078036652 
3.6800000000033415, -0.3777638199139337 
3.6900000000033626, -0.3778309958556059 
3.7000000000033837, -0.378027259017063 
3.710000000003405, -0.3783609190279564 
3.720000000003426, -0.37885527883435455 
3.730000000003447, -0.3795483227929681 
3.740000000003468, -0.38049067443473716 
3.750000000003489, -0.3817386759406823 
3.7600000000035103, -0.383338599927509 
3.7700000000035314, -0.38529939557000586 
3.7800000000035525, -0.38755906145666796 
3.7900000000035736, -0.3899651009168625 
3.8000000000035947, -0.392298268717976 
3.810000000003616, -0.39434406886289974 
3.820000000003637, -0.3959677146477637 
3.830000000003658, -0.3971390776082723 
3.840000000003679, -0.3979034776297215 
3.8500000000037002, -0.3983351205835486 
3.8600000000037213, -0.3985032097827248 
3.8700000000037424, -0.39845628193777166 
3.8800000000037635, -0.3982177388213536 
3.8900000000037847, -0.3977852742689524 
3.9000000000038058, -0.3971305755584758 
3.910000000003827, -0.3961994826497209 
3.920000000003848, -0.39491674417971445 
3.930000000003869, -0.3932034422739992 
3.94000000000389, -0.3910144542743932 
3.9500000000039113, -0.38838858866181025 
3.9600000000039324, -0.38547705888661954 
3.9700000000039535, -0.38251148128677315 
3.9800000000039746, -0.3797208070705311 
3.9900000000039957, -0.37725766608978994 
4.000000000004016, -0.37517834563897834 
4.010000000003993, -0.3734669863544895 
4.02000000000397, -0.37207175059303216 
4.030000000003946, -0.37093261732302807 
4.040000000003923, -0.3699968013461381 
4.0500000000039, -0.3692251506750345 
4.0600000000038765, -0.3685938082459889 
4.070000000003853, -0.36809433565518307 
4.08000000000383, -0.36773435261664805 
4.090000000003807, -0.3675400389762403 
4.100000000003783, -0.3675616112896254 
4.11000000000376, -0.3678830091115563 
4.120000000003737, -0.3686372147762268 
4.130000000003713, -0.3700280894279564 
4.14000000000369, -0.37235612463513446 
4.150000000003667, -0.3760337061272764 
4.1600000000036434, -0.38154636445634116 
4.17000000000362, -0.3892715528263571 
4.180000000003597, -0.3990775828238403 
4.1900000000035735, -0.40988721599722916 
4.20000000000355, -0.4198495287241637 
4.210000000003527, -0.42742803356047315 
4.220000000003504, -0.4323181671059094 
4.23000000000348, -0.43517227569665484 
4.240000000003457, -0.43680360396690154 
4.250000000003434, -0.4377751765836127 
4.26000000000341, -0.4383897601783506 
4.270000000003387, -0.4387934182766163 
4.280000000003364, -0.4390556014103878 
4.2900000000033405, -0.43921072459578614 
4.300000000003317, -0.4392764678316494 
4.310000000003294, -0.43926137984843966 
4.320000000003271, -0.4391683922173774 
4.330000000003247, -0.4389973947048113 
4.340000000003224, -0.43874843473905595 
4.350000000003201, -0.4384260701218697 
4.360000000003177, -0.4380440478231932 
4.370000000003154, -0.437627881851652 
4.380000000003131, -0.4372124552697062 
4.390000000003107, -0.43683393860064507 
4.400000000003084, -0.4365190569261254 
4.410000000003061, -0.43627674135358213 
4.4200000000030375, -0.43609589483751743 
4.430000000003014, -0.4359499722691149 
4.440000000002991, -0.4358061297828023 
4.450000000002968, -0.4356347465846856 
4.460000000002944, -0.43541532104956326 
4.470000000002921, -0.43513733288382916 
4.480000000002898, -0.4347975763117831 
4.490000000002874, -0.43439650857927037 
4.500000000002851, -0.433935358220719 
4.510000000002828, -0.4334144562661386 
4.520000000002804, -0.4328322779415091 
4.530000000002781, -0.43218371811154055 
4.540000000002758, -0.43145406854984036 
4.5500000000027345, -0.43060026161909465 
4.560000000002711, -0.42950208189910244 
4.570000000002688, -0.42786127828604903 
4.580000000002665, -0.42506791430186797 
4.590000000002641, -0.4202173804315995 
4.600000000002618, -0.4126272311380486 
4.610000000002595, -0.40272848577634524 
4.620000000002571, -0.39219764074263164 
4.630000000002548, -0.38283831874825175 
4.640000000002525, -0.3755573816842038 
4.6500000000025015, -0.37035833927628475 
4.660000000002478, -0.36682481260167 
4.670000000002455, -0.3644866962674119 
4.6800000000024315, -0.36296422821254104 
4.690000000002408, -0.3619884994679894 
4.700000000002385, -0.36138072360345774 
4.710000000002362, -0.36102634194120725 
4.720000000002338, -0.36085457269074034 
4.730000000002315, -0.36082460451055776 
4.740000000002292, -0.36091717625045205 
4.750000000002268, -0.3611300775630534 
4.760000000002245, -0.36147633894549147 
4.770000000002222, -0.36198392939225016 
4.7800000000021985, -0.3626954327455496 
4.790000000002175, -0.36366538511256413 
4.800000000002152, -0.3649518616337394 
4.810000000002129, -0.3665982433814011 
4.820000000002105, -0.36860337023795153 
4.830000000002082, -0.3708879194495407 
4.840000000002059, -0.3732812385411425 
4.850000000002035, -0.37555680278089354 
4.860000000002012, -0.3775106469873274 
4.870000000001989, -0.37902986122953575 
4.880000000001965, -0.38010410127652455 
