t, s[1].omega / s[0].omega 
0, -0.6399977136651128 
0.009999999999999995, -0.6397661448750325 
0.019999999999999934, -0.639524030504928 
0.029999999999999874, -0.6392596532436439 
0.04000000000000012, -0.6389600424078749 
0.050000000000000405, -0.6386166472494137 
0.06000000000000069, -0.6382284618850833 
0.07000000000000098, -0.6378025318097236 
0.08000000000000126, -0.6373535556063481 
0.09000000000000155, -0.6369044707698431 
0.10000000000000184, -0.6364891447055634 
0.11000000000000212, -0.6361575080566062 
0.12000000000000241, -0.6359829483614361 
0.130000000000002, -0.6360713036704954 
0.1400000000000009, -0.6365700052254719 
0.1499999999999998, -0.6376744345082843 
0.1599999999999987, -0.6396258767622035 
0.1699999999999976, -0.6426911009365278 
0.1799999999999965, -0.6471086099498233 
0.1899999999999954, -0.6529877416869349 
0.1999999999999943, -0.6601711561568646 
0.2099999999999932, -0.6681334542364086 
0.2199999999999921, -0.6760457166596912 
0.229999999999991, -0.6830603238900673 
0.2399999999999899, -0.6886450065328913 
0.2499999999999888, -0.6927056479321015 
0.2599999999999877, -0.6954573932037083 
0.2699999999999866, -0.6972208178498345 
0.2799999999999855, -0.6982879003968109 
0.2899999999999844, -0.6988753650093329 
0.2999999999999833, -0.6991258294858423 
0.3099999999999822, -0.6991229734420423 
0.3199999999999811, -0.6989051300000659 
0.32999999999998, -0.6984725888644162 
0.3399999999999789, -0.6977879163151842 
0.3499999999999778, -0.6967697723709529 
0.35999999999997667, -0.6952822326378469 
0.36999999999997557, -0.6931264594433144 
0.37999999999997447, -0.6900521159327103 
0.38999999999997337, -0.6858177014384389 
0.39999999999997227, -0.680318110764004 
0.40999999999997117, -0.6737322710814452 
0.41999999999997006, -0.6665629597229744 
0.42999999999996896, -0.6594842565290475 
0.43999999999996786, -0.6530927058847794 
0.44999999999996676, -0.6477431916787972 
0.45999999999996566, -0.6435366220602522 
0.46999999999996456, -0.6403975973394749 
0.47999999999996346, -0.6381629836546214 
0.48999999999996235, -0.6366450061000409 
0.49999999999996125, -0.6356662646021466 
0.5099999999999602, -0.6350752999134539 
0.519999999999959, -0.6347509560999296 
0.529999999999958, -0.6346008786735629 
0.5399999999999568, -0.6345572678078325 
0.5499999999999557, -0.6345717670689476 
0.5599999999999546, -0.6346107007892521 
0.5699999999999535, -0.634651434797359 
0.5799999999999524, -0.6346802073645594 
0.5899999999999513, -0.6346911925252495 
0.5999999999999502, -0.6346858031519257 
0.6099999999999491, -0.634670724716974 
0.619999999999948, -0.6346536649315686 
0.6299999999999469, -0.6346375873536296 
0.6399999999999458, -0.6346161611948694 
0.6499999999999447, -0.6345734290918438 
0.6599999999999436, -0.634488484127809 
0.6699999999999425, -0.6343426853281864 
0.6799999999999414, -0.6341253992069775 
0.6899999999999403, -0.6338358747481222 
0.6999999999999392, -0.6334819661857538 
0.7099999999999381, -0.6330782309284311 
0.719999999999937, -0.6326456992005507 
0.7299999999999359, -0.6322145637230414 
0.7399999999999348, -0.6318303162308471 
0.7499999999999337, -0.6315636036746958 
0.7599999999999326, -0.6315238057982357 
0.7699999999999315, -0.6318753630119811 
0.7799999999999304, -0.6328533368139212 
0.7899999999999293, -0.6347693726833118 
0.7999999999999282, -0.6379901777346955 
0.8099999999999271, -0.6428603346875656 
0.819999999999926, -0.6495445993037211 
0.8299999999999249, -0.6578159586602781 
0.8399999999999238, -0.6669305218121602 
0.8499999999999227, -0.6757929346802246 
0.8599999999999216, -0.683410406686481 
0.8699999999999205, -0.6892884007383262 
0.8799999999999194, -0.6934612025451575 
0.8899999999999183, -0.6962533801779378 
0.8999999999999172, -0.6980415430510483 
0.9099999999999161, -0.6991362757174742 
0.919999999999915, -0.6997570284937057 
0.9299999999999139, -0.7000451771240659 
0.9399999999999128, -0.7000835444853362 
0.9499999999999117, -0.699911117841337 
0.9599999999999106, -0.6995307560800595 
0.9699999999999095, -0.6989103821307205 
0.9799999999999084, -0.6979790044380919 
0.9899999999999073, -0.6966206483861631 
0.9999999999999062, -0.6946739253032408 
1.0099999999999052, -0.6919526220987291 
1.019999999999904, -0.6883058279046287 
1.029999999999903, -0.6837157040487758 
1.039999999999902, -0.6783799841191963 
1.0499999999999008, -0.6726974166251726 
1.0599999999998997, -0.6671396492393485 
1.0699999999998986, -0.6620980020095018 
1.0799999999998975, -0.6578021540425717 
1.0899999999998964, -0.6543255608633076 
1.0999999999998953, -0.6516337693277269 
1.1099999999998942, -0.6496344378069298 
1.119999999999893, -0.6482127279852417 
1.129999999999892, -0.647252113707697 
1.1399999999998909, -0.6466453889987168 
1.1499999999998898, -0.6462999283311682 
1.1599999999998887, -0.6461395453698601 
1.1699999999998876, -0.646104197109026 
1.1799999999998865, -0.6461483676858634 
1.1899999999998854, -0.6462388857977378 
1.1999999999998843, -0.6463528584616461 
1.2099999999998832, -0.6464761463235738 
1.219999999999882, -0.6466022795222925 
1.229999999999881, -0.6467310346462474 
1.2399999999998799, -0.6468655415285782 
1.2499999999998788, -0.6470074397077507 
1.2599999999998777, -0.6471513473638908 
1.2699999999998766, -0.6472815729121527 
1.2799999999998755, -0.6473737937166316 
1.2899999999998744, -0.6474016834101605 
1.2999999999998733, -0.6473449940551954 
1.3099999999998722, -0.6471946275983778 
1.319999999999871, -0.6469528667572441 
1.32999999999987, -0.6466305025554456 
1.3399999999998689, -0.6462440203235843 
1.3499999999998678, -0.6458151922714215 
1.3599999999998666, -0.6453741478384798 
1.3699999999998655, -0.6449663738593352 
1.3799999999998644, -0.6446640224298957 
1.3899999999998633, -0.6445816860993464 
1.3999999999998622, -0.6448955768640477 
1.4099999999998611, -0.6458617069984064 
1.41999999999986, -0.647821781474669 
1.429999999999859, -0.6511743451023513 
1.4399999999998578, -0.6562780353452404 
1.4499999999998567, -0.663264637286706 
1.4599999999998556, -0.6718117575964863 
1.4699999999998545, -0.6810551847879905 
1.4799999999998534, -0.6898407060859952 
1.4899999999998523, -0.6972257865955644 
1.4999999999998512, -0.7028230277861149 
1.5099999999998501, -0.7067486572429765 
1.519999999999849, -0.7093564162945477 
1.529999999999848, -0.7110179899323746 
1.5399999999998468, -0.7120282318056919 
1.5499999999998457, -0.7125916987049461 
1.5599999999998446, -0.712838603103494 
1.5699999999998435, -0.7128437494269383 
1.5799999999998424, -0.7126398768079826 
1.5899999999998413, -0.7122240209388919 
1.5999999999998402, -0.7115574983245114 
1.6099999999998391, -0.7105608944943199 
1.619999999999838, -0.7091075001585387 
1.629999999999837, -0.7070239520619146 
1.6399999999998358, -0.7041150361131832 
1.6499999999998347, -0.7002315130197168 
1.6599999999998336, -0.6953747553331622 
1.6699999999998325, -0.6897768572232412 
1.6799999999998314, -0.6838721748983854 
1.6899999999998303, -0.6781546894070514 
1.6999999999998292, -0.6730209377380356 
1.709999999999828, -0.6686939380981476 
1.719999999999827, -0.6652350167126269 
1.729999999999826, -0.6625958868090268 
1.7399999999998248, -0.6606703789700273 
1.7499999999998237, -0.6593308642936512 
1.7599999999998226, -0.6584499763959804 
1.7699999999998215, -0.6579123198416269 
1.7799999999998204, -0.6576199750807031 
1.7899999999998193, -0.6574940636783255 
1.7999999999998182, -0.657473759962011 
1.809999999999817, -0.6575138484285556 
1.819999999999816, -0.6575818397315214 
1.8299999999998149, -0.6576554944494605 
1.8399999999998138, -0.6577212231232361 
1.8499999999998127, -0.657773179717962 
1.8599999999998116, -0.6578120954441186 
1.8699999999998105, -0.6578425685034051 
1.8799999999998094, -0.6578683439264268 
1.8899999999998083, -0.6578870053388257 
1.8999999999998072, -0.6578870185660681 
1.909999999999806, -0.6578494816988789 
1.919999999999805, -0.6577541164447472 
1.9299999999998039, -0.6575861313073932 
1.9399999999998028, -0.6573402967292419 
1.9499999999998017, -0.6570211515976414 
1.9599999999998006, -0.6566411131188099 
1.9699999999997995, -0.6562191494648218 
1.9799999999997984, -0.6557818678985498 
1.9899999999997973, -0.6553678010705772 
1.9999999999997962, -0.6550350628784566 
2.0099999999998173, -0.6548721798524749 
2.0199999999998384, -0.6550112234716381 
2.0299999999998595, -0.6556408078709821 
2.0399999999998806, -0.6570135045248551 
2.0499999999999017, -0.659437205358504 
2.059999999999923, -0.6632333018190363 
2.069999999999944, -0.6686410766641686 
2.079999999999965, -0.6756633135091034 
2.089999999999986, -0.6839067174302723 
2.100000000000007, -0.6925569414370438 
2.1100000000000283, -0.7006164448872202 
2.1200000000000494, -0.7073088823927067 
2.1300000000000705, -0.7123381705004915 
2.1400000000000916, -0.7158335275971389 
2.1500000000001127, -0.7181241915792917 
2.160000000000134, -0.7195512672872449 
2.170000000000155, -0.7203840926121209 
2.180000000000176, -0.7208076900134324 
2.190000000000197, -0.7209369849533058 
2.2000000000002182, -0.720833761063105 
2.2100000000002393, -0.7205180058806655 
2.2200000000002604, -0.719971948867134 
2.2300000000002815, -0.7191369509743859 
2.2400000000003026, -0.7179042031108016 
2.2500000000003237, -0.7161028145875983 
2.260000000000345, -0.7134963653807567 
2.270000000000366, -0.7098122138397296 
2.280000000000387, -0.704834991959276 
2.290000000000408, -0.6985628047206787 
2.3000000000004293, -0.691335633931899 
2.3100000000004504, -0.6837953276551906 
2.3200000000004715, -0.6766583005225837 
2.3300000000004926, -0.6704662173501537 
2.3400000000005137, -0.6654764942772304 
2.3500000000005348, -0.6616989405219107 
2.360000000000556, -0.6589923846380736 
2.370000000000577, -0.6571526849654088 
2.380000000000598, -0.6559697745547923 
2.390000000000619, -0.6552571607721931 
2.4000000000006403, -0.654863272965035 
2.4100000000006614, -0.654672372442994 
2.4200000000006825, -0.6546001141851858 
2.4300000000007036, -0.6545869941735748 
2.4400000000007247, -0.654591744250389 
2.450000000000746, -0.6545859544993311 
2.460000000000767, -0.6545506217692931 
2.470000000000788, -0.6544747462144248 
2.480000000000809, -0.65435531888665 
2.49000000000083, -0.6541971499718727 
2.5000000000008513, -0.654010693495738 
2.5100000000008724, -0.6538072101599638 
2.5200000000008935, -0.6535929506876279 
2.5300000000009146, -0.6533655891228725 
2.5400000000009357, -0.6531151923209526 
2.550000000000957, -0.6528291355757175 
2.560000000000978, -0.6524979681955018 
2.570000000000999, -0.6521192828385506 
2.58000000000102, -0.6516988091478257 
2.5900000000010412, -0.6512500893310629 
2.6000000000010624, -0.6507946932859482 
2.6100000000010835, -0.6503642880343052 
2.6200000000011046, -0.6500049852883611 
2.6300000000011257, -0.649783737518508 
2.6400000000011468, -0.6497960331515183 
2.650000000001168, -0.6501734759901819 
2.660000000001189, -0.6510887712542651 
2.67000000000121, -0.6527538835009736 
2.680000000001231, -0.6554043117051516 
2.6900000000012523, -0.6592588509161131 
2.7000000000012734, -0.6644434850524108 
2.7100000000012945, -0.6708810917699866 
2.7200000000013156, -0.67818978273071 
2.7300000000013367, -0.6856873114006324 
2.740000000001358, -0.6925821463512042 
2.750000000001379, -0.698274131565373 
2.7600000000014, -0.7025428437103007 
2.770000000001421, -0.7055032793551301 
2.780000000001442, -0.7074311393036834 
2.7900000000014633, -0.7086127312203008 
2.8000000000014844, -0.7092752136863834 
2.8100000000015055, -0.7095743402464537 
2.8200000000015266, -0.7096049806306268 
2.8300000000015477, -0.7094143087312651 
2.840000000001569, -0.7090100901168215 
2.85000000000159, -0.7083621207005306 
2.860000000001611, -0.7073965461418054 
2.870000000001632, -0.705983769405411 
2.8800000000016532, -0.7039239995184716 
2.8900000000016743, -0.7009439198351493 
2.9000000000016954, -0.6967345020608994 
2.9100000000017165, -0.6910680003347339 
2.9200000000017377, -0.6839870869772079 
2.9300000000017588, -0.6759445016155012 
2.94000000000178, -0.6677215835622163 
2.950000000001801, -0.6601305119915534 
2.960000000001822, -0.6537275789239197 
2.970000000001843, -0.6487205211215091 
2.9800000000018643, -0.6450450894385809 
2.9900000000018854, -0.6424925913714097 
3.0000000000019065, -0.6408112686555266 
3.0100000000019276, -0.6397643180626799 
3.0200000000019487, -0.6391547256928821 
3.03000000000197, -0.6388306603531706 
3.040000000001991, -0.6386812636515778 
3.050000000002012, -0.6386286696486199 
3.060000000002033, -0.6386194747820256 
3.070000000002054, -0.6386173649470669 
3.0800000000020753, -0.6385977513178756 
3.0900000000020964, -0.638544734890236 
3.1000000000021175, -0.6384501919169576 
3.1100000000021386, -0.6383140091743886 
3.1200000000021597, -0.6381436908407792 
3.130000000002181, -0.6379515517583736 
3.140000000002202, -0.637749271018731 
3.150000000002223, -0.6375420003304357 
3.160000000002244, -0.6373253880616874 
3.1700000000022652, -0.6370874388793737 
3.1800000000022863, -0.6368140816531638 
3.1900000000023074, -0.6364951588101274 
3.2000000000023285, -0.6361280031086479 
3.2100000000023496, -0.6357181456939721 
3.2200000000023707, -0.6352787541006479 
3.230000000002392, -0.6348308231905905 
3.240000000002413, -0.6344054363235692 
3.250000000002434, -0.6340485944505472 
3.260000000002455, -0.6338285794021465 
3.2700000000024763, -0.6338453797356586 
3.2800000000024974, -0.6342409747624073 
3.2900000000025185, -0.6352078175972087 
3.3000000000025396, -0.6369901292443859 
3.3100000000025607, -0.6398680186120782 
3.3200000000025818, -0.644108601412327 
3.330000000002603, -0.6498671721810652 
3.340000000002624, -0.6570422512121288 
3.350000000002645, -0.6651505713314781 
3.360000000002666, -0.6733592227005577 
3.3700000000026873, -0.6807596372953291 
3.3800000000027084, -0.6867338622667281 
3.3900000000027295, -0.6911247636175339 
3.4000000000027506, -0.6941260432681494 
3.4100000000027717, -0.6960661931066918 
3.420000000002793, -0.6972556330242533 
3.430000000002814, -0.6979290000007379 
3.440000000002835, -0.6982429153175205 
3.450000000002856, -0.6982914473104829 
3.460000000002877, -0.6981210850648593 
3.4700000000028983, -0.6977395615875193 
3.4800000000029194, -0.6971176710895514 
3.4900000000029405, -0.6961845872728698 
3.5000000000029616, -0.6948184719386117 
3.5100000000029827, -0.692838198088593 
3.520000000003004, -0.6900111758727367 
3.530000000003025, -0.6861035144053524 
3.540000000003046, -0.6809923844312717 
3.550000000003067, -0.674806095642979 
3.5600000000030882, -0.6679798320705207 
3.5700000000031094, -0.6611362072957717 
3.5800000000031305, -0.6548577931600505 
3.5900000000031516, -0.6495180504796889 
3.6000000000031727, -0.645250886745506 
3.6100000000031938, -0.6420135752903988 
3.620000000003215, -0.6396686125254584 
3.630000000003236, -0.6380455058406915 
3.640000000003257, -0.63697680450903 
3.650000000003278, -0.6363153821194789 
3.6600000000032993, -0.6359405897570042 
3.6700000000033204, -0.6357583590799523 
3.6800000000033415, -0.6356982257787497 
3.6900000000033626, -0.6357090773352755 
3.7000000000033837, -0.6357548387174423 
3.710000000003405, -0.6358109354304295 
3.720000000003426, -0.6358619935520469 
3.730000000003447, -0.6359006973841322 
3.740000000003468, -0.6359269973050065 
3.750000000003489, -0.6359462764065823 
3.7600000000035103, -0.6359653714119509 
3.7700000000035314, -0.6359869181801476 
3.7800000000035525, -0.6360045081894172 
3.7900000000035736, -0.6360017704350763 
3.8000000000035947, -0.6359566234632829 
3.810000000003616, -0.6358486073304348 
3.820000000003637, -0.6356651817494142 
3.830000000003658, -0.635404106855104 
3.840000000003679, -0.6350722350643057 
3.8500000000037002, -0.6346832391389317 
3.8600000000037213, -0.6342567919500628 
3.8700000000037424, -0.6338206319748391 
3.8800000000037635, -0.6334161266862104 
3.8900000000037847, -0.6331076743664186 
3.9000000000038058, -0.6329961078194327 
3.910000000003827, -0.6332354764278275 
3.920000000003848, -0.6340502937337325 
3.930000000003869, -0.6357453094415642 
3.94000000000389, -0.6386908753519488 
3.9500000000039113, -0.6432556230288444 
3.9600000000039324, -0.649657306889751 
3.9700000000039535, -0.6577458322901097 
3.9800000000039746, -0.6668454838578497 
3.9900000000039957, -0.6758715204089663 
4.000000000004016, -0.6837687182734079 
4.010000000003993, -0.6899510712185458 
4.02000000000397, -0.6943879559364848 
4.030000000003946, -0.6973816843419532 
4.040000000003923, -0.6993138505924918 
4.0500000000039, -0.7005091771418759 
4.0600000000038765, -0.701201027067144 
4.070000000003853, -0.701541791175422 
4.08000000000383, -0.7016226136211028 
4.090000000003807, -0.7014891242520871 
4.100000000003783, -0.7011502582346867 
4.11000000000376, -0.700580489104744 
4.120000000003737, -0.6997167020864321 
4.130000000003713, -0.6984523650945882 
4.14000000000369, -0.6966356659454181 
4.150000000003667, -0.6940854557489313 
4.1600000000036434, -0.6906433972101946 
4.17000000000362, -0.6862654997409521 
4.180000000003597, -0.6811098162740992 
4.1900000000035735, -0.6755405748195388 
4.20000000000355, -0.6700175036205854 
4.210000000003527, -0.6649435874431654 
4.220000000003504, -0.6605717071292555 
4.23000000000348, -0.6569981246047392 
4.240000000003457, -0.6542053562291762 
4.250000000003434, -0.6521117523239597 
4.26000000000341, -0.6506082873021118 
4.270000000003387, -0.6495808544964431 
4.280000000003364, -0.6489223998165671 
4.2900000000033405, -0.6485390136519594 
4.300000000003317, -0.6483524428450088 
4.310000000003294, -0.6483003053277576 
4.320000000003271, -0.6483348234870265 
4.330000000003247, -0.6484208137320489 
4.340000000003224, -0.648533636165005 
4.350000000003201, -0.6486576026546917 
4.360000000003177, -0.648784863107147 
4.370000000003154, -0.6489141134153336 
4.380000000003131, -0.6490480125615596 
4.390000000003107, -0.6491886450279044 
4.400000000003084, -0.6493319684205765 
4.410000000003061, -0.6494639805797566 
4.4200000000030375, -0.64956152515116 
4.430000000003014, -0.6495982649803257 
4.440000000002991, -0.6495527971007842 
4.450000000002968, -0.6494143650789614 
4.460000000002944, -0.6491837927909923 
4.470000000002921, -0.6488709160811866 
4.480000000002898, -0.6484916216878763 
4.490000000002874, -0.6480670321779716 
4.500000000002851, -0.6476260666746694 
4.510000000002828, -0.6472118640984076 
4.520000000002804, -0.646892415936137 
4.530000000002781, -0.6467755780560673 
4.540000000002758, -0.6470275903296155 
4.5500000000027345, -0.6478913097215423 
4.560000000002711, -0.6496942407308646 
4.570000000002688, -0.6528262372925655 
4.580000000002665, -0.6576557939545717 
4.590000000002641, -0.664359310462028 
4.600000000002618, -0.6726964350997889 
4.610000000002595, -0.6818876594680836 
4.620000000002571, -0.6908037717509536 
4.630000000002548, -0.6984426678763771 
4.640000000002525, -0.704321474866149 
4.6500000000025015, -0.7084885004035109 
4.660000000002478, -0.7112750842895422 
4.670000000002455, -0.713058971784435 
4.6800000000024315, -0.7141500281127469 
4.690000000002408, -0.7147669505295171 
4.700000000002385, -0.7150506280443704 
4.710000000002362, -0.7150834620071219 
4.720000000002338, -0.7149038118737318 
4.730000000002315, -0.714513398894191 
4.740000000002292, -0.7138780526108781 
4.750000000002268, -0.7129229682841781 
4.760000000002245, -0.7115253586867902 
4.770000000002222, -0.7095122166242335 
4.7800000000021985, -0.706679404614587 
4.790000000002175, -0.7028532729206075 
4.800000000002152, -0.6979968246197619 
4.810000000002129, -0.6923071048652583 
4.820000000002105, -0.6862112381545307 
4.830000000002082, -0.6802317290234869 
4.840000000002059, -0.6748123939394203 
4.850000000002035, -0.6702184713179785 
4.860000000002012, -0.6665360529784572 
4.870000000001989, -0.6637245712137573 
4.880000000001965, -0.6616744674668034 
4.890000000001942, -0.6602494906399192 
4.900000000001919, -0.6593123627060267 
4.9100000000018955, -0.6587386050427417 
4.920000000001872, -0.6584229251661052 
