t, s[1].omega / s[0].omega 
0, -1.2199966003534395 
0.009999999999999995, -1.2195000531647149 
0.019999999999999934, -1.218694475624652 
0.029999999999999874, -1.217583557587218 
0.04000000000000012, -1.216175834837101 
0.050000000000000405, -1.2144876923305594 
0.06000000000000069, -1.2125463095988056 
0.07000000000000098, -1.2103918163084704 
0.08000000000000126, -1.2080780614669415 
0.09000000000000155, -1.2056719303607168 
0.10000000000000184, -1.2032522140506337 
0.11000000000000212, -1.2009095134458028 
0.12000000000000241, -1.1987464986558722 
0.130000000000002, -1.1968732369937007 
0.1400000000000009, -1.1953903237117272 
0.1499999999999998, -1.194359469035477 
0.1599999999999987, -1.1937748809881248 
0.1699999999999976, -1.193555171602215 
0.1799999999999965, -1.1935633119423676 
0.1899999999999954, -1.1936413078838013 
0.1999999999999943, -1.1936382099721752 
0.2099999999999932, -1.1934199169779738 
0.2199999999999921, -1.1928632245071051 
0.229999999999991, -1.19184320288041 
0.2399999999999899, -1.1902225581120713 
0.2499999999999888, -1.1878489320551628 
0.2599999999999877, -1.1845632827884658 
0.2699999999999866, -1.180218813377513 
0.2799999999999855, -1.1747049726922756 
0.2899999999999844, -1.1679672515784592 
0.2999999999999833, -1.1600148046701655 
0.3099999999999822, -1.1509150889416369 
0.3199999999999811, -1.1407829197405905 
0.32999999999998, -1.129774626290245 
0.3399999999999789, -1.1180948306594922 
0.3499999999999778, -1.1060163015537854 
0.35999999999997667, -1.0939045743977065 
0.36999999999997557, -1.0822294145097482 
0.37999999999997447, -1.0715382914173126 
0.38999999999997337, -1.0623730056175558 
0.39999999999997227, -1.055139849557003 
0.40999999999997117, -1.0499868084417419 
0.41999999999997006, -1.0467594000910607 
0.42999999999996896, -1.0450669489803894 
0.43999999999996786, -1.0444192362797622 
0.44999999999996676, -1.0443564495803306 
0.45999999999996566, -1.044520182297319 
0.46999999999996456, -1.0446622197771578 
0.47999999999996346, -1.0446163925036829 
0.48999999999996235, -1.0442590685204214 
0.49999999999996125, -1.04347203061484 
0.5099999999999602, -1.0421115491951756 
0.519999999999959, -1.039983736184967 
0.529999999999958, -1.036827873986838 
0.5399999999999568, -1.0323143242032304 
0.5499999999999557, -1.02606866729106 
0.5599999999999546, -1.0177328531177137 
0.5699999999999535, -1.00706004334216 
0.5799999999999524, -0.9940136185615557 
0.5899999999999513, -0.9788221198276074 
0.5999999999999502, -0.9619563513545996 
0.6099999999999491, -0.944039501021348 
0.619999999999948, -0.9257374732314989 
0.6299999999999469, -0.9076746949475465 
0.6399999999999458, -0.8903915480773129 
0.6499999999999447, -0.8743331789886374 
0.6599999999999436, -0.8598506211244066 
0.6699999999999425, -0.8472001094673144 
0.6799999999999414, -0.8365361204979026 
0.6899999999999403, -0.8279019950438962 
0.6999999999999392, -0.8212262497843598 
0.7099999999999381, -0.8163319467932196 
0.719999999999937, -0.8129615095274537 
0.7299999999999359, -0.8108127735739312 
0.7399999999999348, -0.8095773983687281 
0.7499999999999337, -0.8089724056220444 
0.7599999999999326, -0.8087591929067345 
0.7699999999999315, -0.8087493745225104 
0.7799999999999304, -0.8088005962888773 
0.7899999999999293, -0.8088069345232973 
0.7999999999999282, -0.8086880807041396 
0.8099999999999271, -0.8083803202966618 
0.819999999999926, -0.807831147244455 
0.8299999999999249, -0.8069983976072429 
0.8399999999999238, -0.805853733853945 
0.8499999999999227, -0.8043888362057221 
0.8599999999999216, -0.8026210177457095 
0.8699999999999205, -0.8005943080221881 
0.8799999999999194, -0.7983735793747669 
0.8899999999999183, -0.7960327621667005 
0.8999999999999172, -0.7936413785156725 
0.9099999999999161, -0.7912542340361902 
0.919999999999915, -0.7889070580349155 
0.9299999999999139, -0.7866180402834094 
0.9399999999999128, -0.7843933211328117 
0.9499999999999117, -0.782233989809872 
0.9599999999999106, -0.780142581849925 
0.9699999999999095, -0.7781278698790477 
0.9799999999999084, -0.7762075181070582 
0.9899999999999073, -0.7744086980818518 
0.9999999999999062, -0.7727669889428325 
1.0099999999999052, -0.7713239155669367 
1.019999999999904, -0.7701234795292431 
1.029999999999903, -0.7692081092426963 
1.039999999999902, -0.768614572101981 
1.0499999999999008, -0.7683704535528033 
1.0599999999998997, -0.7684917378546324 
1.0699999999998986, -0.7689818277534288 
1.0799999999998975, -0.7698320882678334 
1.0899999999998964, -0.7710237711999912 
1.0999999999998953, -0.7725310063726056 
1.1099999999998942, -0.7743244257071665 
1.119999999999893, -0.776374898421485 
1.129999999999892, -0.7786567891461263 
1.1399999999998909, -0.7811501023611228 
1.1499999999998898, -0.7838408539194255 
1.1599999999998887, -0.786719054825587 
1.1699999999998876, -0.7897738996787015 
1.1799999999998865, -0.7929862606132244 
1.1899999999998854, -0.7963195231833594 
1.1999999999998843, -0.7997111559475075 
1.2099999999998832, -0.8030687840122737 
1.219999999999882, -0.8062748594267142 
1.229999999999881, -0.8092018195048531 
1.2399999999998799, -0.8117346194625307 
1.2499999999998788, -0.8137924170290989 
1.2599999999998777, -0.8153404451268159 
1.2699999999998766, -0.8163882718308145 
1.2799999999998755, -0.8169778273759726 
1.2899999999998744, -0.8171684406022025 
1.2999999999998733, -0.8170252226607627 
1.3099999999998722, -0.8166139740588332 
1.319999999999871, -0.8160032237976023 
1.32999999999987, -0.8152730079952912 
1.3399999999998689, -0.8145299871835338 
1.3499999999998678, -0.8139284399178663 
1.3599999999998666, -0.813695643610252 
1.3699999999998655, -0.8141576498738871 
1.3799999999998644, -0.8157577324280687 
1.3899999999998633, -0.8190563097854137 
1.3999999999998622, -0.8247005858563503 
1.4099999999998611, -0.8333570770914565 
1.41999999999986, -0.8456108406687045 
1.429999999999859, -0.8618480940831681 
1.4399999999998578, -0.882148045195028 
1.4499999999998567, -0.9062101661787183 
1.4599999999998556, -0.9333343644496452 
1.4699999999998545, -0.962458738692132 
1.4799999999998534, -0.9922509778973865 
1.4899999999998523, -1.0212488211223418 
1.4999999999998512, -1.0480448548603003 
1.5099999999998501, -1.0714960158383662 
1.519999999999849, -1.0909059453623007 
1.529999999999848, -1.1061078827025388 
1.5399999999998468, -1.1174058307027366 
1.5499999999998457, -1.1254043182833913 
1.5599999999998446, -1.1308106144785723 
1.5699999999998435, -1.1342846320667221 
1.5799999999998424, -1.1363634143070789 
1.5899999999998413, -1.1374464153196053 
1.5999999999998402, -1.1378149016605277 
1.6099999999998391, -1.1376650356701516 
1.619999999999838, -1.1371451936521813 
1.629999999999837, -1.1363958725568943 
1.6399999999998358, -1.1355923010930842 
1.6499999999998347, -1.1349840481337117 
1.6599999999998336, -1.134913111242476 
1.6699999999998325, -1.1357817044302077 
1.6799999999998314, -1.1379544166228464 
1.6899999999998303, -1.1416271843048633 
1.6999999999998292, -1.1467413110842324 
1.709999999999828, -1.153003251377679 
1.719999999999827, -1.159993345283769 
1.729999999999826, -1.1672898769302538 
1.7399999999998248, -1.174548153016456 
1.7499999999998237, -1.1815228882853 
1.7599999999998226, -1.1880542696275753 
1.7699999999998215, -1.194041738868106 
1.7799999999998204, -1.1994200299302842 
1.7899999999998193, -1.204143082858124 
1.7999999999998182, -1.2081768258742949 
1.809999999999817, -1.2114996461255507 
1.819999999999816, -1.2141076127410724 
1.8299999999998149, -1.2160200728108295 
1.8399999999998138, -1.2172814295002 
1.8499999999998127, -1.217957441452574 
1.8599999999998116, -1.218127923819195 
1.8699999999998105, -1.2178798634287344 
1.8799999999998094, -1.2173043939462105 
1.8899999999998083, -1.2164983753217045 
1.8999999999998072, -1.2155678458460992 
1.909999999999806, -1.2146279046527078 
1.919999999999805, -1.2137938722488872 
1.9299999999998039, -1.213163879133938 
1.9399999999998028, -1.2128011012299542 
1.9499999999998017, -1.2127266916224155 
1.9599999999998006, -1.2129267666677832 
1.9699999999997995, -1.2133655204177116 
1.9799999999997984, -1.213993882585525 
1.9899999999997973, -1.2147508945897607 
1.9999999999997962, -1.2155632632519955 
2.0099999999998173, -1.2163489340313696 
2.0199999999998384, -1.2170248403608472 
2.0299999999998595, -1.217514766194117 
2.0399999999998806, -1.2177540878666293 
2.0499999999999017, -1.2176913296575032 
2.059999999999923, -1.217288210052765 
2.069999999999944, -1.2165193570743924 
2.079999999999965, -1.2153715926719324 
2.089999999999986, -1.2138421503941605 
2.100000000000007, -1.2119357762271963 
2.1100000000000283, -1.2096616584961597 
2.1200000000000494, -1.2070315831676253 
2.1300000000000705, -1.2040602820890778 
2.1400000000000916, -1.200768064853767 
2.1500000000001127, -1.1971851779536273 
2.160000000000134, -1.1933573297587408 
2.170000000000155, -1.18935237355062 
2.180000000000176, -1.185268447308937 
2.190000000000197, -1.1812423141742467 
2.2000000000002182, -1.1774520441252694 
2.2100000000002393, -1.1741028994826779 
2.2200000000002604, -1.1713871496211026 
2.2300000000002815, -1.1694247357401353 
2.2400000000003026, -1.1682144569691306 
2.2500000000003237, -1.1676292260057932 
2.260000000000345, -1.1674603148084224 
2.270000000000366, -1.1674800982661586 
2.280000000000387, -1.1674866135914963 
2.290000000000408, -1.167315336098126 
2.3000000000004293, -1.1668257492346308 
2.3100000000004504, -1.1658769407196736 
2.3200000000004715, -1.1643028134455824 
2.3300000000004926, -1.1618932736370944 
2.3400000000005137, -1.1583869487971181 
2.3500000000005348, -1.1534820783349329 
2.360000000000556, -1.1468708708696038 
2.370000000000577, -1.1382948444872396 
2.380000000000598, -1.1276059055355454 
2.390000000000619, -1.1148099811062506 
2.4000000000006403, -1.1000774051745872 
2.4100000000006614, -1.083724079721587 
2.4200000000006825, -1.066182990988185 
2.4300000000007036, -1.047984106892965 
2.4400000000007247, -1.029745049831887 
2.450000000000746, -1.0121575049463496 
2.460000000000767, -0.9959460659762035 
2.470000000000788, -0.9817840785040629 
2.480000000000809, -0.9701762084013825 
2.49000000000083, -0.9613487865123583 
2.5000000000008513, -0.9552021542026738 
2.5100000000008724, -0.9513554671463146 
2.5200000000008935, -0.9492652572486211 
2.5300000000009146, -0.9483621884831785 
2.5400000000009357, -0.9481525632261862 
2.550000000000957, -0.9482626255970542 
2.560000000000978, -0.9484350587787383 
2.570000000000999, -0.948500048777232 
2.58000000000102, -0.9483400059766705 
2.5900000000010412, -0.9478581394435672 
2.6000000000010624, -0.9469541510698658 
2.6100000000010835, -0.945507512533967 
2.6200000000011046, -0.9433693084278538 
2.6300000000011257, -0.940365752812838 
2.6400000000011468, -0.9363178133893071 
2.650000000001168, -0.9310786589916479 
2.660000000001189, -0.9245816822436402 
2.67000000000121, -0.916880156854955 
2.680000000001231, -0.9081561108034392 
2.6900000000012523, -0.8986894460601144 
2.7000000000012734, -0.888801226427822 
2.7100000000012945, -0.8787979322381402 
2.7200000000013156, -0.8689369853032197 
2.7300000000013367, -0.8594175753644633 
2.740000000001358, -0.8503888512109968 
2.750000000001379, -0.8419646483664408 
2.7600000000014, -0.834236719292827 
2.770000000001421, -0.8272824285804905 
2.780000000001442, -0.8211659422211662 
2.7900000000014633, -0.8159338961865928 
2.8000000000014844, -0.8116078152082985 
2.8100000000015055, -0.8081763907011332 
2.8200000000015266, -0.8055909146770511 
2.8300000000015477, -0.8037663439224947 
2.840000000001569, -0.8025886191163275 
2.85000000000159, -0.8019266282327281 
2.860000000001611, -0.8016456314307412 
2.870000000001632, -0.8016188107727765 
2.8800000000016532, -0.8017347998052475 
2.8900000000016743, -0.8019008100573509 
2.9000000000016954, -0.8020424337499018 
2.9100000000017165, -0.802101897816223 
2.9200000000017377, -0.8020364605421156 
2.9300000000017588, -0.8018179770785421 
2.94000000000178, -0.8014336405979412 
2.950000000001801, -0.8008868330513872 
2.960000000001822, -0.8001963862661431 
2.970000000001843, -0.7993928902688376 
2.9800000000018643, -0.798512047319181 
2.9900000000018854, -0.797586712316508 
3.0000000000019065, -0.7966401121706436 
3.0100000000019276, -0.795682320962955 
3.0200000000019487, -0.7947107995722752 
3.03000000000197, -0.7937144406866846 
3.040000000001991, -0.7926796115520303 
3.050000000002012, -0.7915963797028581 
3.060000000002033, -0.7904634706223711 
3.070000000002054, -0.7892913224704332 
3.0800000000020753, -0.7881034120076962 
3.0900000000020964, -0.786936402115871 
3.1000000000021175, -0.7858395123968799 
3.1100000000021386, -0.7848730911136609 
3.1200000000021597, -0.7841060355630373 
3.130000000002181, -0.7836117260932134 
3.140000000002202, -0.7834625468435731 
3.150000000002223, -0.7837236798231028 
3.160000000002244, -0.7844473527391705 
3.1700000000022652, -0.7856688021448784 
3.1800000000022863, -0.7874048056578664 
3.1900000000023074, -0.7896549314291691 
3.2000000000023285, -0.7924049690652298 
3.2100000000023496, -0.7956315761274153 
3.2200000000023707, -0.7993070293542619 
3.230000000002392, -0.8034029918412761 
3.240000000002413, -0.8078922666046594 
3.250000000002434, -0.8127475719208929 
3.260000000002455, -0.8179365531295449 
3.2700000000024763, -0.8234127804129513 
3.2800000000024974, -0.8291036958733793 
3.2900000000025185, -0.8348985843117063 
3.3000000000025396, -0.8406422615192702 
3.3100000000025607, -0.8461415848089734 
3.3200000000025818, -0.8511891786242994 
3.330000000002603, -0.8556004744014886 
3.340000000002624, -0.8592503380516633 
3.350000000002645, -0.862092892061968 
3.360000000002666, -0.864156941954899 
3.3700000000026873, -0.8655229310531879 
3.3800000000027084, -0.8662947016474141 
3.3900000000027295, -0.8665772318997144 
3.4000000000027506, -0.8664650689306198 
3.4100000000027717, -0.8660412402745777 
3.420000000002793, -0.8653848664738264 
3.430000000002814, -0.8645863765384056 
3.440000000002835, -0.8637703341169287 
3.450000000002856, -0.8631259222246085 
3.460000000002877, -0.8629429275721703 
3.4700000000028983, -0.8636459294670857 
3.4800000000029194, -0.8658121785210108 
3.4900000000029405, -0.8701530918166591 
3.5000000000029616, -0.8774417526378563 
3.5100000000029827, -0.8883842303418827 
3.520000000003004, -0.9034581513254859 
3.530000000003025, -0.9227649149305572 
3.540000000003046, -0.9459461491313071 
3.550000000003067, -0.9721937474379808 
3.5600000000030882, -1.0003469858806178 
3.5700000000031094, -1.0290425640875898 
3.5800000000031305, -1.0568804260045144 
3.5900000000031516, -1.0825845502597062 
3.6000000000031727, -1.1051505884159225 
3.6100000000031938, -1.1239641785685568 
3.620000000003215, -1.1388556699711778 
3.630000000003236, -1.1500605116054174 
3.640000000003257, -1.1580931091675581 
3.650000000003278, -1.1635856419490198 
3.6600000000032993, -1.1671520330029141 
3.6700000000033204, -1.169309036308481 
3.6800000000033415, -1.1704520490709718 
3.6900000000033626, -1.1708663557426289 
3.7000000000033837, -1.170755373968784 
3.710000000003405, -1.1702755441636405 
3.720000000003426, -1.1695742215364273 
3.730000000003447, -1.168828075052726 
3.740000000003468, -1.1682734730514237 
3.750000000003489, -1.168209892163537 
3.7600000000035103, -1.1689548662989888 
3.7700000000035314, -1.1707518794984064 
3.7800000000035525, -1.1736761099556905 
3.7900000000035736, -1.1776020463425625 
3.8000000000035947, -1.1822561573233263 
3.810000000003616, -1.1873143798479855 
3.820000000003637, -1.1924846868514172 
3.830000000003658, -1.1975455299029458 
3.840000000003679, -1.2023470130990592 
3.8500000000037002, -1.2067947026377905 
3.8600000000037213, -1.2108309145903238 
3.8700000000037424, -1.2144196524038813 
3.8800000000037635, -1.2175363782407922 
3.8900000000037847, -1.2201624389121268 
3.9000000000038058, -1.2222838473990145 
3.910000000003827, -1.223893632134296 
3.920000000003848, -1.2249959575061642 
3.930000000003869, -1.225609568589267 
3.94000000000389, -1.225768742027889 
3.9500000000039113, -1.2255217360233657 
3.9600000000039324, -1.2249284522069759 
3.9700000000039535, -1.2240592581902328 
3.9800000000039746, -1.222995315861141 
3.9900000000039957, -1.2218282783674235 
4.000000000004016, -1.2206558393913476 
4.010000000003993, -1.2195714783653848 
4.02000000000397, -1.218651765385902 
4.030000000003946, -1.2179483036429377 
4.040000000003923, -1.217488370131369 
4.0500000000039, -1.217280191785962 
4.0600000000038765, -1.2173146565315758 
4.070000000003853, -1.2175605618892398 
4.08000000000383, -1.2179593678533347 
4.090000000003807, -1.2184274799267816 
4.100000000003783, -1.2188672103625264 
4.11000000000376, -1.2191800780195063 
4.120000000003737, -1.2192756842626757 
4.130000000003713, -1.219074536159674 
4.14000000000369, -1.218507679855567 
4.150000000003667, -1.2175167219108822 
4.1600000000036434, -1.2160557601344522 
4.17000000000362, -1.214094207168808 
4.180000000003597, -1.211618230673599 
4.1900000000035735, -1.2086292419110791 
4.20000000000355, -1.2051398825229298 
4.210000000003527, -1.2011697177056884 
4.220000000003504, -1.1967431802690722 
4.23000000000348, -1.1918913950400616 
4.240000000003457, -1.1866584068379562 
4.250000000003434, -1.1811118142259092 
4.26000000000341, -1.175357506434942 
4.270000000003387, -1.1695564457016452 
4.280000000003364, -1.1639363435874852 
4.2900000000033405, -1.1587837119491577 
4.300000000003317, -1.1543999977393777 
4.310000000003294, -1.1510213245342515 
4.320000000003271, -1.1487341006833793 
4.330000000003247, -1.147439197409515 
4.340000000003224, -1.146892101809857 
4.350000000003201, -1.146791076696466 
4.360000000003177, -1.1468569940908095 
4.370000000003154, -1.1468697486581376 
4.380000000003131, -1.1466629336833667 
4.390000000003107, -1.1460960695074867 
4.400000000003084, -1.1450208437689113 
4.410000000003061, -1.1432493116770102 
4.4200000000030375, -1.140527551850283 
4.430000000003014, -1.1365196453667317 
4.440000000002991, -1.1308117019463768 
4.450000000002968, -1.1229489142156053 
4.460000000002944, -1.1125128123129018 
4.470000000002921, -1.099226576972926 
4.480000000002898, -1.0830524666492125 
4.490000000002874, -1.0642396437854926 
4.500000000002851, -1.0433055146746857 
4.510000000002828, -1.0209700665999886 
4.520000000002804, -0.9980780976542766 
4.530000000002781, -0.9755301035660444 
4.540000000002758, -0.954218768782508 
4.5500000000027345, -0.9349569409889298 
4.560000000002711, -0.9183915884284687 
4.570000000002688, -0.9049183600797832 
4.580000000002665, -0.894627130906553 
4.590000000002641, -0.8873064061775742 
4.600000000002618, -0.8825120534715415 
4.610000000002595, -0.8796772920363782 
4.620000000002571, -0.8782251902161663 
4.630000000002548, -0.8776507376990133 
4.640000000002525, -0.8775594148871508 
4.6500000000025015, -0.8776683707072676 
4.660000000002478, -0.8777854551462685 
4.670000000002455, -0.8777806060976184 
4.6800000000024315, -0.8775587739282937 
4.690000000002408, -0.8770384660099655 
4.700000000002385, -0.8761371641073915 
4.710000000002362, -0.8747642524025675 
4.720000000002338, -0.8728226320279869 
4.730000000002315, -0.8702203388738811 
4.740000000002292, -0.866891510371021 
4.750000000002268, -0.8628212604796326 
4.760000000002245, -0.8580637420419611 
4.770000000002222, -0.852742283577273 
4.7800000000021985, -0.8470284032674558 
4.790000000002175, -0.8411082602392227 
4.800000000002152, -0.835151186638228 
4.810000000002129, -0.8292911295943617 
4.820000000002105, -0.8236230570322688 
4.830000000002082, -0.8182098203506527 
4.840000000002059, -0.8130932434092883 
4.850000000002035, -0.8083046887677303 
4.860000000002012, -0.8038726281836845 
4.870000000001989, -0.7998265138669225 
4.880000000001965, -0.796197255102007 
4.890000000001942, -0.793015048287254 
4.900000000001919, -0.7903054575341978 
4.9100000000018955, -0.7880847010432042 
4.920000000001872, -0.7863551561084935 
4.930000000001849, -0.7851021177534446 
