t, s[1].omega / s[0].omega 
0, -0.780166000472598 
0.009999999999999995, -0.7962632417606763 
0.019999999999999934, -0.810030649931311 
0.029999999999999874, -0.8204046530710553 
0.04000000000000012, -0.8274928279253227 
0.050000000000000405, -0.8320150815388855 
0.06000000000000069, -0.8347633558146738 
0.07000000000000098, -0.836356974349908 
0.08000000000000126, -0.8372094848912687 
0.09000000000000155, -0.8375719321552962 
0.10000000000000184, -0.8375819308876762 
0.11000000000000212, -0.8372971074886204 
0.12000000000000241, -0.8367105853579625 
0.130000000000002, -0.8357498868471694 
0.1400000000000009, -0.8342593472700015 
0.1499999999999998, -0.8319650662052419 
0.1599999999999987, -0.8284257508597996 
0.1699999999999976, -0.8229930186432286 
0.1799999999999965, -0.8148560014285481 
0.1899999999999954, -0.8033135373729028 
0.1999999999999943, -0.7883640993749766 
0.2099999999999932, -0.771300132068317 
0.2199999999999921, -0.7545374865425905 
0.229999999999991, -0.7404531833712961 
0.2399999999999899, -0.7302491295894455 
0.2499999999999888, -0.7237979811599999 
0.2599999999999877, -0.7202276267730132 
0.2699999999999866, -0.7185364800758992 
0.2799999999999855, -0.7179161705663918 
0.2899999999999844, -0.7178244748473128 
0.2999999999999833, -0.7179400609350448 
0.3099999999999822, -0.7180893000228771 
0.3199999999999811, -0.7181837767530155 
0.32999999999998, -0.7181772360578951 
0.3399999999999789, -0.7180390312007998 
0.3499999999999778, -0.7177390502553431 
0.35999999999997667, -0.7172408712683923 
0.36999999999997557, -0.7165026234360743 
0.37999999999997447, -0.7154866479471685 
0.38999999999997337, -0.7141770214155184 
0.39999999999997227, -0.7125973313915094 
0.40999999999997117, -0.7108154712921728 
0.41999999999997006, -0.7089279435249425 
0.42999999999996896, -0.7070321433617656 
0.43999999999996786, -0.7052041204508568 
0.44999999999996676, -0.7034918739437133 
0.45999999999996566, -0.7019214161239173 
0.46999999999996456, -0.7005072866323891 
0.47999999999996346, -0.6992612109213611 
0.48999999999996235, -0.6981966102799962 
0.49999999999996125, -0.697329299794643 
0.5099999999999602, -0.6966756579480393 
0.519999999999959, -0.6962496573235205 
0.529999999999958, -0.69606002207181 
0.5399999999999568, -0.6961085381201896 
0.5499999999999557, -0.6963901022064471 
0.5599999999999546, -0.6968944765990207 
0.5699999999999535, -0.6976090879676142 
0.5799999999999524, -0.6985217332760987 
0.5899999999999513, -0.6996217543437548 
0.5999999999999502, -0.7008980974313173 
0.6099999999999491, -0.7023329622254296 
0.619999999999948, -0.7038912674615119 
0.6299999999999469, -0.705509705040155 
0.6399999999999458, -0.7070936326221746 
0.6499999999999447, -0.7085304746173839 
0.6599999999999436, -0.7097188410315939 
0.6699999999999425, -0.7105977069321258 
0.6799999999999414, -0.7111568129593133 
0.6899999999999403, -0.7114246660624236 
0.6999999999999392, -0.7114467124507529 
0.7099999999999381, -0.7112675248294754 
0.719999999999937, -0.7109224756780905 
0.7299999999999359, -0.7104380627441639 
0.7399999999999348, -0.7098392697321823 
0.7499999999999337, -0.7091647574582461 
0.7599999999999326, -0.7084938411600396 
0.7699999999999315, -0.7079913913434157 
0.7799999999999304, -0.7079748515182533 
0.7899999999999293, -0.7089941743946335 
0.7999999999999282, -0.7118786578163857 
0.8099999999999271, -0.7176401809996903 
0.819999999999926, -0.7270818989704687 
0.8299999999999249, -0.7401172189789406 
0.8399999999999238, -0.7552822537760826 
0.8499999999999227, -0.7701881645633327 
0.8599999999999216, -0.7827872552884234 
0.8699999999999205, -0.7922415742985451 
0.8799999999999194, -0.7987689858683948 
0.8899999999999183, -0.8030369724979503 
0.8999999999999172, -0.805723927129067 
0.9099999999999161, -0.8073543474513215 
0.919999999999915, -0.808285499006977 
0.9299999999999139, -0.8087421058645182 
0.9399999999999128, -0.8088532417936094 
0.9499999999999117, -0.8086777524383013 
0.9599999999999106, -0.8082160874377206 
0.9699999999999095, -0.8074087595306075 
0.9799999999999084, -0.8061212166913757 
0.9899999999999073, -0.804115785038076 
0.9999999999999062, -0.8010190618940038 
1.0099999999999052, -0.7963161903664886 
1.019999999999904, -0.7894417686507066 
1.029999999999903, -0.7800428479302707 
1.039999999999902, -0.7683545103637994 
1.0499999999999008, -0.7553795933946823 
1.0599999999998997, -0.742583223696822 
1.0699999999998986, -0.7312841949903436 
1.0799999999998975, -0.72222887646362 
1.0899999999998964, -0.7155560182241685 
1.0999999999998953, -0.7109972435969374 
1.1099999999998942, -0.7081045508244027 
1.119999999999893, -0.706409929746045 
1.129999999999892, -0.7055094416952888 
1.1399999999998909, -0.705092916488014 
1.1499999999998898, -0.7049416049360795 
1.1599999999998887, -0.7049106921784185 
1.1699999999998876, -0.704907794261701 
1.1799999999998865, -0.7048736602517096 
1.1899999999998854, -0.704767824851271 
1.1999999999998843, -0.7045600803560619 
1.2099999999998832, -0.7042278522486367 
1.219999999999882, -0.7037587452145416 
1.229999999999881, -0.7031556656214322 
1.2399999999998799, -0.7024396704368945 
1.2499999999998788, -0.7016459914348301 
1.2599999999998777, -0.7008134371369705 
1.2699999999998766, -0.6999730175419139 
1.2799999999998755, -0.6991423131043946 
1.2899999999998744, -0.6983274904459333 
1.2999999999998733, -0.697529997309362 
1.3099999999998722, -0.6967536050654011 
1.319999999999871, -0.6960092233211417 
1.32999999999987, -0.6953172863569879 
1.3399999999998689, -0.6947086254846803 
1.3499999999998678, -0.6942244753323699 
1.3599999999998666, -0.693915563001315 
1.3699999999998655, -0.6938399298812947 
1.3799999999998644, -0.6940594534933885 
1.3899999999998633, -0.6946356634982289 
1.3999999999998622, -0.6956258187594335 
1.4099999999998611, -0.697079840903787 
1.41999999999986, -0.6990374586866644 
1.429999999999859, -0.7015231506129338 
1.4399999999998578, -0.7045350361528182 
1.4499999999998567, -0.7080244771983618 
1.4599999999998556, -0.7118687607715517 
1.4699999999998545, -0.715851885237598 
1.4799999999998534, -0.7196810664715849 
1.4899999999998523, -0.7230566093572814 
1.4999999999998512, -0.7257676310652139 
1.5099999999998501, -0.727748713946746 
1.519999999999849, -0.7290616747997326 
1.529999999999848, -0.7298315598294565 
1.5399999999998468, -0.7301871986010007 
1.5499999999998457, -0.7302293999589734 
1.5599999999998446, -0.730022088174999 
1.5699999999998435, -0.7295941403820019 
1.5799999999998424, -0.7289436211666727 
1.5899999999998413, -0.72804141196061 
1.5999999999998402, -0.726834945804183 
1.6099999999998391, -0.7252553052020378 
1.619999999999838, -0.7232321957132706 
1.629999999999837, -0.7207180249616673 
1.6399999999998358, -0.7177082085556367 
1.6499999999998347, -0.7142246660217997 
1.6599999999998336, -0.7102559639474413 
1.6699999999998325, -0.7057830446891862 
1.6799999999998314, -0.701045502782587 
1.6899999999998303, -0.6967434765071621 
1.6999999999998292, -0.6936635638972317 
1.709999999999828, -0.6920936504711919 
1.719999999999827, -0.6917500044788288 
1.729999999999826, -0.6921234904525921 
1.7399999999998248, -0.6927779949980681 
1.7499999999998237, -0.6934445726338946 
1.7599999999998226, -0.6939937670241625 
1.7699999999998215, -0.6943792093653375 
1.7799999999998204, -0.6945923922927433 
1.7899999999998193, -0.6946347355878618 
1.7999999999998182, -0.694502070829859 
1.809999999999817, -0.6941761397556968 
1.819999999999816, -0.6936203070641864 
1.8299999999998149, -0.6927800234614219 
1.8399999999998138, -0.691591698537905 
1.8499999999998127, -0.6900041091023772 
1.8599999999998116, -0.6880098093690655 
1.8699999999998105, -0.6856703904845954 
1.8799999999998094, -0.6831132899539886 
1.8899999999998083, -0.6804956242020953 
1.8999999999998072, -0.677958390006729 
1.909999999999806, -0.6755990371268416 
1.919999999999805, -0.6734698993071506 
1.9299999999998039, -0.671591726370031 
1.9399999999998028, -0.6699692411626967 
1.9499999999998017, -0.668601914884656 
1.9599999999998006, -0.6674889167397005 
1.9699999999997995, -0.6666298269293855 
1.9799999999997984, -0.666023186691022 
1.9899999999997973, -0.6656646040801784 
1.9999999999997962, -0.6655455860321635 
2.0099999999998173, -0.6656536895627617 
2.0199999999998384, -0.6659740191471292 
2.0299999999998595, -0.6664916211685379 
2.0399999999998806, -0.6671940024024665 
2.0499999999999017, -0.6680727782720386 
2.059999999999923, -0.6691232170701161 
2.069999999999944, -0.6703402465132926 
2.079999999999965, -0.6717098809486647 
2.089999999999986, -0.6731970281337161 
2.100000000000007, -0.674734777501108 
2.1100000000000283, -0.6762244568344244 
2.1200000000000494, -0.6775538967546543 
2.1300000000000705, -0.6786290363769056 
2.1400000000000916, -0.6794001721452718 
2.1500000000001127, -0.6798664054556273 
2.160000000000134, -0.6800598415038419 
2.170000000000155, -0.680023969786972 
2.180000000000176, -0.6797980407497705 
2.190000000000197, -0.6794105203918893 
2.2000000000002182, -0.6788798523386049 
2.2100000000002393, -0.6782209225784033 
2.2200000000002604, -0.6774581384892382 
2.2300000000002815, -0.6766489542500709 
2.2400000000003026, -0.6759235489963171 
2.2500000000003237, -0.6755436731359072 
2.260000000000345, -0.6759676158199059 
2.270000000000366, -0.6778654863262479 
2.280000000000387, -0.681965497723511 
2.290000000000408, -0.688625416029599 
2.3000000000004293, -0.6973152284196991 
2.3100000000004504, -0.706628456364465 
2.3200000000004715, -0.7150949949145108 
2.3300000000004926, -0.7219586131840805 
2.3400000000005137, -0.7271691251069634 
2.3500000000005348, -0.730978811652683 
2.360000000000556, -0.7336829698450976 
2.370000000000577, -0.7355430782662462 
2.380000000000598, -0.7367730330876852 
2.390000000000619, -0.7375371008979932 
2.4000000000006403, -0.7379520443324794 
2.4100000000006614, -0.7380917983002602 
2.4200000000006825, -0.737991922163353 
2.4300000000007036, -0.7376513613839886 
2.4400000000007247, -0.7370303053987601 
2.450000000000746, -0.7360448650632052 
2.460000000000767, -0.7345630943935115 
2.470000000000788, -0.7324137213380865 
2.480000000000809, -0.7294254680408097 
2.49000000000083, -0.7255067268379639 
2.5000000000008513, -0.7207367831309177 
2.5100000000008724, -0.7153964069996684 
2.5200000000008935, -0.7098909907771851 
2.5300000000009146, -0.7046149277841787 
2.5400000000009357, -0.6998522211859199 
2.550000000000957, -0.6957538156587579 
2.560000000000978, -0.6923655583831533 
2.570000000000999, -0.6896672125031083 
2.58000000000102, -0.6876020350226361 
2.5900000000010412, -0.6860942393117366 
2.6000000000010624, -0.6850587097296137 
2.6100000000010835, -0.6844074532189327 
2.6200000000011046, -0.6840550897532309 
2.6300000000011257, -0.6839236801163093 
2.6400000000011468, -0.6839462698382026 
2.650000000001168, -0.6840686654524044 
2.660000000001189, -0.6842496149949943 
2.67000000000121, -0.6844600971986943 
2.680000000001231, -0.6846823940611926 
2.6900000000012523, -0.6849089341098897 
2.7000000000012734, -0.6851399390407454 
2.7100000000012945, -0.6853786321139539 
2.7200000000013156, -0.6856240904270814 
2.7300000000013367, -0.6858643651418501 
2.740000000001358, -0.6860741489465105 
2.750000000001379, -0.6862197607191941 
2.7600000000014, -0.6862695914263562 
2.770000000001421, -0.6862040248918387 
2.780000000001442, -0.686019546577521 
2.7900000000014633, -0.6857267909562473 
2.8000000000014844, -0.6853465131657858 
2.8100000000015055, -0.6849078222237944 
2.8200000000015266, -0.6844510958176458 
2.8300000000015477, -0.6840363637707135 
2.840000000001569, -0.683757218958579 
2.85000000000159, -0.6837596771754162 
2.860000000001611, -0.6842638785158469 
2.870000000001632, -0.6855834612605658 
2.8800000000016532, -0.6881324313770438 
2.8900000000016743, -0.6924019161692025 
2.9000000000016954, -0.6988797669899391 
2.9100000000017165, -0.7078820971679534 
2.9200000000017377, -0.7192952951780327 
2.9300000000017588, -0.7323332470950727 
2.94000000000178, -0.7455622073111943 
2.950000000001801, -0.7573862500032885 
2.960000000001822, -0.7667385998039269 
2.970000000001843, -0.7734040124854507 
2.9800000000018643, -0.7777912234817708 
2.9900000000018854, -0.7805135733113125 
3.0000000000019065, -0.7821144352612075 
3.0100000000019276, -0.7829816816244285 
3.0200000000019487, -0.7833602523829452 
3.03000000000197, -0.7833887523401044 
3.040000000001991, -0.7831291875659006 
3.050000000002012, -0.7825823805532477 
3.060000000002033, -0.7816885780054774 
3.070000000002054, -0.78031277937974 
3.0800000000020753, -0.7782130524510134 
3.0900000000020964, -0.7749924332011825 
3.1000000000021175, -0.770050584520737 
3.1100000000021386, -0.7625971977146516 
3.1200000000021597, -0.7518635872078192 
3.130000000002181, -0.737635662024843 
3.140000000002202, -0.7208828080675289 
3.150000000002223, -0.7037565054106795 
3.160000000002244, -0.6886047921018583 
3.1700000000022652, -0.6768490111770824 
3.1800000000022863, -0.6686895221110476 
3.1900000000023074, -0.6635374104641635 
3.2000000000023285, -0.6605553939922134 
3.2100000000023496, -0.6589832604792302 
3.2200000000023707, -0.6582507477885718 
3.230000000002392, -0.6579752105508115 
3.240000000002413, -0.6579184463757349 
3.250000000002434, -0.6579395241403281 
3.260000000002455, -0.6579568089967801 
3.2700000000024763, -0.6579213892709599 
3.2800000000024974, -0.6578003109082774 
3.2900000000025185, -0.6575676118551786 
3.3000000000025396, -0.6572019019430171 
3.3100000000025607, -0.6566895989033872 
3.3200000000025818, -0.6560316960325856 
3.330000000002603, -0.6552492837841093 
3.340000000002624, -0.654381963880491 
3.350000000002645, -0.6534773008755491 
3.360000000002666, -0.652576572875448 
3.3700000000026873, -0.6517051181600292 
3.3800000000027084, -0.6508715839754089 
3.3900000000027295, -0.6500742096912127 
3.4000000000027506, -0.6493092879927466 
3.4100000000027717, -0.648577923085362 
3.420000000002793, -0.6478898957869943 
3.430000000002814, -0.6472654810004727 
3.440000000002835, -0.6467365128150663 
3.450000000002856, -0.6463473736033131 
3.460000000002877, -0.6461558292088057 
3.4700000000028983, -0.6462332784125043 
3.4800000000029194, -0.6466640796711094 
3.4900000000029405, -0.6475439103221298 
3.5000000000029616, -0.6489771729385427 
3.5100000000029827, -0.6510727806403009 
3.520000000003004, -0.6539358354928818 
3.530000000003025, -0.6576499083621169 
3.540000000003046, -0.6622425434471066 
3.550000000003067, -0.6676304256387383 
3.5600000000030882, -0.6735591317578014 
3.5700000000031094, -0.6795859446630184 
3.5800000000031305, -0.6851669017199324 
3.5900000000031516, -0.6898409800432113 
3.6000000000031727, -0.6933903387882862 
3.6100000000031938, -0.6958568696731703 
3.620000000003215, -0.6974354228591223 
3.630000000003236, -0.6983522127594772 
3.640000000003257, -0.6987946690357263 
3.650000000003278, -0.6988907403284618 
3.6600000000032993, -0.6987119061365823 
3.6700000000033204, -0.6982805303704169 
3.6800000000033415, -0.6975723357583978 
3.6900000000033626, -0.6965098880456708 
3.7000000000033837, -0.6949438627563058 
3.710000000003405, -0.6926182445248212 
3.720000000003426, -0.6891179989412465 
3.730000000003447, -0.6838149564746921 
3.740000000003468, -0.6758835268102119 
3.750000000003489, -0.664553185811734 
3.7600000000035103, -0.6497338725765454 
3.7700000000035314, -0.632666862410203 
3.7800000000035525, -0.6157097888279929 
3.7900000000035736, -0.6011080647842719 
3.8000000000035947, -0.5899607142225554 
3.810000000003616, -0.5822043202548243 
3.820000000003637, -0.5771730151704957 
3.830000000003658, -0.5740892964502525 
3.840000000003679, -0.5722969860933629 
3.8500000000037002, -0.5713160126308894 
3.8600000000037213, -0.5708213764350234 
3.8700000000037424, -0.5706031720807192 
3.8800000000037635, -0.5705297628411384 
3.8900000000037847, -0.5705198229717465 
3.9000000000038058, -0.5705230715133875 
3.910000000003827, -0.5705080844194069 
3.920000000003848, -0.5704556591487233 
3.930000000003869, -0.5703564825888794 
3.94000000000389, -0.5702116165776935 
3.9500000000039113, -0.570033421059813 
3.9600000000039324, -0.5698438431100714 
3.9700000000039535, -0.5696680875508265 
3.9800000000039746, -0.5695249092871828 
3.9900000000039957, -0.5694179141650252 
4.000000000004016, -0.5693326227243694 
4.010000000003993, -0.5692412393205759 
4.02000000000397, -0.5691127826026324 
4.030000000003946, -0.5689231872240834 
4.040000000003923, -0.5686606885357018 
4.0500000000039, -0.5683257585153234 
4.0600000000038765, -0.5679284296468705 
4.070000000003853, -0.5674865743552773 
4.08000000000383, -0.5670275659250276 
4.090000000003807, -0.566594765242682 
4.100000000003783, -0.56626031057139 
4.11000000000376, -0.5661464301630229 
4.120000000003737, -0.5664580560848712 
4.130000000003713, -0.567528047841033 
4.14000000000369, -0.5698683783062465 
4.150000000003667, -0.5741967875077834 
4.1600000000036434, -0.5813576096897791 
4.17000000000362, -0.5919986228919548 
4.180000000003597, -0.6059456304827532 
4.1900000000035735, -0.6216642345922659 
4.20000000000355, -0.6366628814554136 
4.210000000003527, -0.6489019514047618 
4.220000000003504, -0.657768775773651 
4.23000000000348, -0.6637568391790009 
4.240000000003457, -0.6676757612764687 
4.250000000003434, -0.6702084031028894 
4.26000000000341, -0.6718254057731463 
4.270000000003387, -0.6728292459410118 
4.280000000003364, -0.673409104850272 
4.2900000000033405, -0.6736791677430587 
4.300000000003317, -0.6737014488845637 
4.310000000003294, -0.6734978153906785 
4.320000000003271, -0.6730546624011453 
4.330000000003247, -0.67232307704862 
4.340000000003224, -0.6712186475851177 
4.350000000003201, -0.6696287387811889 
4.360000000003177, -0.6674388634448234 
4.370000000003154, -0.6645851501916125 
4.380000000003131, -0.6611163826018724 
4.390000000003107, -0.6572194640144793 
4.400000000003084, -0.6531726212559644 
4.410000000003061, -0.6492522566176671 
4.4200000000030375, -0.6456591149518329 
4.430000000003014, -0.6424989422401983 
4.440000000002991, -0.639803253142035 
4.450000000002968, -0.6375606425932748 
4.460000000002944, -0.6357410163332845 
4.470000000002921, -0.6343089981417246 
4.480000000002898, -0.633229263346367 
4.490000000002874, -0.6324676269293693 
4.500000000002851, -0.6319907472229512 
4.510000000002828, -0.6317660415704013 
4.520000000002804, -0.6317624031375594 
4.530000000002781, -0.6319516575189636 
4.540000000002758, -0.6323103783581405 
4.5500000000027345, -0.6328215896392032 
4.560000000002711, -0.6334758256570387 
4.570000000002688, -0.6342707910809452 
4.580000000002665, -0.6352084519063328 
4.590000000002641, -0.636288233612575 
4.600000000002618, -0.6374960261102958 
4.610000000002595, -0.63879173784557 
4.620000000002571, -0.6401025392334894 
4.630000000002548, -0.6413306779238971 
4.640000000002525, -0.6423779239944485 
4.6500000000025015, -0.6431747421780702 
4.660000000002478, -0.6436957231264457 
4.670000000002455, -0.6439538114639245 
4.6800000000024315, -0.6439820857742955 
4.690000000002408, -0.6438161799483424 
4.700000000002385, -0.6434839532324985 
4.710000000002362, -0.6430023844373743 
4.720000000002338, -0.6423796615282437 
4.730000000002315, -0.6416216500052828 
4.740000000002292, -0.6407440849288161 
4.750000000002268, -0.6397934879767019 
4.760000000002245, -0.638878777688536 
4.770000000002222, -0.6382062049144331 
4.7800000000021985, -0.6380830063463095 
4.790000000002175, -0.6388123922927569 
4.800000000002152, -0.6404166107308593 
4.810000000002129, -0.6423607158697449 
4.820000000002105, -0.6437788092975193 
4.830000000002082, -0.6442619947773796 
4.840000000002059, -0.644205053739626 
4.850000000002035, -0.6442302494786973 
4.860000000002012, -0.6446118327014176 
4.870000000001989, -0.6452738725392997 
4.880000000001965, -0.6460284906679938 
4.890000000001942, -0.6467264013910031 
4.900000000001919, -0.6472890387160984 
4.9100000000018955, -0.6476893297454862 
4.920000000001872, -0.6479255640715768 
