t, s[1].omega / s[0].omega 
0, -0.34000001398443075 
0.009999999999999995, -0.3400690347795949 
0.019999999999999934, -0.3402536956509245 
0.029999999999999874, -0.3405078193049162 
0.04000000000000012, -0.3407703352242621 
0.050000000000000405, -0.34098182743686056 
0.06000000000000069, -0.3410982989068731 
0.07000000000000098, -0.3410955442399091 
0.08000000000000126, -0.34096414740081765 
0.09000000000000155, -0.3406998597606983 
0.10000000000000184, -0.3402934766671232 
0.11000000000000212, -0.33972094974122663 
0.12000000000000241, -0.3389314496781741 
0.130000000000002, -0.33782911133767973 
0.1400000000000009, -0.33624337648743596 
0.1499999999999998, -0.3338867651040328 
0.1599999999999987, -0.3303201764685645 
0.1699999999999976, -0.32500299172769354 
0.1799999999999965, -0.31756199695323123 
0.1899999999999954, -0.3082626758008979 
0.1999999999999943, -0.2982102970375541 
0.2099999999999932, -0.2888166849712911 
0.2199999999999921, -0.28101678406855457 
0.229999999999991, -0.27502935444814564 
0.2399999999999899, -0.27062258817975093 
0.2499999999999888, -0.2674299452306911 
0.2599999999999877, -0.26511721073012773 
0.2699999999999866, -0.2634311268200306 
0.2799999999999855, -0.2621964687974574 
0.2899999999999844, -0.2612997874873396 
0.2999999999999833, -0.26067433639144627 
0.3099999999999822, -0.2602901351636945 
0.3199999999999811, -0.2601498113522782 
0.32999999999998, -0.260290500591697 
0.3399999999999789, -0.2607928762163048 
0.3499999999999778, -0.26179972745143976 
0.35999999999997667, -0.2635479346569264 
0.36999999999997557, -0.266417363213198 
0.37999999999997447, -0.2709911446390506 
0.38999999999997337, -0.2780835338501419 
0.39999999999997227, -0.28858685645271537 
0.40999999999997117, -0.3028479248444476 
0.41999999999997006, -0.31953308149168486 
0.42999999999996896, -0.3352510281599257 
0.43999999999996786, -0.3466704725663004 
0.44999999999996676, -0.3531136039100719 
0.45999999999996566, -0.3561027000105943 
0.46999999999996456, -0.35735664489719426 
0.47999999999996346, -0.35789993315458385 
0.48999999999996235, -0.35818060245236927 
0.49999999999996125, -0.3583602226663018 
0.5099999999999602, -0.3584885745511779 
0.519999999999959, -0.358578214236304 
0.529999999999958, -0.3586311132961689 
0.5399999999999568, -0.3586470984608193 
0.5499999999999557, -0.3586265946161958 
0.5599999999999546, -0.35857236912315005 
0.5699999999999535, -0.3584918817293468 
0.5799999999999524, -0.35840032648049835 
0.5899999999999513, -0.3583232050458755 
0.5999999999999502, -0.35829632684339224 
0.6099999999999491, -0.35836131283713285 
0.619999999999948, -0.3585563188261908 
0.6299999999999469, -0.3589037544910948 
0.6399999999999458, -0.3593982929635513 
0.6499999999999447, -0.36000002860202746 
0.6599999999999436, -0.3606387350159711 
0.6699999999999425, -0.36123160937037163 
0.6799999999999414, -0.3617072465888926 
0.6899999999999403, -0.3620220333127916 
0.6999999999999392, -0.3621609555612602 
0.7099999999999381, -0.36212655450849063 
0.719999999999937, -0.3619246815668279 
0.7299999999999359, -0.3615522251584785 
0.7399999999999348, -0.3609867101946974 
0.7499999999999337, -0.3601746341228931 
0.7599999999999326, -0.3590145731427806 
0.7699999999999315, -0.3573325412149028 
0.7799999999999304, -0.35485493383133415 
0.7899999999999293, -0.3512083888014299 
0.7999999999999282, -0.34601709962975213 
0.8099999999999271, -0.339162891345283 
0.819999999999926, -0.3310851647367093 
0.8299999999999249, -0.3227490751109448 
0.8399999999999238, -0.315160068809237 
0.8499999999999227, -0.3088941209741613 
0.8599999999999216, -0.30403773705136106 
0.8699999999999205, -0.30039651704411885 
0.8799999999999194, -0.29769842305015765 
0.8899999999999183, -0.29569797009051607 
0.8999999999999172, -0.2942074514961235 
0.9099999999999161, -0.2930958380980828 
0.919999999999915, -0.29227868992523 
0.9299999999999139, -0.29170858300318525 
0.9399999999999128, -0.2913691326734631 
0.9499999999999117, -0.2912735536338043 
0.9599999999999106, -0.29146847301336354 
0.9699999999999095, -0.2920443647628417 
0.9799999999999084, -0.2931550738741152 
0.9899999999999073, -0.29504987109020525 
0.9999999999999062, -0.2981202012707568 
1.0099999999999052, -0.30295254268829575 
1.019999999999904, -0.3103394988130065 
1.029999999999903, -0.3211054155503028 
1.039999999999902, -0.33550172516077076 
1.0499999999999008, -0.3522149161443162 
1.0599999999998997, -0.36814614677631435 
1.0699999999998986, -0.3802804561490437 
1.0799999999998975, -0.38784340443113746 
1.0899999999998964, -0.39198533858405604 
1.0999999999998953, -0.39417132105077346 
1.1099999999998942, -0.3953739526036277 
1.119999999999893, -0.3960880777093045 
1.129999999999892, -0.39653893759462705 
1.1399999999998909, -0.3968272982239518 
1.1499999999998898, -0.3970000421002858 
1.1599999999998887, -0.397080052626256 
1.1699999999998876, -0.397078464267074 
1.1799999999998865, -0.3970003162148385 
1.1899999999998854, -0.39684846513071637 
1.1999999999998843, -0.39662785212258117 
1.2099999999998832, -0.39635051058786663 
1.219999999999882, -0.3960399135672547 
1.229999999999881, -0.39573178001110204 
1.2399999999998799, -0.3954688946131163 
1.2499999999998788, -0.395290509987288 
1.2599999999998777, -0.39522025510061365 
1.2699999999998766, -0.39525736731603744 
1.2799999999998755, -0.3953747680705521 
1.2899999999998744, -0.39552554397765743 
1.2999999999998733, -0.3956562384396756 
1.3099999999998722, -0.3957211932602229 
1.319999999999871, -0.39569096666313064 
1.32999999999987, -0.39555200716488814 
1.3399999999998689, -0.39530022249088603 
1.3499999999998678, -0.3949327865644939 
1.3599999999998666, -0.3944405130935795 
1.3699999999998655, -0.3938002494686892 
1.3799999999998644, -0.3929643861247407 
1.3899999999998633, -0.3918420332438726 
1.3999999999998622, -0.390262504945655 
1.4099999999998611, -0.3879079505072757 
1.41999999999986, -0.38421230139551155 
1.429999999999859, -0.37829457717571446 
1.4399999999998578, -0.3691731283280445 
1.4499999999998567, -0.3565544834201167 
1.4599999999998556, -0.34172295864068547 
1.4699999999998545, -0.32714581849659763 
1.4799999999998534, -0.31485774324852694 
1.4899999999998523, -0.30554356988701115 
1.4999999999998512, -0.2988938307674417 
1.5099999999998501, -0.2942688223337683 
1.519999999999849, -0.2910727247695228 
1.529999999999848, -0.288860231232981 
1.5399999999998468, -0.28732829884640626 
1.5499999999998457, -0.28628067012641645 
1.5599999999998446, -0.2855958131401507 
1.5699999999998435, -0.28520467713352 
1.5799999999998424, -0.28507752253460883 
1.5899999999998413, -0.2852180573308085 
1.5999999999998402, -0.2856637794493525 
1.6099999999998391, -0.28649237651592296 
1.619999999999838, -0.2878347643145852 
1.629999999999837, -0.2898951538531972 
1.6399999999998358, -0.29297535990448753 
1.6499999999998347, -0.29748904635068046 
1.6599999999998336, -0.3039223687349569 
1.6699999999998325, -0.31265170167558093 
1.6799999999998314, -0.32354171207168675 
1.6899999999998303, -0.33551614342139974 
1.6999999999998292, -0.3467360204551042 
1.709999999999828, -0.3556380585913781 
1.719999999999827, -0.3617880020785828 
1.729999999999826, -0.3656722872688719 
1.7399999999998248, -0.3680232133996892 
1.7499999999998237, -0.36942626942806156 
1.7599999999998226, -0.37025427854367626 
1.7699999999998215, -0.37072280536407115 
1.7799999999998204, -0.37095145871664786 
1.7899999999998193, -0.37100440741052576 
1.7999999999998182, -0.3709136119672318 
1.809999999999817, -0.3706923383794048 
1.819999999999816, -0.3703446887304866 
1.8299999999998149, -0.36987466292160526 
1.8399999999998138, -0.36929576069994136 
1.8499999999998127, -0.36863884007271064 
1.8599999999998116, -0.3679533760551421 
1.8699999999998105, -0.36729883544131614 
1.8799999999998094, -0.36672906565887586 
1.8899999999998083, -0.3662775709931275 
1.8999999999998072, -0.36595012606568134 
1.909999999999806, -0.3657261583122273 
1.919999999999805, -0.3655670024694495 
1.9299999999998039, -0.36542778787191604 
1.9399999999998028, -0.36526865578949397 
1.9499999999998017, -0.3650612276980774 
1.9599999999998006, -0.3647889434766939 
1.9699999999997995, -0.3644430641893635 
1.9799999999997984, -0.3640171309523894 
1.9899999999997973, -0.36350142902830906 
1.9999999999997962, -0.3628770041195867 
2.0099999999998173, -0.3621066421686978 
2.0199999999998384, -0.36111707157089346 
2.0299999999998595, -0.35976070722989 
2.0399999999998806, -0.3577365178362282 
2.0499999999999017, -0.3544522891930152 
2.059999999999923, -0.348887583707564 
2.069999999999944, -0.33976869969708423 
2.079999999999965, -0.3265345918555712 
2.089999999999986, -0.3105900165885012 
2.100000000000007, -0.2948910521962108 
2.1100000000000283, -0.28184063190715936 
2.1200000000000494, -0.2721539273429621 
2.1300000000000705, -0.26538758194023665 
2.1400000000000916, -0.2607732843527591 
2.1500000000001127, -0.2576373814478029 
2.160000000000134, -0.25549661038590143 
2.170000000000155, -0.2540323463850445 
2.180000000000176, -0.2530437152455553 
2.190000000000197, -0.2524097343654426 
2.2000000000002182, -0.2520646105942849 
2.2100000000002393, -0.2519839559354982 
2.2200000000002604, -0.2521794860588674 
2.2300000000002815, -0.252701006721146 
2.2400000000003026, -0.25364586765723435 
2.2500000000003237, -0.25517713165642325 
2.260000000000345, -0.25755152562177036 
2.270000000000366, -0.26115354566670973 
2.280000000000387, -0.26651392178011757 
2.290000000000408, -0.274243258419698 
2.3000000000004293, -0.2847418376163645 
2.3100000000004504, -0.2976033658541086 
2.3200000000004715, -0.31113576846758134 
2.3300000000004926, -0.32296971720804674 
2.3400000000005137, -0.3316120724598356 
2.3500000000005348, -0.3371196189965392 
2.360000000000556, -0.3403776894539906 
2.370000000000577, -0.34226456502956226 
2.380000000000598, -0.343365285795042 
2.390000000000619, -0.34401156526586746 
2.4000000000006403, -0.34438076523246297 
2.4100000000006614, -0.3445665679766381 
2.4200000000006825, -0.3446182757583137 
2.4300000000007036, -0.3445613121972509 
2.4400000000007247, -0.3444086543256403 
2.450000000000746, -0.344168795371044 
2.460000000000767, -0.3438529346782134 
2.470000000000788, -0.34348164122344277 
2.480000000000809, -0.3430889021074018 
2.49000000000083, -0.34272047083152557 
2.5000000000008513, -0.3424253935480612 
2.5100000000008724, -0.34224349467498844 
2.5200000000008935, -0.34219377349189767 
2.5300000000009146, -0.34226767000311975 
2.5400000000009357, -0.34242945503577227 
2.550000000000957, -0.3426247427502346 
2.560000000000978, -0.34279516366929247 
2.570000000000999, -0.34289288033578114 
2.58000000000102, -0.3428879099819021 
2.5900000000010412, -0.3427661664391485 
2.6000000000010624, -0.34252156868379313 
2.6100000000010835, -0.34214654927189614 
2.6200000000011046, -0.3416226848665508 
2.6300000000011257, -0.34091004712503714 
2.6400000000011468, -0.33993147747327146 
2.650000000001168, -0.338546154245547 
2.660000000001189, -0.33650713005241906 
2.67000000000121, -0.33340904847107666 
2.680000000001231, -0.32867756215880406 
2.6900000000012523, -0.3217384556759484 
2.7000000000012734, -0.31248827384016964 
2.7100000000012945, -0.3017711231932296 
2.7200000000013156, -0.2911446106222718 
2.7300000000013367, -0.28195972290147725 
2.740000000001358, -0.2747647363650172 
2.750000000001379, -0.269442765495422 
2.7600000000014, -0.26560517507041886 
2.770000000001421, -0.26285235958988906 
2.780000000001442, -0.2608682116654472 
2.7900000000014633, -0.2594295117926161 
2.8000000000014844, -0.258388805422284 
2.8100000000015055, -0.25765527762776147 
2.8200000000015266, -0.2571808102905949 
2.8300000000015477, -0.25695238925698505 
2.840000000001569, -0.2569907990726713 
2.85000000000159, -0.25735605206781276 
2.860000000001611, -0.25816120780014806 
2.870000000001632, -0.2595977379134561 
2.8800000000016532, -0.2619763986467334 
2.8900000000016743, -0.2657836810028592 
2.9000000000016954, -0.27173215188789906 
2.9100000000017165, -0.2807125740010833 
2.9200000000017377, -0.29341630525420903 
2.9300000000017588, -0.3093893453768918 
2.94000000000178, -0.3260968455099055 
2.950000000001801, -0.339872272502051 
2.960000000001822, -0.34873270877861473 
2.970000000001843, -0.3533813188938489 
2.9800000000018643, -0.3555508635754523 
2.9900000000018854, -0.3565561819298618 
3.0000000000019065, -0.3570701759119722 
3.0100000000019276, -0.3573739948706341 
3.0200000000019487, -0.35757315753897057 
3.03000000000197, -0.35770550598101397 
3.040000000001991, -0.35778476463417686 
3.050000000002012, -0.357816355895371 
3.060000000002033, -0.3578031300472624 
3.070000000002054, -0.35774820724826445 
3.0800000000020753, -0.35765768340819615 
3.0900000000020964, -0.3575439454703636 
3.1000000000021175, -0.3574289228224251 
3.1100000000021386, -0.35734538608389965 
3.1200000000021597, -0.357334102385553 
3.130000000002181, -0.357435970876596 
3.140000000002202, -0.357680484570186 
3.150000000002223, -0.3580735329960202 
3.160000000002244, -0.35858871601698883 
3.1700000000022652, -0.3591675308645591 
3.1800000000022863, -0.35973231545237616 
3.1900000000023074, -0.36020836284038915 
3.2000000000023285, -0.36054327852047086 
3.2100000000023496, -0.3607130082236865 
3.2200000000023707, -0.3607144517023446 
3.230000000002392, -0.36055219277767253 
3.240000000002413, -0.3602258179112282 
3.250000000002434, -0.35971927113042224 
3.260000000002455, -0.35898990630927113 
3.2700000000024763, -0.3579533179493247 
3.2800000000024974, -0.3564602960889606 
3.2900000000025185, -0.35426684974414985 
3.3000000000025396, -0.35101582511142715 
3.3100000000025607, -0.34628872149651424 
3.3200000000025818, -0.33981631933519496 
3.330000000002603, -0.33182047810371296 
3.340000000002624, -0.3231568245407035 
3.350000000002645, -0.3149405291528053 
3.360000000002666, -0.30796511231356816 
3.3700000000026873, -0.30247811010198966 
3.3800000000027084, -0.2983442210490047 
3.3900000000027295, -0.29528595166335053 
3.4000000000027506, -0.29302943429493056 
3.4100000000027717, -0.29135712551266585 
3.420000000002793, -0.2901135686945028 
3.430000000002814, -0.28919578011867897 
3.440000000002835, -0.28854214209895224 
3.450000000002856, -0.28812449762913483 
3.460000000002877, -0.2879447498308268 
3.4700000000028983, -0.28803655541893947 
3.4800000000029194, -0.28847314121213447 
3.4900000000029405, -0.28938328295025445 
3.5000000000029616, -0.2909786424228774 
3.5100000000029827, -0.29359562468021033 
3.520000000003004, -0.2977488274985141 
3.530000000003025, -0.304166718083209 
3.540000000003046, -0.3137052706797913 
3.550000000003067, -0.32691438269468825 
3.5600000000030882, -0.34311319795931633 
3.5700000000031094, -0.35969938300165877 
3.5800000000031305, -0.3733144850277071 
3.5900000000031516, -0.38232164451417777 
3.6000000000031727, -0.3874066717121057 
3.6100000000031938, -0.39008469373219357 
3.620000000003215, -0.3915211299923621 
3.630000000003236, -0.3923485320596226 
3.640000000003257, -0.39286104769733216 
3.650000000003278, -0.3931893329400964 
3.6600000000032993, -0.3933928012162713 
3.6700000000033204, -0.3934999036763841 
3.6800000000033415, -0.3935245951051093 
3.6900000000033626, -0.39347343736549695 
3.7000000000033837, -0.3933497518893848 
3.710000000003405, -0.39315761522161835 
3.720000000003426, -0.3929066078459885 
3.730000000003447, -0.39261651356112115 
3.740000000003468, -0.3923194904883024 
3.750000000003489, -0.39205690269460114 
3.7600000000035103, -0.39187023459556236 
3.7700000000035314, -0.39178901577578495 
3.7800000000035525, -0.3918204733522708 
3.7900000000035736, -0.39194495315644373 
3.8000000000035947, -0.3921195437344339 
3.810000000003616, -0.39228974077843554 
3.820000000003637, -0.3924046594228823 
3.830000000003658, -0.39242834589668685 
3.840000000003679, -0.3923423041623881 
3.8500000000037002, -0.39214033825092265 
3.8600000000037213, -0.3918201824220955 
3.8700000000037424, -0.3913752567412891 
3.8800000000037635, -0.3907868885231425 
3.8900000000037847, -0.3900147240076147 
3.9000000000038058, -0.3889807157120206 
3.910000000003827, -0.3875388696219855 
3.920000000003848, -0.3854193464959429 
3.930000000003869, -0.38214068021821246 
3.94000000000389, -0.37693201987846 
3.9500000000039113, -0.3688500148503426 
3.9600000000039324, -0.357388302031337 
3.9700000000039535, -0.3433831674693379 
3.9800000000039746, -0.3290186087571426 
3.9900000000039957, -0.31645802107275994 
4.000000000004016, -0.30668503426428434 
4.010000000003993, -0.2995924213260146 
4.02000000000397, -0.2946116746063002 
4.030000000003946, -0.29114905276586855 
4.040000000003923, -0.2887399377136607 
4.0500000000039, -0.287060684768754 
4.0600000000038765, -0.28589859388049194 
4.070000000003853, -0.28512002230920885 
4.08000000000383, -0.28464696168183756 
4.090000000003807, -0.28444258223074825 
4.100000000003783, -0.28450423697287974 
4.11000000000376, -0.28486279369599105 
4.120000000003737, -0.28558808044351724 
4.130000000003713, -0.2868010867887542 
4.14000000000369, -0.28869378451042227 
4.150000000003667, -0.29155536460286946 
4.1600000000036434, -0.2957946881211607 
4.17000000000362, -0.30192314485948496 
4.180000000003597, -0.31041323443913094 
4.1900000000035735, -0.32132508883601635 
4.20000000000355, -0.33379173271650964 
4.210000000003527, -0.3459653650344803 
4.220000000003504, -0.35597198598803464 
4.23000000000348, -0.3630409771148129 
4.240000000003457, -0.36754299101732546 
4.250000000003434, -0.370265887716953 
4.26000000000341, -0.37188758486430296 
4.270000000003387, -0.3728493991777239 
4.280000000003364, -0.3734070812332967 
4.2900000000033405, -0.3737022507957076 
4.300000000003317, -0.3738114009537412 
4.310000000003294, -0.373773885458576 
4.320000000003271, -0.373607545648141 
4.330000000003247, -0.3733187234576021 
4.340000000003224, -0.3729108771384605 
4.350000000003201, -0.37239365591744283 
4.360000000003177, -0.371791334599936 
4.370000000003154, -0.37114653575083983 
4.380000000003131, -0.3705150657683047 
4.390000000003107, -0.3699524262958679 
4.400000000003084, -0.3694984178585102 
4.410000000003061, -0.3691670841585275 
4.4200000000030375, -0.3689451283185593 
4.430000000003014, -0.3687980041036397 
4.440000000002991, -0.36868102961616417 
4.450000000002968, -0.36855147725429005 
4.460000000002944, -0.36837701089208263 
4.470000000002921, -0.36813787835132616 
4.480000000002898, -0.3678238144420408 
4.490000000002874, -0.3674285302941582 
4.500000000002851, -0.366943951676706 
4.510000000002828, -0.36635439960508426 
4.520000000002804, -0.3656288107601282 
4.530000000002781, -0.364706458867773 
4.540000000002758, -0.3634668858111049 
4.5500000000027345, -0.36166682418172624 
4.560000000002711, -0.3588230958211039 
4.570000000002688, -0.3540630891641654 
4.580000000002665, -0.346153194818711 
4.590000000002641, -0.3341815604988519 
4.600000000002618, -0.3188649479240946 
4.610000000002595, -0.30282933815985724 
4.620000000002571, -0.2888335047186814 
4.630000000002548, -0.27811652264325437 
4.640000000002525, -0.27050894277212206 
4.6500000000025015, -0.26528871509832486 
4.660000000002478, -0.26173768590930857 
4.670000000002455, -0.2593151667945381 
4.6800000000024315, -0.25765644369990104 
4.690000000002408, -0.25652816437916187 
4.700000000002385, -0.25578703226376986 
4.710000000002362, -0.25535127054795226 
4.720000000002338, -0.25518371297086495 
4.730000000002315, -0.2552839353270834 
4.740000000002292, -0.25568780025586385 
4.750000000002268, -0.25647413329748714 
4.760000000002245, -0.25777942426967687 
4.770000000002222, -0.2598218308993468 
4.7800000000021985, -0.26293320673066445 
4.790000000002175, -0.2675860120785417 
4.800000000002152, -0.2743673067415016 
4.810000000002129, -0.28378684675079047 
4.820000000002105, -0.2957900748041317 
4.830000000002082, -0.30916259831306464 
4.840000000002059, -0.32167131803773275 
4.850000000002035, -0.33140290381679194 
4.860000000002012, -0.3378996842553846 
