t, s[1].omega / s[0].omega 
0, -1.0798341364890436 
0.009999999999999995, -1.0631789560439096 
0.019999999999999934, -1.0485983833658024 
0.029999999999999874, -1.0385641459799166 
0.04000000000000012, -1.0334864250230265 
0.050000000000000405, -1.0320280957410644 
0.06000000000000069, -1.0324136367346766 
0.07000000000000098, -1.0333608802019074 
0.08000000000000126, -1.0342365362733426 
0.09000000000000155, -1.0348289630989682 
0.10000000000000184, -1.0351107552021515 
0.11000000000000212, -1.0351003966831287 
0.12000000000000241, -1.0347985318190367 
0.130000000000002, -1.034155947436124 
0.1400000000000009, -1.0330444274039674 
0.1499999999999998, -1.0312142400106659 
0.1599999999999987, -1.0282329180378942 
0.1699999999999976, -1.0234242492045404 
0.1799999999999965, -1.0158873337278953 
0.1899999999999954, -1.004768933792738 
0.1999999999999943, -0.9899435122425745 
0.2099999999999932, -0.9728208145798464 
0.2199999999999921, -0.9563253207856744 
0.229999999999991, -0.9434620886639328 
0.2399999999999899, -0.9356024423727476 
0.2499999999999888, -0.9321364600129958 
0.2599999999999877, -0.9314609828839373 
0.2699999999999866, -0.9320679644513763 
0.2799999999999855, -0.9330056332987183 
0.2899999999999844, -0.9338292659662567 
0.2999999999999833, -0.9343930357125723 
0.3099999999999822, -0.9346795063670476 
0.3199999999999811, -0.9347034861185243 
0.32999999999998, -0.9344659851044641 
0.3399999999999789, -0.9339299010387228 
0.3499999999999778, -0.9329988763255678 
0.35999999999997667, -0.9314895541408814 
0.36999999999997557, -0.9290963901373555 
0.37999999999997447, -0.9253653406278689 
0.38999999999997337, -0.9197251851756956 
0.39999999999997227, -0.9116548925521271 
0.40999999999997117, -0.9010168788615319 
0.41999999999997006, -0.8883938098638632 
0.42999999999996896, -0.8751000934583366 
0.43999999999996786, -0.8627322744941252 
0.44999999999996676, -0.8525541300812355 
0.45999999999996566, -0.8451303644456182 
0.46999999999996456, -0.8403424935308401 
0.47999999999996346, -0.8376463715270699 
0.48999999999996235, -0.8363696866940827 
0.49999999999996125, -0.8359201135642553 
0.5099999999999602, -0.8358712691043182 
0.519999999999959, -0.8359584045854815 
0.529999999999958, -0.8360337151546513 
0.5399999999999568, -0.8360173314147493 
0.5499999999999557, -0.8358592604335474 
0.5599999999999546, -0.8355141690651351 
0.5699999999999535, -0.8349266766397008 
0.5799999999999524, -0.8340262970895667 
0.5899999999999513, -0.8327344286067412 
0.5999999999999502, -0.8309862493230449 
0.6099999999999491, -0.8287631137340592 
0.619999999999948, -0.8261180243934712 
0.6299999999999469, -0.8231734827978112 
0.6399999999999458, -0.8200896864337353 
0.6499999999999447, -0.8170245702400305 
0.6599999999999436, -0.8141085412445295 
0.6699999999999425, -0.8114390101782302 
0.6799999999999414, -0.809085690504847 
0.6899999999999403, -0.8070963227020828 
0.6999999999999392, -0.8054979833480918 
0.7099999999999381, -0.8042946243215907 
0.719999999999937, -0.8034644608885679 
0.7299999999999359, -0.8029610249992125 
0.7399999999999348, -0.8027195263681909 
0.7499999999999337, -0.8026669625337133 
0.7599999999999326, -0.8027323444263119 
0.7699999999999315, -0.8028538341983058 
0.7799999999999304, -0.8029818575499281 
0.7899999999999293, -0.8030794298437142 
0.7999999999999282, -0.8031216030076683 
0.8099999999999271, -0.8030949599658166 
0.819999999999926, -0.802996417768101 
0.8299999999999249, -0.802829899807859 
0.8399999999999238, -0.8026008742156565 
0.8499999999999227, -0.8023112832709607 
0.8599999999999216, -0.8019581540627903 
0.8699999999999205, -0.8015368553164363 
0.8799999999999194, -0.8010466960972291 
0.8899999999999183, -0.800495576433882 
0.8999999999999172, -0.7999022670843725 
0.9099999999999161, -0.79929717089042 
0.919999999999915, -0.7987228428852802 
0.9299999999999139, -0.7982342516462 
0.9399999999999128, -0.7978973251455198 
0.9499999999999117, -0.7977840965359446 
0.9599999999999106, -0.797964182445119 
0.9699999999999095, -0.798494631940309 
0.9799999999999084, -0.799411644686636 
0.9899999999999073, -0.8007268611574474 
0.9999999999999062, -0.8024282082622725 
1.0099999999999052, -0.804482472705863 
1.019999999999904, -0.8068356378127058 
1.029999999999903, -0.809408425678846 
1.039999999999902, -0.812088732263884 
1.0499999999999008, -0.8147289335522906 
1.0599999999998997, -0.817159858150168 
1.0699999999998986, -0.8192261321000537 
1.0799999999998975, -0.8208283403256414 
1.0899999999998964, -0.8219447430942253 
1.0999999999998953, -0.822619097822437 
1.1099999999998942, -0.8229279037313079 
1.119999999999893, -0.8229498891391367 
1.129999999999892, -0.8227498450366765 
1.1399999999998909, -0.8223766338714544 
1.1499999999998898, -0.821871600360681 
1.1599999999998887, -0.8212861796022635 
1.1699999999998876, -0.8207111490949627 
1.1799999999998865, -0.8203210025107255 
1.1899999999998854, -0.8204314429093744 
1.1999999999998843, -0.8215517525009712 
1.2099999999998832, -0.8243876519803018 
1.219999999999882, -0.8297295772935442 
1.229999999999881, -0.8381785010706413 
1.2399999999998799, -0.8497507875991739 
1.2499999999998788, -0.8635630189049437 
1.2599999999998777, -0.8779138800835888 
1.2699999999998766, -0.8909065416448421 
1.2799999999998755, -0.9012516101782507 
1.2899999999998744, -0.908632567447631 
1.2999999999998733, -0.9134635882260238 
1.3099999999998722, -0.91642134676476 
1.319999999999871, -0.918122069247407 
1.32999999999987, -0.9190107181408023 
1.3399999999998689, -0.9193691501614232 
1.3499999999998678, -0.9193578500212242 
1.3599999999998666, -0.9190532173425894 
1.3699999999998655, -0.9184719325340515 
1.3799999999998644, -0.9175858317600307 
1.3899999999998633, -0.9163365349367789 
1.3999999999998622, -0.9146669012788319 
1.4099999999998611, -0.9125986855231571 
1.41999999999986, -0.9103915009006022 
1.429999999999859, -0.9087754053690356 
1.4399999999998578, -0.9090951857544614 
1.4499999999998567, -0.9129963838637625 
1.4599999999998556, -0.921422354222061 
1.4699999999998545, -0.9335445894940599 
1.4799999999998534, -0.9468968998717534 
1.4899999999998523, -0.9588676266518158 
1.4999999999998512, -0.9680415997095377 
1.5099999999998501, -0.9743214731656229 
1.519999999999849, -0.9782963097761685 
1.529999999999848, -0.9806674383341993 
1.5399999999998468, -0.9819924083172629 
1.5499999999998457, -0.9826427133611393 
1.5599999999998446, -0.9828388221553664 
1.5699999999998435, -0.9826928687013428 
1.5799999999998424, -0.98223723556716 
1.5899999999998413, -0.9814367053854578 
1.5999999999998402, -0.9801881095079187 
1.6099999999998391, -0.97831682523507 
1.619999999999838, -0.9755931816574724 
1.629999999999837, -0.9718190320566636 
1.6399999999998358, -0.9670569849709466 
1.6499999999998347, -0.9620053253279537 
1.6599999999998336, -0.9582380116725382 
1.6699999999998325, -0.9577251088990815 
1.6799999999998314, -0.9615101338735087 
1.6899999999998303, -0.96870759620315 
1.6999999999998292, -0.9770814317850093 
1.709999999999828, -0.984585997011799 
1.719999999999827, -0.9902663017891644 
1.729999999999826, -0.9941068015856815 
1.7399999999998248, -0.9965033099055113 
1.7499999999998237, -0.9978913323010461 
1.7599999999998226, -0.9986036934374267 
1.7699999999998215, -0.9988531077312199 
1.7799999999998204, -0.9987531253162972 
1.7899999999998193, -0.9983386094353651 
1.7999999999998182, -0.9975739558962932 
1.809999999999817, -0.9963477316831213 
1.819999999999816, -0.9944583417486996 
1.8299999999998149, -0.9916076497749737 
1.8399999999998138, -0.9874482974683966 
1.8499999999998127, -0.9817708457467786 
1.8599999999998116, -0.9748982009212774 
1.8699999999998105, -0.9681151886273179 
1.8799999999998094, -0.963533929935646 
1.8899999999998083, -0.9629314094328274 
1.8999999999998072, -0.9663728579190183 
1.909999999999806, -0.9721751581376277 
1.919999999999805, -0.9782445251515842 
1.9299999999998039, -0.9832589550326858 
1.9399999999998028, -0.9868442025478135 
1.9499999999998017, -0.9891693418103872 
1.9599999999998006, -0.9905571679476873 
1.9699999999997995, -0.9912929456505625 
1.9799999999997984, -0.9915721690227638 
1.9899999999997973, -0.9915036352245975 
1.9999999999997962, -0.9911219306413457 
2.0099999999998173, -0.9903916673560689 
2.0199999999998384, -0.9891979744915501 
2.0299999999998595, -0.9873230771762295 
2.0399999999998806, -0.9844175510247283 
2.0499999999999017, -0.9799989668524951 
2.059999999999923, -0.9735580397106804 
2.069999999999944, -0.9648877602969806 
2.079999999999965, -0.9546283433750137 
2.089999999999986, -0.9445989854897687 
2.100000000000007, -0.9371929937702245 
2.1100000000000283, -0.9339081240417476 
2.1200000000000494, -0.9344064000517308 
2.1300000000000705, -0.9370781378049943 
2.1400000000000916, -0.9402877874852649 
2.1500000000001127, -0.9430744791854939 
2.160000000000134, -0.9451238432281537 
2.170000000000155, -0.9464698969978202 
2.180000000000176, -0.9472562858828166 
2.190000000000197, -0.9476196458572824 
2.2000000000002182, -0.9476503072495372 
2.2100000000002393, -0.947383510319914 
2.2200000000002604, -0.9467947135155862 
2.2300000000002815, -0.9457861733522813 
2.2400000000003026, -0.9441576550423315 
2.2500000000003237, -0.9415582110061559 
2.260000000000345, -0.9374289449093152 
2.270000000000366, -0.9309854386385192 
2.280000000000387, -0.9213614324549584 
2.290000000000408, -0.9080712358680552 
2.3000000000004293, -0.8917245216971075 
2.3100000000004504, -0.8743793359756952 
2.3200000000004715, -0.8588161989864416 
2.3300000000004926, -0.8471025330091058 
2.3400000000005137, -0.8397431234522212 
2.3500000000005348, -0.8359651258318556 
2.360000000000556, -0.8345252522071013 
2.370000000000577, -0.8343244742551917 
2.380000000000598, -0.8346297203544228 
2.390000000000619, -0.8350398340181107 
2.4000000000006403, -0.835369944972261 
2.4100000000006614, -0.8355477509131264 
2.4200000000006825, -0.8355456285565364 
2.4300000000007036, -0.8353418510472537 
2.4400000000007247, -0.8348984306549448 
2.450000000000746, -0.8341467721681619 
2.460000000000767, -0.832978565430634 
2.470000000000788, -0.8312469085352522 
2.480000000000809, -0.8287898189823826 
2.49000000000083, -0.8254865798601496 
2.5000000000008513, -0.8213343698327282 
2.5100000000008724, -0.8164976801640014 
2.5200000000008935, -0.8112832448974491 
2.5300000000009146, -0.8060507813022626 
2.5400000000009357, -0.8011209568204775 
2.550000000000957, -0.7967268038606024 
2.560000000000978, -0.7930076655357039 
2.570000000000999, -0.7900220038393488 
2.58000000000102, -0.787761872196285 
2.5900000000010412, -0.7861653897903075 
2.6000000000010624, -0.7851305129622336 
2.6100000000010835, -0.7845325052854052 
2.6200000000011046, -0.7842430875211097 
2.6300000000011257, -0.7841463612770055 
2.6400000000011468, -0.7841476215903804 
2.650000000001168, -0.7841746825103755 
2.660000000001189, -0.7841743933724491 
2.67000000000121, -0.7841080448280804 
2.680000000001231, -0.7839485860137463 
2.6900000000012523, -0.7836807049623353 
2.7000000000012734, -0.7833023962854151 
2.7100000000012945, -0.7828247953616648 
2.7200000000013156, -0.7822677489022352 
2.7300000000013367, -0.7816521881642723 
2.740000000001358, -0.7809936756626938 
2.750000000001379, -0.780300932698075 
2.7600000000014, -0.7795794125009162 
2.770000000001421, -0.7788369276287578 
2.780000000001442, -0.7780883024039503 
2.7900000000014633, -0.7773579244212694 
2.8000000000014844, -0.7766805204958402 
2.8100000000015055, -0.7761004751278617 
2.8200000000015266, -0.7756693400913698 
2.8300000000015477, -0.7754410651518501 
2.840000000001569, -0.7754653494397428 
2.85000000000159, -0.7757807838187504 
2.860000000001611, -0.7764100351429459 
2.870000000001632, -0.7773585526756899 
2.8800000000016532, -0.7786165111373389 
2.8900000000016743, -0.7801619531820417 
2.9000000000016954, -0.7819622082116802 
2.9100000000017165, -0.7839710741970015 
2.9200000000017377, -0.7861213591893945 
2.9300000000017588, -0.7883165823550922 
2.94000000000178, -0.7904306767382039 
2.950000000001801, -0.7923251123093151 
2.960000000001822, -0.7938824736098737 
2.970000000001843, -0.7950387812453802 
2.9800000000018643, -0.7957931013911701 
2.9900000000018854, -0.7961907685866629 
3.0000000000019065, -0.7962958206144426 
3.0100000000019276, -0.7961695529739623 
3.0200000000019487, -0.7958616009437312 
3.03000000000197, -0.7954122111724742 
3.040000000001991, -0.7948635754029657 
3.050000000002012, -0.7942808824794371 
3.060000000002033, -0.7937862549933579 
3.070000000002054, -0.7936078049468567 
3.0800000000020753, -0.7941378242704646 
3.0900000000020964, -0.7959751657365423 
3.1000000000021175, -0.7998998456495311 
3.1100000000021386, -0.8067100981567725 
3.1200000000021597, -0.8168805327523062 
3.130000000002181, -0.8301216752978032 
3.140000000002202, -0.8451277861546952 
3.150000000002223, -0.8598823358857215 
3.160000000002244, -0.8725129176873718 
3.1700000000022652, -0.8820662180743163 
3.1800000000022863, -0.8886042019959849 
3.1900000000023074, -0.892755691896679 
3.2000000000023285, -0.8952422965659963 
3.2100000000023496, -0.8966411869245066 
3.2200000000023707, -0.8973410900297247 
3.230000000002392, -0.8975769703759834 
3.240000000002413, -0.8974750946797988 
3.250000000002434, -0.8970855103526147 
3.260000000002455, -0.896399501491891 
3.2700000000024763, -0.8953559847011953 
3.2800000000024974, -0.8938439025265739 
3.2900000000025185, -0.8917138514333303 
3.3000000000025396, -0.8888241936651242 
3.3100000000025607, -0.8851578112382212 
3.3200000000025818, -0.8810228609187198 
3.330000000002603, -0.8772396128068289 
3.340000000002624, -0.8750488211785367 
3.350000000002645, -0.8755393407294859 
3.360000000002666, -0.8789078355373119 
3.3700000000026873, -0.8842568984403986 
3.3800000000027084, -0.890161668025633 
3.3900000000027295, -0.8954469750140683 
3.4000000000027506, -0.8995562342817873 
3.4100000000027717, -0.9024505442855268 
3.420000000002793, -0.904341162566964 
3.430000000002814, -0.9054866929163146 
3.440000000002835, -0.9061000413361964 
3.450000000002856, -0.9063247291385126 
3.460000000002877, -0.9062379090599656 
3.4700000000028983, -0.9058561296763079 
3.4800000000029194, -0.905133044213534 
3.4900000000029405, -0.9039435486220354 
3.5000000000029616, -0.9020505362104687 
3.5100000000029827, -0.8990549011294764 
3.520000000003004, -0.8943476462017828 
3.530000000003025, -0.8871302611218255 
3.540000000003046, -0.8766362613114419 
3.550000000003067, -0.8626573176855178 
3.5600000000030882, -0.8461507095397272 
3.5700000000031094, -0.8292681576792476 
3.5800000000031305, -0.8144448689532414 
3.5900000000031516, -0.8032425551668789 
3.6000000000031727, -0.7959137580494595 
3.6100000000031938, -0.7917722977383532 
3.620000000003215, -0.7898072089608709 
3.630000000003236, -0.7891103774399418 
3.640000000003257, -0.7890378625713639 
3.650000000003278, -0.7892002624199825 
3.6600000000032993, -0.7893893559545545 
3.6700000000033204, -0.7895032506666289 
3.6800000000033415, -0.7894915117995175 
3.6900000000033626, -0.7893205441984684 
3.7000000000033837, -0.7889532120020849 
3.710000000003405, -0.7883378144787049 
3.720000000003426, -0.7874054406304891 
3.730000000003447, -0.7860787395449438 
3.740000000003468, -0.78429562128484 
3.750000000003489, -0.7820434990987422 
3.7600000000035103, -0.7793853819523967 
3.7700000000035314, -0.7764553609168391 
3.7800000000035525, -0.7734217717861886 
3.7900000000035736, -0.7704426632579668 
3.8000000000035947, -0.7676392847263672 
3.810000000003616, -0.7650928127914607 
3.820000000003637, -0.762853710031956 
3.830000000003658, -0.7609520066874034 
3.840000000003679, -0.7594028916877047 
3.8500000000037002, -0.75820750027007 
3.8600000000037213, -0.7573514817497201 
3.8700000000037424, -0.7568043595270054 
3.8800000000037635, -0.75652165663082 
3.8900000000037847, -0.7564499720925627 
3.9000000000038058, -0.7565335722582613 
3.910000000003827, -0.7567204747916965 
3.920000000003848, -0.756966636306993 
3.930000000003869, -0.7572380282612284 
3.94000000000389, -0.7575111264018849 
3.9500000000039113, -0.7577721435292951 
3.9600000000039324, -0.7580145940112737 
3.9700000000039535, -0.7582346339558013 
3.9800000000039746, -0.7584249800837674 
3.9900000000039957, -0.7585703396364282 
4.000000000004016, -0.7586478265275143 
4.010000000003993, -0.7586331764050195 
4.02000000000397, -0.7585093469095862 
4.030000000003946, -0.7582724125107811 
4.040000000003923, -0.7579324761261699 
4.0500000000039, -0.7575116164564333 
4.0600000000038765, -0.7570426206921967 
4.070000000003853, -0.7565709599790972 
4.08000000000383, -0.7561601793260545 
4.090000000003807, -0.755898932548075 
4.100000000003783, -0.7559064574969276 
4.11000000000376, -0.7563325791806288 
4.120000000003737, -0.7573490874468202 
4.130000000003713, -0.7591318168784317 
4.14000000000369, -0.7618354966021005 
4.150000000003667, -0.765563890490823 
4.1600000000036434, -0.7703352871761584 
4.17000000000362, -0.7760421531917576 
4.180000000003597, -0.7824118109215581 
4.1900000000035735, -0.7889963322269905 
4.20000000000355, -0.7952368431531264 
4.210000000003527, -0.8006162451238715 
4.220000000003504, -0.8048266932820223 
4.23000000000348, -0.8078338040613788 
4.240000000003457, -0.8098050159443023 
4.250000000003434, -0.8109828423331178 
4.26000000000341, -0.8115904630777988 
4.270000000003387, -0.8117928450648234 
4.280000000003364, -0.8116938964404232 
4.2900000000033405, -0.811346706888836 
4.300000000003317, -0.810764875865057 
4.310000000003294, -0.8099323908355689 
4.320000000003271, -0.8088156265917533 
4.330000000003247, -0.8073863769574385 
4.340000000003224, -0.8056704184532482 
4.350000000003201, -0.8038366184854638 
4.360000000003177, -0.8023190647812017 
4.370000000003154, -0.8018932617494748 
4.380000000003131, -0.8035294539901306 
4.390000000003107, -0.8078955366873288 
4.400000000003084, -0.8147751333794094 
4.410000000003061, -0.8230185236583116 
4.4200000000030375, -0.8311747732822511 
4.430000000003014, -0.8381798798592118 
4.440000000002991, -0.8435941889269826 
4.450000000002968, -0.8474617406970044 
4.460000000002944, -0.8500615703013391 
4.470000000002921, -0.8517173349383056 
4.480000000002898, -0.8527024830390383 
4.490000000002874, -0.8532132288856792 
4.500000000002851, -0.8533725073476915 
4.510000000002828, -0.8532408845142454 
4.520000000002804, -0.8528228670037027 
4.530000000002781, -0.8520634983262874 
4.540000000002758, -0.8508323109392556 
4.5500000000027345, -0.8488933719457424 
4.560000000002711, -0.8458672155536927 
4.570000000002688, -0.8412124158892841 
4.580000000002665, -0.8342961883474305 
4.590000000002641, -0.8246469887308633 
4.600000000002618, -0.812372961085099 
4.610000000002595, -0.7984523170026461 
4.620000000002571, -0.7845088172883299 
4.630000000002548, -0.7721363851961855 
4.640000000002525, -0.7623113469723768 
4.6500000000025015, -0.7552545534227096 
4.660000000002478, -0.7506424500507102 
4.670000000002455, -0.7479046069494837 
4.6800000000024315, -0.7464497603845776 
4.690000000002408, -0.7457855874394761 
4.700000000002385, -0.7455549175327937 
4.710000000002362, -0.7455235028824893 
4.720000000002338, -0.7455484188456445 
4.730000000002315, -0.7455450095260947 
4.740000000002292, -0.7454603765492946 
4.750000000002268, -0.7452553429410529 
4.760000000002245, -0.7448945645500344 
4.770000000002222, -0.7443444867261497 
4.7800000000021985, -0.743578964966878 
4.790000000002175, -0.7425903630028599 
4.800000000002152, -0.7413996257066995 
4.810000000002129, -0.7400566291192867 
4.820000000002105, -0.7386276323777905 
4.830000000002082, -0.7371769078177814 
4.840000000002059, -0.7357537167363918 
4.850000000002035, -0.7343899595921972 
4.860000000002012, -0.7331058006259699 
4.870000000001989, -0.7319174975042667 
4.880000000001965, -0.7308432806653171 
4.890000000001942, -0.7299058670931582 
4.900000000001919, -0.7291318895928277 
4.9100000000018955, -0.7285491005974994 
4.920000000001872, -0.7281823888499459 
