t, s[1].omega / s[0].omega 
0, -1.5200381628759396 
0.009999999999999995, -1.5231034925469473 
0.019999999999999934, -1.5249282631845764 
0.029999999999999874, -1.5258550213640016 
0.04000000000000012, -1.526153597078236 
0.050000000000000405, -1.5260170347495927 
0.06000000000000069, -1.5255836212788525 
0.07000000000000098, -1.5249685689759336 
0.08000000000000126, -1.5242882314918802 
0.09000000000000155, -1.5236575859258346 
0.10000000000000184, -1.523166425662302 
0.11000000000000212, -1.5228640831472746 
0.12000000000000241, -1.5227494329459592 
0.130000000000002, -1.5227541725773555 
0.1400000000000009, -1.522755308337555 
0.1499999999999998, -1.5226174190645112 
0.1599999999999987, -1.522208442955734 
0.1699999999999976, -1.5213700159484165 
0.1799999999999965, -1.5198650932339568 
0.1899999999999954, -1.5173243357199007 
0.1999999999999943, -1.5132157547004297 
0.2099999999999932, -1.5069041470774875 
0.2199999999999921, -1.4979636902580211 
0.229999999999991, -1.4869604285689166 
0.2399999999999899, -1.4763435737402812 
0.2499999999999888, -1.4695330013199692 
0.2599999999999877, -1.4676219474206802 
0.2699999999999866, -1.4685445418777816 
0.2799999999999855, -1.4699919068012237 
0.2899999999999844, -1.4709998784124396 
0.2999999999999833, -1.471452235868829 
0.3099999999999822, -1.4714473426027512 
0.3199999999999811, -1.4710553294418944 
0.32999999999998, -1.4702792119908294 
0.3399999999999789, -1.4691124283042993 
0.3499999999999778, -1.4677450633976181 
0.35999999999997667, -1.466977210502781 
0.36999999999997557, -1.4683620279554974 
0.37999999999997447, -1.473022146977878 
0.38999999999997337, -1.4800995393782421 
0.39999999999997227, -1.4874935808422318 
0.40999999999997117, -1.4936794048733073 
0.41999999999997006, -1.4981888135195778 
0.42999999999996896, -1.5011638469160609 
0.43999999999996786, -1.5029372050654783 
0.44999999999996676, -1.5038369101524915 
0.45999999999996566, -1.5041235663945087 
0.46999999999996456, -1.5039853237102991 
0.47999999999996346, -1.5035583654274054 
0.48999999999996235, -1.5029574502932084 
0.49999999999996125, -1.502299335613193 
0.5099999999999602, -1.5016992771001643 
0.519999999999959, -1.501244834572385 
0.529999999999958, -1.5009787932016792 
0.5399999999999568, -1.500893782462935 
0.5499999999999557, -1.5009227549613553 
0.5599999999999546, -1.500950003279796 
0.5699999999999535, -1.5008475055858623 
0.5799999999999524, -1.5004915708098079 
0.5899999999999513, -1.499740899282664 
0.5999999999999502, -1.4983958066833907 
0.6099999999999491, -1.4961600428070998 
0.619999999999948, -1.492624561844306 
0.6299999999999469, -1.4873128831096165 
0.6399999999999458, -1.479880245462674 
0.6499999999999447, -1.470606375467653 
0.6599999999999436, -1.4610721975411105 
0.6699999999999425, -1.4539542566358374 
0.6799999999999414, -1.4508862929903281 
0.6899999999999403, -1.4508825931243723 
0.6999999999999392, -1.4519331245875629 
0.7099999999999381, -1.452852388077711 
0.719999999999937, -1.453326425446572 
0.7299999999999359, -1.4533717804912183 
0.7399999999999348, -1.4530334580837194 
0.7499999999999337, -1.4522963958686241 
0.7599999999999326, -1.4510957958950237 
0.7699999999999315, -1.4494510763929251 
0.7799999999999304, -1.4478700884119697 
0.7899999999999293, -1.4479144718573052 
0.7999999999999282, -1.4517169077244936 
0.8099999999999271, -1.4596451419213472 
0.819999999999926, -1.4693636905672653 
0.8299999999999249, -1.478160462687922 
0.8399999999999238, -1.4847762574349173 
0.8499999999999227, -1.4891883981900036 
0.8599999999999216, -1.4918615085850448 
0.8699999999999205, -1.4933076497948128 
0.8799999999999194, -1.4939331218422942 
0.8899999999999183, -1.4940190700631233 
0.8999999999999172, -1.4937515711811309 
0.9099999999999161, -1.4932665369401443 
0.919999999999915, -1.4926907231151152 
0.9299999999999139, -1.4921554606281995 
0.9399999999999128, -1.4917686307531566 
0.9499999999999117, -1.491577790690987 
0.9599999999999106, -1.4915683269327888 
0.9699999999999095, -1.4916792441837088 
0.9799999999999084, -1.4918136475758623 
0.9899999999999073, -1.4918582767607567 
0.9999999999999062, -1.4917036379468935 
1.0099999999999052, -1.491240959219835 
1.019999999999904, -1.490340011888561 
1.029999999999903, -1.4888267014820538 
1.039999999999902, -1.48647409517881 
1.0499999999999008, -1.4830186055216747 
1.0599999999998997, -1.4782267350059233 
1.0699999999998986, -1.4720700841578787 
1.0799999999998975, -1.465061646180907 
1.0899999999998964, -1.4585438063617786 
1.0999999999998953, -1.4541848761171585 
1.1099999999998942, -1.452555031603105 
1.119999999999893, -1.452688151644894 
1.129999999999892, -1.4533226237695938 
1.1399999999998909, -1.453794208957903 
1.1499999999998898, -1.4539241539582364 
1.1599999999998887, -1.453693178233862 
1.1699999999998876, -1.4530664027505469 
1.1799999999998865, -1.4519324168369685 
1.1899999999998854, -1.4501248970805158 
1.1999999999998843, -1.4476534829567649 
1.2099999999998832, -1.4454192458103234 
1.219999999999882, -1.4460571104366362 
1.229999999999881, -1.4525603531450542 
1.2399999999998799, -1.464342723182167 
1.2499999999998788, -1.4771852163023795 
1.2599999999998777, -1.4875959853065086 
1.2699999999998766, -1.494653786671322 
1.2799999999998755, -1.4989195547811822 
1.2899999999998744, -1.5012643235753889 
1.2999999999998733, -1.5023946280886193 
1.3099999999998722, -1.5027778614604705 
1.319999999999871, -1.502697914143536 
1.32999999999987, -1.5023327652044887 
1.3399999999998689, -1.5018238438022606 
1.3499999999998678, -1.5013193235899793 
1.3599999999998666, -1.50096289259653 
1.3699999999998655, -1.5008350522559524 
1.3799999999998644, -1.500922595067871 
1.3899999999998633, -1.501150140237275 
1.3999999999998622, -1.50141746606756 
1.4099999999998611, -1.5016170882803537 
1.41999999999986, -1.5016473552524987 
1.429999999999859, -1.5014157809011026 
1.4399999999998578, -1.500826879607322 
1.4499999999998567, -1.4997658828700149 
1.4599999999998556, -1.498090377251519 
1.4699999999998545, -1.4956357105798486 
1.4799999999998534, -1.4922428270538284 
1.4899999999998523, -1.4878355995545056 
1.4999999999998512, -1.4825960040500399 
1.5099999999998501, -1.4772172946960802 
1.519999999999849, -1.4728974506396224 
1.529999999999848, -1.4705772682403095 
1.5399999999998468, -1.470061951478521 
1.5499999999998457, -1.4703891832449623 
1.5599999999998446, -1.4707867710935274 
1.5699999999998435, -1.4709374330783183 
1.5799999999998424, -1.470757938046727 
1.5899999999998413, -1.4701934662831087 
1.5999999999998402, -1.4691165159142403 
1.6099999999998391, -1.4672958051701577 
1.619999999999838, -1.464517655800396 
1.629999999999837, -1.4611940177388834 
1.6399999999998358, -1.4596367170268434 
1.6499999999998347, -1.463959382146668 
1.6599999999998336, -1.4755634086552054 
1.6699999999998325, -1.4901825995178928 
1.6799999999998314, -1.502704728885361 
1.6899999999998303, -1.5112661572080648 
1.6999999999998292, -1.5163837309222865 
1.709999999999828, -1.5191623885351517 
1.719999999999827, -1.5205074142097807 
1.729999999999826, -1.5210006477383673 
1.7399999999998248, -1.5209813850004863 
1.7499999999998237, -1.520650868073559 
1.7599999999998226, -1.520159500382521 
1.7699999999998215, -1.5196634773744317 
1.7799999999998204, -1.5193207682189933 
1.7899999999998193, -1.5192246089233543 
1.7999999999998182, -1.5193599643615354 
1.809999999999817, -1.5196394451548079 
1.819999999999816, -1.5199541196647008 
1.8299999999998149, -1.520194485991758 
1.8399999999998138, -1.520260119933258 
1.8499999999998127, -1.5200611431005413 
1.8599999999998116, -1.519506061761108 
1.8699999999998105, -1.5184855216448256 
1.8799999999998094, -1.5168633444310422 
1.8899999999998083, -1.5144804808702776 
1.8999999999998072, -1.5111808203292862 
1.909999999999806, -1.5068875336382388 
1.919999999999805, -1.5017819136499502 
1.9299999999998039, -1.4965648854882168 
1.9399999999998028, -1.492440991415567 
1.9499999999998017, -1.490313933360147 
1.9599999999998006, -1.4899203627427513 
1.9699999999997995, -1.4902809996667197 
1.9799999999997984, -1.4906593707151985 
1.9899999999997973, -1.490770814652998 
1.9999999999997962, -1.4905424419684097 
2.0099999999998173, -1.4899139035968638 
2.0199999999998384, -1.4887449805334427 
2.0299999999998595, -1.486804368959315 
2.0399999999998806, -1.4839677407756249 
2.0499999999999017, -1.4810003993791765 
2.059999999999923, -1.4807722685295175 
2.069999999999944, -1.4870726302832011 
2.079999999999965, -1.499593098595951 
2.089999999999986, -1.5133439230517836 
2.100000000000007, -1.5242322143204348 
2.1100000000000283, -1.531364074254011 
2.1200000000000494, -1.535521009258218 
2.1300000000000705, -1.5377215381058993 
2.1400000000000916, -1.5387287955258888 
2.1500000000001127, -1.53901961077626 
2.160000000000134, -1.5388729269287524 
2.170000000000155, -1.538463956252021 
2.180000000000176, -1.5379393809780784 
2.190000000000197, -1.5374541027073712 
2.2000000000002182, -1.5371430388450487 
2.2100000000002393, -1.5370598859768603 
2.2200000000002604, -1.5371685667635295 
2.2300000000002815, -1.5373851194660817 
2.2400000000003026, -1.5376055400109243 
2.2500000000003237, -1.537719460508545 
2.260000000000345, -1.5376226288129793 
2.270000000000366, -1.5372132218122896 
2.280000000000387, -1.5363715373292393 
2.290000000000408, -1.5349389131866018 
2.3000000000004293, -1.532708143493815 
2.3100000000004504, -1.5294359381502942 
2.3200000000004715, -1.5249049658421796 
2.3300000000004926, -1.5191033161283505 
2.3400000000005137, -1.5125840766347003 
2.3500000000005348, -1.5067447053409113 
2.360000000000556, -1.5031722750274115 
2.370000000000577, -1.5021444748927582 
2.380000000000598, -1.5025177672660366 
2.390000000000619, -1.5031348101186024 
2.4000000000006403, -1.5034916126897608 
2.4100000000006614, -1.5034847658897852 
2.4200000000006825, -1.5031014438281602 
2.4300000000007036, -1.5022831970610058 
2.4400000000007247, -1.5009022521608444 
2.450000000000746, -1.4988852753264759 
2.460000000000767, -1.496714132757544 
2.470000000000788, -1.4963025995014732 
2.480000000000809, -1.5005464136165672 
2.49000000000083, -1.509930519487463 
2.5000000000008513, -1.5211666992570816 
2.5100000000008724, -1.5308066323929848 
2.5200000000008935, -1.5376127450024204 
2.5300000000009146, -1.5418697055368193 
2.5400000000009357, -1.5442846146553697 
2.550000000000957, -1.545487532075439 
2.560000000000978, -1.5459201550049853 
2.570000000000999, -1.5458627987739129 
2.58000000000102, -1.5454945616742675 
2.5900000000010412, -1.544953255524914 
2.6000000000010624, -1.5443751805518244 
2.6100000000010835, -1.5438901320484186 
2.6200000000011046, -1.54358036339296 
2.6300000000011257, -1.5434610076026591 
2.6400000000011468, -1.5434942134606737 
2.650000000001168, -1.543597563872616 
2.660000000001189, -1.5436559191940686 
2.67000000000121, -1.5435478742469295 
2.680000000001231, -1.543153399741573 
2.6900000000012523, -1.5423292531584374 
2.7000000000012734, -1.5408710176567313 
2.7100000000012945, -1.5384812062847242 
2.7200000000013156, -1.5347627413788738 
2.7300000000013367, -1.52928352859568 
2.740000000001358, -1.5218250246437965 
2.750000000001379, -1.5129589675934245 
2.7600000000014, -1.5046476044615669 
2.770000000001421, -1.4994413955998227 
2.780000000001442, -1.4980072876046606 
2.7900000000014633, -1.4986808550180748 
2.8000000000014844, -1.499713078079059 
2.8100000000015055, -1.500385378924055 
2.8200000000015266, -1.5006013455710445 
2.8300000000015477, -1.5004116543601191 
2.840000000001569, -1.4998319340032027 
2.85000000000159, -1.4988198522469527 
2.860000000001611, -1.4973720151559085 
2.870000000001632, -1.4958580064843066 
2.8800000000016532, -1.495566151821551 
2.8900000000016743, -1.4984428189753376 
2.9000000000016954, -1.5050199352691247 
2.9100000000017165, -1.5133317882490986 
2.9200000000017377, -1.5209577391277214 
2.9300000000017588, -1.5267499702090808 
2.94000000000178, -1.5306537217151905 
2.950000000001801, -1.5330405513951526 
2.960000000001822, -1.534330576300371 
2.970000000001843, -1.5348643994597873 
2.9800000000018643, -1.5348844857352577 
2.9900000000018854, -1.5345570218102818 
3.0000000000019065, -1.53400797437869 
3.0100000000019276, -1.5333563729150614 
3.0200000000019487, -1.5327232442507546 
3.03000000000197, -1.5322095784237506 
3.040000000001991, -1.5318741943872831 
3.050000000002012, -1.531728075380728 
3.060000000002033, -1.5317225845418945 
3.070000000002054, -1.5317489773413668 
3.0800000000020753, -1.531673680119647 
3.0900000000020964, -1.5313660268066522 
3.1000000000021175, -1.5306815260339441 
3.1100000000021386, -1.5294147886630336 
3.1200000000021597, -1.5272458775911444 
3.130000000002181, -1.5237005801814942 
3.140000000002202, -1.5181721229335756 
3.150000000002223, -1.5101322467056106 
3.160000000002244, -1.4997585438975256 
3.1700000000022652, -1.4889106968393948 
3.1800000000022863, -1.4809717595959841 
3.1900000000023074, -1.4779382361147009 
3.2000000000023285, -1.478387648913014 
3.2100000000023496, -1.4798224791436532 
3.2200000000023707, -1.4809487843335394 
3.230000000002392, -1.4815144064138341 
3.240000000002413, -1.4815989434175851 
3.250000000002434, -1.4812857868990839 
3.260000000002455, -1.4805912497912588 
3.2700000000024763, -1.479503286097838 
3.2800000000024974, -1.4781531558932097 
3.2900000000025185, -1.47720090326502 
3.3000000000025396, -1.478093695171578 
3.3100000000025607, -1.4821279224978778 
3.3200000000025818, -1.4887736618109635 
3.330000000002603, -1.4960247218889933 
3.340000000002624, -1.5022442040370931 
3.350000000002645, -1.506851030900438 
3.360000000002666, -1.5099304449581998 
3.3700000000026873, -1.5117934704221134 
3.3800000000027084, -1.5127620916289488 
3.3900000000027295, -1.5130975660287453 
3.4000000000027506, -1.5129908102355305 
3.4100000000027717, -1.512579797145007 
3.420000000002793, -1.5119784939468475 
3.430000000002814, -1.5113013541546032 
3.440000000002835, -1.5106636619039144 
3.450000000002856, -1.510158497142098 
3.460000000002877, -1.5098390672925732 
3.4700000000028983, -1.50970987805104 
3.4800000000029194, -1.5097115561834848 
3.4900000000029405, -1.509728171463627 
3.5000000000029616, -1.5096267978956157 
3.5100000000029827, -1.5092790631840087 
3.520000000003004, -1.5085391768043506 
3.530000000003025, -1.5071978328428677 
3.540000000003046, -1.5049345010098478 
3.550000000003067, -1.5012888797670594 
3.5600000000030882, -1.4956988794849655 
3.5700000000031094, -1.4877213354064973 
3.5800000000031305, -1.477618521248623 
3.5900000000031516, -1.4671907106822535 
3.6000000000031727, -1.4595324542533468 
3.6100000000031938, -1.4564470301469443 
3.620000000003215, -1.4566835050886562 
3.630000000003236, -1.457954716738855 
3.640000000003257, -1.4590046380563435 
3.650000000003278, -1.4595458336415779 
3.6600000000032993, -1.459627978223748 
3.6700000000033204, -1.459318754311774 
3.6800000000033415, -1.4586222113634968 
3.6900000000033626, -1.4575002022014663 
3.7000000000033837, -1.4560159548342946 
3.710000000003405, -1.4547171106834846 
3.720000000003426, -1.4550736283870234 
3.730000000003447, -1.4588487770948333 
3.740000000003468, -1.466074121382796 
3.750000000003489, -1.4746220621588528 
3.7600000000035103, -1.4822760860183046 
3.7700000000035314, -1.4880571232017865 
3.7800000000035525, -1.4919575177526698 
3.7900000000035736, -1.4943491918542604 
3.8000000000035947, -1.4956485170709963 
3.810000000003616, -1.4961957158345485 
3.820000000003637, -1.4962344967345582 
3.830000000003658, -1.4959324228522861 
3.840000000003679, -1.4954166663821356 
3.8500000000037002, -1.4948080120931355 
3.8600000000037213, -1.4942307480337846 
3.8700000000037424, -1.4937875613497467 
3.8800000000037635, -1.4935299492976617 
3.8900000000037847, -1.4934551342014402 
3.9000000000038058, -1.4935104510277444 
3.910000000003827, -1.4935980209919817 
3.920000000003848, -1.4935988576627037 
3.930000000003869, -1.493396904408763 
3.94000000000389, -1.4928737170123192 
3.9500000000039113, -1.4918804975339066 
3.9600000000039324, -1.4902087692736747 
3.9700000000039535, -1.4875755524379917 
3.9800000000039746, -1.4836409542627114 
3.9900000000039957, -1.4780978145842687 
4.000000000004016, -1.4709151044511584 
4.010000000003993, -1.4627910215353066 
4.02000000000397, -1.4554675240390667 
4.030000000003946, -1.4509067329251502 
4.040000000003923, -1.4495008415033912 
4.0500000000039, -1.4499087760577785 
4.0600000000038765, -1.4507100215951179 
4.070000000003853, -1.4512582759689 
4.08000000000383, -1.4514207109600354 
4.090000000003807, -1.451207542154446 
4.100000000003783, -1.450603458082163 
4.11000000000376, -1.4495222448500868 
4.120000000003737, -1.44785053994446 
4.130000000003713, -1.4457042424690698 
4.14000000000369, -1.4440965165813928 
4.150000000003667, -1.445480383021148 
4.1600000000036434, -1.4521314570983672 
4.17000000000362, -1.4630070887271116 
4.180000000003597, -1.4744304518065994 
4.1900000000035735, -1.483644995971355 
4.20000000000355, -1.4899669686064172 
4.210000000003527, -1.4938580433210775 
4.220000000003504, -1.4960331198344732 
4.23000000000348, -1.4970905283886327 
4.240000000003457, -1.4974409812402434 
4.250000000003434, -1.4973432714772674 
4.26000000000341, -1.4969652454558608 
4.270000000003387, -1.4964426432747997 
4.280000000003364, -1.4959162029959547 
4.2900000000033405, -1.4955206707866002 
4.300000000003317, -1.4953341786185566 
4.310000000003294, -1.4953529688832512 
4.320000000003271, -1.4955155583305042 
4.330000000003247, -1.4957297276262542 
4.340000000003224, -1.495888219811304 
4.350000000003201, -1.4958856113775085 
4.360000000003177, -1.4956240016412399 
4.370000000003154, -1.4950000157573904 
4.380000000003131, -1.4938861385228237 
4.390000000003107, -1.4921202328969139 
4.400000000003084, -1.4895107354095463 
4.410000000003061, -1.4858681157208828 
4.4200000000030375, -1.4810930551480865 
4.430000000003014, -1.475375249687517 
4.440000000002991, -1.4694798933363875 
4.450000000002968, -1.4647409130608287 
4.460000000002944, -1.4622060115581432 
4.470000000002921, -1.4616585681052643 
4.480000000002898, -1.4620366885049516 
4.490000000002874, -1.4624967616610198 
4.500000000002851, -1.462700004854441 
4.510000000002828, -1.4625673949851616 
4.520000000002804, -1.462058046222265 
4.530000000002781, -1.461065805673507 
4.540000000002758, -1.459389711318658 
4.5500000000027345, -1.4568408452281365 
4.560000000002711, -1.4537743015238314 
4.570000000002688, -1.4522356889250245 
4.580000000002665, -1.4560340671093148 
4.590000000002641, -1.466830093434927 
4.600000000002618, -1.4809792046499133 
4.610000000002595, -1.4935190647788146 
4.620000000002571, -1.5023397452301464 
4.630000000002548, -1.5077393226086113 
4.640000000002525, -1.510737219281697 
4.6500000000025015, -1.5122311997426998 
4.660000000002478, -1.5128207532361206 
4.670000000002455, -1.512863451742507 
4.6800000000024315, -1.512571066367292 
4.690000000002408, -1.5120947870476538 
4.700000000002385, -1.5115854686972061 
4.710000000002362, -1.511201339885662 
4.720000000002338, -1.5110506001459052 
4.730000000002315, -1.5111385096320873 
4.740000000002292, -1.511389746745051 
4.750000000002268, -1.5116994885362023 
4.760000000002245, -1.5119584073333585 
4.770000000002222, -1.5120639942498886 
4.7800000000021985, -1.5119250644606623 
4.790000000002175, -1.511452377601668 
4.800000000002152, -1.5105426467355412 
4.810000000002129, -1.5090681420879486 
4.820000000002105, -1.506878129439203 
4.830000000002082, -1.5038185231532006 
4.840000000002059, -1.4997911051924078 
4.850000000002035, -1.4948981424659609 
4.860000000002012, -1.489685736521838 
4.870000000001989, -1.4852417067116384 
4.880000000001965, -1.482614857668749 
4.890000000001942, -1.4818529780290604 
4.900000000001919, -1.482087157169142 
4.9100000000018955, -1.4824866757749933 
4.920000000001872, -1.4826709029059004 
4.930000000001849, -1.4825329007141337 
4.940000000001826, -1.4820179976085188 
