t, s[1].omega / s[0].omega 
0, -1.4000107346393735 
0.009999999999999995, -1.4008335945957835 
0.019999999999999934, -1.4012028258801619 
0.029999999999999874, -1.40118588650977 
0.04000000000000012, -1.400850538806463 
0.050000000000000405, -1.4002641410344179 
0.06000000000000069, -1.399499407907025 
0.07000000000000098, -1.398641886270355 
0.08000000000000126, -1.3977899485866305 
0.09000000000000155, -1.3970440046858232 
0.10000000000000184, -1.396489420827042 
0.11000000000000212, -1.3961699854536156 
0.12000000000000241, -1.396056156683256 
0.130000000000002, -1.3960447199542396 
0.1400000000000009, -1.3960020202591295 
0.1499999999999998, -1.3958023967864148 
0.1599999999999987, -1.395325623540995 
0.1699999999999976, -1.3944252924686027 
0.1799999999999965, -1.3928922648764055 
0.1899999999999954, -1.3904302854004083 
0.1999999999999943, -1.386663124481351 
0.2099999999999932, -1.3812061103007651 
0.2199999999999921, -1.3738536476399437 
0.229999999999991, -1.3649289284827142 
0.2399999999999899, -1.3556772232208079 
0.2499999999999888, -1.348128628966859 
0.2599999999999877, -1.3438464579204126 
0.2699999999999866, -1.3426366309818423 
0.2799999999999855, -1.3430538803003915 
0.2899999999999844, -1.3438279873359675 
0.2999999999999833, -1.3443857121910172 
0.3099999999999822, -1.3445929726558314 
0.3199999999999811, -1.344449909871351 
0.32999999999998, -1.3439415027195831 
0.3399999999999789, -1.3429796339990883 
0.3499999999999778, -1.3413849810170355 
0.35999999999997667, -1.3389463163121105 
0.36999999999997557, -1.3357415272159534 
0.37999999999997447, -1.3329722814662048 
0.38999999999997337, -1.3337539783775887 
0.39999999999997227, -1.3414827681618573 
0.40999999999997117, -1.3556561720954199 
0.41999999999997006, -1.3714692759862352 
0.42999999999996896, -1.3844836541124947 
0.43999999999996786, -1.3933058462813945 
0.44999999999996676, -1.3985896997091931 
0.45999999999996566, -1.4014826966081784 
0.46999999999996456, -1.4029150096489995 
0.47999999999996346, -1.4034830717079427 
0.48999999999996235, -1.403531529716657 
0.49999999999996125, -1.4032581909511272 
0.5099999999999602, -1.4028027317434564 
0.519999999999959, -1.4023180748721813 
0.529999999999958, -1.4020026952606368 
0.5399999999999568, -1.402047182120312 
0.5499999999999557, -1.4025181420443622 
0.5599999999999546, -1.403315082649225 
0.5699999999999535, -1.4042532958002298 
0.5799999999999524, -1.4051619567722768 
0.5899999999999513, -1.4059202933326789 
0.5999999999999502, -1.406452823838664 
0.6099999999999491, -1.4067153043646488 
0.619999999999948, -1.4066822666051557 
0.6299999999999469, -1.4063387826824136 
0.6399999999999458, -1.40567676998236 
0.6499999999999447, -1.4046951821886196 
0.6599999999999436, -1.4034042910585265 
0.6699999999999425, -1.4018356848539009 
0.6799999999999414, -1.4000598922442504 
0.6899999999999403, -1.3982107139267088 
0.6999999999999392, -1.396500575179768 
0.7099999999999381, -1.3951788924159216 
0.719999999999937, -1.3943990036857945 
0.7299999999999359, -1.3940973002570076 
0.7399999999999348, -1.3940439637263171 
0.7499999999999337, -1.3940001827422357 
0.7599999999999326, -1.3937959068703 
0.7699999999999315, -1.3932969389526282 
0.7799999999999304, -1.392326812437608 
0.7899999999999293, -1.390572363582076 
0.7999999999999282, -1.3874652594189236 
0.8099999999999271, -1.3820590097660062 
0.819999999999926, -1.3730648189038706 
0.8299999999999249, -1.3595121492386903 
0.8399999999999238, -1.3425159131994535 
0.8499999999999227, -1.3268181766608156 
0.8599999999999216, -1.318138155463374 
0.8699999999999205, -1.3174406822320683 
0.8799999999999194, -1.3208392593374938 
0.8899999999999183, -1.3245779723928697 
0.8999999999999172, -1.3272209957577503 
0.9099999999999161, -1.3287357490130973 
0.919999999999915, -1.3294413742630244 
0.9299999999999139, -1.3296050535803166 
0.9399999999999128, -1.3293757368146417 
0.9499999999999117, -1.328810602252219 
0.9599999999999106, -1.3279279660586094 
0.9699999999999095, -1.3268136956935934 
0.9799999999999084, -1.325837883652219 
0.9899999999999073, -1.3259043767997851 
0.9999999999999062, -1.3282665271752232 
1.0099999999999052, -1.333536011035807 
1.019999999999904, -1.3408830179631617 
1.029999999999903, -1.3486427260876384 
1.039999999999902, -1.3554639746683919 
1.0499999999999008, -1.3607461226047795 
1.0599999999998997, -1.3644558254909005 
1.0699999999998986, -1.3668340011625837 
1.0799999999998975, -1.3681967937944763 
1.0899999999998964, -1.3688333343124204 
1.0999999999998953, -1.368968093413537 
1.1099999999998942, -1.368762746560311 
1.119999999999893, -1.3683398274985161 
1.129999999999892, -1.367813785050068 
1.1399999999998909, -1.367310724431803 
1.1499999999998898, -1.366954673694925 
1.1599999999998887, -1.3668237500087244 
1.1699999999998876, -1.3669208137771949 
1.1799999999998865, -1.3671867897625034 
1.1899999999998854, -1.3675311057163047 
1.1999999999998843, -1.367854416340386 
1.2099999999998832, -1.3680642810658938 
1.219999999999882, -1.3680831658506498 
1.229999999999881, -1.3678464345628223 
1.2399999999998799, -1.3672962090957166 
1.2499999999998788, -1.3663784695167664 
1.2599999999998777, -1.365045426899045 
1.2699999999998766, -1.3632620172477143 
1.2799999999998755, -1.3610175216565479 
1.2899999999998744, -1.3583481270127482 
1.2999999999998733, -1.355377636269211 
1.3099999999998722, -1.352368648581668 
1.319999999999871, -1.3497269478528446 
1.32999999999987, -1.3478579531794572 
1.3399999999998689, -1.3469028163295835 
1.3499999999998678, -1.3466365070915394 
1.3599999999998666, -1.3466731641248932 
1.3699999999998655, -1.346707072059066 
1.3799999999998644, -1.3465650869303105 
1.3899999999998633, -1.346134060547706 
1.3999999999998622, -1.3452687946258546 
1.4099999999998611, -1.3437005574386838 
1.41999999999986, -1.3409250185761512 
1.429999999999859, -1.3360753953928755 
1.4399999999998578, -1.3279262568534018 
1.4499999999998567, -1.3154988882051444 
1.4599999999998556, -1.299838415591316 
1.4699999999998545, -1.2857189746533022 
1.4799999999998534, -1.2790682253874714 
1.4899999999998523, -1.2808700554826038 
1.4999999999998512, -1.2867729566231632 
1.5099999999998501, -1.2924968937958927 
1.519999999999849, -1.296461421724144 
1.529999999999848, -1.2987755403658459 
1.5399999999998468, -1.2999546572902998 
1.5499999999998457, -1.3004164260380129 
1.5599999999998446, -1.300408135333773 
1.5699999999998435, -1.3000494621481236 
1.5799999999998424, -1.2993892197215144 
1.5899999999998413, -1.2984798523698464 
1.5999999999998402, -1.2975134520427736 
1.6099999999998391, -1.2970273233071485 
1.619999999999838, -1.2979747319086408 
1.629999999999837, -1.301253688717952 
1.6399999999998358, -1.3068638442792175 
1.6499999999998347, -1.3137465063188378 
1.6599999999998336, -1.3205568568704478 
1.6699999999998325, -1.326375325939244 
1.6799999999998314, -1.330840073554047 
1.6899999999998303, -1.3339699696665503 
1.6999999999998292, -1.3359692584181126 
1.709999999999828, -1.337096031079395 
1.719999999999827, -1.3375888430891152 
1.729999999999826, -1.3376367655456727 
1.7399999999998248, -1.3373804882086957 
1.7499999999998237, -1.3369326547876734 
1.7599999999998226, -1.3364045864256515 
1.7699999999998215, -1.3359206875683947 
1.7799999999998204, -1.3356004714722114 
1.7899999999998193, -1.335515100264746 
1.7999999999998182, -1.3356612435162805 
1.809999999999817, -1.3359756878418705 
1.819999999999816, -1.3363660031605178 
1.8299999999998149, -1.336733888429501 
1.8399999999998138, -1.3369903600194686 
1.8499999999998127, -1.3370628566064986 
1.8599999999998116, -1.3368936975809647 
1.8699999999998105, -1.336435254612095 
1.8799999999998094, -1.3356476168600122 
1.8899999999998083, -1.3344999810065183 
1.8999999999998072, -1.3329746489958256 
1.909999999999806, -1.3310742676440026 
1.919999999999805, -1.3288359211585195 
1.9299999999998039, -1.3263560670516708 
1.9399999999998028, -1.3238225999359947 
1.9499999999998017, -1.3215246308270572 
1.9599999999998006, -1.3197783408197066 
1.9699999999997995, -1.3187544695243283 
1.9799999999997984, -1.3183552968153596 
1.9899999999997973, -1.3182992847719945 
1.9999999999997962, -1.3183082610327816 
2.0099999999998173, -1.318196883224903 
2.0199999999998384, -1.3178427952127125 
2.0299999999998595, -1.3171141169614609 
2.0399999999998806, -1.3157910663600585 
2.0499999999999017, -1.3134750329474458 
2.059999999999923, -1.3094812857990565 
2.069999999999944, -1.3027775647811908 
2.079999999999965, -1.2921978211916478 
2.089999999999986, -1.2773404146641938 
2.100000000000007, -1.2601263455637903 
2.1100000000000283, -1.2452128269604108 
2.1200000000000494, -1.2369319490219595 
2.1300000000000705, -1.2354683382606313 
2.1400000000000916, -1.2376478036072578 
2.1500000000001127, -1.2404822059331115 
2.160000000000134, -1.2426607690502123 
2.170000000000155, -1.2439920016452095 
2.180000000000176, -1.244648920857892 
2.190000000000197, -1.244819105627388 
2.2000000000002182, -1.2446131230222193 
2.2100000000002393, -1.2440598836731351 
2.2200000000002604, -1.2431233670203985 
2.2300000000002815, -1.2417466558004493 
2.2400000000003026, -1.2399875715079445 
2.2500000000003237, -1.2383477126990088 
2.260000000000345, -1.2382268456811067 
2.270000000000366, -1.2418132377631925 
2.280000000000387, -1.250536865114899 
2.290000000000408, -1.2632577651284584 
2.3000000000004293, -1.276821625096153 
2.3100000000004504, -1.28841111923824 
2.3200000000004715, -1.2968637654657915 
2.3300000000004926, -1.3023602337843863 
2.3400000000005137, -1.3056263232398218 
2.3500000000005348, -1.3073985280303344 
2.360000000000556, -1.308227199473049 
2.370000000000577, -1.3084672990507489 
2.380000000000598, -1.308333129841274 
2.390000000000619, -1.3079623657214197 
2.4000000000006403, -1.3074767784808836 
2.4100000000006614, -1.3070331147719763 
2.4200000000006825, -1.3068345724944008 
2.4300000000007036, -1.3070646299333477 
2.4400000000007247, -1.3077780944293147 
2.450000000000746, -1.3088663286864335 
2.460000000000767, -1.3101340199939655 
2.470000000000788, -1.3113947723690091 
2.480000000000809, -1.3125142001199261 
2.49000000000083, -1.3134099128578292 
2.5000000000008513, -1.3140375710850267 
2.5100000000008724, -1.31437753191249 
2.5200000000008935, -1.314425941709184 
2.5300000000009146, -1.3141901790947839 
2.5400000000009357, -1.3136873419708075 
2.550000000000957, -1.312944921301431 
2.560000000000978, -1.3120038033618922 
2.570000000000999, -1.310923258442855 
2.58000000000102, -1.3097850822764525 
2.5900000000010412, -1.3086924839945038 
2.6000000000010624, -1.3077593879851033 
2.6100000000010835, -1.3070831820723028 
2.6200000000011046, -1.3067002875589069 
2.6300000000011257, -1.3065555352039668 
2.6400000000011468, -1.3065241429407406 
2.650000000001168, -1.3064670252198989 
2.660000000001189, -1.3062633813131752 
2.67000000000121, -1.305801905904724 
2.680000000001231, -1.3049504504734215 
2.6900000000012523, -1.303525744823304 
2.7000000000012734, -1.3012775195087756 
2.7100000000012945, -1.2979024150872938 
2.7200000000013156, -1.2931064314540173 
2.7300000000013367, -1.2867323020210883 
2.740000000001358, -1.278956051042416 
2.750000000001379, -1.2705047765439648 
2.7600000000014, -1.2626928865094125 
2.770000000001421, -1.2569450178015122 
2.780000000001442, -1.2539020373542258 
2.7900000000014633, -1.2530349447441171 
2.8000000000014844, -1.253267803354796 
2.8100000000015055, -1.253759097517396 
2.8200000000015266, -1.2541091409708272 
2.8300000000015477, -1.2541928591427722 
2.840000000001569, -1.2539743677874533 
2.85000000000159, -1.2534003684815853 
2.860000000001611, -1.2523384024237507 
2.870000000001632, -1.25052082596671 
2.8800000000016532, -1.2474909692909062 
2.8900000000016743, -1.242632357925572 
2.9000000000016954, -1.2355429618481166 
2.9100000000017165, -1.2271141406476378 
2.9200000000017377, -1.2207668051279774 
2.9300000000017588, -1.2211836986506357 
2.94000000000178, -1.2296292609770343 
2.950000000001801, -1.2420462484748935 
2.960000000001822, -1.2533621333888658 
2.970000000001843, -1.261328932902765 
2.9800000000018643, -1.2661530501302012 
2.9900000000018854, -1.268806102054173 
3.0000000000019065, -1.2701314946333075 
3.0100000000019276, -1.2706665186179964 
3.0200000000019487, -1.2707087475353425 
3.03000000000197, -1.270408797960212 
3.040000000001991, -1.269845938801212 
3.050000000002012, -1.2691053705674935 
3.060000000002033, -1.268387380530348 
3.070000000002054, -1.2681308928322348 
3.0800000000020753, -1.2689973631798588 
3.0900000000020964, -1.2715222578801162 
3.1000000000021175, -1.27564608225201 
3.1100000000021386, -1.280691112445178 
3.1200000000021597, -1.2858095730138586 
3.130000000002181, -1.2903748342261332 
3.140000000002202, -1.2940726031981575 
3.150000000002223, -1.2968259747161037 
3.160000000002244, -1.2987005480427765 
3.1700000000022652, -1.299833092391338 
3.1800000000022863, -1.3003814182189775 
3.1900000000023074, -1.3004920886423421 
3.2000000000023285, -1.300287112978356 
3.2100000000023496, -1.2998686206892995 
3.2200000000023707, -1.2993351010873173 
3.230000000002392, -1.2987958892667844 
3.240000000002413, -1.298365755504276 
3.250000000002434, -1.298133870482285 
3.260000000002455, -1.298131628421562 
3.2700000000024763, -1.298328763404337 
3.2800000000024974, -1.2986531595727455 
3.2900000000025185, -1.2990135090280472 
3.3000000000025396, -1.2993178763420334 
3.3100000000025607, -1.2994865180168849 
3.3200000000025818, -1.2994556614306634 
3.330000000002603, -1.299174607158294 
3.340000000002624, -1.2986025478140184 
3.350000000002645, -1.2977084637186038 
3.360000000002666, -1.2964734436518441 
3.3700000000026873, -1.2948945031676877 
3.3800000000027084, -1.292991387276817 
3.3900000000027295, -1.2908194825600219 
3.4000000000027506, -1.2884901230914112 
3.4100000000027717, -1.2861907573820672 
3.420000000002793, -1.2841771027562197 
3.430000000002814, -1.2826953308906375 
3.440000000002835, -1.281846618834393 
3.450000000002856, -1.281516600279102 
3.460000000002877, -1.2814602807398823 
3.4700000000028983, -1.2814437265780958 
3.4800000000029194, -1.2813051822140282 
3.4900000000029405, -1.2809281134633963 
3.5000000000029616, -1.2801815496877942 
3.5100000000029827, -1.2788552135087108 
3.520000000003004, -1.2765890518107237 
3.530000000003025, -1.2728037255265978 
3.540000000003046, -1.2666865014465922 
3.550000000003067, -1.2573753854727037 
3.5600000000030882, -1.2445369392582393 
3.5700000000031094, -1.22928666242591 
3.5800000000031305, -1.2146150465300505 
3.5900000000031516, -1.2040336910085752 
3.6000000000031727, -1.199024457012152 
3.6100000000031938, -1.1982627204823557 
3.620000000003215, -1.1994054163622114 
3.630000000003236, -1.200828963602029 
3.640000000003257, -1.2018908060833702 
3.650000000003278, -1.202485195141049 
3.6600000000032993, -1.2026712078048183 
3.6700000000033204, -1.2025068291378662 
3.6800000000033415, -1.2019941204500943 
3.6900000000033626, -1.2010588352238167 
3.7000000000033837, -1.199538078176056 
3.710000000003405, -1.1971965038279408 
3.720000000003426, -1.1938652193380452 
3.730000000003447, -1.1898909899082075 
3.740000000003468, -1.1869415776975885 
3.750000000003489, -1.1882893625972364 
3.7600000000035103, -1.1968148976696853 
3.7700000000035314, -1.2116199889405201 
3.7800000000035525, -1.2280587050396092 
3.7900000000035736, -1.2417481363345586 
3.8000000000035947, -1.2511476721968746 
3.810000000003616, -1.2568431861881897 
3.820000000003637, -1.2600140120536742 
3.830000000003658, -1.2616410686036856 
3.840000000003679, -1.2623551890872813 
3.8500000000037002, -1.2625156160794087 
3.8600000000037213, -1.2623145097736388 
3.8700000000037424, -1.2618603614853392 
3.8800000000037635, -1.2612521466172981 
3.8900000000037847, -1.2606637821823905 
3.9000000000038058, -1.2604209222123632 
3.910000000003827, -1.2609710163373369 
3.920000000003848, -1.2626538029046093 
3.930000000003869, -1.2654295507889017 
3.94000000000389, -1.2688807898886827 
3.9500000000039113, -1.2724760368405605 
3.9600000000039324, -1.275798921778485 
3.9700000000039535, -1.2786091542038727 
3.9800000000039746, -1.280806840762017 
3.9900000000039957, -1.2823836073974246 
4.000000000004016, -1.2833875978171616 
4.010000000003993, -1.2838989417359064 
4.02000000000397, -1.2840099728191483 
4.030000000003946, -1.2838112321733792 
4.040000000003923, -1.2833872955547234 
4.0500000000039, -1.2828228708629508 
4.0600000000038765, -1.2822121051499333 
4.070000000003853, -1.2816576191589932 
4.08000000000383, -1.281250790455354 
4.090000000003807, -1.2810447965772482 
4.100000000003783, -1.2810417991763 
4.11000000000376, -1.2811979723363416 
4.120000000003737, -1.281436795023609 
4.130000000003713, -1.281667020572542 
4.14000000000369, -1.2818009500006209 
4.150000000003667, -1.2817638723831288 
4.1600000000036434, -1.2814931419965632 
4.17000000000362, -1.2809343120181178 
4.180000000003597, -1.2800407744238975 
4.1900000000035735, -1.278777545280792 
4.20000000000355, -1.2771268214964746 
4.210000000003527, -1.2750947353550792 
4.220000000003504, -1.2727223699419605 
4.23000000000348, -1.2701049441582901 
4.240000000003457, -1.2674168210350643 
4.250000000003434, -1.2649214324975553 
4.26000000000341, -1.2629206703117464 
4.270000000003387, -1.2616198782428607 
4.280000000003364, -1.2609975522303645 
4.2900000000033405, -1.2608265949126982 
4.300000000003317, -1.2608282501785564 
4.310000000003294, -1.2607912448793588 
4.320000000003271, -1.2605812584380567 
4.330000000003247, -1.2600888744823293 
4.340000000003224, -1.2591660110272458 
4.350000000003201, -1.2575604369959579 
4.360000000003177, -1.2548436756216703 
4.370000000003154, -1.2503495381276022 
4.380000000003131, -1.2432044606500576 
4.390000000003107, -1.2326230671643708 
4.400000000003084, -1.2186294070442494 
4.410000000003061, -1.2029387242897631 
4.4200000000030375, -1.1889107303551916 
4.430000000003014, -1.1796612248125773 
4.440000000002991, -1.1758234182904261 
4.450000000002968, -1.1756310352395736 
4.460000000002944, -1.1768762982248173 
4.470000000002921, -1.1782152012945994 
4.480000000002898, -1.179166493901828 
4.490000000002874, -1.1796733683508438 
4.500000000002851, -1.1797955463376166 
4.510000000002828, -1.1795788607946458 
4.520000000002804, -1.1790108815976308 
4.530000000002781, -1.1779999524593177 
4.540000000002758, -1.176356895241341 
4.5500000000027345, -1.1737986363043402 
4.560000000002711, -1.170061999852961 
4.570000000002688, -1.1653147350879092 
4.580000000002665, -1.160962345261097 
4.590000000002641, -1.1601330783709332 
4.600000000002618, -1.166086356774015 
4.610000000002595, -1.178791353269162 
4.620000000002571, -1.1941525067542553 
4.630000000002548, -1.2075938009895921 
4.640000000002525, -1.2171104203334455 
4.6500000000025015, -1.2229932192069937 
4.660000000002478, -1.226320700843735 
4.670000000002455, -1.2280612897804573 
4.6800000000024315, -1.2288561324398517 
4.690000000002408, -1.2290745410813049 
4.700000000002385, -1.228911723427475 
4.710000000002362, -1.2284674163769973 
4.720000000002338, -1.2278129247082294 
4.730000000002315, -1.2270738311791032 
4.740000000002292, -1.226541778688635 
4.750000000002268, -1.226750015688755 
4.760000000002245, -1.2283365571718912 
4.770000000002222, -1.2316355295224042 
4.7800000000021985, -1.2363589521628806 
4.790000000002175, -1.2417541454617806 
4.800000000002152, -1.247032450844083 
4.810000000002129, -1.2516474870336052 
4.820000000002105, -1.2553350193691748 
4.830000000002082, -1.258044949924185 
4.840000000002059, -1.259861799697152 
4.850000000002035, -1.2609380533116532 
4.860000000002012, -1.2614421829857334 
4.870000000001989, -1.2615253688658112 
4.880000000001965, -1.2613101152990374 
4.890000000001942, -1.2608980648319421 
4.900000000001919, -1.2603889387809915 
4.9100000000018955, -1.2598966667161926 
4.920000000001872, -1.2595436863055507 
4.930000000001849, -1.259425955436266 
4.940000000001826, -1.2595741486740006 
