t, s[1].omega / s[0].omega 
0, -1.0399947422400349 
0.009999999999999995, -1.0393751464026304 
0.019999999999999934, -1.0385695228103484 
0.029999999999999874, -1.0375769542286384 
0.04000000000000012, -1.036396246831715 
0.050000000000000405, -1.0350267037238416 
0.06000000000000069, -1.0334690473376162 
0.07000000000000098, -1.0317263713853664 
0.08000000000000126, -1.029805018448655 
0.09000000000000155, -1.027715309572038 
0.10000000000000184, -1.0254720849261723 
0.11000000000000212, -1.0230950380345691 
0.12000000000000241, -1.0206088339355655 
0.130000000000002, -1.0180429955939552 
0.1400000000000009, -1.0154315317143654 
0.1499999999999998, -1.0128122752459623 
0.1599999999999987, -1.0102259159183151 
0.1699999999999976, -1.0077147456135827 
0.1799999999999965, -1.005321185457027 
0.1899999999999954, -1.0030862119351436 
0.1999999999999943, -1.0010478261032905 
0.2099999999999932, -0.9992397002897019 
0.2199999999999921, -0.9976900896294286 
0.229999999999991, -0.9964210269429458 
0.2399999999999899, -0.995447756031445 
0.2499999999999888, -0.9947783271628535 
0.2599999999999877, -0.9944132929825055 
0.2699999999999866, -0.9943454964571752 
0.2799999999999855, -0.9945600095376378 
0.2899999999999844, -0.9950343292208631 
0.2999999999999833, -0.9957389409552282 
0.3099999999999822, -0.9966383111708955 
0.3199999999999811, -0.9976922867018784 
0.32999999999998, -0.9988577898301374 
0.3399999999999789, -1.000090635834827 
0.3499999999999778, -1.0013472850593548 
0.35999999999997667, -1.0025863739568635 
0.36999999999997557, -1.0037699325621283 
0.37999999999997447, -1.0048642646002643 
0.38999999999997337, -1.005840518813588 
0.39999999999997227, -1.0066750038415737 
0.40999999999997117, -1.0073492940737772 
0.41999999999997006, -1.0078501502923598 
0.42999999999996896, -1.008169251956464 
0.43999999999996786, -1.0083027227815244 
0.44999999999996676, -1.008250437652619 
0.45999999999996566, -1.0080151279730727 
0.46999999999996456, -1.0076013461222881 
0.47999999999996346, -1.0070143932464193 
0.48999999999996235, -1.00625934262805 
0.49999999999996125, -1.0053402925660837 
0.5099999999999602, -1.0042599554625657 
0.519999999999959, -1.003019639557627 
0.529999999999958, -1.001619618366289 
0.5399999999999568, -1.0000598244641559 
0.5499999999999557, -0.9983407614180758 
0.5599999999999546, -0.9964645083207545 
0.5699999999999535, -0.9944356969341387 
0.5799999999999524, -0.9922623663545364 
0.5899999999999513, -0.9899566338255262 
0.5999999999999502, -0.9875351509957258 
0.6099999999999491, -0.98501933377201 
0.619999999999948, -0.9824353584332525 
0.6299999999999469, -0.9798139112490659 
0.6399999999999458, -0.9771896727492667 
0.6499999999999447, -0.9746005211291385 
0.6599999999999436, -0.972086458534091 
0.6699999999999425, -0.9696882985718337 
0.6799999999999414, -0.9674461948137548 
0.6899999999999403, -0.9653981242215222 
0.6999999999999392, -0.9635784522838927 
0.7099999999999381, -0.9620166905899514 
0.719999999999937, -0.9607365160423723 
0.7299999999999359, -0.959755068188958 
0.7399999999999348, -0.9590824967840448 
0.7499999999999337, -0.9587217119863162 
0.7599999999999326, -0.9586683000870624 
0.7699999999999315, -0.9589106003567865 
0.7799999999999304, -0.9594299754319127 
0.7899999999999293, -0.9602013285622069 
0.7999999999999282, -0.961193912928276 
0.8099999999999271, -0.9623724408680397 
0.819999999999926, -0.9636984467752541 
0.8299999999999249, -0.9651318062320908 
0.8399999999999238, -0.9666322835512056 
0.8499999999999227, -0.9681609792717173 
0.8599999999999216, -0.9696815754588184 
0.8699999999999205, -0.971161317875202 
0.8799999999999194, -0.9725717149762041 
0.8899999999999183, -0.973888962066078 
0.8999999999999172, -0.9750941098499974 
0.9099999999999161, -0.9761729930195581 
0.919999999999915, -0.9771159252610327 
0.9299999999999139, -0.9779171628921274 
0.9399999999999128, -0.9785741483908897 
0.9499999999999117, -0.9790865696056509 
0.9599999999999106, -0.9794553055242355 
0.9699999999999095, -0.9796813646853091 
0.9799999999999084, -0.9797649453825876 
0.9899999999999073, -0.9797047480101727 
0.9999999999999062, -0.9794976451834875 
1.0099999999999052, -0.9791387674192739 
1.019999999999904, -0.9786219999961309 
1.029999999999903, -0.9779408230334861 
1.039999999999902, -0.9770893759731321 
1.0499999999999008, -0.9760636014406411 
1.0599999999998997, -0.9748623278687004 
1.0699999999998986, -0.9734881826597511 
1.0799999999998975, -0.9719482769320278 
1.0899999999998964, -0.9702546528931952 
1.0999999999998953, -0.9684245201677525 
1.1099999999998942, -0.9664803186276149 
1.119999999999893, -0.964449632064476 
1.129999999999892, -0.9623649474904726 
1.1399999999998909, -0.9602632224621535 
1.1499999999998898, -0.9581852022959426 
1.1599999999998887, -0.9561744320455553 
1.1699999999998876, -0.9542759396225994 
1.1799999999998865, -0.9525346223260794 
1.1899999999998854, -0.950993435825039 
1.1999999999998843, -0.9496915424754645 
1.2099999999998832, -0.9486626048181115 
1.219999999999882, -0.9479333979198347 
1.229999999999881, -0.9475228621060886 
1.2399999999998799, -0.9474416409570215 
1.2499999999998788, -0.9476920721534853 
1.2599999999998777, -0.9482685438424345 
1.2699999999998766, -0.9491581096086489 
1.2799999999998755, -0.9503412695064933 
1.2899999999998744, -0.9517928592428826 
1.2999999999998733, -0.9534830255166047 
1.3099999999998722, -0.9553782867507108 
1.319999999999871, -0.9574426780774324 
1.32999999999987, -0.9596389609388971 
1.3399999999998689, -0.9619298517441763 
1.3499999999998678, -0.9642792027912014 
1.3599999999998666, -0.9666530602720018 
1.3699999999998655, -0.9690205301944689 
1.3799999999998644, -0.9713543993335032 
1.3899999999998633, -0.9736314783674561 
1.3999999999998622, -0.9758326530538932 
1.4099999999998611, -0.9779426452206993 
1.41999999999986, -0.9799495006760206 
1.429999999999859, -0.9818438395918977 
1.4399999999998578, -0.9836179288675457 
1.4499999999998567, -0.9852646642195056 
1.4599999999998556, -0.9867765768989766 
1.4699999999998545, -0.988144997724535 
1.4799999999998534, -0.9893595109012291 
1.4899999999998523, -0.9904078057593468 
1.4999999999998512, -0.9912759850092302 
1.5099999999998501, -0.9919493190138766 
1.519999999999849, -0.992413359619969 
1.529999999999848, -0.9926552621450865 
1.5399999999998468, -0.9926651286252887 
1.5499999999998457, -0.992437191687808 
1.5599999999998446, -0.9919707066110511 
1.5699999999998435, -0.9912704955252228 
1.5799999999998424, -0.9903471688446119 
1.5899999999998413, -0.9892171103927934 
1.5999999999998402, -0.9879023374546636 
1.6099999999998391, -0.9864303308020228 
1.619999999999838, -0.9848338802280352 
1.629999999999837, -0.9831509239394848 
1.6399999999998358, -0.98142429428295 
1.6499999999998347, -0.9797012364265197 
1.6599999999998336, -0.9780325564802034 
1.6699999999998325, -0.9764712908031098 
1.6799999999998314, -0.9750708687207182 
1.6899999999998303, -0.9738828529800263 
1.6999999999998292, -0.9729544587883363 
1.709999999999828, -0.9723261381289573 
1.719999999999827, -0.9720295400401362 
1.729999999999826, -0.9720861059033571 
1.7399999999998248, -0.9725064433515395 
1.7499999999998237, -0.973290477992705 
1.7599999999998226, -0.9744282531243108 
1.7699999999998215, -0.9759011700513388 
1.7799999999998204, -0.9776834498254142 
1.7899999999998193, -0.9797436407941831 
1.7999999999998182, -0.982046067868972 
1.809999999999817, -0.9845521878008368 
1.819999999999816, -0.9872218576259977 
1.8299999999998149, -0.9900145335871094 
1.8399999999998138, -0.9928904022886553 
1.8499999999998127, -0.9958114195197306 
1.8599999999998116, -0.9987422099082337 
1.8699999999998105, -1.0016507713050284 
1.8799999999998094, -1.004508932994179 
1.8899999999998083, -1.0072925326723459 
1.8999999999998072, -1.0099812984536438 
1.909999999999806, -1.0125584455050245 
1.919999999999805, -1.015010021496494 
1.9299999999998039, -1.0173240613537022 
1.9399999999998028, -1.0194896393060093 
1.9499999999998017, -1.0214959316161392 
1.9599999999998006, -1.0233314203324777 
1.9699999999997995, -1.024983369094847 
1.9799999999997984, -1.026437679818199 
1.9899999999997973, -1.0276791916020418 
1.9999999999997962, -1.028692414892002 
2.0099999999998173, -1.029462617004071 
2.0199999999998384, -1.0299771080654876 
2.0299999999998595, -1.0302265389567262 
2.0399999999998806, -1.0302060286346133 
2.0499999999999017, -1.029915988178162 
2.059999999999923, -1.029362588889793 
2.069999999999944, -1.0285579069273632 
2.079999999999965, -1.0275198408403816 
2.089999999999986, -1.026271922656313 
2.100000000000007, -1.0248431228191457 
2.1100000000000283, -1.0232676924670852 
2.1200000000000494, -1.021585010484582 
2.1300000000000705, -1.0198393289808987 
2.1400000000000916, -1.0180792612401508 
2.1500000000001127, -1.0163568497115927 
2.160000000000134, -1.0147260999331653 
2.170000000000155, -1.0132409680395469 
2.180000000000176, -1.0119529253532271 
2.190000000000197, -1.0109083564897432 
2.2000000000002182, -1.0101461321156964 
2.2100000000002393, -1.0096956978078433 
2.2200000000002604, -1.0095759274537481 
2.2300000000002815, -1.0097948297691242 
2.2400000000003026, -1.0103500230309619 
2.2500000000003237, -1.0112297636584913 
2.260000000000345, -1.0124142661241682 
2.270000000000366, -1.0138770877146162 
2.280000000000387, -1.0155864429197097 
2.290000000000408, -1.0175064140188188 
2.3000000000004293, -1.0195980967257585 
2.3100000000004504, -1.0218207422591288 
2.3200000000004715, -1.0241329336700957 
2.3300000000004926, -1.026493786010224 
2.3400000000005137, -1.0288641132729517 
2.3500000000005348, -1.0312074791933494 
2.360000000000556, -1.0334910497546712 
2.370000000000577, -1.0356861862800841 
2.380000000000598, -1.037768747213943 
2.390000000000619, -1.0397190936397749 
2.4000000000006403, -1.0415218138174784 
2.4100000000006614, -1.0431651973669618 
2.4200000000006825, -1.0446405050723548 
2.4300000000007036, -1.0459410993333482 
2.4400000000007247, -1.0470615224651765 
2.450000000000746, -1.047996629903373 
2.460000000000767, -1.0487408945777814 
2.470000000000788, -1.0492879895451894 
2.480000000000809, -1.0496307247306809 
2.49000000000083, -1.0497613629349214 
2.5000000000008513, -1.0496722793436293 
2.5100000000008724, -1.049356871649613 
2.5200000000008935, -1.048810589559806 
2.5300000000009146, -1.048031943806683 
2.5400000000009357, -1.0470233780248954 
2.550000000000957, -1.0457919336455586 
2.560000000000978, -1.0443496917420292 
2.570000000000999, -1.0427140177395438 
2.58000000000102, -1.0409076510974895 
2.5900000000010412, -1.0389586683607142 
2.6000000000010624, -1.0369003113539799 
2.6100000000010835, -1.0347706285510965 
2.6200000000011046, -1.0326118466611778 
2.6300000000011257, -1.0304693892705963 
2.6400000000011468, -1.0283904998069187 
2.650000000001168, -1.0264225032895504 
2.660000000001189, -1.0246108354558443 
2.67000000000121, -1.0229970469698553 
2.680000000001231, -1.0216170216407578 
2.6900000000012523, -1.0204996120954342 
2.7000000000012734, -1.0196658009680195 
2.7100000000012945, -1.0191283731850247 
2.7200000000013156, -1.0188919811981603 
2.7300000000013367, -1.0189534384568297 
2.740000000001358, -1.0193021004506604 
2.750000000001379, -1.019920270173758 
2.7600000000014, -1.020783656922694 
2.770000000001421, -1.0218619813518128 
2.780000000001442, -1.0231198282606206 
2.7900000000014633, -1.0245178003979074 
2.8000000000014844, -1.0260139450276038 
2.8100000000015055, -1.027565345670607 
2.8200000000015266, -1.029129725152658 
2.8300000000015477, -1.0306669062155984 
2.840000000001569, -1.0321400153995235 
2.85000000000159, -1.0335163737975899 
2.860000000001611, -1.0347680712921776 
2.870000000001632, -1.0358722531102342 
2.8800000000016532, -1.0368111551739825 
2.8900000000016743, -1.0375719149778844 
2.9000000000016954, -1.0381461709110154 
2.9100000000017165, -1.0385294582301718 
2.9200000000017377, -1.0387204218713795 
2.9300000000017588, -1.0387198940920017 
2.94000000000178, -1.0385299197104747 
2.950000000001801, -1.0381528402738212 
2.960000000001822, -1.0375905585844059 
2.970000000001843, -1.0368440899894096 
2.9800000000018643, -1.0359134678576274 
2.9900000000018854, -1.0347980161487114 
3.0000000000019065, -1.0334969447667692 
3.0100000000019276, -1.032010176930884 
3.0200000000019487, -1.030339292269488 
3.03000000000197, -1.0284884686428353 
3.040000000001991, -1.026465326166599 
3.050000000002012, -1.0242816086241628 
3.060000000002033, -1.0219536679214145 
3.070000000002054, -1.0195027362702835 
3.0800000000020753, -1.0169549745499997 
3.0900000000020964, -1.0143412777834688 
3.1000000000021175, -1.011696810003661 
3.1100000000021386, -1.0090602429272606 
3.1200000000021597, -1.0064726941461277 
3.130000000002181, -1.0039764010460037 
3.140000000002202, -1.0016132162641476 
3.150000000002223, -0.9994230514721669 
3.160000000002244, -0.9974424102238162 
3.1700000000022652, -0.9957031274946161 
3.1800000000022863, -0.994231378318622 
3.1900000000023074, -0.9930469506311406 
3.2000000000023285, -0.9921627254374551 
3.2100000000023496, -0.991584293075812 
3.2200000000023707, -0.9913096638797662 
3.230000000002392, -0.99132909117176 
3.240000000002413, -0.9916250857292558 
3.250000000002434, -0.9921727328865448 
3.260000000002455, -0.9929404071815462 
3.2700000000024763, -0.9938909164716837 
3.2800000000024974, -0.994983019461872 
3.2900000000025185, -0.9961731797729502 
3.3000000000025396, -0.9974173743518546 
3.3100000000025607, -0.9986727770284195 
3.3200000000025818, -0.9998991830838864 
3.330000000002603, -1.0010601074787084 
3.340000000002624, -1.0021235534790267 
3.350000000002645, -1.0030624909311703 
3.360000000002666, -1.0038550964983481 
3.3700000000026873, -1.0044847955322256 
3.3800000000027084, -1.0049401191163987 
3.3900000000027295, -1.0052143658440873 
3.4000000000027506, -1.0053050497303966 
3.4100000000027717, -1.0052131303283727 
3.420000000002793, -1.0049420564549454 
3.430000000002814, -1.0044967002068095 
3.440000000002835, -1.003882297733177 
3.450000000002856, -1.0031035331350209 
3.460000000002877, -1.002163893635619 
3.4700000000028983, -1.0010653881757778 
3.4800000000029194, -0.9998086660197631 
3.4900000000029405, -0.9983935098034623 
3.5000000000029616, -0.996819622693824 
3.5100000000029827, -0.9950875933821139 
3.520000000003004, -0.9931999115904404 
3.530000000003025, -0.9911619198160797 
3.540000000003046, -0.9889826167358149 
3.550000000003067, -0.9866752624786034 
3.5600000000030882, -0.9842577642942811 
3.5700000000031094, -0.9817528356937018 
3.5800000000031305, -0.9791879224267808 
3.5900000000031516, -0.9765948808899791 
3.6000000000031727, -0.9740093888450394 
3.6100000000031938, -0.9714700744838732 
3.620000000003215, -0.9690173730086926 
3.630000000003236, -0.9666921575517016 
3.640000000003257, -0.964534233235317 
3.650000000003278, -0.962580814735357 
3.6600000000032993, -0.9608651154775467 
3.6700000000033204, -0.9594151549038713 
3.6800000000033415, -0.9582528448205795 
3.6900000000033626, -0.9573933624840616 
3.7000000000033837, -0.9568447763277559 
3.710000000003405, -0.9566078747602825 
3.720000000003426, -0.9566761623871267 
3.730000000003447, -0.9570360213659462 
3.740000000003468, -0.9576670698194478 
3.750000000003489, -0.9585427654585255 
3.7600000000035103, -0.9596312901282789 
3.7700000000035314, -0.9608967120004138 
3.7800000000035525, -0.9623003703177152 
3.7900000000035736, -0.9638023819131396 
3.8000000000035947, -0.965363145030864 
3.810000000003616, -0.966944720668761 
3.820000000003637, -0.9685120000810383 
3.830000000003658, -0.9700336067861798 
3.840000000003679, -0.9714825182033662 
3.8500000000037002, -0.972836415659169 
3.8600000000037213, -0.9740777790203028 
3.8700000000037424, -0.9751937380527553 
3.8800000000037635, -0.9761756859908326 
3.8900000000037847, -0.9770186615877421 
3.9000000000038058, -0.9777205204589544 
3.910000000003827, -0.9782809448457468 
3.920000000003848, -0.9787003763577907 
3.930000000003869, -0.9789789877177211 
3.94000000000389, -0.9791158254810929 
3.9500000000039113, -0.9791082481129519 
3.9600000000039324, -0.9789517506907143 
3.9700000000039535, -0.9786402135158793 
3.9800000000039746, -0.9781665472791102 
3.9900000000039957, -0.9775236458227013 
4.000000000004016, -0.9767055131176104 
4.010000000003993, -0.9757084146075772 
4.02000000000397, -0.9745319182305137 
4.030000000003946, -0.9731797316298144 
4.040000000003923, -0.9716602956524973 
4.0500000000039, -0.9699871430016654 
4.0600000000038765, -0.9681790602801735 
4.070000000003853, -0.9662600946249694 
4.08000000000383, -0.964259425105279 
4.090000000003807, -0.9622110844030514 
4.100000000003783, -0.9601534827095243 
4.11000000000376, -0.958128668009527 
4.120000000003737, -0.9561812657197741 
4.130000000003713, -0.9543570793091218 
4.14000000000369, -0.9527013958112294 
4.150000000003667, -0.9512571104754944 
4.1600000000036434, -0.9500628419448021 
4.17000000000362, -0.9491512332731626 
4.180000000003597, -0.9485476139850396 
4.1900000000035735, -0.9482691380307645 
4.20000000000355, -0.9483244299502817 
4.210000000003527, -0.9487136923916341 
4.220000000003504, -0.9494291752514352 
4.23000000000348, -0.9504558915085601 
4.240000000003457, -0.9517724837370518 
4.250000000003434, -0.9533521828863913 
4.26000000000341, -0.9551638376099953 
4.270000000003387, -0.9571730128383485 
4.280000000003364, -0.9593431547617374 
4.2900000000033405, -0.9616368005570862 
4.300000000003317, -0.9640167862228975 
4.310000000003294, -0.9664473865302102 
4.320000000003271, -0.9688953146419111 
4.330000000003247, -0.9713305161588979 
4.340000000003224, -0.9737267088091781 
4.350000000003201, -0.9760616385953247 
4.360000000003177, -0.9783170416526696 
4.370000000003154, -0.9804783176566907 
4.380000000003131, -0.9825339377610554 
4.390000000003107, -0.9844746309643898 
4.400000000003084, -0.9862924187702379 
4.410000000003061, -0.9879795965282109 
4.4200000000030375, -0.9895277845808307 
4.430000000003014, -0.9909271847349386 
4.440000000002991, -0.9921661695328813 
4.450000000002968, -0.9932312985239973 
4.460000000002944, -0.9941077981266284 
4.470000000002921, -0.9947804677525863 
4.480000000002898, -0.9952348995870192 
4.490000000002874, -0.9954588418511778 
4.500000000002851, -0.9954435130656291 
4.510000000002828, -0.9951846967485468 
4.520000000002804, -0.9946835074278766 
4.530000000002781, -0.9939468016256173 
4.540000000002758, -0.9929872861418323 
4.5500000000027345, -0.9918234272765818 
4.560000000002711, -0.9904792754578601 
4.570000000002688, -0.9889842900939895 
4.580000000002665, -0.9873731904073899 
4.590000000002641, -0.9856857870387121 
4.600000000002618, -0.9839666858267073 
4.610000000002595, -0.9822647176822653 
4.620000000002571, -0.9806319514160876 
4.630000000002548, -0.9791221971757511 
4.640000000002525, -0.9777890029368668 
4.6500000000025015, -0.9766832669985663 
4.660000000002478, -0.9758507042048765 
4.670000000002455, -0.9753294759953351 
4.6800000000024315, -0.9751482959814015 
4.690000000002408, -0.9753252467083331 
4.700000000002385, -0.9758674099621604 
4.710000000002362, -0.9767712635374324 
4.720000000002338, -0.9780236772931604 
4.730000000002315, -0.9796032822280171 
4.740000000002292, -0.9814819948595384 
4.750000000002268, -0.9836265377196904 
4.760000000002245, -0.9859998738842846 
4.770000000002222, -0.9885625383906117 
4.7800000000021985, -0.9912738834550531 
4.790000000002175, -0.9940932551911333 
4.800000000002152, -0.9969810978771833 
4.810000000002129, -0.9998999541306063 
4.820000000002105, -1.0028153096107175 
4.830000000002082, -1.0056962259079303 
4.840000000002059, -1.0085157144515629 
4.850000000002035, -1.0112508226608357 
4.860000000002012, -1.0138824260319268 
4.870000000001989, -1.016394743656719 
4.880000000001965, -1.0187746196003395 
4.890000000001942, -1.0210106391130325 
4.900000000001919, -1.0230921756370255 
4.9100000000018955, -1.0250084877401286 
4.920000000001872, -1.0267479974879252 
