t, s[1].omega / s[0].omega 
0, -1.4499964810657244 
0.009999999999999995, -1.44940755644086 
0.019999999999999934, -1.44834858317447 
0.029999999999999874, -1.4468178116373596 
0.04000000000000012, -1.444813896375731 
0.050000000000000405, -1.4423383824366325 
0.06000000000000069, -1.4393991827548993 
0.07000000000000098, -1.43601627824242 
0.08000000000000126, -1.4322340728315657 
0.09000000000000155, -1.4281479588100603 
0.10000000000000184, -1.4239465037212284 
0.11000000000000212, -1.4199445834607272 
0.12000000000000241, -1.4165488607834538 
0.130000000000002, -1.4141126497018484 
0.1400000000000009, -1.412748013977377 
0.1499999999999998, -1.4122599025320135 
0.1599999999999987, -1.4122679941820928 
0.1699999999999976, -1.412387979106264 
0.1799999999999965, -1.412324965181448 
0.1899999999999954, -1.411858099624742 
0.1999999999999943, -1.4107681653614157 
0.2099999999999932, -1.4087424117472054 
0.2199999999999921, -1.4052505019505923 
0.229999999999991, -1.3993560726005716 
0.2399999999999899, -1.3894093005722425 
0.2499999999999888, -1.3725651856558323 
0.2599999999999877, -1.3441493225327759 
0.2699999999999866, -1.297211240560612 
0.2799999999999855, -1.2233786886761704 
0.2899999999999844, -1.1168972872612997 
0.2999999999999833, -0.9818034649397148 
0.3099999999999822, -0.8354753365135982 
0.3199999999999811, -0.7005965318654024 
0.32999999999998, -0.5920798227873314 
0.3399999999999789, -0.5127147441884118 
0.3499999999999778, -0.4578205639526605 
0.35999999999997667, -0.4208363654764561 
0.36999999999997557, -0.3961146223612054 
0.37999999999997447, -0.37955960797433885 
0.38999999999997337, -0.3684097288277453 
0.39999999999997227, -0.3608556457412864 
0.40999999999997117, -0.3557201676556675 
0.41999999999997006, -0.3522346123475576 
0.42999999999996896, -0.34989294967619944 
0.43999999999996786, -0.3483591061117027 
0.44999999999996676, -0.34740845679700705 
0.45999999999996566, -0.3468908657443368 
0.46999999999996456, -0.3467073192936937 
0.47999999999996346, -0.34679526340328154 
0.48999999999996235, -0.34711966656462506 
0.49999999999996125, -0.3476679922753973 
0.5099999999999602, -0.34844795104513004 
0.519999999999959, -0.34948728203410967 
0.529999999999958, -0.35083499618091113 
0.5399999999999568, -0.35256356299196906 
0.5499999999999557, -0.3547714551692112 
0.5599999999999546, -0.35758518601651884 
0.5699999999999535, -0.3611592308169508 
0.5799999999999524, -0.36567065127792636 
0.5899999999999513, -0.37130271424353856 
0.5999999999999502, -0.37820933737137924 
0.6099999999999491, -0.3864535115570801 
0.619999999999948, -0.3959248636258258 
0.6299999999999469, -0.4062685476350235 
0.6399999999999458, -0.4168850349699659 
0.6499999999999447, -0.4270467295067579 
0.6599999999999436, -0.436099230809414 
0.6699999999999425, -0.44363516348492515 
0.6799999999999414, -0.44954485520084697 
0.6899999999999403, -0.45394734685294896 
0.6999999999999392, -0.45707568481289285 
0.7099999999999381, -0.45918177144722633 
0.719999999999937, -0.460482525409434 
0.7299999999999359, -0.4611392524063235 
0.7399999999999348, -0.4612546022695579 
0.7499999999999337, -0.4608750143574203 
0.7599999999999326, -0.45999166591984303 
0.7699999999999315, -0.458536346499978 
0.7799999999999304, -0.45637053330451577 
0.7899999999999293, -0.45326763429549394 
0.7999999999999282, -0.44889207932270014 
0.8099999999999271, -0.4427877926800829 
0.819999999999926, -0.4344050266096705 
0.8299999999999249, -0.4232124977344259 
0.8399999999999238, -0.40893122143184374 
0.8499999999999227, -0.39183718450825733 
0.8599999999999216, -0.37292743621830493 
0.8699999999999205, -0.35371925854096753 
0.8799999999999194, -0.3357279491541821 
0.8899999999999183, -0.3199844967996695 
0.8999999999999172, -0.3068858559157586 
0.9099999999999161, -0.2963407219802722 
0.919999999999915, -0.28800478840681115 
0.9299999999999139, -0.28146296677074345 
0.9399999999999128, -0.27632733157352873 
0.9499999999999117, -0.2722738730822311 
0.9599999999999106, -0.269047358552282 
0.9699999999999095, -0.2664536398986809 
0.9799999999999084, -0.264349027336307 
0.9899999999999073, -0.2626305632026147 
0.9999999999999062, -0.26122835961663926 
1.0099999999999052, -0.26010021373303804 
1.019999999999904, -0.2592285394505156 
1.029999999999903, -0.25861978789978785 
1.039999999999902, -0.25830681819409423 
1.0499999999999008, -0.25835514750238076 
1.0599999999998997, -0.25887478744002057 
1.0699999999998986, -0.2600407109504199 
1.0799999999998975, -0.2621273336075926 
1.0899999999998964, -0.2655665241103681 
1.0999999999998953, -0.27104592831771773 
1.1099999999998942, -0.2796768266232222 
1.119999999999893, -0.29328024712982564 
1.129999999999892, -0.3148633870340605 
1.1399999999998909, -0.34935754891304355 
1.1499999999998898, -0.40455456118395855 
1.1599999999998887, -0.4916317468471 
1.1699999999998876, -0.6233905655575995 
1.1799999999998865, -0.8071489829054718 
1.1899999999998854, -1.0316242130544662 
1.1999999999998843, -1.2582343775966562 
1.2099999999998832, -1.439984671033514 
1.219999999999882, -1.5581736310950178 
1.229999999999881, -1.625185312771879 
1.2399999999998799, -1.66084986391455 
1.2499999999998788, -1.6794841371464202 
1.2599999999998777, -1.6891953117906386 
1.2699999999998766, -1.6941983566805505 
1.2799999999998755, -1.6966371619573217 
1.2899999999998744, -1.6976092875911706 
1.2999999999998733, -1.6976969999578577 
1.3099999999998722, -1.6972492303378537 
1.319999999999871, -1.6965433868048514 
1.32999999999987, -1.6958645032233395 
1.3399999999998689, -1.695482549025053 
1.3499999999998678, -1.6955434255744843 
1.3599999999998666, -1.69599945014055 
1.3699999999998655, -1.696683309814474 
1.3799999999998644, -1.6974412727666295 
1.3899999999998633, -1.6981841766963526 
1.3999999999998622, -1.6988470156806652 
1.4099999999998611, -1.6993407072695335 
1.41999999999986, -1.6995440470201733 
1.429999999999859, -1.6993146382170665 
1.4399999999998578, -1.6984846116947139 
1.4499999999998567, -1.6968337946081677 
1.4599999999998556, -1.6940489102537521 
1.4699999999998545, -1.6896744091102804 
1.4799999999998534, -1.6830530226410243 
1.4899999999998523, -1.673250405849878 
1.4999999999998512, -1.6589658936406362 
1.5099999999998501, -1.6384752436377623 
1.519999999999849, -1.6097894712205856 
1.529999999999848, -1.571496483853497 
1.5399999999998468, -1.524875181040425 
1.5499999999998457, -1.4764862518319877 
1.5599999999998446, -1.4370773667444225 
1.5699999999998435, -1.4142710092763393 
1.5799999999998424, -1.406877263848221 
1.5899999999998413, -1.408191081688529 
1.5999999999998402, -1.41224401630536 
1.6099999999998391, -1.416056831459146 
1.619999999999838, -1.418755336746811 
1.629999999999837, -1.4203302510768758 
1.6399999999998358, -1.4209673530765985 
1.6499999999998347, -1.4208015871110398 
1.6599999999998336, -1.4198461803824778 
1.6699999999998325, -1.417969864171758 
1.6799999999998314, -1.4148894999327621 
1.6899999999998303, -1.4102248163505422 
1.6999999999998292, -1.4037999118930633 
1.709999999999828, -1.3966085403511064 
1.719999999999827, -1.3928445776041063 
1.729999999999826, -1.4018168782569445 
1.7399999999998248, -1.4349439025259219 
1.7499999999998237, -1.4947200787502237 
1.7599999999998226, -1.5674446130892725 
1.7699999999998215, -1.6340252788845866 
1.7799999999998204, -1.684590587744178 
1.7899999999998193, -1.7192042284440123 
1.7999999999998182, -1.7417287788419604 
1.809999999999817, -1.7560127349916343 
1.819999999999816, -1.7648853361785264 
1.8299999999998149, -1.7702337087288722 
1.8399999999998138, -1.7732751491425585 
1.8499999999998127, -1.7747842510519174 
1.8599999999998116, -1.775251075833101 
1.8699999999998105, -1.774990222052967 
1.8799999999998094, -1.7742183056968825 
1.8899999999998083, -1.7731045847678473 
1.8999999999998072, -1.771788665918402 
1.909999999999806, -1.770370273787611 
1.919999999999805, -1.7689115406962015 
1.9299999999998039, -1.7674910508412742 
1.9399999999998028, -1.7662655575413324 
1.9499999999998017, -1.7654292831242395 
1.9599999999998006, -1.7650572453870026 
1.9699999999997995, -1.7650025186654543 
1.9799999999997984, -1.7649715417280045 
1.9899999999997973, -1.7646540701487006 
1.9999999999997962, -1.7637462449186807 
2.0099999999998173, -1.761847602583479 
2.0199999999998384, -1.7582490819428862 
2.0299999999998595, -1.7515388450806524 
2.0399999999998806, -1.7387995925428374 
2.0499999999999017, -1.7139520395479282 
2.059999999999923, -1.6647394804144113 
2.069999999999944, -1.569617037222083 
2.079999999999965, -1.4035844516979699 
2.089999999999986, -1.1657444149316092 
2.100000000000007, -0.8976906042020641 
2.1100000000000283, -0.6496588653074242 
2.1200000000000494, -0.45098462604122463 
2.1300000000000705, -0.30995150233861896 
2.1400000000000916, -0.2185536519669586 
2.1500000000001127, -0.16205695790756666 
2.160000000000134, -0.12745025267763335 
2.170000000000155, -0.10595586305142161 
2.180000000000176, -0.09228153688259544 
2.190000000000197, -0.0833529252006723 
2.2000000000002182, -0.07738637034280692 
2.2100000000002393, -0.07333250358574799 
2.2200000000002604, -0.07056315514130067 
2.2300000000002815, -0.06869784216923701 
2.2400000000003026, -0.06750738326008301 
2.2500000000003237, -0.06686033378865484 
2.260000000000345, -0.0666940362290129 
2.270000000000366, -0.06700092512032808 
2.280000000000387, -0.06782575566149679 
2.290000000000408, -0.06927268918949404 
2.3000000000004293, -0.07152395344338233 
2.3100000000004504, -0.07487513389944726 
2.3200000000004715, -0.07979721268138225 
2.3300000000004926, -0.08704380823613056 
2.3400000000005137, -0.09783528818314231 
2.3500000000005348, -0.11416803017568437 
2.360000000000556, -0.13929813621959758 
2.370000000000577, -0.17834875222059257 
2.380000000000598, -0.23852973814079098 
2.390000000000619, -0.32728611253435164 
2.4000000000006403, -0.4459683272856071 
2.4100000000006614, -0.5818254798939819 
2.4200000000006825, -0.7109183340243546 
2.4300000000007036, -0.8141421420274367 
2.4400000000007247, -0.8867466436662588 
2.450000000000746, -0.9338999292408403 
2.460000000000767, -0.963257351544515 
2.470000000000788, -0.9812038101641785 
2.480000000000809, -0.9921092054757633 
2.49000000000083, -0.9987109793410032 
2.5000000000008513, -1.002655325855094 
2.5100000000008724, -1.0049127151507784 
2.5200000000008935, -1.0060450996215897 
2.5300000000009146, -1.006364400198509 
2.5400000000009357, -1.0060214179466285 
2.550000000000957, -1.0050519952735122 
2.560000000000978, -1.0033971238759063 
2.570000000000999, -1.000908668941959 
2.58000000000102, -0.9973538995971838 
2.5900000000010412, -0.9924437974326062 
2.6000000000010624, -0.9859396795474796 
2.6100000000010835, -0.9779490930409341 
2.6200000000011046, -0.9696022817094603 
2.6300000000011257, -0.9643570192082641 
2.6400000000011468, -0.9700794176257714 
2.650000000001168, -1.0015219268552724 
2.660000000001189, -1.0810697933737745 
2.67000000000121, -1.2303787594066584 
2.680000000001231, -1.4408726517147652 
2.6900000000012523, -1.6498097447282445 
2.7000000000012734, -1.7963106034924186 
2.7100000000012945, -1.8779830949601504 
2.7200000000013156, -1.9194377154427187 
2.7300000000013367, -1.940118175968602 
2.740000000001358, -1.9504874906898184 
2.750000000001379, -1.9556434215855323 
2.7600000000014, -1.9580448745272114 
2.770000000001421, -1.9589018461492813 
2.780000000001442, -1.9588376872138393 
2.7900000000014633, -1.958214564609576 
2.8000000000014844, -1.9572932176353426 
2.8100000000015055, -1.956276473184698 
2.8200000000015266, -1.9552753375524896 
2.8300000000015477, -1.9543091719794006 
2.840000000001569, -1.953411399191872 
2.85000000000159, -1.9527157411501221 
2.860000000001611, -1.9523587387949743 
2.870000000001632, -1.9522900699753323 
2.8800000000016532, -1.9522496795514954 
2.8900000000016743, -1.951902307292174 
2.9000000000016954, -1.950890715016719 
2.9100000000017165, -1.9487064300005918 
2.9200000000017377, -1.9443645640063565 
2.9300000000017588, -1.9357090409145699 
2.94000000000178, -1.917812419214639 
2.950000000001801, -1.8794352389856166 
2.960000000001822, -1.797715590691476 
2.970000000001843, -1.6440792539755449 
2.9800000000018643, -1.4336626285354348 
2.9900000000018854, -1.2584570269937274 
3.0000000000019065, -1.1949548772268968 
3.0100000000019276, -1.2451971692965011 
3.0200000000019487, -1.361683540827489 
3.03000000000197, -1.4809337738430781 
3.040000000001991, -1.5651608607653813 
3.050000000002012, -1.613443915954712 
3.060000000002033, -1.6386590606399538 
3.070000000002054, -1.6514633506395773 
3.0800000000020753, -1.6579102527016345 
3.0900000000020964, -1.6610539666051263 
3.1000000000021175, -1.6623894755996198 
3.1100000000021386, -1.6626535614186353 
3.1200000000021597, -1.662235462796741 
3.130000000002181, -1.6614131415348528 
3.140000000002202, -1.6605219580269068 
3.150000000002223, -1.6600428596031438 
3.160000000002244, -1.660492100294753 
3.1700000000022652, -1.6621023698447512 
3.1800000000022863, -1.6646230816098389 
3.1900000000023074, -1.6675189171371945 
3.2000000000023285, -1.6703196189806528 
3.2100000000023496, -1.6727689267377934 
3.2200000000023707, -1.6747702424576016 
3.230000000002392, -1.6762905682269214 
3.240000000002413, -1.6773066900319886 
3.250000000002434, -1.6777889787566307 
3.260000000002455, -1.6776972093574114 
3.2700000000024763, -1.6769761557922869 
3.2800000000024974, -1.6755498429642945 
3.2900000000025185, -1.673315015369981 
3.3000000000025396, -1.6701328709133876 
3.3100000000025607, -1.6658178160447388 
3.3200000000025818, -1.6601244834851132 
3.330000000002603, -1.652742690655024 
3.340000000002624, -1.6433327167200635 
3.350000000002645, -1.631677781479977 
3.360000000002666, -1.6180627602720876 
3.3700000000026873, -1.6038353499820464 
3.3800000000027084, -1.59153631615119 
3.3900000000027295, -1.5836472057822817 
3.4000000000027506, -1.580649200497459 
3.4100000000027717, -1.5808869670623398 
3.420000000002793, -1.5822984123362456 
3.430000000002814, -1.583620823331692 
3.440000000002835, -1.584369594177242 
3.450000000002856, -1.5844165325012924 
3.460000000002877, -1.583683930822368 
3.4700000000028983, -1.5819809716698987 
3.4800000000029194, -1.5788944814272647 
3.4900000000029405, -1.5737059895357692 
3.5000000000029616, -1.5654932090485993 
3.5100000000029827, -1.5540818347611574 
3.520000000003004, -1.5432898949318719 
3.530000000003025, -1.5462521439903931 
3.540000000003046, -1.5829602773724682 
3.550000000003067, -1.6577662536348983 
3.5600000000030882, -1.7448242306220039 
3.5700000000031094, -1.8157052121183657 
3.5800000000031305, -1.8629581368728079 
3.5900000000031516, -1.8918492884660278 
3.6000000000031727, -1.9090117854319235 
3.6100000000031938, -1.9190889007161434 
3.620000000003215, -1.9248900128399804 
3.630000000003236, -1.9280564496259063 
3.640000000003257, -1.9295452566399238 
3.650000000003278, -1.9299175206774195 
3.6600000000032993, -1.9295079105852595 
3.6700000000033204, -1.928528155768344 
3.6800000000033415, -1.927125012037781 
3.6900000000033626, -1.9253972957116177 
3.7000000000033837, -1.9234012898300477 
3.710000000003405, -1.9212141374266445 
3.720000000003426, -1.9190663082221615 
3.730000000003447, -1.9173736284017895 
3.740000000003468, -1.916472303606772 
3.750000000003489, -1.916280181495409 
3.7600000000035103, -1.9163561306851284 
3.7700000000035314, -1.916226139058052 
3.7800000000035525, -1.9155108743005387 
3.7900000000035736, -1.9137855029752875 
3.8000000000035947, -1.9102779399709813 
3.810000000003616, -1.9033312985364945 
3.820000000003637, -1.8893623028293633 
3.830000000003658, -1.8613895466542432 
3.840000000003679, -1.8111497513709711 
3.8500000000037002, -1.751855757895918 
3.8600000000037213, -1.7610692493009064 
3.8700000000037424, -1.913515728318861 
3.8800000000037635, -2.111589443944873 
3.8900000000037847, -2.234703705647991 
3.9000000000038058, -2.291404094062308 
3.910000000003827, -2.3163607111796347 
3.920000000003848, -2.327659160143997 
3.930000000003869, -2.332822307518564 
3.94000000000389, -2.33498445064738 
3.9500000000039113, -2.3355129218373816 
3.9600000000039324, -2.335032063959019 
3.9700000000039535, -2.3338398630545307 
3.9800000000039746, -2.3320653252669663 
3.9900000000039957, -2.329707277688786 
4.000000000004016, -2.3267566333902714 
4.010000000003993, -2.323592047876058 
4.02000000000397, -2.321225769341598 
4.030000000003946, -2.320426599275663 
4.040000000003923, -2.320693974497438 
4.0500000000039, -2.3209885357617104 
4.0600000000038765, -2.3206474815311795 
4.070000000003853, -2.3192470403879857 
4.08000000000383, -2.3161600599061587 
4.090000000003807, -2.3104450498092324 
4.100000000003783, -2.3025637458435315 
4.11000000000376, -2.3004477102217473 
4.120000000003737, -2.31665397643775 
4.130000000003713, -2.3439489879707254 
4.14000000000369, -2.3661264258898234 
4.150000000003667, -2.3797346659628444 
4.1600000000036434, -2.387435457851301 
4.17000000000362, -2.3916594078547404 
4.180000000003597, -2.3937677965048088 
4.1900000000035735, -2.3944293443271287 
4.20000000000355, -2.393917976128729 
4.210000000003527, -2.3922391634828615 
4.220000000003504, -2.389134263591488 
4.23000000000348, -2.383971251386421 
4.240000000003457, -2.375532202649571 
4.250000000003434, -2.3620493761410075 
4.26000000000341, -2.343199055237276 
4.270000000003387, -2.3255974664533894 
4.280000000003364, -2.3196927012963857 
4.2900000000033405, -2.323213052933482 
4.300000000003317, -2.3276963414120955 
4.310000000003294, -2.330253558894118 
4.320000000003271, -2.331117232311919 
4.330000000003247, -2.3308115636475297 
4.340000000003224, -2.3296817262772396 
4.350000000003201, -2.3282382996745072 
4.360000000003177, -2.3276195327260534 
4.370000000003154, -2.329008315734099 
4.380000000003131, -2.332023966562231 
4.390000000003107, -2.3351760764944602 
4.400000000003084, -2.3375913166299433 
4.410000000003061, -2.339176989564959 
4.4200000000030375, -2.3400325062052936 
4.430000000003014, -2.340156168527303 
4.440000000002991, -2.3393937033095527 
4.450000000002968, -2.3373697285549073 
4.460000000002944, -2.3332719623057088 
4.470000000002921, -2.3253356055848555 
4.480000000002898, -2.3095987789941823 
4.490000000002874, -2.2769247169515183 
4.500000000002851, -2.207721179227216 
4.510000000002828, -2.0777443064037007 
4.520000000002804, -1.9233759060460205 
4.530000000002781, -1.859032443252747 
4.540000000002758, -1.8871424200602378 
4.5500000000027345, -1.9289556507081358 
4.560000000002711, -1.9546840887044434 
4.570000000002688, -1.9674478605180945 
4.580000000002665, -1.9733860453343015 
4.590000000002641, -1.9759637481119818 
4.600000000002618, -1.9768044743720918 
4.610000000002595, -1.9766620939963295 
4.620000000002571, -1.9759634792786307 
4.630000000002548, -1.9751224363353006 
4.640000000002525, -1.9746596504414538 
4.6500000000025015, -1.9749950731930517 
4.660000000002478, -1.9760934490090942 
4.670000000002455, -1.9775258806043094 
4.6800000000024315, -1.978890465047044 
4.690000000002408, -1.9800128795409486 
4.700000000002385, -1.9808412729180047 
4.710000000002362, -1.9813088530613974 
4.720000000002338, -1.9812923876310273 
4.730000000002315, -1.9806082986909506 
4.740000000002292, -1.9789731087413691 
4.750000000002268, -1.975906339891509 
4.760000000002245, -1.9705582588243513 
4.770000000002222, -1.9614043673313133 
4.7800000000021985, -1.9456905653707395 
4.790000000002175, -1.9185022458479355 
4.800000000002152, -1.8717798486638677 
4.810000000002129, -1.7960452111864267 
4.820000000002105, -1.69243259808326 
4.830000000002082, -1.5909293353839369 
4.840000000002059, -1.531785135336577 
4.850000000002035, -1.519714335487184 
4.860000000002012, -1.530611433582597 
4.870000000001989, -1.5446994590831598 
4.880000000001965, -1.5550981787806788 
4.890000000001942, -1.5614768647591897 
4.900000000001919, -1.5650185913982657 
4.9100000000018955, -1.5667492527091391 
4.920000000001872, -1.5672964471649442 
