t, s[1].omega / s[0].omega 
0, -0.36000000992809944 
0.009999999999999995, -0.3600642090354296 
0.019999999999999934, -0.3602353124989395 
0.029999999999999874, -0.360467981469842 
0.04000000000000012, -0.3607032184993127 
0.050000000000000405, -0.36088455372384654 
0.06000000000000069, -0.3609709537094408 
0.07000000000000098, -0.3609404462028366 
0.08000000000000126, -0.3607849368142118 
0.09000000000000155, -0.3605009293558163 
0.10000000000000184, -0.36007997992520563 
0.11000000000000212, -0.35949941734557866 
0.12000000000000241, -0.358710935798802 
0.130000000000002, -0.35762245871937137 
0.1400000000000009, -0.35606683084019697 
0.1499999999999998, -0.35375207465534975 
0.1599999999999987, -0.3502047723278996 
0.1699999999999976, -0.3447781923589171 
0.1799999999999965, -0.336893767153111 
0.1899999999999954, -0.32660633679392626 
0.1999999999999943, -0.3150363991657564 
0.2099999999999932, -0.30391248901395734 
0.2199999999999921, -0.2945407373088368 
0.229999999999991, -0.2873293878400675 
0.2399999999999899, -0.28205381818281045 
0.2499999999999888, -0.2782746050003732 
0.2599999999999877, -0.27557622996851755 
0.2699999999999866, -0.27364113009243096 
0.2799999999999855, -0.2722490203115129 
0.2899999999999844, -0.27125606562736837 
0.2999999999999833, -0.2705747592764034 
0.3099999999999822, -0.270159935152414 
0.3199999999999811, -0.27000138856941425 
0.32999999999998, -0.27012277009619784 
0.3399999999999789, -0.2705870310958577 
0.3499999999999778, -0.2715098232495197 
0.35999999999997667, -0.27308345292278824 
0.36999999999997557, -0.2756141639120452 
0.37999999999997447, -0.279570641934149 
0.38999999999997337, -0.2856197029137453 
0.39999999999997227, -0.2945616498653657 
0.40999999999997117, -0.3069689953368814 
0.41999999999997006, -0.3223719386689478 
0.42999999999996896, -0.3385414326943009 
0.43999999999996786, -0.3523278765269041 
0.44999999999996676, -0.3619004863471973 
0.45999999999996566, -0.367598420714257 
0.46999999999996456, -0.3707432181600125 
0.47999999999996346, -0.3724753998323438 
0.48999999999996235, -0.37346999554083715 
0.49999999999996125, -0.3740681302428904 
0.5099999999999602, -0.37443404661317986 
0.519999999999959, -0.37464772269895785 
0.529999999999958, -0.3747493014524872 
0.5399999999999568, -0.37475914865365717 
0.5499999999999557, -0.3746874210545129 
0.5599999999999546, -0.37453987719737647 
0.5699999999999535, -0.37432303351461543 
0.5799999999999524, -0.37404962378674755 
0.5899999999999513, -0.3737433543598402 
0.5999999999999502, -0.37344030705403125 
0.6099999999999491, -0.37318448423111283 
0.619999999999948, -0.3730177098804913 
0.6299999999999469, -0.3729674118580131 
0.6399999999999458, -0.37303689244025956 
0.6499999999999447, -0.37320170705007594 
0.6599999999999436, -0.3734143890514443 
0.6699999999999425, -0.37361718196034993 
0.6799999999999414, -0.3737578011854677 
0.6899999999999403, -0.37380040185312324 
0.6999999999999392, -0.37372713688398007 
0.7099999999999381, -0.37353200613924104 
0.719999999999937, -0.3732117433677781 
0.7299999999999359, -0.37275688159772175 
0.7399999999999348, -0.37214290296136315 
0.7499999999999337, -0.371318686132128 
0.7599999999999326, -0.3701871548540059 
0.7699999999999315, -0.3685705439745564 
0.7799999999999304, -0.36615282499004764 
0.7899999999999293, -0.3624090950347364 
0.7999999999999282, -0.3566010848489676 
0.8099999999999271, -0.34804125250554435 
0.819999999999926, -0.3367549869252635 
0.8299999999999249, -0.3240104744294626 
0.8399999999999238, -0.31178784455278896 
0.8499999999999227, -0.3015631467613358 
0.8599999999999216, -0.29376876838391436 
0.8699999999999205, -0.28812403716002893 
0.8799999999999194, -0.2841218348194285 
0.8899999999999183, -0.281294400802665 
0.8999999999999172, -0.2792897070211726 
0.9099999999999161, -0.27786602657001724 
0.919999999999915, -0.27686630504235243 
0.9299999999999139, -0.2761946539058184 
0.9399999999999128, -0.27580017311766547 
0.9499999999999117, -0.27566808001215054 
0.9599999999999106, -0.2758173592870298 
0.9699999999999095, -0.2763047936334697 
0.9799999999999084, -0.27723627647344945 
0.9899999999999073, -0.2787872903174396 
0.9999999999999062, -0.28123435535595387 
1.0099999999999052, -0.284994709796716 
1.019999999999904, -0.29065287953181845 
1.029999999999903, -0.2989018003134194 
1.039999999999902, -0.3102430335247563 
1.0499999999999008, -0.32432504748542856 
1.0599999999998997, -0.33933506575507805 
1.0699999999998986, -0.35257725683930613 
1.0799999999998975, -0.36226034636068716 
1.0899999999998964, -0.3683930599271926 
1.0999999999998953, -0.3719876831338496 
1.1099999999998942, -0.3740575206524029 
1.119999999999893, -0.37526874539932364 
1.129999999999892, -0.37599126201355 
1.1399999999998909, -0.3764188325892497 
1.1499999999998898, -0.37665234725563795 
1.1599999999998887, -0.37674454635518995 
1.1699999999998876, -0.37672233918616405 
1.1799999999998865, -0.3765984633389767 
1.1899999999998854, -0.3763790100582341 
1.1999999999998843, -0.37607015507792235 
1.2099999999998832, -0.3756851257903562 
1.219999999999882, -0.3752500145845095 
1.229999999999881, -0.37480510933386185 
1.2399999999998799, -0.3743990279271518 
1.2499999999998788, -0.374076804322768 
1.2599999999998777, -0.37386697383880946 
1.2699999999998766, -0.37377298891562555 
1.2799999999998755, -0.3737718455155744 
1.2899999999998744, -0.37382046500375016 
1.2999999999998733, -0.3738680271979078 
1.3099999999998722, -0.3738693527449817 
1.319999999999871, -0.3737932940376051 
1.32999999999987, -0.3736233171691373 
1.3399999999998689, -0.3733521924962008 
1.3499999999998678, -0.37297453848940976 
1.3599999999998666, -0.37247942343860735 
1.3699999999998655, -0.3718426040290633 
1.3799999999998644, -0.37101557031847476 
1.3899999999998633, -0.3699058284548913 
1.3999999999998622, -0.3683387767670552 
1.4099999999998611, -0.3659880895127957 
1.41999999999986, -0.3622744471292437 
1.429999999999859, -0.3563107977505204 
1.4399999999998578, -0.3471545940864479 
1.4499999999998567, -0.3346310778546609 
1.4599999999998556, -0.3201493212258647 
1.4699999999998545, -0.3061532969871369 
1.4799999999998534, -0.29451324312851523 
1.4899999999998523, -0.28576492710564233 
1.4999999999998512, -0.27954213581571297 
1.5099999999998501, -0.2752132097776573 
1.519999999999849, -0.27221233187006555 
1.529999999999848, -0.27012401186590446 
1.5399999999998468, -0.268668515792677 
1.5499999999998457, -0.2676665526082701 
1.5599999999998446, -0.26700909186547583 
1.5699999999998435, -0.266637120023534 
1.5799999999998424, -0.26653034039372714 
1.5899999999998413, -0.2667032704535014 
1.5999999999998402, -0.26720807533936825 
1.6099999999998391, -0.2681446388942304 
1.619999999999838, -0.2696793554657039 
1.629999999999837, -0.2720739719685722 
1.6399999999998358, -0.27572129980779103 
1.6499999999998347, -0.28116685671805147 
1.6599999999998336, -0.2890482454743939 
1.6699999999998325, -0.2998106779076759 
1.6799999999998314, -0.3130992112700493 
1.6899999999998303, -0.3272236513385963 
1.6999999999998292, -0.33970860542478565 
1.709999999999828, -0.3489071090314277 
1.719999999999827, -0.35480138804102535 
1.729999999999826, -0.3582982699617978 
1.7399999999998248, -0.36032818084811563 
1.7499999999998237, -0.3615171288217605 
1.7599999999998226, -0.36222075821815347 
1.7699999999998215, -0.36262909072499466 
1.7799999999998204, -0.3628424335744152 
1.7899999999998193, -0.36291353625763384 
1.7999999999998182, -0.3628693371896086 
1.809999999999817, -0.36272278353688236 
1.819999999999816, -0.36248079826948276 
1.8299999999998149, -0.36215149408109654 
1.8399999999998138, -0.3617513250063174 
1.8499999999998127, -0.3613103620113452 
1.8599999999998116, -0.360872272742518 
1.8699999999998105, -0.36048694239615064 
1.8799999999998094, -0.3601978749089092 
1.8899999999998083, -0.36002975383305347 
1.8999999999998072, -0.35998096306561583 
1.909999999999806, -0.3600233835409198 
1.919999999999805, -0.3601098536652879 
1.9299999999998039, -0.3601873008285201 
1.9399999999998028, -0.360210218747143 
1.9499999999998017, -0.3601483260192321 
1.9599999999998006, -0.35998605091260044 
1.9699999999997995, -0.3597162981615169 
1.9799999999997984, -0.35933233771382234 
1.9899999999997973, -0.35881970356077053 
1.9999999999997962, -0.35814719048836346 
2.0099999999998173, -0.3572535407504729 
2.0199999999998384, -0.35602368838513443 
2.0299999999998595, -0.35424531568121875 
2.0399999999998806, -0.35153809808426095 
2.0499999999999017, -0.3472766994806326 
2.059999999999923, -0.3406291608154676 
2.069999999999944, -0.33096594562925397 
2.079999999999965, -0.31865912002036345 
2.089999999999986, -0.30541612548749075 
2.100000000000007, -0.29332676149391446 
2.1100000000000283, -0.2836153433633416 
2.1200000000000494, -0.2764182239543496 
2.1300000000000705, -0.2712953334583725 
2.1400000000000916, -0.2676976177073558 
2.1500000000001127, -0.26516861972280314 
2.160000000000134, -0.2633815484626461 
2.170000000000155, -0.2621187280659488 
2.180000000000176, -0.2612424515646821 
2.190000000000197, -0.26067207256570074 
2.2000000000002182, -0.2603695784113335 
2.2100000000002393, -0.26033279513663043 
2.2200000000002604, -0.2605954736166326 
2.2300000000002815, -0.2612345420989154 
2.2400000000003026, -0.262386101101341 
2.2500000000003237, -0.26427277143805294 
2.260000000000345, -0.2672440352028306 
2.270000000000366, -0.2718222229944318 
2.280000000000387, -0.2787138726041592 
2.290000000000408, -0.28866555105845 
2.3000000000004293, -0.3019541556590093 
2.3100000000004504, -0.31752409336303883 
2.3200000000004715, -0.33270992938142635 
2.3300000000004926, -0.344730545388184 
2.3400000000005137, -0.35262644700367707 
2.3500000000005348, -0.3572113909184176 
2.360000000000556, -0.3597510424196587 
2.370000000000577, -0.3611753652114437 
2.380000000000598, -0.3620057887142424 
2.390000000000619, -0.36250475109863367 
2.4000000000006403, -0.3628013409890999 
2.4100000000006614, -0.36296017946366 
2.4200000000006825, -0.36301429367289234 
2.4300000000007036, -0.3629805539404682 
2.4400000000007247, -0.36286783242874343 
2.450000000000746, -0.36268282773558647 
2.460000000000767, -0.3624356820424483 
2.470000000000788, -0.3621454274609287 
2.480000000000809, -0.3618433455803249 
2.49000000000083, -0.36157143347769694 
2.5000000000008513, -0.3613747235017267 
2.5100000000008724, -0.36128953901673466 
2.5200000000008935, -0.36133198219945184 
2.5300000000009146, -0.36149071728927773 
2.5400000000009357, -0.36172707009135874 
2.550000000000957, -0.3619840319629324 
2.560000000000978, -0.3622019209399182 
2.570000000000999, -0.3623334743472661 
2.58000000000102, -0.3623508209734514 
2.5900000000010412, -0.36224261087272513 
2.6000000000010624, -0.3620053326185379 
2.6100000000010835, -0.36163348863659517 
2.6200000000011046, -0.3611103016315458 
2.6300000000011257, -0.3603973892825617 
2.6400000000011468, -0.3594194807081874 
2.650000000001168, -0.3580383015523808 
2.660000000001189, -0.35600935894498137 
2.67000000000121, -0.3529248572016733 
2.680000000001231, -0.34818852360113256 
2.6900000000012523, -0.34116041479892617 
2.7000000000012734, -0.3316270493029486 
2.7100000000012945, -0.3203582735071107 
2.7200000000013156, -0.30897734976352653 
2.7300000000013367, -0.2990065054240294 
2.740000000001358, -0.2911356443038594 
2.750000000001379, -0.2852985713453591 
2.7600000000014, -0.28109450709676687 
2.770000000001421, -0.2780905352228178 
2.780000000001442, -0.27593816705042307 
2.7900000000014633, -0.2743891595208139 
2.8000000000014844, -0.27327819377418927 
2.8100000000015055, -0.27250180033695437 
2.8200000000015266, -0.27200239652567815 
2.8300000000015477, -0.271758889785699 
2.840000000001569, -0.27178356915221613 
2.85000000000159, -0.2721252915766561 
2.860000000001611, -0.2728799562486984 
2.870000000001632, -0.27421047051133507 
2.8800000000016532, -0.276379126664552 
2.8900000000016743, -0.27979288812802194 
2.9000000000016954, -0.28504804102411124 
2.9100000000017165, -0.2929147301888732 
2.9200000000017377, -0.3041040384064787 
2.9300000000017588, -0.31860603488750205 
2.94000000000178, -0.33481353408240827 
2.950000000001801, -0.34969280383470125 
2.960000000001822, -0.3607625584788331 
2.970000000001843, -0.36768158378285526 
2.9800000000018643, -0.37158657100087794 
2.9900000000018854, -0.3737366086176711 
3.0000000000019065, -0.37495569987937255 
3.0100000000019276, -0.3756797069066368 
3.0200000000019487, -0.3761218281420463 
3.03000000000197, -0.37638587480911057 
3.040000000001991, -0.37652376546468325 
3.050000000002012, -0.37656192628384766 
3.060000000002033, -0.37651355635431644 
3.070000000002054, -0.3763853682319673 
3.0800000000020753, -0.376182885666965 
3.0900000000020964, -0.37591594576358184 
3.1000000000021175, -0.3756040642636723 
3.1100000000021386, -0.375279408275798 
3.1200000000021597, -0.37498446226127424 
3.130000000002181, -0.3747634613929018 
3.140000000002202, -0.37465025727445167 
3.150000000002223, -0.3746573116618067 
3.160000000002244, -0.37476988818687756 
3.1700000000022652, -0.3749480201791605 
3.1800000000022863, -0.3751368225343189 
3.1900000000023074, -0.37528176021211784 
3.2000000000023285, -0.3753416445250633 
3.2100000000023496, -0.37529328532345246 
3.2200000000023707, -0.37512755050680724 
3.230000000002392, -0.3748410152215549 
3.240000000002413, -0.3744270874046669 
3.250000000002434, -0.37386754220402774 
3.260000000002455, -0.3731225181489091 
3.2700000000024763, -0.37211466586647934 
3.2800000000024974, -0.3707004931011152 
3.2900000000025185, -0.36861985950784926 
3.3000000000025396, -0.3654219910490026 
3.3100000000025607, -0.36041268157392564 
3.3200000000025818, -0.35278739923606534 
3.330000000002603, -0.34218096296841743 
3.340000000002624, -0.3294097206381578 
3.350000000002645, -0.3164039029012723 
3.360000000002666, -0.3050276829175397 
3.3700000000026873, -0.29612437991353396 
3.3800000000027084, -0.28960334954320754 
3.3900000000027295, -0.28497294415828955 
3.4000000000027506, -0.2817137931045478 
3.4100000000027717, -0.2794152044341466 
3.420000000002793, -0.2777886885720866 
3.430000000002814, -0.27664377292118597 
3.440000000002835, -0.2758611370597527 
3.450000000002856, -0.2753726949301656 
3.460000000002877, -0.2751495650951776 
3.4700000000028983, -0.2751970031600573 
3.4800000000029194, -0.2755557194483247 
3.4900000000029405, -0.2763099765924931 
3.5000000000029616, -0.277603913109835 
3.5100000000029827, -0.27966802345593644 
3.520000000003004, -0.2828554959317931 
3.530000000003025, -0.28767662834396945 
3.540000000003046, -0.29478395079631914 
3.550000000003067, -0.3047875898309792 
3.5600000000030882, -0.31773944933807385 
3.5700000000031094, -0.3324250435968791 
3.5800000000031305, -0.34637888297248554 
3.5900000000031516, -0.35733216721527805 
3.6000000000031727, -0.36464326715411566 
3.6100000000031938, -0.369049320217101 
3.620000000003215, -0.3716034164621621 
3.630000000003236, -0.3730904956419667 
3.640000000003257, -0.3739721740001318 
3.650000000003278, -0.37449600217275986 
3.6600000000032993, -0.37479179163189763 
3.6700000000033204, -0.37492771557856663 
3.6800000000033415, -0.37493908606746784 
3.6900000000033626, -0.37484310199975124 
3.7000000000033837, -0.3746475777995354 
3.710000000003405, -0.37435795249648374 
3.720000000003426, -0.37398441640703783 
3.730000000003447, -0.37354858368740673 
3.740000000003468, -0.37308679362598796 
3.750000000003489, -0.37264666706072075 
3.7600000000035103, -0.3722765944230626 
3.7700000000035314, -0.3720123412249162 
3.7800000000035525, -0.37186656601881524 
3.7900000000035736, -0.3718250006525055 
3.8000000000035947, -0.3718504070336671 
3.810000000003616, -0.3718932965913541 
3.820000000003637, -0.3719055493343955 
3.830000000003658, -0.3718509259006909 
3.840000000003679, -0.3717082468624485 
3.8500000000037002, -0.3714677186577327 
3.8600000000037213, -0.3711239224267351 
3.8700000000037424, -0.37066837755083387 
3.8800000000037635, -0.3700821203746174 
3.8900000000037847, -0.3693262544211573 
3.9000000000038058, -0.36832591236439777 
3.910000000003827, -0.3669394425745747 
3.920000000003848, -0.36490022973771097 
3.930000000003869, -0.36172268664204654 
3.94000000000389, -0.3566135258510404 
3.9500000000039113, -0.348584078431929 
3.9600000000039324, -0.3370914364419991 
3.9700000000039535, -0.32300504520681256 
3.9800000000039746, -0.3085998255615602 
3.9900000000039957, -0.2960888719213485 
4.000000000004016, -0.2864308005116605 
4.010000000003993, -0.2794704431508114 
4.02000000000397, -0.27460792141182927 
4.030000000003946, -0.2712381538747203 
4.040000000003923, -0.2688964581682077 
4.0500000000039, -0.2672634202841179 
4.0600000000038765, -0.26613152186121 
4.070000000003853, -0.26537215930297464 
4.08000000000383, -0.26491220261912296 
4.090000000003807, -0.26472005088602313 
4.100000000003783, -0.26479955347626916 
4.11000000000376, -0.2651908093917096 
4.120000000003737, -0.2659780101688473 
4.130000000003713, -0.2673056164618383 
4.14000000000369, -0.2694045902236779 
4.150000000003667, -0.27262787533236255 
4.1600000000036434, -0.2774819912237995 
4.17000000000362, -0.2846044674473384 
4.180000000003597, -0.29456410526341364 
4.1900000000035735, -0.30733406582507394 
4.20000000000355, -0.3216224038439396 
4.210000000003527, -0.3349946190735232 
4.220000000003504, -0.3453493820962475 
4.23000000000348, -0.35219844912379544 
4.240000000003457, -0.35630925843710287 
4.250000000003434, -0.35868955530465824 
4.26000000000341, -0.3600738402588036 
4.270000000003387, -0.360891328749908 
4.280000000003364, -0.3613722576739301 
4.2900000000033405, -0.3616375847679648 
4.300000000003317, -0.3617508661995942 
4.310000000003294, -0.36174501780299306 
4.320000000003271, -0.3616362916434069 
4.330000000003247, -0.36143286035797145 
4.340000000003224, -0.3611419181783442 
4.350000000003201, -0.36077673929363785 
4.360000000003177, -0.3603626973464406 
4.370000000003154, -0.35993920513441163 
4.380000000003131, -0.35955476550876153 
4.390000000003107, -0.3592557577271487 
4.400000000003084, -0.35907348445653886 
4.410000000003061, -0.35901468888333327 
4.4200000000030375, -0.35905869143228675 
4.430000000003014, -0.3591623145501608 
4.440000000002991, -0.35927171983802403 
4.450000000002968, -0.35933681648368215 
4.460000000002944, -0.3593215849879403 
4.470000000002921, -0.3592061521856538 
4.480000000002898, -0.35898177238541 
4.490000000002874, -0.3586427139718414 
4.500000000002851, -0.35817787905765003 
4.510000000002828, -0.3575621325950963 
4.520000000002804, -0.3567446870361121 
4.530000000002781, -0.3556293942758982 
4.540000000002758, -0.35403893300673206 
4.5500000000027345, -0.3516544778720304 
4.560000000002711, -0.34793977496202266 
4.570000000002688, -0.3421317195982033 
4.580000000002665, -0.33351346403125415 
4.590000000002641, -0.3221119831026627 
4.600000000002618, -0.3092516350926674 
4.610000000002595, -0.2969767780568813 
4.620000000002571, -0.2867758311451705 
4.630000000002548, -0.2790508686176262 
4.640000000002525, -0.2734876451382636 
4.6500000000025015, -0.2695596867818368 
4.660000000002478, -0.26679223835896965 
4.670000000002455, -0.26483276489492963 
4.6800000000024315, -0.2634415602079663 
4.690000000002408, -0.26246428761554863 
4.700000000002385, -0.26180788102867775 
4.710000000002362, -0.26142439505444504 
4.720000000002338, -0.26130252540612603 
4.730000000002315, -0.26146600609533405 
4.740000000002292, -0.2619789235183735 
4.750000000002268, -0.2629592323409607 
4.760000000002245, -0.26460297300187713 
4.770000000002222, -0.26722167796599583 
4.7800000000021985, -0.27128984923625865 
4.790000000002175, -0.27747548116402276 
4.800000000002152, -0.28655990451011315 
4.810000000002129, -0.29904775981911824 
4.820000000002105, -0.31434354028344946 
4.830000000002082, -0.33013068751794405 
4.840000000002059, -0.34336454660835636 
4.850000000002035, -0.3524430083917812 
4.860000000002012, -0.3578241020190175 
