t, s[1].omega / s[0].omega 
0, -0.43998554774449045 
0.009999999999999995, -0.4386287434802799 
0.019999999999999934, -0.43745597899854305 
0.029999999999999874, -0.4364562966891475 
0.04000000000000012, -0.4355999427513731 
0.050000000000000405, -0.43485302988095864 
0.06000000000000069, -0.4341872358904972 
0.07000000000000098, -0.4335845994178408 
0.08000000000000126, -0.43303920103008703 
0.09000000000000155, -0.4325580297647205 
0.10000000000000184, -0.43216308742313175 
0.11000000000000212, -0.4318964044623746 
0.12000000000000241, -0.4318296369247857 
0.130000000000002, -0.432080420095335 
0.1400000000000009, -0.43283837544853654 
0.1499999999999998, -0.43440343019136296 
0.1599999999999987, -0.4372341951559173 
0.1699999999999976, -0.4419845986478867 
0.1799999999999965, -0.4494542221811704 
0.1899999999999954, -0.46029023935583124 
0.1999999999999943, -0.47429494276580986 
0.2099999999999932, -0.48970080176704106 
0.2199999999999921, -0.503601302802386 
0.229999999999991, -0.5138625234406775 
0.2399999999999899, -0.5203596566778586 
0.2499999999999888, -0.5242052088056908 
0.2599999999999877, -0.5265228027055608 
0.2699999999999866, -0.52800512725692 
0.2799999999999855, -0.5290014214612256 
0.2899999999999844, -0.5296808708837504 
0.2999999999999833, -0.5301309746635015 
0.3099999999999822, -0.5304011706535192 
0.3199999999999811, -0.5305197800654703 
0.32999999999998, -0.5305003459096898 
0.3399999999999789, -0.5303443559755057 
0.3499999999999778, -0.530043535551896 
0.35999999999997667, -0.5295838669590717 
0.36999999999997557, -0.5289530912191738 
0.37999999999997447, -0.5281517967266087 
0.38999999999997337, -0.5272043017130439 
0.39999999999997227, -0.5261617427444252 
0.40999999999997117, -0.5250918473757177 
0.41999999999997006, -0.5240592050540359 
0.42999999999996896, -0.5231075372540523 
0.43999999999996786, -0.5222529860717429 
0.44999999999996676, -0.5214888095725834 
0.45999999999996566, -0.5207960671493309 
0.46999999999996456, -0.5201544207036154 
0.47999999999996346, -0.5195496231287008 
0.48999999999996235, -0.5189772154902056 
0.49999999999996125, -0.5184440008951148 
0.5099999999999602, -0.5179694659858886 
0.519999999999959, -0.5175889305753811 
0.529999999999958, -0.517359667301524 
0.5399999999999568, -0.5173710325372952 
0.5499999999999557, -0.5177597587651572 
0.5599999999999546, -0.5187315582811012 
0.5699999999999535, -0.5205890796598187 
0.5799999999999524, -0.5237616339341972 
0.5899999999999513, -0.5288187917395007 
0.5999999999999502, -0.5364205925535136 
0.6099999999999491, -0.5471160300895145 
0.619999999999948, -0.5609133335719007 
0.6299999999999469, -0.5767725409077554 
0.6399999999999458, -0.5925983756276733 
0.6499999999999447, -0.6061839696647928 
0.6599999999999436, -0.6163810225080621 
0.6699999999999425, -0.6233185043880054 
0.6799999999999414, -0.6277697464619538 
0.6899999999999403, -0.630540921189631 
0.6999999999999392, -0.6322316836837509 
0.7099999999999381, -0.6332294767437505 
0.719999999999937, -0.6337684365049758 
0.7299999999999359, -0.6339826606350198 
0.7399999999999348, -0.6339403999954597 
0.7499999999999337, -0.6336623374040642 
0.7599999999999326, -0.633129027545664 
0.7699999999999315, -0.632282060607443 
0.7799999999999304, -0.6310247457099928 
0.7899999999999293, -0.6292321725374675 
0.7999999999999282, -0.6267843856615798 
0.8099999999999271, -0.6236289822030636 
0.819999999999926, -0.6198490788812958 
0.8299999999999249, -0.6156799742613658 
0.8399999999999238, -0.6114404809328088 
0.8499999999999227, -0.6074224339673923 
0.8599999999999216, -0.6038166420392111 
0.8699999999999205, -0.6007049525254174 
0.8799999999999194, -0.5980924996190434 
0.8899999999999183, -0.5959454285772642 
0.8999999999999172, -0.5942173096833753 
0.9099999999999161, -0.5928627175591731 
0.919999999999915, -0.5918421186792073 
0.9299999999999139, -0.5911223701032695 
0.9399999999999128, -0.5906757149443258 
0.9499999999999117, -0.5904788208042847 
0.9599999999999106, -0.5905125040563873 
0.9699999999999095, -0.5907622477130497 
0.9799999999999084, -0.5912193173168501 
0.9899999999999073, -0.5918820682244771 
0.9999999999999062, -0.5927567588307894 
1.0099999999999052, -0.5938566927811302 
1.019999999999904, -0.5951978440818194 
1.029999999999903, -0.5967887776650997 
1.039999999999902, -0.5986139105151989 
1.0499999999999008, -0.6006136916071949 
1.0599999999998997, -0.602673120315875 
1.0699999999998986, -0.6046346408812894 
1.0799999999998975, -0.6063403202135365 
1.0899999999998964, -0.6076820178828888 
1.0999999999998953, -0.6086258861826715 
1.1099999999998942, -0.6091994548372099 
1.119999999999893, -0.6094592832341383 
1.129999999999892, -0.6094620653800543 
1.1399999999998909, -0.6092481646583893 
1.1499999999998898, -0.6088347961464265 
1.1599999999998887, -0.60821290091357 
1.1699999999998876, -0.6073428212804922 
1.1799999999998865, -0.6061448869810031 
1.1899999999998854, -0.6044802280575072 
1.1999999999998843, -0.6021142969980189 
1.2099999999998832, -0.5986534867888836 
1.219999999999882, -0.593459671245671 
1.229999999999881, -0.5856243567869489 
1.2399999999998799, -0.5742503025369358 
1.2499999999998788, -0.5592690909950944 
1.2599999999998777, -0.5422396062723529 
1.2699999999998766, -0.5258497777700849 
1.2799999999998755, -0.5122902885513236 
1.2899999999998744, -0.5023077514735919 
1.2999999999998733, -0.4955283696856997 
1.3099999999998722, -0.4911651886974882 
1.319999999999871, -0.48846205334991205 
1.32999999999987, -0.4868413133868391 
1.3399999999998689, -0.48590493834727894 
1.3499999999998678, -0.48539253727151827 
1.3599999999998666, -0.4851384475603151 
1.3699999999998655, -0.48503903307719315 
1.3799999999998644, -0.48503041351709186 
1.3899999999998633, -0.48507428894187 
1.3999999999998622, -0.4851496040611698 
1.4099999999998611, -0.4852483358900715 
1.41999999999986, -0.4853739138120253 
1.429999999999859, -0.48554049913755354 
1.4399999999998578, -0.48577087929923746 
1.4499999999998567, -0.4860908741569977 
1.4599999999998556, -0.48651959760733626 
1.4699999999998545, -0.48705749249417823 
1.4799999999998534, -0.4876768802353425 
1.4899999999998523, -0.48832140036829064 
1.4999999999998512, -0.4889183582589453 
1.5099999999998501, -0.48939997686117076 
1.519999999999849, -0.4897216358613563 
1.529999999999848, -0.48986701726179926 
1.5399999999998468, -0.4898404955789844 
1.5499999999998457, -0.4896544910440433 
1.5599999999998446, -0.4893184071961082 
1.5699999999998435, -0.48883092365727804 
1.5799999999998424, -0.4881739054665795 
1.5899999999998413, -0.4873046042323569 
1.5999999999998402, -0.4861413665798196 
1.6099999999998391, -0.4845348947894103 
1.619999999999838, -0.482211890631543 
1.629999999999837, -0.47867795367153276 
1.6399999999998358, -0.47310617973627567 
1.6499999999998347, -0.46438824297625025 
1.6599999999998336, -0.4517199088500178 
1.6699999999998325, -0.4357071869449548 
1.6799999999998314, -0.4187229327310985 
1.6899999999998303, -0.4035068479561522 
1.6999999999998292, -0.39155008850971135 
1.709999999999828, -0.38292033030117734 
1.719999999999827, -0.3769786848438964 
1.729999999999826, -0.37297971128670376 
1.7399999999998248, -0.37031618941237554 
1.7499999999998237, -0.3685563494669882 
1.7599999999998226, -0.3674113344318185 
1.7699999999998215, -0.366693813050183 
1.7799999999998204, -0.3662853169595951 
1.7899999999998193, -0.3661141115979038 
1.7999999999998182, -0.3661414561073031 
1.809999999999817, -0.3663539143031454 
1.819999999999816, -0.3667599841658333 
1.8299999999998149, -0.3673897748848988 
1.8399999999998138, -0.3682964431227275 
1.8499999999998127, -0.3695573525051249 
1.8599999999998116, -0.37127109982494827 
1.8699999999998105, -0.37354342088641207 
1.8799999999998094, -0.37645192795708676 
1.8899999999998083, -0.3799836157233327 
1.8999999999998072, -0.38396384836943126 
1.909999999999806, -0.38803913083125374 
1.919999999999805, -0.39177769029619947 
1.9299999999998039, -0.3948474822362336 
1.9399999999998028, -0.3971281713194184 
1.9499999999998017, -0.39868286503744377 
1.9599999999998006, -0.3996575554383689 
1.9699999999997995, -0.4001990636504663 
1.9799999999997984, -0.4004183747498365 
1.9899999999997973, -0.4003838398888413 
1.9999999999997962, -0.4001251662622035 
2.0099999999998173, -0.3996383223954809 
2.0199999999998384, -0.3988891877511304 
2.0299999999998595, -0.397818864972598 
2.0399999999998806, -0.396357616625771 
2.0499999999999017, -0.3944553887308271 
2.059999999999923, -0.3921272666085994 
2.069999999999944, -0.38948880215382997 
2.079999999999965, -0.3867425951252727 
2.089999999999986, -0.38410976802613644 
2.100000000000007, -0.3817539344330212 
2.1100000000000283, -0.37974845663761436 
2.1200000000000494, -0.3780906650596718 
2.1300000000000705, -0.3767350691185841 
2.1400000000000916, -0.3756225462067905 
2.1500000000001127, -0.37469832024193417 
2.160000000000134, -0.37392043185742935 
2.170000000000155, -0.3732625056434803 
2.180000000000176, -0.372714185391701 
2.190000000000197, -0.3722817509236546 
2.2000000000002182, -0.3719907647990392 
2.2100000000002393, -0.37189236724297603 
2.2200000000002604, -0.3720751587514105 
2.2300000000002815, -0.37268540099529124 
2.2400000000003026, -0.37395895716323396 
2.2500000000003237, -0.3762667912247909 
2.260000000000345, -0.3801649111790896 
2.270000000000366, -0.38640165795251386 
2.280000000000387, -0.3957461241451558 
2.290000000000408, -0.4084126010509511 
2.3000000000004293, -0.42312761828062256 
2.3100000000004504, -0.4369247841958536 
2.3200000000004715, -0.44695510977740416 
2.3300000000004926, -0.4526378290601806 
2.3400000000005137, -0.4553141710272023 
2.3500000000005348, -0.456517458315834 
2.360000000000556, -0.45714785706021577 
2.370000000000577, -0.4575729845342683 
2.380000000000598, -0.45790529434679283 
2.390000000000619, -0.45816821085937054 
2.4000000000006403, -0.4583623035758565 
2.4100000000006614, -0.4584848933171769 
2.4200000000006825, -0.45853350117747277 
2.4300000000007036, -0.45850526871640096 
2.4400000000007247, -0.45839649976955377 
2.450000000000746, -0.45820379273163503 
2.460000000000767, -0.45792731016858906 
2.470000000000788, -0.4575757378158528 
2.480000000000809, -0.45717077561316166 
2.49000000000083, -0.45674752673120045 
2.5000000000008513, -0.4563481149168046 
2.5100000000008724, -0.4560098904633786 
2.5200000000008935, -0.4557535038975272 
2.5300000000009146, -0.45557638138317735 
2.5400000000009357, -0.455454250369972 
2.550000000000957, -0.455349852398194 
2.560000000000978, -0.4552249201747583 
2.570000000000999, -0.4550499899988048 
2.58000000000102, -0.45480834600113945 
2.5900000000010412, -0.45449437510968493 
2.6000000000010624, -0.4541093950682796 
2.6100000000010835, -0.4536579781619339 
2.6200000000011046, -0.4531462927351261 
2.6300000000011257, -0.4525827348775082 
2.6400000000011468, -0.4519804441096082 
2.650000000001168, -0.4513602086236255 
2.660000000001189, -0.4507484340267648 
2.67000000000121, -0.4501535257838197 
2.680000000001231, -0.44947920870960667 
2.6900000000012523, -0.4483084023246815 
2.7000000000012734, -0.44557587994624476 
2.7100000000012945, -0.43957066676190176 
2.7200000000013156, -0.42910749130219966 
2.7300000000013367, -0.41530295117554106 
2.740000000001358, -0.40125797260638024 
2.750000000001379, -0.3895988432253243 
2.7600000000014, -0.3811525197437272 
2.770000000001421, -0.37550387372631866 
2.780000000001442, -0.37188395362963156 
2.7900000000014633, -0.3696157192778233 
2.8000000000014844, -0.3682164560666373 
2.8100000000015055, -0.36737091621713047 
2.8200000000015266, -0.3668813768321027 
2.8300000000015477, -0.3666267456204839 
2.840000000001569, -0.36653501484352097 
2.85000000000159, -0.3665663150131701 
2.860000000001611, -0.36670329604967794 
2.870000000001632, -0.36694639138374263 
2.8800000000016532, -0.3673121803692397 
2.8900000000016743, -0.3678331964044547 
2.9000000000016954, -0.3685571399514472 
2.9100000000017165, -0.36954271320408877 
2.9200000000017377, -0.37084847579998953 
2.9300000000017588, -0.372511115882182 
2.94000000000178, -0.37451326275821056 
2.950000000001801, -0.37675275550469783 
2.960000000001822, -0.37904091855717004 
2.970000000001843, -0.3811524657528764 
2.9800000000018643, -0.3829066226783459 
2.9900000000018854, -0.3842212575902849 
3.0000000000019065, -0.38510719867310456 
3.0100000000019276, -0.38562520933030375 
3.0200000000019487, -0.3858438525855314 
3.03000000000197, -0.3858149812388602 
3.040000000001991, -0.3855636911344744 
3.050000000002012, -0.38508446485055475 
3.060000000002033, -0.3843379642555946 
3.070000000002054, -0.3832474635447515 
3.0800000000020753, -0.3816996976637128 
3.0900000000020964, -0.3795627502600614 
3.1000000000021175, -0.37673803177416954 
3.1100000000021386, -0.3732455607540928 
3.1200000000021597, -0.3692901851067848 
3.130000000002181, -0.3652265705739326 
3.140000000002202, -0.36141921837761837 
3.150000000002223, -0.3581082468400734 
3.160000000002244, -0.35537343375658664 
3.1700000000022652, -0.35317943031567045 
3.1800000000022863, -0.3514386395884542 
3.1900000000023074, -0.35005547570086104 
3.2000000000023285, -0.3489482160420249 
3.2100000000023496, -0.3480564485924898 
3.2200000000023707, -0.3473417871343653 
3.230000000002392, -0.346786691868633 
3.240000000002413, -0.34639414447745415 
3.250000000002434, -0.34618988234375025 
3.260000000002455, -0.3462286709986127 
3.2700000000024763, -0.3466065159581574 
3.2800000000024974, -0.34748159648591886 
3.2900000000025185, -0.34910744434757246 
3.3000000000025396, -0.35188022588487866 
3.3100000000025607, -0.35639056836815247 
3.3200000000025818, -0.3634306289831143 
3.330000000002603, -0.37381391761252103 
3.340000000002624, -0.38777409010493397 
3.350000000002645, -0.4039983746891248 
3.360000000002666, -0.41942284722824247 
3.3700000000026873, -0.43107075281922763 
3.3800000000027084, -0.4382037613701198 
3.3900000000027295, -0.44202039178907687 
3.4000000000027506, -0.4440104561895284 
3.4100000000027717, -0.44512843372447364 
3.420000000002793, -0.44583077902292684 
3.430000000002814, -0.44630780733975267 
3.440000000002835, -0.44663691477961287 
3.450000000002856, -0.4468518336880102 
3.460000000002877, -0.44696877029126963 
3.4700000000028983, -0.44699531986208435 
3.4800000000029194, -0.4469336450392302 
3.4900000000029405, -0.44678255754644447 
3.5000000000029616, -0.44654053619443534 
3.5100000000029827, -0.44621047808398373 
3.520000000003004, -0.44580549126235347 
3.530000000003025, -0.4453529851782004 
3.540000000003046, -0.44489322806487375 
3.550000000003067, -0.44447065670704566 
3.5600000000030882, -0.44412093984462747 
3.5700000000031094, -0.443859880851182 
3.5800000000031305, -0.443679067517276 
3.5900000000031516, -0.4435496997811302 
3.6000000000031727, -0.4434327098325398 
3.6100000000031938, -0.4432906969949076 
3.620000000003215, -0.4430964765240618 
3.630000000003236, -0.44283549349148077 
3.640000000003257, -0.4425032537470649 
3.650000000003278, -0.4421009813621374 
3.6600000000032993, -0.44163212830709453 
3.6700000000033204, -0.44110078863214025 
3.6800000000033415, -0.44051188468149205 
3.6900000000033626, -0.43987210250109754 
3.7000000000033837, -0.43918857479182655 
3.710000000003405, -0.4384562689324131 
3.720000000003426, -0.4376097350656796 
3.730000000003447, -0.43638878484710375 
3.740000000003468, -0.4340712839089794 
3.750000000003489, -0.4292280097188783 
3.7600000000035103, -0.42017958931202193 
3.7700000000035314, -0.40668389489126006 
3.7800000000035525, -0.391109469733222 
3.7900000000035736, -0.37680814575823285 
3.8000000000035947, -0.3657074170227229 
3.810000000003616, -0.35794791082987915 
3.820000000003637, -0.35282239114801334 
3.830000000003658, -0.3495273136839636 
3.840000000003679, -0.3474363106915875 
3.8500000000037002, -0.346123760850433 
3.8600000000037213, -0.3453171504949446 
3.8700000000037424, -0.34484708026660804 
3.8800000000037635, -0.3446108934051721 
3.8900000000037847, -0.3445494098759736 
3.9000000000038058, -0.344633184757399 
3.910000000003827, -0.34485522158527876 
3.920000000003848, -0.3452280114277975 
3.930000000003869, -0.3457832990456126 
3.94000000000389, -0.34657289793810697 
3.9500000000039113, -0.3476681055763206 
3.9600000000039324, -0.34915370518206534 
3.9700000000039535, -0.3511103636677921 
3.9800000000039746, -0.3535786518102238 
3.9900000000039957, -0.3565060905421361 
4.000000000004016, -0.35970359375893757 
4.010000000003993, -0.3628635028634679 
4.02000000000397, -0.36566399586156073 
4.030000000003946, -0.3678955279408716 
4.040000000003923, -0.3695099216005978 
4.0500000000039, -0.3705759378653418 
4.0600000000038765, -0.37120488121360595 
4.070000000003853, -0.3714988048801817 
4.08000000000383, -0.37152923214690947 
4.090000000003807, -0.37133338753150597 
4.100000000003783, -0.3709160634212697 
4.11000000000376, -0.37025195361804353 
4.120000000003737, -0.3692890103294568 
4.130000000003713, -0.3679581324030683 
4.14000000000369, -0.3661975347556056 
4.150000000003667, -0.3639953508465271 
4.1600000000036434, -0.3614339177556914 
4.17000000000362, -0.35869653756936015 
4.180000000003597, -0.3560126092090952 
4.1900000000035735, -0.3535741670179271 
4.20000000000355, -0.35148429036470935 
4.210000000003527, -0.3497589690776426 
4.220000000003504, -0.3483588980773113 
4.23000000000348, -0.3472225317837464 
4.240000000003457, -0.3462882114355367 
4.250000000003434, -0.3455054135819243 
4.26000000000341, -0.34483885421885346 
4.270000000003387, -0.34426905880768033 
4.280000000003364, -0.34379216828088954 
4.2900000000033405, -0.34342102473050634 
4.300000000003317, -0.3431891804346384 
4.310000000003294, -0.34315955599477693 
4.320000000003271, -0.3434400319836098 
4.330000000003247, -0.3442088110815549 
4.340000000003224, -0.3457509427022788 
4.350000000003201, -0.34849732949704404 
4.360000000003177, -0.3530212710033669 
4.370000000003154, -0.35985861688406684 
4.380000000003131, -0.36892302201712457 
4.390000000003107, -0.378582964076848 
4.400000000003084, -0.38566394338869736 
4.410000000003061, -0.3878068416876661 
4.4200000000030375, -0.38574766220971884 
4.430000000003014, -0.38205308361050705 
4.440000000002991, -0.37864750526153385 
4.450000000002968, -0.37618534978515683 
4.460000000002944, -0.374611693227335 
4.470000000002921, -0.3736770909130908 
4.480000000002898, -0.373152212145876 
4.490000000002874, -0.37287502903535114 
4.500000000002851, -0.3727424353775337 
4.510000000002828, -0.37269228955077066 
4.520000000002804, -0.3726888806312653 
4.530000000002781, -0.3727136696898413 
4.540000000002758, -0.37276043481623794 
4.5500000000027345, -0.372833611241076 
4.560000000002711, -0.3729485471318689 
4.570000000002688, -0.37313203007427026 
4.580000000002665, -0.37342098275870994 
4.590000000002641, -0.3738572533304164 
4.600000000002618, -0.374477271626541 
4.610000000002595, -0.37529696209043284 
4.620000000002571, -0.3762952257696782 
4.630000000002548, -0.3774041605322701 
4.640000000002525, -0.3785172049976287 
4.6500000000025015, -0.3795186068924226 
4.660000000002478, -0.3803195069641778 
4.670000000002455, -0.3808775938915486 
4.6800000000024315, -0.38119168266059233 
4.690000000002408, -0.38128182550734724 
4.700000000002385, -0.38116924979029854 
4.710000000002362, -0.380862183565191 
4.720000000002338, -0.38034603011569545 
4.730000000002315, -0.3795736905035671 
4.740000000002292, -0.378452431011696 
4.750000000002268, -0.37682684058237886 
4.760000000002245, -0.37446633190694945 
4.770000000002222, -0.3710854051770492 
4.7800000000021985, -0.36644628830550935 
4.790000000002175, -0.3605602542084551 
4.800000000002152, -0.35385596208555925 
4.810000000002129, -0.34708111472725284 
4.820000000002105, -0.3409461820691314 
4.830000000002082, -0.33583958243347156 
4.840000000002059, -0.33181405854624035 
4.850000000002035, -0.32873015253442006 
4.860000000002012, -0.3263915336274089 
4.870000000001989, -0.32461727065609747 
