t, s[1].omega / s[0].omega 
0, -0.22007739727033124 
0.009999999999999995, -0.22860601476329934 
0.019999999999999934, -0.23798249554466172 
0.029999999999999874, -0.24675327460890198 
0.04000000000000012, -0.2536964500826516 
0.050000000000000405, -0.2584791889875013 
0.06000000000000069, -0.26148377540580514 
0.07000000000000098, -0.2632829987271996 
0.08000000000000126, -0.26433644348526514 
0.09000000000000155, -0.2649380822903681 
0.10000000000000184, -0.26525835278790433 
0.11000000000000212, -0.2653921179150855 
0.12000000000000241, -0.26539128727733835 
0.130000000000002, -0.2652844445924112 
0.1400000000000009, -0.26508922810333957 
0.1499999999999998, -0.26482155077875896 
0.1599999999999987, -0.26450333928182534 
0.1699999999999976, -0.2641680474222028 
0.1799999999999965, -0.26386160961798183 
0.1899999999999954, -0.26363716925986946 
0.1999999999999943, -0.263544749129052 
0.2099999999999932, -0.26361925363204314 
0.2199999999999921, -0.26386982423663913 
0.229999999999991, -0.26427278009605426 
0.2399999999999899, -0.26477170967871205 
0.2499999999999888, -0.26528874487989657 
0.2599999999999877, -0.265745346446639 
0.2699999999999866, -0.26608224621825854 
0.2799999999999855, -0.2662675131851096 
0.2899999999999844, -0.2662909997348545 
0.2999999999999833, -0.26615172839516815 
0.3099999999999822, -0.26584491488057765 
0.3199999999999811, -0.26535088272210106 
0.32999999999998, -0.26462469067615313 
0.3399999999999789, -0.26358487846564016 
0.3499999999999778, -0.2621029979295829 
0.35999999999997667, -0.26000451905946054 
0.36999999999997557, -0.2571061620257907 
0.37999999999997447, -0.2533170161304941 
0.38999999999997337, -0.2487768702513485 
0.39999999999997227, -0.24390257207774696 
0.40999999999997117, -0.23923187763713316 
0.41999999999997006, -0.23517567619448548 
0.42999999999996896, -0.23189690143880162 
0.43999999999996786, -0.22935868320665706 
0.44999999999996676, -0.22743032241884778 
0.45999999999996566, -0.22596518260715892 
0.46999999999996456, -0.22483672353194067 
0.47999999999996346, -0.22394851982874414 
0.48999999999996235, -0.22323312300116283 
0.49999999999996125, -0.2226476861132312 
0.5099999999999602, -0.22216983819784925 
0.519999999999959, -0.22179537352405249 
0.529999999999958, -0.22153861581225764 
0.5399999999999568, -0.22143603467661052 
0.5499999999999557, -0.22155312129278718 
0.5599999999999546, -0.22199188690935118 
0.5699999999999535, -0.222886274996999 
0.5799999999999524, -0.22434171510634301 
0.5899999999999513, -0.22620462553438575 
0.5999999999999502, -0.22749676177907646 
0.6099999999999491, -0.2257500792729858 
0.619999999999948, -0.2178598537041184 
0.6299999999999469, -0.20362908429008275 
0.6399999999999458, -0.18726199594154935 
0.6499999999999447, -0.17324096602909794 
0.6599999999999436, -0.1631233934092209 
0.6699999999999425, -0.15638782485114203 
0.6799999999999414, -0.1520169920084326 
0.6899999999999403, -0.1491762904459285 
0.6999999999999392, -0.14731163575489092 
0.7099999999999381, -0.146083247962206 
0.719999999999937, -0.14529138317956708 
0.7299999999999359, -0.14482561768482177 
0.7399999999999348, -0.14463583322838208 
0.7499999999999337, -0.14471889047535275 
0.7599999999999326, -0.1451173160073114 
0.7699999999999315, -0.14592946118740832 
0.7799999999999304, -0.1473336258836227 
0.7899999999999293, -0.14963102596591268 
0.7999999999999282, -0.15331046982634638 
0.8099999999999271, -0.15911585962290223 
0.819999999999926, -0.16801346720239246 
0.8299999999999249, -0.1807636856798393 
0.8399999999999238, -0.19675543333929119 
0.8499999999999227, -0.21289984992247696 
0.8599999999999216, -0.2251320006994893 
0.8699999999999205, -0.23190949878875772 
0.8799999999999194, -0.23466625309999287 
0.8899999999999183, -0.23543635182828543 
0.8999999999999172, -0.23548232597234287 
0.9099999999999161, -0.23534530630950007 
0.919999999999915, -0.23520460084869507 
0.9299999999999139, -0.23510261677962485 
0.9399999999999128, -0.23504048234468206 
0.9499999999999117, -0.23501179617048903 
0.9599999999999106, -0.23501321108093567 
0.9699999999999095, -0.23504783759464262 
0.9799999999999084, -0.23512723237029257 
0.9899999999999073, -0.2352737681069111 
0.9999999999999062, -0.2355235257920497 
1.0099999999999052, -0.23592891043770386 
1.019999999999904, -0.23655945063125744 
1.029999999999903, -0.23749831879907762 
1.039999999999902, -0.2388303985364304 
1.0499999999999008, -0.24061584087914678 
1.0599999999998997, -0.24284635781002234 
1.0699999999998986, -0.2453995158326944 
1.0799999999998975, -0.24803386429793797 
1.0899999999998964, -0.2504612430668463 
1.0999999999998953, -0.25246140211889934 
1.1099999999998942, -0.2539489398091291 
1.119999999999893, -0.2549540394616982 
1.129999999999892, -0.25556078876663335 
1.1399999999998909, -0.25585617111690095 
1.1499999999998898, -0.25590571385281047 
1.1599999999998887, -0.2557476685647345 
1.1699999999998876, -0.25539528866455424 
1.1799999999998865, -0.2548422477464708 
1.1899999999998854, -0.25407121624091417 
1.1999999999998843, -0.2530679398127507 
1.2099999999998832, -0.2518412775533926 
1.219999999999882, -0.25044227326394675 
1.229999999999881, -0.24896751840281178 
1.2399999999998799, -0.247536958594478 
1.2499999999998788, -0.2462566446546873 
1.2599999999998777, -0.24519037686237483 
1.2699999999998766, -0.24435346484943402 
1.2799999999998755, -0.2437230502301558 
1.2899999999998744, -0.24325355206826127 
1.2999999999998733, -0.24289076461177111 
1.3099999999998722, -0.2425827767561962 
1.319999999999871, -0.2422868448898961 
1.32999999999987, -0.2419715139263226 
1.3399999999998689, -0.24161442337556785 
1.3499999999998678, -0.24119726354318466 
1.3599999999998666, -0.24069900360464005 
1.3699999999998655, -0.24008689077285514 
1.3799999999998644, -0.23930229116977136 
1.3899999999998633, -0.2382351521924285 
1.3999999999998622, -0.23667729433929977 
1.4099999999998611, -0.23424787282737874 
1.41999999999986, -0.23032175830986584 
1.429999999999859, -0.22410994609170784 
1.4399999999998578, -0.21515309065606208 
1.4499999999998567, -0.20409986968771018 
1.4599999999998556, -0.19274767287018907 
1.4699999999998545, -0.1828792316344324 
1.4799999999998534, -0.1752705213977736 
1.4899999999998523, -0.16979140240549445 
1.4999999999998512, -0.1659542335328676 
1.5099999999998501, -0.16327271984763253 
1.519999999999849, -0.16137719897586442 
1.529999999999848, -0.16001593960386143 
1.5399999999998468, -0.15902719406626334 
1.5499999999998457, -0.158312805316693 
1.5599999999998446, -0.15782023350537264 
1.5699999999998435, -0.1575329523756873 
1.5799999999998424, -0.15746838774087482 
1.5899999999998413, -0.1576835728768375 
1.5999999999998402, -0.15829009054749807 
1.6099999999998391, -0.15948051838454888 
1.619999999999838, -0.16156440115587248 
1.629999999999837, -0.16498785965699944 
1.6399999999998358, -0.1702266038077959 
1.6499999999998347, -0.17725494017397075 
1.6599999999998336, -0.18429496145745133 
1.6699999999998325, -0.18704609531817387 
1.6799999999998314, -0.18184915207424898 
1.6899999999998303, -0.17060237640105175 
1.6999999999998292, -0.15861892383534942 
1.709999999999828, -0.14916143276555494 
1.719999999999827, -0.14266134536328381 
1.729999999999826, -0.1384242534571968 
1.7399999999998248, -0.13569362358422535 
1.7499999999998237, -0.13392733277308816 
1.7599999999998226, -0.1327848092433558 
1.7699999999998215, -0.13206456689763219 
1.7799999999998204, -0.1316548025308663 
1.7899999999998193, -0.13150362626407242 
1.7999999999998182, -0.13160463582785317 
1.809999999999817, -0.13199416855726848 
1.819999999999816, -0.13275919305734402 
1.8299999999998149, -0.13405749638565945 
1.8399999999998138, -0.13615389118072568 
1.8499999999998127, -0.1394745924253561 
1.8599999999998116, -0.14466472887588505 
1.8699999999998105, -0.15256847182229216 
1.8799999999998094, -0.1639017080183675 
1.8899999999998083, -0.17833199741392383 
1.8999999999998072, -0.19348990941969807 
1.909999999999806, -0.2058808845763323 
1.919999999999805, -0.21368931432424182 
1.9299999999998039, -0.21765202817337626 
1.9399999999998028, -0.21938722225391133 
1.9499999999998017, -0.22008670043327677 
1.9599999999998006, -0.22035946003458728 
1.9699999999997995, -0.22046594915768875 
1.9799999999997984, -0.22050825441788535 
1.9899999999997973, -0.22052549927621823 
1.9999999999997962, -0.220534238530229 
2.0099999999998173, -0.22054483139342812 
2.0199999999998384, -0.22056876264769026 
2.0299999999998595, -0.22062311122764547 
2.0399999999998806, -0.22073439477754397 
2.0499999999999017, -0.22094210634749065 
2.059999999999923, -0.2213011658895821 
2.069999999999944, -0.2218818138965561 
2.079999999999965, -0.22276469310654923 
2.089999999999986, -0.22402728869258107 
2.100000000000007, -0.22571653733006056 
2.1100000000000283, -0.22780727023019773 
2.1200000000000494, -0.230165087295891 
2.1300000000000705, -0.2325545080495052 
2.1400000000000916, -0.2347159536479233 
2.1500000000001127, -0.2364666182683257 
2.160000000000134, -0.23774700102506435 
2.170000000000155, -0.2385937024908101 
2.180000000000176, -0.2390835434982556 
2.190000000000197, -0.23929137768525863 
2.2000000000002182, -0.23927106711688925 
2.2100000000002393, -0.2390514778204656 
2.2200000000002604, -0.23863909179734702 
2.2300000000002815, -0.2380238908639543 
2.2400000000003026, -0.23718929987796522 
2.2500000000003237, -0.2361281683087423 
2.260000000000345, -0.23486315501863078 
2.270000000000366, -0.2334615904735783 
2.280000000000387, -0.23203021632861603 
2.290000000000408, -0.23068619367277052 
2.3000000000004293, -0.22952131677076468 
2.3100000000004504, -0.22858145985145023 
2.3200000000004715, -0.22786716404914237 
2.3300000000004926, -0.2273461883677767 
2.3400000000005137, -0.2269681687116106 
2.3500000000005348, -0.22667737735109586 
2.360000000000556, -0.22642257724536452 
2.370000000000577, -0.22616284725244878 
2.380000000000598, -0.22586850799296682 
2.390000000000619, -0.22551774478941047 
2.4000000000006403, -0.22509046223192924 
2.4100000000006614, -0.22456020897735893 
2.4200000000006825, -0.22388309796081624 
2.4300000000007036, -0.22298015754787928 
2.4400000000007247, -0.22170698405600384 
2.450000000000746, -0.21980486855974143 
2.460000000000767, -0.21684355006723047 
2.470000000000788, -0.2122264522617768 
2.480000000000809, -0.20542888530192896 
2.49000000000083, -0.19655136625447572 
2.5000000000008513, -0.1866968337253838 
2.5100000000008724, -0.1774432724417047 
2.5200000000008935, -0.16986116727234904 
2.5300000000009146, -0.16417779701859594 
2.5400000000009357, -0.16010596832797297 
2.550000000000957, -0.15722816839808268 
2.560000000000978, -0.15518243580579158 
2.570000000000999, -0.15370502043788578 
2.58000000000102, -0.15261850157895368 
2.5900000000010412, -0.15180971558346015 
2.6000000000010624, -0.15121164233274054 
2.6100000000010835, -0.15079184480789815 
2.6200000000011046, -0.15054716452408368 
2.6300000000011257, -0.15050435725473071 
2.6400000000011468, -0.15072698586988165 
2.650000000001168, -0.151328915875596 
2.660000000001189, -0.15249128593237643 
2.67000000000121, -0.15446326553735829 
2.680000000001231, -0.1574713777424653 
2.6900000000012523, -0.16133530681657327 
2.7000000000012734, -0.164545373494779 
2.7100000000012945, -0.1635039745017166 
2.7200000000013156, -0.15477822211260722 
2.7300000000013367, -0.13994680517138808 
2.740000000001358, -0.12464409478173614 
2.750000000001379, -0.11267662816996618 
2.7600000000014, -0.1045233643534309 
2.770000000001421, -0.09925043603827877 
2.780000000001442, -0.0958649736434119 
2.7900000000014633, -0.09366777447357912 
2.8000000000014844, -0.09222596184244129 
2.8100000000015055, -0.09128554461623999 
2.8200000000015266, -0.09070492881550815 
2.8300000000015477, -0.09041561002176188 
2.840000000001569, -0.09040311082313299 
2.85000000000159, -0.09070292057424338 
2.860000000001611, -0.09141019900623677 
2.870000000001632, -0.09270616653157637 
2.8800000000016532, -0.09490788126667858 
2.8900000000016743, -0.09854713466880838 
2.9000000000016954, -0.10445736822461298 
2.9100000000017165, -0.11372678415876177 
2.9200000000017377, -0.12706675778582058 
2.9300000000017588, -0.14306365556697886 
2.94000000000178, -0.15687582853985552 
2.950000000001801, -0.1636643466324586 
2.960000000001822, -0.1637202600537669 
2.970000000001843, -0.16074144386209555 
2.9800000000018643, -0.15750151785018743 
2.9900000000018854, -0.15497084695813643 
3.0000000000019065, -0.1532117661386163 
3.0100000000019276, -0.15204436194781462 
3.0200000000019487, -0.15128916905291281 
3.03000000000197, -0.15081926134917373 
3.040000000001991, -0.15055720552662327 
3.050000000002012, -0.15046342881126457 
3.060000000002033, -0.15052790932565688 
3.070000000002054, -0.15076714834880442 
3.0800000000020753, -0.1512264042126775 
3.0900000000020964, -0.15198728096937916 
3.1000000000021175, -0.15318105059565754 
3.1100000000021386, -0.15500714918732766 
3.1200000000021597, -0.15775092865194468 
3.130000000002181, -0.16177784783717136 
3.140000000002202, -0.16744612731335787 
3.150000000002223, -0.17485555555690768 
3.160000000002244, -0.1834726217066682 
3.1700000000022652, -0.19203702784725132 
3.1800000000022863, -0.19918533111131656 
3.1900000000023074, -0.20428314903458866 
3.2000000000023285, -0.20752865107603985 
3.2100000000023496, -0.20946514602804797 
3.2200000000023707, -0.21058548485971929 
3.230000000002392, -0.21121921894614037 
3.240000000002413, -0.21155994886661383 
3.250000000002434, -0.21171584522231038 
3.260000000002455, -0.2117469742427359 
3.2700000000024763, -0.211688080071932 
3.2800000000024974, -0.21156248386686224 
3.2900000000025185, -0.21139160798086082 
3.3000000000025396, -0.21120223072912178 
3.3100000000025607, -0.21103140452158695 
3.3200000000025818, -0.21092767866992057 
3.330000000002603, -0.21094755045779637 
3.340000000002624, -0.21114749116722148 
3.350000000002645, -0.211572587529476 
3.360000000002666, -0.21224222390620473 
3.3700000000026873, -0.21313437516865394 
3.3800000000027084, -0.21417595579959486 
3.3900000000027295, -0.2152519092382589 
3.4000000000027506, -0.21623746503508795 
3.4100000000027717, -0.21703694164707427 
3.420000000002793, -0.21760378483328421 
3.430000000002814, -0.2179338188773967 
3.440000000002835, -0.21804429658475594 
3.450000000002856, -0.21795387792417578 
3.460000000002877, -0.2176696207236824 
3.4700000000028983, -0.2171801135943186 
3.4800000000029194, -0.21645286200293748 
3.4900000000029405, -0.2154368161368701 
3.5000000000029616, -0.21407494541324584 
3.5100000000029827, -0.21233299774734077 
3.520000000003004, -0.21024126331684542 
3.530000000003025, -0.20792389268617292 
3.540000000003046, -0.2055794064070584 
3.550000000003067, -0.2034107550496531 
3.5600000000030882, -0.20155507828695773 
3.5700000000031094, -0.2000599192805133 
3.5800000000031305, -0.19890281012782696 
3.5900000000031516, -0.19802397593688295 
3.6000000000031727, -0.19735199626660424 
3.6100000000031938, -0.19681888145298934 
3.620000000003215, -0.19636750768629269 
3.630000000003236, -0.1959539881307552 
3.640000000003257, -0.19554637599278707 
3.650000000003278, -0.19512082126392852 
3.6600000000032993, -0.19465605233220223 
3.6700000000033204, -0.19412604129440286 
3.6800000000033415, -0.19348875614343594 
3.6900000000033626, -0.19266567753464103 
3.7000000000033837, -0.1915018060050606 
3.710000000003405, -0.18969207180387945 
3.720000000003426, -0.1866769322518506 
3.730000000003447, -0.18160559415951194 
3.740000000003468, -0.17366333783726867 
3.750000000003489, -0.16295582567166372 
3.7600000000035103, -0.15109729349058926 
3.7700000000035314, -0.14026970059077543 
3.7800000000035525, -0.13174184683489581 
3.7900000000035736, -0.1255970679350165 
3.8000000000035947, -0.12134120259153039 
3.810000000003616, -0.11841398857219151 
3.820000000003637, -0.11637774710399444 
3.830000000003658, -0.11493371354973639 
3.840000000003679, -0.11388998723584379 
3.8500000000037002, -0.11312854973730897 
3.8600000000037213, -0.11258207414593928 
3.8700000000037424, -0.1122203445584363 
3.8800000000037635, -0.11204448338311128 
3.8900000000037847, -0.11208789565515132 
3.9000000000038058, -0.11242352185172491 
3.910000000003827, -0.11317574662590771 
3.920000000003848, -0.11452670304568155 
3.930000000003869, -0.11667417795313424 
3.94000000000389, -0.11960768845105607 
3.9500000000039113, -0.12244313049427458 
3.9600000000039324, -0.12240862914298264 
3.9700000000039535, -0.1155172642824989 
3.9800000000039746, -0.10117583395378886 
3.9900000000039957, -0.08444119390858337 
4.000000000004016, -0.0704938751048089 
4.010000000003993, -0.06078492891408808 
4.02000000000397, -0.05450938748937305 
4.030000000003946, -0.050513235616005216 
4.040000000003923, -0.047938396179821076 
4.0500000000039, -0.04624874969796268 
4.0600000000038765, -0.04512971762300542 
4.070000000003853, -0.04440402427572461 
4.08000000000383, -0.043980495938351176 
4.090000000003807, -0.043827858443990265 
4.100000000003783, -0.043966078989443956 
4.11000000000376, -0.04447233597158538 
4.120000000003737, -0.045503037805487846 
4.130000000003713, -0.04733604664276208 
4.14000000000369, -0.050431492938967225 
4.150000000003667, -0.05546514201915374 
4.1600000000036434, -0.06311625256807041 
4.17000000000362, -0.07303056842250102 
4.180000000003597, -0.08174626089012291 
4.1900000000035735, -0.08306816605542974 
4.20000000000355, -0.07503112578887385 
4.210000000003527, -0.06300720266129994 
4.220000000003504, -0.05248517042019056 
4.23000000000348, -0.04507501316672233 
4.240000000003457, -0.04026147740693646 
4.250000000003434, -0.03718862230613467 
4.26000000000341, -0.035213286684497525 
4.270000000003387, -0.03393403304019957 
4.280000000003364, -0.03311814171371473 
4.2900000000033405, -0.032640152650183475 
4.300000000003317, -0.03244570572530756 
4.310000000003294, -0.03253561673334552 
4.320000000003271, -0.0329660299714835 
4.330000000003247, -0.033864899139837715 
4.340000000003224, -0.035469996904876504 
4.350000000003201, -0.038197192567580036 
4.360000000003177, -0.04273818977615406 
4.370000000003154, -0.05011412081853105 
4.380000000003131, -0.061342302487963074 
4.390000000003107, -0.07593875811849124 
4.400000000003084, -0.08957700894065168 
4.410000000003061, -0.09586674319433351 
4.4200000000030375, -0.09367018427431616 
4.430000000003014, -0.08762546137089076 
4.440000000002991, -0.08178027535606638 
4.450000000002968, -0.07744177877183148 
4.460000000002944, -0.07451214240080432 
4.470000000002921, -0.07259129040833057 
4.480000000002898, -0.07134239786162941 
4.490000000002874, -0.07054354283520227 
4.500000000002851, -0.07006401668548977 
4.510000000002828, -0.0698371836446883 
4.520000000002804, -0.06984395182516505 
4.530000000002781, -0.07010739641027189 
4.540000000002758, -0.07069813256430432 
4.5500000000027345, -0.071752209151317 
4.560000000002711, -0.07350621557842782 
4.570000000002688, -0.07635569536697498 
4.580000000002665, -0.08093319238277644 
4.590000000002641, -0.08814751952645586 
4.600000000002618, -0.09895657439477407 
4.610000000002595, -0.11343013792607932 
4.620000000002571, -0.1292825268091024 
4.630000000002548, -0.14229600817594362 
4.640000000002525, -0.14991852553217477 
4.6500000000025015, -0.15303539901582114 
4.660000000002478, -0.1537891009329901 
4.670000000002455, -0.15367008463116216 
4.6800000000024315, -0.1533464176332429 
4.690000000002408, -0.15304382352253354 
4.700000000002385, -0.152816489067339 
4.710000000002362, -0.15266657373848222 
4.720000000002338, -0.15258727305217587 
4.730000000002315, -0.15257680838461807 
4.740000000002292, -0.15264335334218648 
4.750000000002268, -0.1528082506788064 
4.760000000002245, -0.1531100812009989 
4.770000000002222, -0.15361040365525502 
4.7800000000021985, -0.15440114648397896 
4.790000000002175, -0.15561244064469498 
4.800000000002152, -0.15741630466519052 
4.810000000002129, -0.1600131570533752 
4.820000000002105, -0.1635747562214566 
