t, s[1].omega / s[0].omega 
0, -0.8800823640701412 
0.009999999999999995, -0.8892872284460642 
0.019999999999999934, -0.8990330652722929 
0.029999999999999874, -0.9076059441769619 
0.04000000000000012, -0.914187770408966 
0.050000000000000405, -0.9187711582381887 
0.06000000000000069, -0.9217456873372665 
0.07000000000000098, -0.9235655630463138 
0.08000000000000126, -0.9245993783308937 
0.09000000000000155, -0.9250992007638634 
0.10000000000000184, -0.9252157962314662 
0.11000000000000212, -0.9250200237603418 
0.12000000000000241, -0.9245151009744074 
0.130000000000002, -0.9236348044391486 
0.1400000000000009, -0.9222251146001682 
0.1499999999999998, -0.9200076456014497 
0.1599999999999987, -0.9165294641829418 
0.1699999999999976, -0.911127603632556 
0.1799999999999965, -0.902991811550606 
0.1899999999999954, -0.8914737184623729 
0.1999999999999943, -0.8767156101697179 
0.2099999999999932, -0.8602413794542297 
0.2199999999999921, -0.8446966576268331 
0.229999999999991, -0.8325211942908466 
0.2399999999999899, -0.8246998384699122 
0.2499999999999888, -0.8206960328251689 
0.2599999999999877, -0.8192576453446998 
0.2699999999999866, -0.8191848321222615 
0.2799999999999855, -0.8196565252311243 
0.2899999999999844, -0.8202240379822874 
0.2999999999999833, -0.8206866785743931 
0.3099999999999822, -0.8209736339016225 
0.3199999999999811, -0.8210664888561723 
0.32999999999998, -0.8209561159973571 
0.3399999999999789, -0.8206193713119612 
0.3499999999999778, -0.8200045664590826 
0.35999999999997667, -0.8190207107076409 
0.36999999999997557, -0.8175324391080384 
0.37999999999997447, -0.8153706768082504 
0.38999999999997337, -0.8123741028864686 
0.39999999999997227, -0.8084650376538676 
0.40999999999997117, -0.8037273088460279 
0.41999999999997006, -0.7984246582684155 
0.42999999999996896, -0.7929312707251905 
0.43999999999996786, -0.7876209000993595 
0.44999999999996676, -0.7827855477412221 
0.45999999999996566, -0.7786098052100462 
0.46999999999996456, -0.7751815383025387 
0.47999999999996346, -0.7725123680829507 
0.48999999999996235, -0.7705555087857134 
0.49999999999996125, -0.7692208852252179 
0.5099999999999602, -0.7683909709387662 
0.519999999999959, -0.7679382072920262 
0.529999999999958, -0.7677412408140182 
0.5399999999999568, -0.7676961729965135 
0.5499999999999557, -0.7677209940404004 
0.5599999999999546, -0.767754323898641 
0.5699999999999535, -0.7677514199036388 
0.5799999999999524, -0.767680522956923 
0.5899999999999513, -0.7675214200497755 
0.5999999999999502, -0.7672660919706027 
0.6099999999999491, -0.7669191907790021 
0.619999999999948, -0.766495421687794 
0.6299999999999469, -0.7660130953328383 
0.6399999999999458, -0.7654868170495039 
0.6499999999999447, -0.7649237399931017 
0.6599999999999436, -0.7643253500363097 
0.6699999999999425, -0.7636929220210658 
0.6799999999999414, -0.763033142630255 
0.6899999999999403, -0.7623617223428356 
0.6999999999999392, -0.761705027778077 
0.7099999999999381, -0.761100662193907 
0.719999999999937, -0.7605972733711948 
0.7299999999999359, -0.7602528768214551 
0.7399999999999348, -0.7601307843673824 
0.7499999999999337, -0.7602931354079983 
0.7599999999999326, -0.7607934616784421 
0.7699999999999315, -0.7616705608415252 
0.7799999999999304, -0.7629453659155101 
0.7899999999999293, -0.7646206332612115 
0.7999999999999282, -0.766681172272487 
0.8099999999999271, -0.7690912049538808 
0.819999999999926, -0.7717863060690339 
0.8299999999999249, -0.7746612840059283 
0.8399999999999238, -0.7775624898867842 
0.8499999999999227, -0.7802991327464149 
0.8599999999999216, -0.7826825274158866 
0.8699999999999205, -0.7845794172993548 
0.8799999999999194, -0.7859455783306324 
0.8899999999999183, -0.7868180721272677 
0.8999999999999172, -0.7872784125986741 
0.9099999999999161, -0.7874147551379859 
0.919999999999915, -0.7872996977047102 
0.9299999999999139, -0.7869841118052026 
0.9399999999999128, -0.7865015078197158 
0.9499999999999117, -0.785879765728779 
0.9599999999999106, -0.7851619105952461 
0.9699999999999095, -0.784442046838581 
0.9799999999999084, -0.7839244509914811 
0.9899999999999073, -0.7840080383640857 
0.9999999999999062, -0.785375034338651 
1.0099999999999052, -0.789012530607284 
1.019999999999904, -0.7960334615968274 
1.029999999999903, -0.8071722495259765 
1.039999999999902, -0.8220662035622361 
1.0499999999999008, -0.8388919093994558 
1.0599999999998997, -0.8550031030358142 
1.0699999999998986, -0.8682732603455132 
1.0799999999998975, -0.8779344084120826 
1.0899999999998964, -0.8843569888762218 
1.0999999999998953, -0.8883665637743409 
1.1099999999998942, -0.8907530764813023 
1.119999999999893, -0.8920973875297251 
1.129999999999892, -0.8927737089302191 
1.1399999999998909, -0.8930020714204254 
1.1499999999998898, -0.8928962111105143 
1.1599999999998887, -0.8924932503836693 
1.1699999999998876, -0.891765318863716 
1.1799999999998865, -0.8906153895541428 
1.1899999999998854, -0.8888592682224628 
1.1999999999998843, -0.8861981738636684 
1.2099999999998832, -0.8821974450854029 
1.219999999999882, -0.8763132035031894 
1.229999999999881, -0.8680458222489292 
1.2399999999998799, -0.8572958766006415 
1.2499999999998788, -0.8448343527923072 
1.2599999999998777, -0.8324504442625746 
1.2699999999998766, -0.8222810235114524 
1.2799999999998755, -0.8156396401762589 
1.2899999999998744, -0.8124465898551574 
1.2999999999998733, -0.8116848119203715 
1.3099999999998722, -0.8121953659688129 
1.319999999999871, -0.8131402237767622 
1.32999999999987, -0.8140661687892559 
1.3399999999998689, -0.8147885410675884 
1.3499999999998678, -0.8152620841496316 
1.3599999999998666, -0.8154945880647496 
1.3699999999998655, -0.8155005638629994 
1.3799999999998644, -0.815278231222457 
1.3899999999998633, -0.8147961961580057 
1.3999999999998622, -0.813982260294827 
1.4099999999998611, -0.8127128423407808 
1.41999999999986, -0.8108091211903931 
1.429999999999859, -0.8080559833110849 
1.4399999999998578, -0.8042643268705337 
1.4499999999998567, -0.7993758598157107 
1.4599999999998556, -0.7935560814869864 
1.4699999999998545, -0.7871921004019976 
1.4799999999998534, -0.7807768251539035 
1.4899999999998523, -0.7747609493557805 
1.4999999999998512, -0.7694624375975941 
1.5099999999998501, -0.7650507655035161 
1.519999999999849, -0.7615719681440923 
1.529999999999848, -0.7589818446605401 
1.5399999999998468, -0.7571749539675171 
1.5499999999998457, -0.7560096857494949 
1.5599999999998446, -0.7553313433757107 
1.5699999999998435, -0.754992129118092 
1.5799999999998424, -0.7548650242447681 
1.5899999999998413, -0.754849743733107 
1.5999999999998402, -0.7548717169148575 
1.6099999999998391, -0.7548771136661205 
1.619999999999838, -0.7548273538978 
1.629999999999837, -0.7546956736471047 
1.6399999999998358, -0.7544666969824061 
1.6499999999998347, -0.7541378232811635 
1.6599999999998336, -0.7537193717124306 
1.6699999999998325, -0.7532306502558551 
1.6799999999998314, -0.7526923286204477 
1.6899999999998303, -0.7521191770459608 
1.6999999999998292, -0.7515175251364635 
1.709999999999828, -0.7508883657703418 
1.719999999999827, -0.7502333851048728 
1.729999999999826, -0.7495604108379383 
1.7399999999998248, -0.7488866248173849 
1.7499999999998237, -0.7482399529101463 
1.7599999999998226, -0.747659557797448 
1.7699999999998215, -0.7471955549340241 
1.7799999999998204, -0.7469071994474956 
1.7899999999998193, -0.7468587747819394 
1.7999999999998182, -0.7471133611885278 
1.809999999999817, -0.7477259287720246 
1.819999999999816, -0.7487377741463318 
1.8299999999998149, -0.7501735456455485 
1.8399999999998138, -0.752040230678239 
1.8499999999998127, -0.7543255013140917 
1.8599999999998116, -0.7569919280681823 
1.8699999999998105, -0.7599650736187175 
1.8799999999998094, -0.7631187802283005 
1.8899999999998083, -0.7662697015977451 
1.8999999999998072, -0.7691982940980003 
1.909999999999806, -0.7717015120439419 
1.919999999999805, -0.773652783139057 
1.9299999999998039, -0.7750290281590954 
1.9399999999998028, -0.7758897533601817 
1.9499999999998017, -0.776331494776151 
1.9599999999998006, -0.7764488004950516 
1.9699999999997995, -0.7763145410146401 
1.9799999999997984, -0.775976139660692 
1.9899999999997973, -0.7754608559341931 
1.9999999999997962, -0.7747870388760938 
2.0099999999998173, -0.7739835484072546 
2.0199999999998384, -0.7731243699443162 
2.0299999999998595, -0.7723883662585783 
2.0399999999998806, -0.7721497859330789 
2.0499999999999017, -0.7730810746433484 
2.059999999999923, -0.7761904615578791 
2.069999999999944, -0.782635412558486 
2.079999999999965, -0.7931598891907304 
2.089999999999986, -0.8073127447694228 
2.100000000000007, -0.823154228815101 
2.1100000000000283, -0.8380842265109385 
2.1200000000000494, -0.8502115817816078 
2.1300000000000705, -0.8589868727128562 
2.1400000000000916, -0.8648382280667212 
2.1500000000001127, -0.8685286645762635 
2.160000000000134, -0.8707574106291849 
2.170000000000155, -0.8720344555145456 
2.180000000000176, -0.8726902381303013 
2.190000000000197, -0.8729206229845856 
2.2000000000002182, -0.8728262955603983 
2.2100000000002393, -0.8724361651278262 
2.2200000000002604, -0.8717140408769822 
2.2300000000002815, -0.8705486771355178 
2.2400000000003026, -0.8687259447048209 
2.2500000000003237, -0.8658831864154475 
2.260000000000345, -0.8614579132544433 
2.270000000000366, -0.8546806139201774 
2.280000000000387, -0.8447304450160076 
2.290000000000408, -0.8311986782325811 
2.3000000000004293, -0.8147670537448418 
2.3100000000004504, -0.7974759387314604 
2.3200000000004715, -0.7819459910782831 
2.3300000000004926, -0.7700413021159899 
2.3400000000005137, -0.7621950553391418 
2.3500000000005348, -0.7577406604457626 
2.360000000000556, -0.7556126351750722 
2.370000000000577, -0.7548447627041952 
2.380000000000598, -0.7547533712474455 
2.390000000000619, -0.7549258731136942 
2.4000000000006403, -0.7551416056621855 
2.4100000000006614, -0.7552930617880519 
2.4200000000006825, -0.7553290251595884 
2.4300000000007036, -0.7552191117824526 
2.4400000000007247, -0.7549331931365221 
2.450000000000746, -0.7544303136116913 
2.460000000000767, -0.7536552616859499 
2.470000000000788, -0.7525446200524752 
2.480000000000809, -0.7510452082609567 
2.49000000000083, -0.7491423756504905 
2.5000000000008513, -0.7468838912834943 
2.5100000000008724, -0.7443796711827432 
2.5200000000008935, -0.741772351266699 
2.5300000000009146, -0.7391976185130729 
2.5400000000009357, -0.7367584201059704 
2.550000000000957, -0.7345207854028085 
2.560000000000978, -0.7325231138037169 
2.570000000000999, -0.7307877892699961 
2.58000000000102, -0.7293288444680572 
2.5900000000010412, -0.7281545133414794 
2.6000000000010624, -0.7272662205427194 
2.6100000000010835, -0.726656333833299 
2.6200000000011046, -0.726306744308938 
2.6300000000011257, -0.7261895150832465 
2.6400000000011468, -0.7262697495789743 
2.650000000001168, -0.7265098710711888 
2.660000000001189, -0.7268740691488289 
2.67000000000121, -0.7273318377233621 
2.680000000001231, -0.7278599581872068 
2.6900000000012523, -0.7284424927228057 
2.7000000000012734, -0.7290682577005158 
2.7100000000012945, -0.7297254416494657 
2.7200000000013156, -0.7303943635955849 
2.7300000000013367, -0.7310417341498513 
2.740000000001358, -0.7316212044339196 
2.750000000001379, -0.7320826320748 
2.7600000000014, -0.7323862860866113 
2.770000000001421, -0.7325135158078824 
2.780000000001442, -0.7324680410119591 
2.7900000000014633, -0.7322696303888921 
2.8000000000014844, -0.7319466076716005 
2.8100000000015055, -0.7315325611081356 
2.8200000000015266, -0.7310694910730593 
2.8300000000015477, -0.7306177753697041 
2.840000000001569, -0.7302728167632433 
2.85000000000159, -0.7301874587864254 
2.860000000001611, -0.7305967716375937 
2.870000000001632, -0.7318371193602368 
2.8800000000016532, -0.7343452718504201 
2.8900000000016743, -0.7386174993765012 
2.9000000000016954, -0.7451058548704439 
2.9100000000017165, -0.7540367980930504 
2.9200000000017377, -0.7651766492130646 
2.9300000000017588, -0.7776614831763079 
2.94000000000178, -0.7901012226204237 
2.950000000001801, -0.8010604837368527 
2.960000000001822, -0.8096433613338542 
2.970000000001843, -0.8157192608645181 
2.9800000000018643, -0.8196927998997404 
2.9900000000018854, -0.8221340384832777 
3.0000000000019065, -0.8235417186573033 
3.0100000000019276, -0.8242703059028955 
3.0200000000019487, -0.8245421365803292 
3.03000000000197, -0.8244805328617024 
3.040000000001991, -0.8241366405996567 
3.050000000002012, -0.8235033979026142 
3.060000000002033, -0.8225167642526534 
3.070000000002054, -0.8210453847121318 
3.0800000000020753, -0.8188704783687151 
3.0900000000020964, -0.8156616198645725 
3.1000000000021175, -0.8109656547937243 
3.1100000000021386, -0.804250319263392 
3.1200000000021597, -0.795077692410697 
3.130000000002181, -0.7834753657240777 
3.140000000002202, -0.7703830954333014 
3.150000000002223, -0.757670658193599 
3.160000000002244, -0.7473132759569755 
3.1700000000022652, -0.7403246017195168 
3.1800000000022863, -0.7364858344197116 
3.1900000000023074, -0.7348913725683467 
3.2000000000023285, -0.7345833371040233 
3.2100000000023496, -0.7348607622604716 
3.2200000000023707, -0.7353105125317612 
3.230000000002392, -0.7357267732456598 
3.240000000002413, -0.7360225631062205 
3.250000000002434, -0.7361667073198499 
3.260000000002455, -0.7361462598811526 
3.2700000000024763, -0.7359456854189428 
3.2800000000024974, -0.735535334376799 
3.2900000000025185, -0.7348656255751849 
3.3000000000025396, -0.7338677164718721 
3.3100000000025607, -0.732465165983103 
3.3200000000025818, -0.7306007929770967 
3.330000000002603, -0.7282734398726577 
3.340000000002624, -0.7255633951269822 
3.350000000002645, -0.7226224189433601 
3.360000000002666, -0.7196293070363657 
3.3700000000026873, -0.7167408065695413 
3.3800000000027084, -0.7140658966005863 
3.3900000000027295, -0.7116667461131635 
3.4000000000027506, -0.7095729253006107 
3.4100000000027717, -0.7077958022419067 
3.420000000002793, -0.7063373590687484 
3.430000000002814, -0.7051933265519947 
3.440000000002835, -0.704352888467092 
3.450000000002856, -0.7037974697231679 
3.460000000002877, -0.7035004572933969 
3.4700000000028983, -0.7034286915126362 
3.4800000000029194, -0.7035455560390803 
3.4900000000029405, -0.7038148162193628 
3.5000000000029616, -0.7042042028965838 
3.5100000000029827, -0.7046879918974459 
3.520000000003004, -0.7052480998696963 
3.530000000003025, -0.705873180702536 
3.540000000003046, -0.706555022671581 
3.550000000003067, -0.7072819712201985 
3.5600000000030882, -0.7080308804165059 
3.5700000000031094, -0.7087617436737311 
3.5800000000031305, -0.7094202246775911 
3.5900000000031516, -0.7099498228508266 
3.6000000000031727, -0.7103081154599907 
3.6100000000031938, -0.7104772502869665 
3.620000000003215, -0.7104633277333622 
3.630000000003236, -0.710288023511777 
3.640000000003257, -0.7099798549354215 
3.650000000003278, -0.709570382221365 
3.6600000000032993, -0.7090972097502016 
3.6700000000033204, -0.7086142450057014 
3.6800000000033415, -0.7082099821807122 
3.6900000000033626, -0.7080348262272166 
3.7000000000033837, -0.7083368148524034 
3.710000000003405, -0.7094997118024805 
3.720000000003426, -0.7120666084017582 
3.730000000003447, -0.7167151829027477 
3.740000000003468, -0.7241319143716666 
3.750000000003489, -0.7347338149677279 
3.7600000000035103, -0.748265148472424 
3.7700000000035314, -0.7635035463991462 
3.7800000000035525, -0.7784811727455251 
3.7900000000035736, -0.7913175561801592 
3.8000000000035947, -0.80104335448656 
3.810000000003616, -0.8077251653568176 
3.820000000003637, -0.8120036497207993 
3.830000000003658, -0.8146063466404122 
3.840000000003679, -0.816111419376116 
3.8500000000037002, -0.816908091488437 
3.8600000000037213, -0.8172332249073901 
3.8700000000037424, -0.8172160685774491 
3.8800000000037635, -0.8169092042858574 
3.8900000000037847, -0.8163026495918506 
3.9000000000038058, -0.8153220472180982 
3.910000000003827, -0.8138107730413852 
3.920000000003848, -0.8114947508035003 
3.930000000003869, -0.8079329561889159 
3.94000000000389, -0.8024766978573457 
3.9500000000039113, -0.7943127215688067 
3.9600000000039324, -0.7827355036948568 
3.9700000000039535, -0.7677395414001167 
3.9800000000039746, -0.750609362691877 
3.9900000000039957, -0.7337345707051599 
4.000000000004016, -0.719453445864623 
4.010000000003993, -0.7089550070115955 
4.02000000000397, -0.7021465095888921 
4.030000000003946, -0.6982158268501333 
4.040000000003923, -0.696212191108416 
4.0500000000039, -0.6953522164278805 
4.0600000000038765, -0.6950954092287585 
4.070000000003853, -0.6951092435060875 
4.08000000000383, -0.6952053024377328 
4.090000000003807, -0.695282283226829 
4.100000000003783, -0.6952852269987553 
4.11000000000376, -0.695179552041717 
4.120000000003737, -0.6949360297145415 
4.130000000003713, -0.6945239169821424 
4.14000000000369, -0.6939114145553225 
4.150000000003667, -0.6930735245976158 
4.1600000000036434, -0.6920053216484399 
4.17000000000362, -0.6907336348473063 
4.180000000003597, -0.6893173110809105 
4.1900000000035735, -0.6878323686571356 
4.20000000000355, -0.6863503215889832 
4.210000000003527, -0.6849228457818595 
4.220000000003504, -0.6835790777563975 
4.23000000000348, -0.6823323943445968 
4.240000000003457, -0.6811899797244156 
4.250000000003434, -0.6801604125902865 
4.26000000000341, -0.6792577388886839 
4.270000000003387, -0.6785024823581562 
4.280000000003364, -0.6779205583552154 
4.2900000000033405, -0.6775409106878933 
4.300000000003317, -0.6773925726274805 
4.310000000003294, -0.6775019044485017 
4.320000000003271, -0.677890762418571 
4.330000000003247, -0.6785760735225513 
4.340000000003224, -0.6795706765992386 
4.350000000003201, -0.6808844608370062 
4.360000000003177, -0.6825239543378587 
4.370000000003154, -0.6844878289707703 
4.380000000003131, -0.6867559266486744 
4.390000000003107, -0.6892718086363441 
4.400000000003084, -0.6919251422481375 
4.410000000003061, -0.6945488839203476 
4.4200000000030375, -0.6969472417742443 
4.430000000003014, -0.6989512760666103 
4.440000000002991, -0.7004699243860069 
4.450000000002968, -0.7015019112490544 
4.460000000002944, -0.702107589235559 
4.470000000002921, -0.7023682323122198 
4.480000000002898, -0.7023564131767398 
4.490000000002874, -0.7021227199054845 
4.500000000002851, -0.7016934194918073 
4.510000000002828, -0.701073107415972 
4.520000000002804, -0.7002497217406727 
4.530000000002781, -0.6992027740505965 
4.540000000002758, -0.6979183826375961 
4.5500000000027345, -0.6964156862739725 
4.560000000002711, -0.6947841859750562 
4.570000000002688, -0.693211550925211 
4.580000000002665, -0.6919446013798326 
4.590000000002641, -0.6911241289735368 
4.600000000002618, -0.6905926988375022 
4.610000000002595, -0.6900098592073487 
4.620000000002571, -0.6893128315584987 
4.630000000002548, -0.6888566453245503 
4.640000000002525, -0.6889765317857004 
4.6500000000025015, -0.689656334216793 
4.660000000002478, -0.6906378808041267 
4.670000000002455, -0.6916531862811023 
4.6800000000024315, -0.6925343151016847 
4.690000000002408, -0.6932112821880996 
4.700000000002385, -0.6936729674482982 
4.710000000002362, -0.6939319667751909 
4.720000000002338, -0.694002456680751 
4.730000000002315, -0.6938879950053232 
4.740000000002292, -0.6935747232055631 
4.750000000002268, -0.693027500487365 
4.760000000002245, -0.6921895758656536 
4.770000000002222, -0.690989777258276 
4.7800000000021985, -0.6893628315606357 
4.790000000002175, -0.6872833093700705 
4.800000000002152, -0.6847990062943528 
4.810000000002129, -0.6820375053495569 
4.820000000002105, -0.6791727786176573 
4.830000000002082, -0.6763720469254846 
4.840000000002059, -0.6737575102882862 
4.850000000002035, -0.6713981456918188 
4.860000000002012, -0.669322388797949 
4.870000000001989, -0.6675359668575294 
4.880000000001965, -0.6660354113479457 
4.890000000001942, -0.6648150260650361 
4.900000000001919, -0.6638687810761317 
4.9100000000018955, -0.6631894736002188 
4.920000000001872, -0.6627671499239507 
