t, s[1].omega / s[0].omega 
0, -0.6299977170390154 
0.009999999999999995, -0.6297673496269278 
0.019999999999999934, -0.6295282477927557 
0.029999999999999874, -0.6292688995602644 
0.04000000000000012, -0.628976429633713 
0.050000000000000405, -0.6286420788113338 
0.06000000000000069, -0.6282642359184177 
0.07000000000000098, -0.6278489117892196 
0.08000000000000126, -0.6274092697902316 
0.09000000000000155, -0.6269660354110753 
0.10000000000000184, -0.6265499122890292 
0.11000000000000212, -0.6262064210326457 
0.12000000000000241, -0.6260031303683868 
0.130000000000002, -0.6260388427814941 
0.1400000000000009, -0.6264535390231888 
0.1499999999999998, -0.6274363166983654 
0.1599999999999987, -0.629225572448941 
0.1699999999999976, -0.6320907490589602 
0.1799999999999965, -0.6362792786519538 
0.1899999999999954, -0.6419133637367697 
0.1999999999999943, -0.6488474958873077 
0.2099999999999932, -0.6565639754617657 
0.2199999999999921, -0.6642414314256309 
0.229999999999991, -0.6710461939584474 
0.2399999999999899, -0.6764633868730866 
0.2499999999999888, -0.6804084753746162 
0.2599999999999877, -0.6830931527178659 
0.2699999999999866, -0.6848264524956861 
0.2799999999999855, -0.6858880163873258 
0.2899999999999844, -0.6864854180447162 
0.2999999999999833, -0.6867560767008714 
0.3099999999999822, -0.6867818970221223 
0.3199999999999811, -0.6866023590524244 
0.32999999999998, -0.686221933028259 
0.3399999999999789, -0.6856114442468316 
0.3499999999999778, -0.68470423659273 
0.35999999999997667, -0.6833895379016885 
0.36999999999997557, -0.6815095617806971 
0.37999999999997447, -0.6788745387194111 
0.38999999999997337, -0.6753156561570702 
0.39999999999997227, -0.6707816912834481 
0.40999999999997117, -0.6654358912397496 
0.41999999999997006, -0.659665602693067 
0.42999999999996896, -0.6539642881295014 
0.43999999999996786, -0.6487628912355203 
0.44999999999996676, -0.6443249112058312 
0.45999999999996566, -0.6407399998212012 
0.46999999999996456, -0.6379741759648475 
0.47999999999996346, -0.6359272215836207 
0.48999999999996235, -0.634474530389072 
0.49999999999996125, -0.6334915120030828 
0.5099999999999602, -0.6328657790390693 
0.519999999999959, -0.6325021824196569 
0.529999999999958, -0.6323238878220143 
0.5399999999999568, -0.6322712639030988 
0.5499999999999557, -0.6322996507786137 
0.5599999999999546, -0.6323767956784417 
0.5699999999999535, -0.6324805722905487 
0.5799999999999524, -0.6325973378414641 
0.5899999999999513, -0.632720817495105 
0.5999999999999502, -0.6328507941196498 
0.6099999999999491, -0.632990505497297 
0.619999999999948, -0.6331421373463157 
0.6299999999999469, -0.6333013630571541 
0.6399999999999458, -0.6334536070522023 
0.6499999999999447, -0.6335748968594551 
0.6599999999999436, -0.6336378595701295 
0.6699999999999425, -0.6336199037041316 
0.6799999999999414, -0.6335090365545418 
0.6899999999999403, -0.6333048332279524 
0.6999999999999392, -0.6330157149285335 
0.7099999999999381, -0.6326555924339475 
0.719999999999937, -0.6322424072477153 
0.7299999999999359, -0.6317997964699738 
0.7399999999999348, -0.6313623799720804 
0.7499999999999337, -0.6309851323153279 
0.7599999999999326, -0.6307573653710252 
0.7699999999999315, -0.6308211725775638 
0.7799999999999304, -0.6313915938078964 
0.7899999999999293, -0.6327695149888177 
0.7999999999999282, -0.6353268833778474 
0.8099999999999271, -0.6394303428213071 
0.819999999999926, -0.6452731810646648 
0.8299999999999249, -0.6526486458829126 
0.8399999999999238, -0.6608302073719912 
0.8499999999999227, -0.6687704362169664 
0.8599999999999216, -0.675567235641207 
0.8699999999999205, -0.6808113427750642 
0.8799999999999194, -0.6845630680157317 
0.8899999999999183, -0.6871146565409179 
0.8999999999999172, -0.6887878884282057 
0.9099999999999161, -0.6898445696422397 
0.919999999999915, -0.6904710877781575 
0.9299999999999139, -0.6907901891336421 
0.9399999999999128, -0.6908764644571738 
0.9499999999999117, -0.6907679418588717 
0.9599999999999106, -0.6904725075516989 
0.9699999999999095, -0.6899697319880269 
0.9799999999999084, -0.6892094603974467 
0.9899999999999073, -0.6881100308031596 
0.9999999999999062, -0.6865621680733749 
1.0099999999999052, -0.6844484716792512 
1.019999999999904, -0.6816869928058735 
1.029999999999903, -0.6782909091959313 
1.039999999999902, -0.6744082750234768 
1.0499999999999008, -0.6703005713960792 
1.0599999999998997, -0.6662629641997452 
1.0699999999998986, -0.6625394521506757 
1.0799999999998975, -0.6592807078419446 
1.0899999999998964, -0.656548080545497 
1.0999999999998953, -0.6543396926502577 
1.1099999999998942, -0.6526171968178727 
1.119999999999893, -0.6513246698502275 
1.129999999999892, -0.6503997579626751 
1.1399999999998909, -0.6497798718546837 
1.1499999999998898, -0.6494058410099544 
1.1599999999998887, -0.6492243067401302 
1.1699999999998876, -0.6491892843480569 
1.1799999999998865, -0.6492629746255615 
1.1899999999998854, -0.6494159121703076 
1.1999999999998843, -0.6496266474743043 
1.2099999999998832, -0.6498811372471909 
1.219999999999882, -0.6501717406756268 
1.229999999999881, -0.6504952882191822 
1.2399999999998799, -0.6508495245013164 
1.2499999999998788, -0.6512279033110403 
1.2599999999998777, -0.6516143325348789 
1.2699999999998766, -0.6519810050616207 
1.2799999999998755, -0.652292048480456 
1.2899999999998744, -0.6525124492761247 
1.2999999999998733, -0.6526176360518176 
1.3099999999998722, -0.6525983441299789 
1.319999999999871, -0.6524591017773852 
1.32999999999987, -0.652213066325964 
1.3399999999998689, -0.6518772022979499 
1.3499999999998678, -0.651470336262474 
1.3599999999998666, -0.651014946476393 
1.3699999999998655, -0.650542962838344 
1.3799999999998644, -0.6501061117791607 
1.3899999999998633, -0.6497916037783978 
1.3999999999998622, -0.6497432051420013 
1.4099999999998611, -0.6501844805751955 
1.41999999999986, -0.6514331094746375 
1.429999999999859, -0.653881304118433 
1.4399999999998578, -0.6579033423520995 
1.4499999999998567, -0.66366367123666 
1.4599999999998556, -0.6708842028714738 
1.4699999999998545, -0.6787699166834621 
1.4799999999998534, -0.6862805760183341 
1.4899999999998523, -0.6926058199260023 
1.4999999999998512, -0.6974373414885616 
1.5099999999998501, -0.7008820216721043 
1.519999999999849, -0.703226585076574 
1.529999999999848, -0.7047663814762963 
1.5399999999998468, -0.7057372839685145 
1.5499999999998457, -0.7063068202020397 
1.5599999999998446, -0.7065853584843388 
1.5699999999998435, -0.7066393286923174 
1.5799999999998424, -0.7065007952084572 
1.5899999999998413, -0.7061723675714273 
1.5999999999998402, -0.7056278708786095 
1.6099999999998391, -0.7048100492383156 
1.619999999999838, -0.7036283856580732 
1.629999999999837, -0.7019637741821267 
1.6399999999998358, -0.6996909172327964 
1.6499999999998347, -0.6967269700247017 
1.6599999999998336, -0.6930957134360376 
1.6699999999998325, -0.6889665463946 
1.6799999999998314, -0.6846258388676661 
1.6899999999998303, -0.6803888560513963 
1.6999999999998292, -0.6765111246123705 
1.709999999999828, -0.673147087875839 
1.719999999999827, -0.6703563458090995 
1.729999999999826, -0.6681314544067048 
1.7399999999998248, -0.6664257550658798 
1.7499999999998237, -0.6651732079595971 
1.7599999999998226, -0.6643006306561198 
1.7699999999998215, -0.6637350837070357 
1.7799999999998204, -0.6634085555127107 
1.7899999999998193, -0.6632609652741039 
1.7999999999998182, -0.6632418032150266 
1.809999999999817, -0.663310576130994 
1.819999999999816, -0.6634363742272998 
1.8299999999998149, -0.6635970130879738 
1.8399999999998138, -0.6637781090322202 
1.8499999999998127, -0.6639720415800154 
1.8599999999998116, -0.6641762095685841 
1.8699999999998105, -0.6643897952764697 
1.8799999999998094, -0.6646090003596858 
1.8899999999998083, -0.664822347081681 
1.8999999999998072, -0.6650089158106618 
1.909999999999806, -0.6651416358869091 
1.919999999999805, -0.6651946756457513 
1.9299999999998039, -0.6651508900373018 
1.9399999999998028, -0.6650053056699441 
1.9499999999998017, -0.6647638815290218 
1.9599999999998006, -0.6644400003750357 
1.9699999999997995, -0.664051828100168 
1.9799999999997984, -0.6636224995751905 
1.9899999999997973, -0.6631838785301404 
1.9999999999997962, -0.6627841665557415 
2.0099999999998173, -0.6624995455047229 
2.0199999999998384, -0.6624495774771089 
2.0299999999998595, -0.6628144363204755 
2.0399999999998806, -0.6638482834280196 
2.0499999999999017, -0.6658763753001 
2.059999999999923, -0.6692544222540805 
2.069999999999944, -0.6742640560855878 
2.079999999999965, -0.6809384874621563 
2.089999999999986, -0.6888848019772238 
2.100000000000007, -0.6972658664958795 
2.1100000000000283, -0.7050709385022135 
2.1200000000000494, -0.7115391160737489 
2.1300000000000705, -0.7163994184113855 
2.1400000000000916, -0.7197898855073003 
2.1500000000001127, -0.7220295223527173 
2.160000000000134, -0.7234420990251647 
2.170000000000155, -0.724282142898312 
2.180000000000176, -0.7247254142434977 
2.190000000000197, -0.7248825548675012 
2.2000000000002182, -0.7248147798323961 
2.2100000000002393, -0.7245445121276326 
2.2200000000002604, -0.7240596163989366 
2.2300000000002815, -0.7233115581923466 
2.2400000000003026, -0.7222086705458444 
2.2500000000003237, -0.7206081263667553 
2.260000000000345, -0.7183163367760893 
2.270000000000366, -0.7151169752475786 
2.280000000000387, -0.7108482026449929 
2.290000000000408, -0.7055219225395064 
2.3000000000004293, -0.6994139992701798 
2.3100000000004504, -0.6930279846834547 
2.3200000000004715, -0.6869267927054591 
2.3300000000004926, -0.6815499241775118 
2.3400000000005137, -0.6771277470915034 
2.3500000000005348, -0.6736997268389195 
2.360000000000556, -0.6711796974874547 
2.370000000000577, -0.6694199996450637 
2.380000000000598, -0.6682565119500026 
2.390000000000619, -0.6675348694383793 
2.4000000000006403, -0.6671232171749819 
2.4100000000006614, -0.6669163182548983 
2.4200000000006825, -0.6668344320875097 
2.4300000000007036, -0.6668194123900444 
2.4400000000007247, -0.6668298699835233 
2.450000000000746, -0.6668367633274286 
2.460000000000767, -0.6668203045036981 
2.470000000000788, -0.6667685057864169 
2.480000000000809, -0.6666769282824229 
2.49000000000083, -0.6665483385280953 
2.5000000000008513, -0.6663906621880781 
2.5100000000008724, -0.6662126323144062 
2.5200000000008935, -0.6660186125874528 
2.5300000000009146, -0.6658054994520505 
2.5400000000009357, -0.6655637654118969 
2.550000000000957, -0.6652820489283322 
2.560000000000978, -0.6649524897817742 
2.570000000000999, -0.6645741336723876 
2.58000000000102, -0.6641537965928512 
2.5900000000010412, -0.6637057294437064 
2.6000000000010624, -0.663251898276924 
2.6100000000010835, -0.6628240299306293 
2.6200000000011046, -0.662467694559936 
2.6300000000011257, -0.6622480352388536 
2.6400000000011468, -0.6622562178454069 
2.650000000001168, -0.662615048299702 
2.660000000001189, -0.663481337476378 
2.67000000000121, -0.6650413178075286 
2.680000000001231, -0.6674935171771156 
2.6900000000012523, -0.6710113594704317 
2.7000000000012734, -0.6756784044657547 
2.7100000000012945, -0.6814007769166431 
2.7200000000013156, -0.6878331887622472 
2.7300000000013367, -0.6943930477549323 
2.740000000001358, -0.7004187489962485 
2.750000000001379, -0.705408646234217 
2.7600000000014, -0.709171576908653 
2.770000000001421, -0.7117953675707452 
2.780000000001442, -0.7135080229647053 
2.7900000000014633, -0.7145529084351214 
2.8000000000014844, -0.7151268600256258 
2.8100000000015055, -0.715366529549547 
2.8200000000015266, -0.7153553659206955 
2.8300000000015477, -0.715133922205031 
2.840000000001569, -0.7147063829520698 
2.85000000000159, -0.7140411580634816 
2.860000000001611, -0.7130650138621724 
2.870000000001632, -0.7116511659355963 
2.8800000000016532, -0.7096047932386572 
2.8900000000016743, -0.7066581265674046 
2.9000000000016954, -0.7025034134035851 
2.9100000000017165, -0.6969028378369001 
2.9200000000017377, -0.6898771362479243 
2.9300000000017588, -0.6818617113233337 
2.94000000000178, -0.6736477674802523 
2.950000000001801, -0.6660834536817611 
2.960000000001822, -0.6597592149100538 
2.970000000001843, -0.6548914920995308 
2.9800000000018643, -0.6513989585056076 
2.9900000000018854, -0.6490441078929622 
3.0000000000019065, -0.6475482874028277 
3.0100000000019276, -0.6466566939533298 
3.0200000000019487, -0.6461641641815828 
3.03000000000197, -0.645918269376135 
3.040000000001991, -0.6458119034797576 
3.050000000002012, -0.6457725284111665 
3.060000000002033, -0.6457517733782366 
3.070000000002054, -0.6457170689866466 
3.0800000000020753, -0.6456459596617593 
3.0900000000020964, -0.645523228451458 
3.1000000000021175, -0.6453405291357995 
3.1100000000021386, -0.6450974832094758 
3.1200000000021597, -0.6448022879150987 
3.130000000002181, -0.644469724620211 
3.140000000002202, -0.6441160233777489 
3.150000000002223, -0.6437526766166457 
3.160000000002244, -0.6433826686749667 
3.1700000000022652, -0.6430012221523599 
3.1800000000022863, -0.6426002284411522 
3.1900000000023074, -0.6421735331320981 
3.2000000000023285, -0.641720589542037 
3.2100000000023496, -0.641247922571918 
3.2200000000023707, -0.6407695161870081 
3.230000000002392, -0.6403076237103155 
3.240000000002413, -0.6398949441665512 
3.250000000002434, -0.6395783724106299 
3.260000000002455, -0.6394239742446974 
3.2700000000024763, -0.639522407354512 
3.2800000000024974, -0.6399935210075165 
3.2900000000025185, -0.6409881084939171 
3.3000000000025396, -0.6426834436888537 
3.3100000000025607, -0.6452669739276766 
3.3200000000025818, -0.648899832335496 
3.330000000002603, -0.6536521990493942 
3.340000000002624, -0.6594151974175284 
3.350000000002645, -0.6658285897904488 
3.360000000002666, -0.6723026698465313 
3.3700000000026873, -0.6781872419703318 
3.3800000000027084, -0.6830110891769725 
3.3900000000027295, -0.6866173366903942 
3.4000000000027506, -0.6891154126784801 
3.4100000000027717, -0.6907383817463323 
3.420000000002793, -0.6917243258866856 
3.430000000002814, -0.6922615964573525 
3.440000000002835, -0.6924790626644015 
3.450000000002856, -0.6924541971273833 
3.460000000002877, -0.6922231535785881 
3.4700000000028983, -0.6917866816644358 
3.4800000000029194, -0.6911101623605205 
3.4900000000029405, -0.6901175609915301 
3.5000000000029616, -0.6886804240415118 
3.5100000000029827, -0.6866070231804273 
3.520000000003004, -0.6836463954219543 
3.530000000003025, -0.6795359206456127 
3.540000000003046, -0.6741200841048649 
3.550000000003067, -0.6675138891055374 
3.5600000000030882, -0.660187513258139 
3.5700000000031094, -0.6528471211529111 
3.5800000000031305, -0.646166514732957 
3.5900000000031516, -0.6405723878807812 
3.6000000000031727, -0.6362003682395565 
3.6100000000031938, -0.6329739679203321 
3.620000000003215, -0.6307097997701677 
3.630000000003236, -0.6291958512753222 
3.640000000003257, -0.6282347654472954 
3.650000000003278, -0.6276619120334994 
3.6600000000032993, -0.6273490976067961 
3.6700000000033204, -0.627201261657962 
3.6800000000033415, -0.627150398967668 
3.6900000000033626, -0.6271490446355357 
3.7000000000033837, -0.6271646042403815 
3.710000000003405, -0.6271752108242249 
3.720000000003426, -0.6271673542752776 
3.730000000003447, -0.627135015880444 
3.740000000003468, -0.6270793445790019 
3.750000000003489, -0.6270073353877537 
3.7600000000035103, -0.6269282662092833 
3.7700000000035314, -0.6268482549240386 
3.7800000000035525, -0.6267653300998963 
3.7900000000035736, -0.6266680304780989 
3.8000000000035947, -0.6265387894932768 
3.810000000003616, -0.6263603288999798 
3.820000000003637, -0.6261214652564389 
3.830000000003658, -0.6258197193772743 
3.840000000003679, -0.6254608321137869 
3.8500000000037002, -0.6250572397770754 
3.8600000000037213, -0.6246276802990717 
3.8700000000037424, -0.6241992389779554 
3.8800000000037635, -0.623812406428068 
3.8900000000037847, -0.6235294043055345 
3.9000000000038058, -0.6234457911450633 
3.910000000003827, -0.6237046102455691 
3.920000000003848, -0.62451033652058 
3.930000000003869, -0.6261355916307607 
3.94000000000389, -0.6289060579945118 
3.9500000000039113, -0.6331397544362131 
3.9600000000039324, -0.6390168756833744 
3.9700000000039535, -0.6463936563026034 
3.9800000000039746, -0.6546686659209145 
3.9900000000039957, -0.6628832902818622 
4.000000000004016, -0.6700987308039691 
4.010000000003993, -0.6757810025498847 
4.02000000000397, -0.6798865662778159 
4.030000000003946, -0.6826750677481417 
4.040000000003923, -0.6844854185872437 
4.0500000000039, -0.6856108550745021 
4.0600000000038765, -0.6862645579561091 
4.070000000003853, -0.6865870104381795 
4.08000000000383, -0.6866629568039759 
4.090000000003807, -0.686535393264682 
4.100000000003783, -0.6862136358383606 
4.11000000000376, -0.6856756928854957 
4.120000000003737, -0.6848661797371072 
4.130000000003713, -0.6836924365287875 
4.14000000000369, -0.6820250152028585 
4.150000000003667, -0.6797143037847642 
4.1600000000036434, -0.6766371918323154 
4.17000000000362, -0.6727726953682758 
4.180000000003597, -0.6682679895179968 
4.1900000000035735, -0.6634330786356355 
4.20000000000355, -0.6586468941231152 
4.210000000003527, -0.6542369459582977 
4.220000000003504, -0.6504087435337905 
4.23000000000348, -0.6472430090864749 
4.240000000003457, -0.6447302828243183 
4.250000000003434, -0.6428099723513013 
4.26000000000341, -0.6413990087151832 
4.270000000003387, -0.6404089898372834 
4.280000000003364, -0.6397554071578522 
4.2900000000033405, -0.6393623771955715 
4.300000000003317, -0.6391649014686241 
4.310000000003294, -0.6391096069918661 
4.320000000003271, -0.6391544471407384 
4.330000000003247, -0.6392677594705813 
4.340000000003224, -0.6394270929481556 
4.350000000003201, -0.639618107032761 
4.360000000003177, -0.6398334939417428 
4.370000000003154, -0.6400713558300588 
4.380000000003131, -0.6403321624723208 
4.390000000003107, -0.6406139160568585 
4.400000000003084, -0.6409066722752388 
4.410000000003061, -0.6411892543385449 
4.4200000000030375, -0.6414311050895145 
4.430000000003014, -0.6415996193780356 
4.440000000002991, -0.6416693736068245 
4.450000000002968, -0.6416280716440191 
4.460000000002944, -0.6414766836467947 
4.470000000002921, -0.6412254834836769 
4.480000000002898, -0.6408896117100504 
4.490000000002874, -0.6404869069067342 
4.500000000002851, -0.6400391581149352 
4.510000000002828, -0.639577167546418 
4.520000000002804, -0.639150106117955 
4.530000000002781, -0.6388398909330226 
4.540000000002758, -0.638780784074502 
4.5500000000027345, -0.6391817804195928 
4.560000000002711, -0.6403426138466295 
4.570000000002688, -0.6426415656361797 
4.580000000002665, -0.6464582720324741 
4.590000000002641, -0.6519991809598644 
4.600000000002618, -0.6590631319174229 
4.610000000002595, -0.6669252069595302 
4.620000000002571, -0.6745524105314948 
4.630000000002548, -0.6810749885639182 
4.640000000002525, -0.6861128713082512 
4.6500000000025015, -0.6897322950900437 
4.660000000002478, -0.6922111110156836 
4.670000000002455, -0.6938506900730084 
4.6800000000024315, -0.6948960554435746 
4.690000000002408, -0.6955228254982675 
4.700000000002385, -0.6958478474662454 
4.710000000002362, -0.6959429353972124 
4.720000000002338, -0.6958451738556901 
4.730000000002315, -0.6955626275124238 
4.740000000002292, -0.695075900402027 
4.750000000002268, -0.6943367664192395 
4.760000000002245, -0.6932666035009746 
4.770000000002222, -0.6917604395299879 
4.7800000000021985, -0.689706012051944 
4.790000000002175, -0.687025623147983 
4.800000000002152, -0.6837327290221674 
4.810000000002129, -0.6799690643321533 
4.820000000002105, -0.6759839581400481 
4.830000000002082, -0.6720591759494254 
4.840000000002059, -0.6684290822533822 
4.850000000002035, -0.6652405904088926 
4.860000000002012, -0.6625562439932164 
4.870000000001989, -0.6603781731534718 
4.880000000001965, -0.6586729402789496 
4.890000000001942, -0.6573892153923008 
4.900000000001919, -0.6564683155763482 
4.9100000000018955, -0.6558502086608244 
4.920000000001872, -0.6554772302428686 
