t, s[1].omega / s[0].omega 
0, -0.6799976993630599 
0.009999999999999995, -0.6797584240434761 
0.019999999999999934, -0.6794968023111301 
0.029999999999999874, -0.6792029061207164 
0.04000000000000012, -0.6788664836513115 
0.050000000000000405, -0.6784823090124118 
0.06000000000000069, -0.6780530782815795 
0.07000000000000098, -0.6775899820364847 
0.08000000000000126, -0.6771126984638005 
0.09000000000000155, -0.6766505052501245 
0.10000000000000184, -0.6762452511647445 
0.11000000000000212, -0.6759559575543262 
0.12000000000000241, -0.6758641144733666 
0.130000000000002, -0.6760782116334558 
0.1400000000000009, -0.6767356203056181 
0.1499999999999998, -0.677999539837207 
0.1599999999999987, -0.6800480559287958 
0.1699999999999976, -0.6830510160790141 
0.1799999999999965, -0.6871288814729586 
0.1899999999999954, -0.6922895610535212 
0.1999999999999943, -0.6983528020774437 
0.2099999999999932, -0.7049029973243847 
0.2199999999999921, -0.7113388074470697 
0.229999999999991, -0.7170503100689727 
0.2399999999999899, -0.7216348540481332 
0.2499999999999888, -0.7249961891142555 
0.2599999999999877, -0.7272770142629964 
0.2699999999999866, -0.7287191303512535 
0.2799999999999855, -0.7295559404521479 
0.2899999999999844, -0.7299661955877321 
0.2999999999999833, -0.7300680412085809 
0.3099999999999822, -0.7299278030592153 
0.3199999999999811, -0.7295691474248633 
0.32999999999998, -0.7289770354824064 
0.3399999999999789, -0.728094621311682 
0.3499999999999778, -0.7268122156474849 
0.35999999999997667, -0.7249483228201437 
0.36999999999997557, -0.7222270162561488 
0.37999999999997447, -0.7182693742888352 
0.38999999999997337, -0.7126440028718348 
0.39999999999997227, -0.7050430680803785 
0.40999999999997117, -0.6955861428469972 
0.41999999999997006, -0.68504634763218 
0.42999999999996896, -0.674678333128553 
0.43999999999996786, -0.6656678388850802 
0.44999999999996676, -0.6586637379335936 
0.45999999999996566, -0.653715775022768 
0.46999999999996456, -0.6504980318706307 
0.47999999999996346, -0.6485606158420902 
0.48999999999996235, -0.6474851806512394 
0.49999999999996125, -0.6469453791510063 
0.5099999999999602, -0.6467117396518782 
0.519999999999959, -0.6466336719486843 
0.529999999999958, -0.6466166556208451 
0.5399999999999568, -0.6466022803185555 
0.5499999999999557, -0.6465533751011389 
0.5599999999999546, -0.6464442417707617 
0.5699999999999535, -0.6462554656332241 
0.5799999999999524, -0.6459728149173346 
0.5899999999999513, -0.645589469372064 
0.5999999999999502, -0.6451097040630871 
0.6099999999999491, -0.644550746801554 
0.619999999999948, -0.6439397441466437 
0.6299999999999469, -0.6433058941066716 
0.6399999999999458, -0.6426717419379656 
0.6499999999999447, -0.6420485036102482 
0.6599999999999436, -0.6414373009968762 
0.6699999999999425, -0.6408344333105699 
0.6799999999999414, -0.6402372733145565 
0.6899999999999403, -0.6396484420831695 
0.6999999999999392, -0.6390779700418354 
0.7099999999999381, -0.6385444773696907 
0.719999999999937, -0.6380764917612329 
0.7299999999999359, -0.6377144067123011 
0.7399999999999348, -0.6375129359334698 
0.7499999999999337, -0.6375435270126217 
0.7599999999999326, -0.637896040575156 
0.7699999999999315, -0.6386789153103853 
0.7799999999999304, -0.6400167323826239 
0.7899999999999293, -0.6420431428219279 
0.7999999999999282, -0.6448852167927932 
0.8099999999999271, -0.6486330458018401 
0.819999999999926, -0.6532891914449206 
0.8299999999999249, -0.6587037849938963 
0.8399999999999238, -0.6645288434762312 
0.8499999999999227, -0.6702525136821577 
0.8599999999999216, -0.6753459051348272 
0.8699999999999205, -0.6794512488610501 
0.8799999999999194, -0.6824748177272684 
0.8899999999999183, -0.6845342433104435 
0.8999999999999172, -0.6858382357881148 
0.9099999999999161, -0.6865912776175709 
0.919999999999915, -0.6869510938846172 
0.9299999999999139, -0.6870218500752467 
0.9399999999999128, -0.6868607659611341 
0.9499999999999117, -0.6864851865445887 
0.9599999999999106, -0.6858747922397913 
0.9699999999999095, -0.6849669458064667 
0.9799999999999084, -0.6836442346748741 
0.9899999999999073, -0.6817149435810262 
0.9999999999999062, -0.6788936816387054 
1.0099999999999052, -0.6748065716749928 
1.019999999999904, -0.6690718565432301 
1.029999999999903, -0.6615047085218537 
1.039999999999902, -0.6523854020256904 
1.0499999999999008, -0.6425478905203785 
1.0599999999998997, -0.6330944804775531 
1.0699999999998986, -0.6249260822325261 
1.0799999999998975, -0.6184705810597535 
1.0899999999998964, -0.6137222889422191 
1.0999999999998953, -0.6104284547632415 
1.1099999999998942, -0.6082578070585496 
1.119999999999893, -0.6068975669531758 
1.129999999999892, -0.6060920467274469 
1.1399999999998909, -0.6056486939464093 
1.1499999999998898, -0.6054300669607896 
1.1599999999998887, -0.6053416379610125 
1.1699999999998876, -0.6053199424433768 
1.1799999999998865, -0.6053228695536635 
1.1899999999998854, -0.6053226636050033 
1.1999999999998843, -0.6053016860207932 
1.2099999999998832, -0.605250639494608 
1.219999999999882, -0.6051684113941659 
1.229999999999881, -0.6050619226622234 
1.2399999999998799, -0.6049439919500554 
1.2499999999998788, -0.60482820053865 
1.2599999999998777, -0.6047220896277128 
1.2699999999998766, -0.6046220725280254 
1.2799999999998755, -0.6045132382022684 
1.2899999999998744, -0.6043745232663829 
1.2999999999998733, -0.6041864026836903 
1.3099999999998722, -0.6039369516658473 
1.319999999999871, -0.6036239537458787 
1.32999999999987, -0.6032538455144661 
1.3399999999998689, -0.6028400275726686 
1.3499999999998678, -0.6024028277755317 
1.3599999999998666, -0.6019724236296634 
1.3699999999998655, -0.6015954233099945 
1.3799999999998644, -0.6013457030174466 
1.3899999999998633, -0.6013400158238594 
1.3999999999998622, -0.6017580314736859 
1.4099999999998611, -0.6028635644294902 
1.41999999999986, -0.6050166693093052 
1.429999999999859, -0.6086526625824977 
1.4399999999998578, -0.6141867027209347 
1.4499999999998567, -0.6218049517422995 
1.4599999999998556, -0.6311830772856613 
1.4699999999998545, -0.6413500770193612 
1.4799999999998534, -0.6509760970903737 
1.4899999999998523, -0.6589913509267592 
1.4999999999998512, -0.6649979048894629 
1.5099999999998501, -0.6691757986989108 
1.519999999999849, -0.6719468889474636 
1.529999999999848, -0.6737260446895954 
1.5399999999998468, -0.6748296901601234 
1.5499999999998457, -0.6754726440966843 
1.5599999999998446, -0.67579099796881 
1.5699999999998435, -0.6758643995606574 
1.5799999999998424, -0.6757310632702289 
1.5899999999998413, -0.6753955358997634 
1.5999999999998402, -0.6748307386426733 
1.6099999999998391, -0.6739764433200478 
1.619999999999838, -0.6727381970497331 
1.629999999999837, -0.6709946267640001 
1.6399999999998358, -0.668624875675128 
1.6499999999998347, -0.6655630139634814 
1.6599999999998336, -0.6618623712275586 
1.6699999999998325, -0.6577227868394872 
1.6799999999998314, -0.6534435354759932 
1.6899999999998303, -0.6493261972546789 
1.6999999999998292, -0.6455940417277326 
1.709999999999828, -0.6423667169060525 
1.719999999999827, -0.6396784831807573 
1.729999999999826, -0.6375101970413323 
1.7399999999998248, -0.6358159217004065 
1.7499999999998237, -0.6345393005226256 
1.7599999999998226, -0.6336219309732418 
1.7699999999998215, -0.6330072873379523 
1.7799999999998204, -0.6326427449955272 
1.7899999999998193, -0.6324809665111606 
1.7999999999998182, -0.6324810223372925 
1.809999999999817, -0.6326092237524599 
1.819999999999816, -0.6328395925125604 
1.8299999999998149, -0.6331539473233304 
1.8399999999998138, -0.6335415252059431 
1.8499999999998127, -0.6339977608752796 
1.8599999999998116, -0.6345214641109266 
1.8699999999998105, -0.6351096663259148 
1.8799999999998094, -0.6357504856601408 
1.8899999999998083, -0.6364165352490025 
1.8999999999998072, -0.6370633390843267 
1.909999999999806, -0.6376363429750407 
1.919999999999805, -0.6380849880038787 
1.9299999999998039, -0.6383763191850267 
1.9399999999998028, -0.6385003015590858 
1.9499999999998017, -0.6384654932755814 
1.9599999999998006, -0.6382900706838539 
1.9699999999997995, -0.6379939969374357 
1.9799999999997984, -0.6375952003610518 
1.9899999999997973, -0.6371101137965478 
1.9999999999997962, -0.636558366142814 
2.0099999999998173, -0.6359721568549015 
2.0199999999998384, -0.6354117852355854 
2.0299999999998595, -0.6349887467196735 
2.0399999999998806, -0.6348946184228931 
2.0499999999999017, -0.6354237536231799 
2.059999999999923, -0.6369570497797594 
2.069999999999944, -0.6398522640703501 
2.079999999999965, -0.6442127629971661 
2.089999999999986, -0.649653246280075 
2.100000000000007, -0.6553508154451043 
2.1100000000000283, -0.6604802813744419 
2.1200000000000494, -0.6646262856330056 
2.1300000000000705, -0.667786416715251 
2.1400000000000916, -0.6701336691326291 
2.1500000000001127, -0.6718483301427196 
2.160000000000134, -0.6730730203648776 
2.170000000000155, -0.6739168243004321 
2.180000000000176, -0.6744632865197755 
2.190000000000197, -0.6747741495435151 
2.2000000000002182, -0.6748909009724889 
2.2100000000002393, -0.6748355564335176 
2.2200000000002604, -0.6746107826605934 
2.2300000000002815, -0.674199336287679 
2.2400000000003026, -0.6735636598680961 
2.2500000000003237, -0.6726481875905752 
2.260000000000345, -0.6713889143304982 
2.270000000000366, -0.6697346524896177 
2.280000000000387, -0.6676778400739352 
2.290000000000408, -0.6652797498370505 
2.3000000000004293, -0.6626686062902754 
2.3100000000004504, -0.6600051049741187 
2.3200000000004715, -0.6574366123626545 
2.3300000000004926, -0.655067597902051 
2.3400000000005137, -0.6529553292551864 
2.3500000000005348, -0.6511215698093308 
2.360000000000556, -0.6495675823279171 
2.370000000000577, -0.6482853473959562 
2.380000000000598, -0.647263589536538 
2.390000000000619, -0.6464899393702702 
2.4000000000006403, -0.6459510963171338 
2.4100000000006614, -0.6456324675578076 
2.4200000000006825, -0.6455181619488779 
2.4300000000007036, -0.6455916715381574 
2.4400000000007247, -0.6458371562059059 
2.450000000000746, -0.6462409795907009 
2.460000000000767, -0.6467929889005664 
2.470000000000788, -0.647486886471792 
2.480000000000809, -0.6483188335375669 
2.49000000000083, -0.6492833063188791 
2.5000000000008513, -0.6503657250932117 
2.5100000000008724, -0.6515332172234277 
2.5200000000008935, -0.652728031460126 
2.5300000000009146, -0.653870357201937 
2.5400000000009357, -0.6548742922980647 
2.550000000000957, -0.6556712090594583 
2.560000000000978, -0.6562268379120327 
2.570000000000999, -0.6565423348744994 
2.58000000000102, -0.6566420404061148 
2.5900000000010412, -0.6565579795678922 
2.6000000000010624, -0.656318672484828 
2.6100000000010835, -0.6559440638619634 
2.6200000000011046, -0.6554452260711414 
2.6300000000011257, -0.6548274206145595 
2.6400000000011468, -0.654096382716716 
2.650000000001168, -0.6532689745270099 
2.660000000001189, -0.6523895885213378 
2.67000000000121, -0.6515509499068699 
2.680000000001231, -0.6509088284982352 
2.6900000000012523, -0.6506632577906242 
2.7000000000012734, -0.65096999796124 
2.7100000000012945, -0.6517956477461773 
2.7200000000013156, -0.6528598263629293 
2.7300000000013367, -0.6538259375939195 
2.740000000001358, -0.6545829455015049 
2.750000000001379, -0.6552559699050076 
2.7600000000014, -0.6559804989453578 
2.770000000001421, -0.6567687498713395 
2.780000000001442, -0.6575478052761852 
2.7900000000014633, -0.6582381522396543 
2.8000000000014844, -0.6587915178858879 
2.8100000000015055, -0.6591913552523643 
2.8200000000015266, -0.6594397523480204 
2.8300000000015477, -0.6595445715433994 
2.840000000001569, -0.6595105489164304 
2.85000000000159, -0.6593338520370102 
2.860000000001611, -0.6589990271968198 
2.870000000001632, -0.65847825555372 
2.8800000000016532, -0.6577343532988845 
2.8900000000016743, -0.6567299759655667 
2.9000000000016954, -0.6554440362769111 
2.9100000000017165, -0.6538906254180358 
2.9200000000017377, -0.6521287691394317 
2.9300000000017588, -0.6502526331556924 
2.94000000000178, -0.6483653986550304 
2.950000000001801, -0.6465529612381268 
2.960000000001822, -0.6448712819276271 
2.970000000001843, -0.6433486103356648 
2.9800000000018643, -0.6419952796932112 
2.9900000000018854, -0.6408137640418956 
3.0000000000019065, -0.6398054947504767 
3.0100000000019276, -0.6389740893808187 
3.0200000000019487, -0.6383259962242422 
3.03000000000197, -0.6378697209629793 
3.040000000001991, -0.6376145577772032 
3.050000000002012, -0.6375694789225375 
3.060000000002033, -0.6377425982421342 
3.070000000002054, -0.6381413557513922 
3.0800000000020753, -0.6387732309728974 
3.0900000000020964, -0.6396463749802559 
3.1000000000021175, -0.6407690617994823 
3.1100000000021386, -0.6421463784194829 
3.1200000000021597, -0.6437724658326622 
3.130000000002181, -0.6456178082099698 
3.140000000002202, -0.6476147759194721 
3.150000000002223, -0.649650577793541 
3.160000000002244, -0.6515798039182877 
3.1700000000022652, -0.6532598796225073 
3.1800000000022863, -0.6545928524362792 
3.1900000000023074, -0.655546882393986 
3.2000000000023285, -0.6561466545857473 
3.2100000000023496, -0.656445922855051 
3.2200000000023707, -0.6565015150269253 
3.230000000002392, -0.6563578984313994 
3.240000000002413, -0.6560411138064491 
3.250000000002434, -0.655557488751265 
3.260000000002455, -0.6548934547567813 
3.2700000000024763, -0.6540144810218111 
3.2800000000024974, -0.6528621421269633 
3.2900000000025185, -0.6513483946936164 
3.3000000000025396, -0.6493453651666297 
3.3100000000025607, -0.6466689845796519 
3.3200000000025818, -0.6430635254094706 
3.330000000002603, -0.6382280596360547 
3.340000000002624, -0.631973456237964 
3.350000000002645, -0.6245290690531744 
3.360000000002666, -0.6167219018193035 
3.3700000000026873, -0.6096623676062689 
3.3800000000027084, -0.6041442309495282 
3.3900000000027295, -0.6003550536416479 
3.4000000000027506, -0.5980327091994108 
3.4100000000027717, -0.5967569332872792 
3.420000000002793, -0.5961412252367577 
3.430000000002814, -0.5958999841493999 
3.440000000002835, -0.595846200194798 
3.450000000002856, -0.5958662356538098 
3.460000000002877, -0.5958938695956197 
3.4700000000028983, -0.5958904729507641 
3.4800000000029194, -0.5958318007627452 
3.4900000000029405, -0.5957001896577754 
3.5000000000029616, -0.5954810830912384 
3.5100000000029827, -0.5951632922456047 
3.520000000003004, -0.5947423319526558 
3.530000000003025, -0.5942250435950471 
3.540000000003046, -0.5936321122701705 
3.550000000003067, -0.5929950953756837 
3.5600000000030882, -0.5923478043146837 
3.5700000000031094, -0.5917162781587173 
3.5800000000031305, -0.5911128491514253 
3.5900000000031516, -0.5905367903420223 
3.6000000000031727, -0.5899798985706839 
3.6100000000031938, -0.58943333289845 
3.620000000003215, -0.5888927568652036 
3.630000000003236, -0.5883609858479997 
3.640000000003257, -0.5878491297714236 
3.650000000003278, -0.5873777576853187 
3.6600000000032993, -0.5869792097927935 
3.6700000000033204, -0.586701566526669 
3.6800000000033415, -0.5866143370387639 
3.6900000000033626, -0.5868156137330579 
3.7000000000033837, -0.5874399941655697 
3.710000000003405, -0.5886655665423597 
3.720000000003426, -0.5907159714264897 
3.730000000003447, -0.5938490102494571 
3.740000000003468, -0.5983163381149802 
3.750000000003489, -0.6042743013492339 
3.7600000000035103, -0.6116412898880067 
3.7700000000035314, -0.6199580386013401 
3.7800000000035525, -0.6283937088644895 
3.7900000000035736, -0.6360112145007963 
3.8000000000035947, -0.6421581022282923 
3.810000000003616, -0.6466647703756186 
3.820000000003637, -0.6497353650024759 
3.830000000003658, -0.651716039812945 
3.840000000003679, -0.6529310388876043 
3.8500000000037002, -0.6536228304863919 
3.8600000000037213, -0.6539516493142389 
3.8700000000037424, -0.6540129738651103 
3.8800000000037635, -0.653853777556238 
3.8900000000037847, -0.6534821016878877 
3.9000000000038058, -0.6528696052467995 
3.910000000003827, -0.6519483341429422 
3.920000000003848, -0.650604746399283 
3.930000000003869, -0.6486786463521084 
3.94000000000389, -0.6459827442727712 
3.9500000000039113, -0.6423628340327721 
3.9600000000039324, -0.6377986027014514 
3.9700000000039535, -0.6324904851986635 
3.9800000000039746, -0.6268440278147247 
3.9900000000039957, -0.6213331287604098 
4.000000000004016, -0.616339930276921 
4.010000000003993, -0.6120765128711437 
4.02000000000397, -0.6085994931879326 
4.030000000003946, -0.6058657636071925 
4.040000000003923, -0.6037848552769992 
4.0500000000039, -0.6022526264523538 
4.0600000000038765, -0.6011684773854536 
4.070000000003853, -0.6004425644344331 
4.08000000000383, -0.599998094759905 
4.090000000003807, -0.5997715281047079 
4.100000000003783, -0.599711950574423 
4.11000000000376, -0.5997801184525373 
4.120000000003737, -0.5999474038622025 
4.130000000003713, -0.6001947937323046 
4.14000000000369, -0.6005119537496098 
4.150000000003667, -0.6008960292371466 
4.1600000000036434, -0.6013493728882072 
4.17000000000362, -0.6018751492626204 
4.180000000003597, -0.6024704054013151 
4.1900000000035735, -0.6031180889860362 
4.20000000000355, -0.6037819606103243 
4.210000000003527, -0.6044092217640501 
4.220000000003504, -0.6049424143734548 
4.23000000000348, -0.6053354191045645 
4.240000000003457, -0.6055643071286783 
4.250000000003434, -0.6056276243608344 
4.26000000000341, -0.6055385671375546 
4.270000000003387, -0.6053154042695199 
4.280000000003364, -0.6049747088720114 
4.2900000000033405, -0.6045286137981047 
4.300000000003317, -0.6039855725175849 
4.310000000003294, -0.6033541398567893 
4.320000000003271, -0.6026500099206868 
4.330000000003247, -0.6019068766840105 
4.340000000003224, -0.6011902037011279 
4.350000000003201, -0.6006071808926537 
4.360000000003177, -0.6002934765895972 
4.370000000003154, -0.6003444929918387 
4.380000000003131, -0.6006828888390878 
4.390000000003107, -0.6009695088781851 
4.400000000003084, -0.6007725585447788 
4.410000000003061, -0.599964629918494 
4.4200000000030375, -0.5988701754997516 
4.430000000003014, -0.5979447625054377 
4.440000000002991, -0.5974275076622617 
4.450000000002968, -0.5973010150434678 
4.460000000002944, -0.5974283127233131 
4.470000000002921, -0.5976689298214555 
4.480000000002898, -0.5979235394242222 
4.490000000002874, -0.5981347136248489 
4.500000000002851, -0.5982734717128956 
4.510000000002828, -0.5983257372570151 
4.520000000002804, -0.5982825899430275 
4.530000000002781, -0.5981343185902089 
4.540000000002758, -0.5978676752477636 
4.5500000000027345, -0.5974662979058457 
4.560000000002711, -0.5969148038883387 
4.570000000002688, -0.5962064882580205 
4.580000000002665, -0.5953521663298258 
4.590000000002641, -0.5943847220986063 
4.600000000002618, -0.5933542657206472 
4.610000000002595, -0.5923147056531881 
4.620000000002571, -0.5913092469898478 
4.630000000002548, -0.5903626852985632 
4.640000000002525, -0.5894826287833607 
4.6500000000025015, -0.5886663305410343 
4.660000000002478, -0.5879084681257024 
4.670000000002455, -0.5872069653925854 
4.6800000000024315, -0.5865663230092591 
4.690000000002408, -0.585999350970776 
4.700000000002385, -0.5855284377271858 
4.710000000002362, -0.5851870775373612 
4.720000000002338, -0.5850218886151611 
4.730000000002315, -0.5850950445668434 
4.740000000002292, -0.5854868749870139 
4.750000000002268, -0.5862981707659676 
4.760000000002245, -0.5876511350910122 
4.770000000002222, -0.589686499193529 
4.7800000000021985, -0.592551644391733 
4.790000000002175, -0.5963710469017549 
4.800000000002152, -0.6011894904979457 
4.810000000002129, -0.6068899330712358 
4.820000000002105, -0.6131229215815419 
4.830000000002082, -0.6193266538071555 
4.840000000002059, -0.6248924655559743 
4.850000000002035, -0.6293964301713398 
4.860000000002012, -0.6327206637534688 
4.870000000001989, -0.634993975253198 
4.880000000001965, -0.6364494524299734 
4.890000000001942, -0.6373140439209604 
4.900000000001919, -0.637761688571826 
4.9100000000018955, -0.637907544246046 
4.920000000001872, -0.637816793966352 
