t, s[1].omega / s[0].omega 
0, -0.8600076295744804 
0.009999999999999995, -0.8607071038262081 
0.019999999999999934, -0.8612515194612733 
0.029999999999999874, -0.8616067949634404 
0.04000000000000012, -0.8617587868168671 
0.050000000000000405, -0.8617155263584328 
0.06000000000000069, -0.861502402727899 
0.07000000000000098, -0.8611556424616621 
0.08000000000000126, -0.8607195820304121 
0.09000000000000155, -0.860249879238709 
0.10000000000000184, -0.859821266778652 
0.11000000000000212, -0.859535585413963 
0.12000000000000241, -0.8595236127937076 
0.130000000000002, -0.8599343258922216 
0.1400000000000009, -0.8609102493815204 
0.1499999999999998, -0.8625562228684533 
0.1599999999999987, -0.8649141829570967 
0.1699999999999976, -0.8679523008622823 
0.1799999999999965, -0.8715665434176729 
0.1899999999999954, -0.8755866526104704 
0.1999999999999943, -0.879782789014296 
0.2099999999999932, -0.8838803066034002 
0.2199999999999921, -0.8875965965436817 
0.229999999999991, -0.8907016562577258 
0.2399999999999899, -0.8930756813855668 
0.2499999999999888, -0.894725211391475 
0.2599999999999877, -0.8957483349382371 
0.2699999999999866, -0.8962781009979099 
0.2799999999999855, -0.8964383318078715 
0.2899999999999844, -0.8963242271211012 
0.2999999999999833, -0.8960026268411962 
0.3099999999999822, -0.8955242117861498 
0.3199999999999811, -0.8949450931851792 
0.32999999999998, -0.8943603399420381 
0.3399999999999789, -0.8939521100785408 
0.3499999999999778, -0.8940451053461927 
0.35999999999997667, -0.8951392222953498 
0.36999999999997557, -0.8978653523666302 
0.37999999999997447, -0.9028191211084925 
0.38999999999997337, -0.9102950811496606 
0.39999999999997227, -0.920037660945438 
0.40999999999997117, -0.9311670793881757 
0.41999999999997006, -0.9423822651450813 
0.42999999999996896, -0.9523949961908962 
0.43999999999996786, -0.9603709419451005 
0.44999999999996676, -0.9661087967758295 
0.45999999999996566, -0.9698927815202725 
0.46999999999996456, -0.9722042343232375 
0.47999999999996346, -0.9735006284654009 
0.48999999999996235, -0.9741243515283509 
0.49999999999996125, -0.9742980034159077 
0.5099999999999602, -0.9741515577590094 
0.519999999999959, -0.9737529564144204 
0.529999999999958, -0.9731365158701802 
0.5399999999999568, -0.9723367733382109 
0.5499999999999557, -0.9714436494909888 
0.5599999999999546, -0.9706963492761467 
0.5699999999999535, -0.9706114508427289 
0.5799999999999524, -0.9720705908956202 
0.5899999999999513, -0.9761989496714266 
0.5999999999999502, -0.9838931750783952 
0.6099999999999491, -0.9951540563612532 
0.619999999999948, -1.0087406542357944 
0.6299999999999469, -1.0225733224556213 
0.6399999999999458, -1.034681113674386 
0.6499999999999447, -1.0439805508931603 
0.6599999999999436, -1.050393400493012 
0.6699999999999425, -1.0544512576330698 
0.6799999999999414, -1.0568370076843387 
0.6899999999999403, -1.0581245423910555 
0.6999999999999392, -1.0587103804166844 
0.7099999999999381, -1.0588382249109407 
0.719999999999937, -1.0586455490910407 
0.7299999999999359, -1.0582063660644374 
0.7399999999999348, -1.0575713579040447 
0.7499999999999337, -1.0568192834512136 
0.7599999999999326, -1.056135698413973 
0.7699999999999315, -1.0559135386110892 
0.7799999999999304, -1.0568055175263615 
0.7899999999999293, -1.0595904201248518 
0.7999999999999282, -1.0647965875668102 
0.8099999999999271, -1.0723042536168546 
0.819999999999926, -1.0812808942298235 
0.8299999999999249, -1.09051740955982 
0.8399999999999238, -1.098893506622732 
0.8499999999999227, -1.1056967599206549 
0.8599999999999216, -1.1107042699660423 
0.8699999999999205, -1.114073079361852 
0.8799999999999194, -1.1161476940742199 
0.8899999999999183, -1.1172930866804134 
0.8999999999999172, -1.1178054709118705 
0.9099999999999161, -1.117891918784374 
0.919999999999915, -1.1176871456762973 
0.9299999999999139, -1.1172847854351224 
0.9399999999999128, -1.116775814040871 
0.9499999999999117, -1.1162924974755335 
0.9599999999999106, -1.1160447358813566 
0.9699999999999095, -1.1163116969448075 
0.9799999999999084, -1.1173533941890885 
0.9899999999999073, -1.1192773333629937 
0.9999999999999062, -1.1219699936350083 
1.0099999999999052, -1.1251525867475172 
1.019999999999904, -1.128498089028806 
1.029999999999903, -1.131719189300695 
1.039999999999902, -1.1346014642789435 
1.0499999999999008, -1.1370051054438188 
1.0599999999998997, -1.1388597933263975 
1.0699999999998986, -1.1401592389338364 
1.0799999999998975, -1.140950018922205 
1.0899999999998964, -1.1413116838892965 
1.0999999999998953, -1.1413344078234609 
1.1099999999998942, -1.1411042041108261 
1.119999999999893, -1.140701075281879 
1.129999999999892, -1.1402082621610146 
1.1399999999998909, -1.1397243393659007 
1.1499999999998898, -1.1393644998950858 
1.1599999999998887, -1.1392393136954235 
1.1699999999998876, -1.1394173207209037 
1.1799999999998865, -1.1398988097493885 
1.1899999999998854, -1.1406213333063042 
1.1999999999998843, -1.1414881511400812 
1.2099999999998832, -1.1423975397438588 
1.219999999999882, -1.143261123514265 
1.229999999999881, -1.144011018007032 
1.2399999999998799, -1.1445995346204298 
1.2499999999998788, -1.1449955002960652 
1.2599999999998777, -1.145180481424587 
1.2699999999998766, -1.1451467889999865 
1.2799999999998755, -1.1448974793199802 
1.2899999999998744, -1.1444473229358898 
1.2999999999998733, -1.1438237737944088 
1.3099999999998722, -1.143068032050388 
1.319999999999871, -1.1422363064726049 
1.32999999999987, -1.141399240999644 
1.3399999999998689, -1.1406356865847826 
1.3499999999998678, -1.1400193620041565 
1.3599999999998666, -1.1396021730533172 
1.3699999999998655, -1.139400172480974 
1.3799999999998644, -1.1393871466003669 
1.3899999999998633, -1.1395001205395707 
1.3999999999998622, -1.1396564635873636 
1.4099999999998611, -1.1397733861838166 
1.41999999999986, -1.1397793525226403 
1.429999999999859, -1.1396159236644405 
1.4399999999998578, -1.1392360801978008 
1.4499999999998567, -1.1386045449313664 
1.4599999999998556, -1.1377007347500467 
1.4699999999998545, -1.136521515046104 
1.4799999999998534, -1.1350816892039899 
1.4899999999998523, -1.1334134380231535 
1.4999999999998512, -1.1315676095207743 
1.5099999999998501, -1.129618019089424 
1.519999999999849, -1.1276663011374113 
1.529999999999848, -1.125841120767801 
1.5399999999998468, -1.12428278170932 
1.5499999999998457, -1.1231069768938264 
1.5599999999998446, -1.1223577903922424 
1.5699999999998435, -1.1219824680272061 
1.5799999999998424, -1.1218541272202958 
1.5899999999998413, -1.121825281598334 
1.5999999999998402, -1.1217690486709615 
1.6099999999998391, -1.1215869937158998 
1.619999999999838, -1.121193794806242 
1.629999999999837, -1.1204970219241295 
1.6399999999998358, -1.119384565810823 
1.6499999999998347, -1.1177274902214573 
1.6599999999998336, -1.1154025680444326 
1.6699999999998325, -1.112330573008294 
1.6799999999998314, -1.1085156563529506 
1.6899999999998303, -1.1040701634343661 
1.6999999999998292, -1.0992215284029894 
1.709999999999828, -1.0943055895219467 
1.719999999999827, -1.089738026406367 
1.729999999999826, -1.085937942008723 
1.7399999999998248, -1.0831965945365156 
1.7499999999998237, -1.0815555066936506 
1.7599999999998226, -1.080800405112044 
1.7699999999998215, -1.0805899147211269 
1.7799999999998204, -1.080609055286097 
1.7899999999998193, -1.0806424277559246 
1.7999999999998182, -1.0805634037677072 
1.809999999999817, -1.0802888068957408 
1.819999999999816, -1.0797337015530988 
1.8299999999998149, -1.0787745729271754 
1.8399999999998138, -1.0772198650159293 
1.8499999999998127, -1.0747934981788003 
1.8599999999998116, -1.0711521551630923 
1.8699999999998105, -1.0659665271629508 
1.8799999999998094, -1.0590749893558076 
1.8899999999998083, -1.0506570858870083 
1.8999999999998072, -1.0413231134443266 
1.909999999999806, -1.0320366977150646 
1.919999999999805, -1.0238629450261054 
1.9299999999998039, -1.0176189677819685 
1.9399999999998028, -1.013589865387849 
1.9499999999998017, -1.0114929526788674 
1.9599999999998006, -1.0107155907160266 
1.9699999999997995, -1.0106330555276704 
1.9799999999997984, -1.0107966491496416 
1.9899999999997973, -1.010953468083629 
1.9999999999997962, -1.0109813758768806 
2.0099999999998173, -1.010816484128854 
2.0199999999998384, -1.010400154064687 
2.0299999999998595, -1.0096421729773688 
2.0399999999998806, -1.0083907227687048 
2.0499999999999017, -1.0064066717869886 
2.059999999999923, -1.0033548686294904 
2.069999999999944, -0.9988447813875567 
2.079999999999965, -0.9925571221832079 
2.089999999999986, -0.9844455297750164 
2.100000000000007, -0.9749084227844055 
2.1100000000000283, -0.9647886735869212 
2.1200000000000494, -0.9551591383937664 
2.1300000000000705, -0.94699525065875 
2.1400000000000916, -0.9408886044948923 
2.1500000000001127, -0.936921701030174 
2.160000000000134, -0.9347472512197834 
2.170000000000155, -0.9338089001606464 
2.180000000000176, -0.9335667317171648 
2.190000000000197, -0.933622239214061 
2.2000000000002182, -0.9337332060776596 
2.2100000000002393, -0.9337698540726407 
2.2200000000002604, -0.9336611730107632 
2.2300000000002815, -0.9333527958819345 
2.2400000000003026, -0.9327782913018232 
2.2500000000003237, -0.9318404462267298 
2.260000000000345, -0.930402844013902 
2.270000000000366, -0.928299365193622 
2.280000000000387, -0.9253728274688147 
2.290000000000408, -0.9215423102639029 
2.3000000000004293, -0.9168698046167375 
2.3100000000004504, -0.911579643061771 
2.3200000000004715, -0.9060126471992241 
2.3300000000004926, -0.9005465828249279 
2.3400000000005137, -0.8955267072087711 
2.3500000000005348, -0.8912219550839519 
2.360000000000556, -0.8877982867675576 
2.370000000000577, -0.8853025714523358 
2.380000000000598, -0.8836635032477534 
2.390000000000619, -0.8827186352879176 
2.4000000000006403, -0.8822628431862866 
2.4100000000006614, -0.882098116131661 
2.4200000000006825, -0.8820647492721134 
2.4300000000007036, -0.8820482993848275 
2.4400000000007247, -0.8819699081862794 
2.450000000000746, -0.881771121595855 
2.460000000000767, -0.881401304097095 
2.470000000000788, -0.8808120846946256 
2.480000000000809, -0.8799608274409337 
2.49000000000083, -0.8788220106188362 
2.5000000000008513, -0.8774002881688897 
2.5100000000008724, -0.8757355469874725 
2.5200000000008935, -0.873894645563181 
2.5300000000009146, -0.8719549636172801 
2.5400000000009357, -0.8699904817858529 
2.550000000000957, -0.8680665796076085 
2.560000000000978, -0.8662418355372917 
2.570000000000999, -0.8645713758005437 
2.58000000000102, -0.8631073243549207 
2.5900000000010412, -0.861894731663529 
2.6000000000010624, -0.860964069530012 
2.6100000000010835, -0.8603233976999023 
2.6200000000011046, -0.8599541350369476 
2.6300000000011257, -0.8598132401572887 
2.6400000000011468, -0.8598415480579085 
2.650000000001168, -0.8599748236745015 
2.660000000001189, -0.8601532223644345 
2.67000000000121, -0.8603267970506174 
2.680000000001231, -0.8604574709864548 
2.6900000000012523, -0.8605192172127938 
2.7000000000012734, -0.8604974779544896 
2.7100000000012945, -0.8603873855454636 
2.7200000000013156, -0.8601900642785733 
2.7300000000013367, -0.8599079242442131 
2.740000000001358, -0.8595416315593004 
2.750000000001379, -0.8590908725137124 
2.7600000000014, -0.858558290778683 
2.770000000001421, -0.8579539443679364 
2.780000000001442, -0.8572982240312349 
2.7900000000014633, -0.8566230932447929 
2.8000000000014844, -0.8559722911980915 
2.8100000000015055, -0.8554002200161014 
2.8200000000015266, -0.8549681120403614 
2.8300000000015477, -0.8547364335706336 
2.840000000001569, -0.8547546278232987 
2.85000000000159, -0.8550516739038792 
2.860000000001611, -0.855631322461955 
2.870000000001632, -0.8564736484865547 
2.8800000000016532, -0.8575414201776888 
2.8900000000016743, -0.8587878355222628 
2.9000000000016954, -0.8601621426377468 
2.9100000000017165, -0.8616110444653706 
2.9200000000017377, -0.8630760343839592 
2.9300000000017588, -0.8644896304764002 
2.94000000000178, -0.8657758616144833 
2.950000000001801, -0.8668595856164675 
2.960000000001822, -0.8676830728004734 
2.970000000001843, -0.8682205135000892 
2.9800000000018643, -0.8684807268310998 
2.9900000000018854, -0.8684975466459617 
3.0000000000019065, -0.8683162838598888 
3.0100000000019276, -0.8679851323556557 
3.0200000000019487, -0.8675554110882375 
3.03000000000197, -0.8670903290203722 
3.040000000001991, -0.8666797760567722 
3.050000000002012, -0.8664561648743518 
3.060000000002033, -0.8666023909046011 
3.070000000002054, -0.8673405358005027 
3.0800000000020753, -0.8688950225784424 
3.0900000000020964, -0.8714378935795961 
3.1000000000021175, -0.8750364709936601 
3.1100000000021386, -0.8796216787172056 
3.1200000000021597, -0.8849811009337344 
3.130000000002181, -0.8907721991329198 
3.140000000002202, -0.8965585507624821 
3.150000000002223, -0.901881958095989 
3.160000000002244, -0.906368161572382 
3.1700000000022652, -0.9098219730951715 
3.1800000000022863, -0.9122508914181671 
3.1900000000023074, -0.9138054876613196 
3.2000000000023285, -0.9146875236565656 
3.2100000000023496, -0.9150812012265952 
3.2200000000023707, -0.9151243513812428 
3.230000000002392, -0.9149079812802853 
3.240000000002413, -0.9144894272286951 
3.250000000002434, -0.9139128723403888 
3.260000000002455, -0.9132397699028673 
3.2700000000024763, -0.9125966135765855 
3.2800000000024974, -0.9122441306297899 
3.2900000000025185, -0.9126517404333148 
3.3000000000025396, -0.9145207418240302 
3.3100000000025607, -0.9186669648592843 
3.3200000000025818, -0.9257137670914009 
3.330000000002603, -0.9356903817849581 
3.340000000002624, -0.9477835150914073 
3.350000000002645, -0.960483852580332 
3.360000000002666, -0.972135152371834 
3.3700000000026873, -0.9815704639332423 
3.3800000000027084, -0.9884192651355065 
3.3900000000027295, -0.9929582158564795 
3.4000000000027506, -0.9957461692563779 
3.4100000000027717, -0.9973324831919264 
3.420000000002793, -0.9981325490447708 
3.430000000002814, -0.9984176265446113 
3.440000000002835, -0.9983472400177587 
3.450000000002856, -0.9980059089488702 
3.460000000002877, -0.9974352091069157 
3.4700000000028983, -0.9966681364801365 
3.4800000000029194, -0.9957819957009434 
3.4900000000029405, -0.9949889836747179 
3.5000000000029616, -0.9947641424465858 
3.5100000000029827, -0.9959409808090619 
3.520000000003004, -0.9996054859182637 
3.530000000003025, -1.0066421219540749 
3.540000000003046, -1.0170890136736475 
3.550000000003067, -1.029812823435038 
3.5600000000030882, -1.042888772610158 
3.5700000000031094, -1.0544643556671454 
3.5800000000031305, -1.063470755039797 
3.5900000000031516, -1.069761154973917 
3.6000000000031727, -1.0737837265337886 
3.6100000000031938, -1.076165579451751 
3.620000000003215, -1.0774552311532193 
3.630000000003236, -1.0780417558958968 
3.640000000003257, -1.0781692281138926 
3.650000000003278, -1.0779790034529246 
3.6600000000032993, -1.0775523170498065 
3.6700000000033204, -1.0769525927849046 
3.6800000000033415, -1.076279001078498 
3.6900000000033626, -1.0757402996280958 
3.7000000000033837, -1.075728468049261 
3.710000000003405, -1.0768125961930939 
3.720000000003426, -1.0795559960080117 
3.730000000003447, -1.084199687098745 
3.740000000003468, -1.09045626860388 
3.750000000003489, -1.0976020151546677 
3.7600000000035103, -1.1047697948711028 
3.7700000000035314, -1.1112223733047604 
3.7800000000035525, -1.1164988895180112 
3.7900000000035736, -1.12044182212033 
3.8000000000035947, -1.1231381665801266 
3.810000000003616, -1.1248132386060383 
3.820000000003637, -1.1257253308011914 
3.830000000003658, -1.1260981997024078 
3.840000000003679, -1.1260981255449891 
3.8500000000037002, -1.1258418643133425 
3.8600000000037213, -1.1254209631567564 
3.8700000000037424, -1.12493452407258 
3.8800000000037635, -1.1245223875421595 
3.8900000000037847, -1.1243785209538681 
3.9000000000038058, -1.1247151178973707 
3.910000000003827, -1.125676341851395 
3.920000000003848, -1.127261519345712 
3.930000000003869, -1.1293258289497212 
3.94000000000389, -1.1316506187684372 
3.9500000000039113, -1.1340189254764295 
3.9600000000039324, -1.1362550782761232 
3.9700000000039535, -1.1382318359489605 
3.9800000000039746, -1.1398646361179412 
3.9900000000039957, -1.1411064886525104 
4.000000000004016, -1.1419462250385526 
4.010000000003993, -1.1424057111293888 
4.02000000000397, -1.1425318653870347 
4.030000000003946, -1.1423852179030023 
4.040000000003923, -1.1420313019334831 
4.0500000000039, -1.141539695691268 
4.0600000000038765, -1.1409896086533193 
4.070000000003853, -1.1404741804967586 
4.08000000000383, -1.1400926060886043 
4.090000000003807, -1.139926533330596 
4.100000000003783, -1.1400135518270964 
4.11000000000376, -1.1403370603894385 
4.120000000003737, -1.1408372722222688 
4.130000000003713, -1.1414322315319532 
4.14000000000369, -1.1420374508197588 
4.150000000003667, -1.1425792470731253 
4.1600000000036434, -1.1430007942849554 
4.17000000000362, -1.143262394952157 
4.180000000003597, -1.1433389024495733 
4.1900000000035735, -1.143216755265679 
4.20000000000355, -1.142891925618552 
4.210000000003527, -1.1423693595552569 
4.220000000003504, -1.141663951889559 
4.23000000000348, -1.1408026500660389 
4.240000000003457, -1.1398270806568098 
4.250000000003434, -1.1387955046104206 
4.26000000000341, -1.1377816073523568 
4.270000000003387, -1.1368672951429208 
4.280000000003364, -1.136128774407874 
4.2900000000033405, -1.1356181145451019 
4.300000000003317, -1.1353454314046394 
4.310000000003294, -1.1352710852510222 
4.320000000003271, -1.135316278386777 
4.330000000003247, -1.1353871547659176 
4.340000000003224, -1.135395839930483 
4.350000000003201, -1.135267804390266 
4.360000000003177, -1.1349389917081427 
4.370000000003154, -1.1343522236019414 
4.380000000003131, -1.1334591294751082 
4.390000000003107, -1.132227402456363 
4.400000000003084, -1.1306485173303318 
4.410000000003061, -1.1287414222579168 
4.4200000000030375, -1.1265525875192037 
4.430000000003014, -1.1241567326576165 
4.440000000002991, -1.1216610862269998 
4.450000000002968, -1.119210021173427 
4.460000000002944, -1.1169796383634254 
4.470000000002921, -1.115148175678767 
4.480000000002898, -1.1138388464176978 
4.490000000002874, -1.113062868341721 
4.500000000002851, -1.112711250801563 
4.510000000002828, -1.1126088333795585 
4.520000000002804, -1.1125845250668724 
4.530000000002781, -1.112507107606344 
4.540000000002758, -1.1122798292691842 
4.5500000000027345, -1.1118152721243837 
4.560000000002711, -1.1110096055657868 
4.570000000002688, -1.1097262628781404 
4.580000000002665, -1.1077969430978216 
4.590000000002641, -1.1050483107562854 
4.600000000002618, -1.1013553462608843 
4.610000000002595, -1.0967051625403743 
4.620000000002571, -1.0912444267694417 
4.630000000002548, -1.0852937637932836 
4.640000000002525, -1.0793267858548634 
4.6500000000025015, -1.0739039876089556 
4.660000000002478, -1.069541192287753 
4.670000000002455, -1.0665327921731387 
4.6800000000024315, -1.0648356007594795 
4.690000000002408, -1.0641230028135433 
4.700000000002385, -1.063973346691057 
4.710000000002362, -1.0640382768981984 
4.720000000002338, -1.064098391618859 
4.730000000002315, -1.064033131968427 
4.740000000002292, -1.0637660421916002 
4.750000000002268, -1.0632170238680485 
4.760000000002245, -1.0622649443975758 
4.770000000002222, -1.060716526285613 
4.7800000000021985, -1.0582854909058923 
4.790000000002175, -1.0546032244202388 
4.800000000002152, -1.0492968673936764 
4.810000000002129, -1.0421541514149344 
4.820000000002105, -1.0333256830153474 
4.830000000002082, -1.0234414797009155 
4.840000000002059, -1.0135309901171967 
4.850000000002035, -1.0047397800900622 
4.860000000002012, -0.9979497534568482 
4.870000000001989, -0.9934858713591248 
4.880000000001965, -0.9910822844587651 
4.890000000001942, -0.9901203643275043 
4.900000000001919, -0.989950194758651 
4.9100000000018955, -0.9900906861198907 
4.920000000001872, -0.9902619135437023 
4.930000000001849, -0.9903258111486414 
