t, s[1].omega / s[0].omega 
0, -0.7099976882501837 
0.009999999999999995, -0.7097541050282277 
0.019999999999999934, -0.7094814277795513 
0.029999999999999874, -0.7091688662590323 
0.04000000000000012, -0.7088057435278478 
0.050000000000000405, -0.7083876565297624 
0.06000000000000069, -0.7079197957275091 
0.07000000000000098, -0.7074176944453987 
0.08000000000000126, -0.7069074624437272 
0.09000000000000155, -0.7064272840836125 
0.10000000000000184, -0.7060306076468448 
0.11000000000000212, -0.7057901463285509 
0.12000000000000241, -0.7058009946569214 
0.130000000000002, -0.7061809428959122 
0.1400000000000009, -0.7070664982760935 
0.1499999999999998, -0.7086039460897298 
0.1599999999999987, -0.7109351905242004 
0.1699999999999976, -0.7141771452009179 
0.1799999999999965, -0.7183912907558783 
0.1899999999999954, -0.7235397450284339 
0.1999999999999943, -0.729432542096305 
0.2099999999999932, -0.7356935062134639 
0.2199999999999921, -0.7417963671780528 
0.229999999999991, -0.7472029676517655 
0.2399999999999899, -0.7515455069587461 
0.2499999999999888, -0.7547250042361091 
0.2599999999999877, -0.7568654582613197 
0.2699999999999866, -0.758191233873568 
0.2799999999999855, -0.7589240104213609 
0.2899999999999844, -0.7592345608711883 
0.2999999999999833, -0.7592342450281799 
0.3099999999999822, -0.7589822538130866 
0.3199999999999811, -0.7584940722475568 
0.32999999999998, -0.7577454723442761 
0.3399999999999789, -0.7566707075699801 
0.3499999999999778, -0.7551553086051918 
0.35999999999997667, -0.7530251162108665 
0.36999999999997557, -0.7500354562704483 
0.37999999999997447, -0.7458696196626734 
0.38999999999997337, -0.7401695447389665 
0.39999999999997227, -0.7326520242135552 
0.40999999999997117, -0.7233790990151702 
0.41999999999997006, -0.7131000063920301 
0.42999999999996896, -0.703240649123362 
0.43999999999996786, -0.6952385722421031 
0.44999999999996676, -0.6897756951216839 
0.45999999999996566, -0.6866545196725482 
0.46999999999996456, -0.685218758294373 
0.47999999999996346, -0.68478610989443 
0.48999999999996235, -0.6848489063324567 
0.49999999999996125, -0.6850943789354356 
0.5099999999999602, -0.685354016311132 
0.519999999999959, -0.6855462741032845 
0.529999999999958, -0.6856339331880781 
0.5399999999999568, -0.6855972224335554 
0.5499999999999557, -0.68541823869018 
0.5599999999999546, -0.6850726621476564 
0.5699999999999535, -0.6845270609408426 
0.5799999999999524, -0.683742461612152 
0.5899999999999513, -0.6826857737000444 
0.5999999999999502, -0.6813478283217351 
0.6099999999999491, -0.6797598433414362 
0.619999999999948, -0.6779954700364911 
0.6299999999999469, -0.6761527629933755 
0.6399999999999458, -0.6743262315751412 
0.6499999999999447, -0.6725861908447729 
0.6599999999999436, -0.6709739002213513 
0.6699999999999425, -0.6695086899891464 
0.6799999999999414, -0.6681987937193654 
0.6899999999999403, -0.6670500874231213 
0.6999999999999392, -0.6660708600921976 
0.7099999999999381, -0.6652731147230533 
0.719999999999937, -0.664671616823155 
0.7299999999999359, -0.6642818403110214 
0.7399999999999348, -0.6641177522395298 
0.7499999999999337, -0.6641901919182243 
0.7599999999999326, -0.6645063480968901 
0.7699999999999315, -0.6650704420564256 
0.7799999999999304, -0.6658852115578076 
0.7899999999999293, -0.6669532328602485 
0.7999999999999282, -0.6682765676369894 
0.8099999999999271, -0.6698528061250336 
0.819999999999926, -0.6716658038634985 
0.8299999999999249, -0.6736714121245009 
0.8399999999999238, -0.6757834235549293 
0.8499999999999227, -0.677871279884284 
0.8599999999999216, -0.6797813330851334 
0.8699999999999205, -0.6813790312285153 
0.8799999999999194, -0.6825882421016384 
0.8899999999999183, -0.683401978026825 
0.8999999999999172, -0.6838626717303401 
0.9099999999999161, -0.6840314831362743 
0.919999999999915, -0.6839646717898936 
0.9299999999999139, -0.6837020905740001 
0.9399999999999128, -0.6832644823395513 
0.9499999999999117, -0.6826552496579036 
0.9599999999999106, -0.6818646389810921 
0.9699999999999095, -0.6808768592876455 
0.9799999999999084, -0.6796825165397445 
0.9899999999999073, -0.6782987004045481 
0.9999999999999062, -0.6767935462112923 
1.0099999999999052, -0.6752953717203216 
1.019999999999904, -0.6739428432138851 
1.029999999999903, -0.6727511031537525 
1.039999999999902, -0.6715122175070325 
1.0499999999999008, -0.6699827497468479 
1.0599999999998997, -0.6682736663659067 
1.0699999999998986, -0.6668611520770623 
1.0799999999998975, -0.6661340551106628 
1.0899999999998964, -0.6661082480289034 
1.0999999999998953, -0.6665436243214005 
1.1099999999998942, -0.6671667772507417 
1.119999999999893, -0.667785189460308 
1.129999999999892, -0.668297666763807 
1.1399999999998909, -0.6686649295455036 
1.1499999999998898, -0.6688786388229863 
1.1599999999998887, -0.6689399022966526 
1.1699999999998876, -0.6688465163402861 
1.1799999999998865, -0.6685858275278058 
1.1899999999998854, -0.6681312803724979 
1.1999999999998843, -0.6674429458032233 
1.2099999999998832, -0.6664744817812511 
1.219999999999882, -0.665189197266437 
1.229999999999881, -0.6635831753405862 
1.2399999999998799, -0.6617039724113969 
1.2499999999998788, -0.6596489130541228 
1.2599999999998777, -0.6575389020675899 
1.2699999999998766, -0.6554837297012096 
1.2799999999998755, -0.653559906993326 
1.2899999999998744, -0.6518082669881277 
1.2999999999998733, -0.6502443136625762 
1.3099999999998722, -0.6488711948648466 
1.319999999999871, -0.6476893621074589 
1.32999999999987, -0.6467015671291333 
1.3399999999998689, -0.6459141807343978 
1.3499999999998678, -0.645336336210591 
1.3599999999998666, -0.6449781682481602 
1.3699999999998655, -0.6448490819610672 
1.3799999999998644, -0.6449566985243955 
1.3899999999998633, -0.645306819634422 
1.3999999999998622, -0.6459043730516704 
1.4099999999998611, -0.6467548475776698 
1.41999999999986, -0.6478652100566691 
1.429999999999859, -0.6492427262737748 
1.4399999999998578, -0.6508896386120451 
1.4499999999998567, -0.6527919348816023 
1.4599999999998556, -0.6549028462804393 
1.4699999999998545, -0.6571274953354959 
1.4799999999998534, -0.6593221323012477 
1.4899999999998523, -0.6613204616828584 
1.4999999999998512, -0.6629816007518649 
1.5099999999998501, -0.6642311765893644 
1.519999999999849, -0.6650687700492147 
1.529999999999848, -0.6655435502178497 
1.5399999999998468, -0.6657209814917755 
1.5499999999998457, -0.6656587903520914 
1.5599999999998446, -0.665395770930842 
1.5699999999998435, -0.664948913394145 
1.5799999999998424, -0.6643138344005497 
1.5899999999998413, -0.6634657139251566 
1.5999999999998402, -0.6623599135166992 
1.6099999999998391, -0.6609322625155515 
1.619999999999838, -0.6590978476097923 
1.629999999999837, -0.6567424155649465 
1.6399999999998358, -0.6536934581337239 
1.6499999999998347, -0.6496685860660457 
1.6599999999998336, -0.6442778982476134 
1.6699999999998325, -0.6372763130670209 
1.6799999999998314, -0.6290739840134738 
1.6899999999998303, -0.6208904366055922 
1.6999999999998292, -0.614069524935085 
1.709999999999828, -0.6092726081779197 
1.719999999999827, -0.6063783227036355 
1.729999999999826, -0.6048800493561861 
1.7399999999998248, -0.6042485694021634 
1.7499999999998237, -0.6040851701170521 
1.7599999999998226, -0.604135090495416 
1.7699999999998215, -0.6042512406475924 
1.7799999999998204, -0.6043539630189274 
1.7899999999998193, -0.6044007806040662 
1.7999999999998182, -0.6043668791323578 
1.809999999999817, -0.6042337435390464 
1.819999999999816, -0.6039837317347988 
1.8299999999998149, -0.6035995998526527 
1.8399999999998138, -0.6030686991524493 
1.8499999999998127, -0.6023906697531152 
1.8599999999998116, -0.6015847568084817 
1.8699999999998105, -0.6006907459313342 
1.8799999999998094, -0.5997600586867754 
1.8899999999998083, -0.5988407147751983 
1.8999999999998072, -0.5979648216260327 
1.909999999999806, -0.5971447959974778 
1.919999999999805, -0.5963780529202044 
1.9299999999998039, -0.595655643728209 
1.9399999999998028, -0.5949702483839364 
1.9499999999998017, -0.5943213070921989 
1.9599999999998006, -0.5937175694049108 
1.9699999999997995, -0.593178551026718 
1.9799999999997984, -0.5927362753066486 
1.9899999999997973, -0.5924379883479508 
1.9999999999997962, -0.592349925770888 
2.0099999999998173, -0.5925618711208908 
2.0199999999998384, -0.5931920578799728 
2.0299999999998595, -0.5943916316920775 
2.0399999999998806, -0.5963468917256803 
2.0499999999999017, -0.5992750416925562 
2.059999999999923, -0.6034043192209035 
2.069999999999944, -0.608922853504777 
2.079999999999965, -0.6158796141825198 
2.089999999999986, -0.6240454443508383 
2.100000000000007, -0.6328125573123756 
2.1100000000000283, -0.6412790092367167 
2.1200000000000494, -0.648574134085685 
2.1300000000000705, -0.6542138463927052 
2.1400000000000916, -0.658193322097406 
2.1500000000001127, -0.6608084353089657 
2.160000000000134, -0.6624274587888185 
2.170000000000155, -0.6633603301142914 
2.180000000000176, -0.6638239163847417 
2.190000000000197, -0.6639519310866739 
2.2000000000002182, -0.6638136508536738 
2.2100000000002393, -0.6634270087468013 
2.2200000000002604, -0.6627622690671552 
2.2300000000002815, -0.661735680002957 
2.2400000000003026, -0.660193727863004 
2.2500000000003237, -0.6578928479289041 
2.260000000000345, -0.6544926665064537 
2.270000000000366, -0.6496053742122322 
2.280000000000387, -0.6429552744212095 
2.290000000000408, -0.6346303121553153 
2.3000000000004293, -0.625237451275684 
2.3100000000004504, -0.6157389687355689 
2.3200000000004715, -0.6070473689817869 
2.3300000000004926, -0.5997169175496351 
2.3400000000005137, -0.5939066102632143 
2.3500000000005348, -0.5895117158351152 
2.360000000000556, -0.5863099091976738 
2.370000000000577, -0.5840560285924945 
2.380000000000598, -0.5825270765125158 
2.390000000000619, -0.5815373806456244 
2.4000000000006403, -0.5809397773496336 
2.4100000000006614, -0.5806214586156899 
2.4200000000006825, -0.5804983530818996 
2.4300000000007036, -0.5805096003616497 
2.4400000000007247, -0.5806127710845594 
2.450000000000746, -0.5807801630785494 
2.460000000000767, -0.580996284281612 
2.470000000000788, -0.5812562416239346 
2.480000000000809, -0.5815641150129057 
2.49000000000083, -0.5819297893348206 
2.5000000000008513, -0.5823628504770023 
2.5100000000008724, -0.5828636789305093 
2.5200000000008935, -0.5834145633702993 
2.5300000000009146, -0.5839759680312029 
2.5400000000009357, -0.5844924936202776 
2.550000000000957, -0.5849078263262559 
2.560000000000978, -0.5851809093525527 
2.570000000000999, -0.5852940005669673 
2.58000000000102, -0.5852498067481529 
2.5900000000010412, -0.5850624618430462 
2.6000000000010624, -0.5847488043343517 
2.6100000000010835, -0.5843234372381304 
2.6200000000011046, -0.5837981018528742 
2.6300000000011257, -0.5831850164146998 
2.6400000000011468, -0.5825044369278498 
2.650000000001168, -0.5817975374268158 
2.660000000001189, -0.5811452173128753 
2.67000000000121, -0.5806884859394089 
2.680000000001231, -0.5806307002594593 
2.6900000000012523, -0.5811727968772302 
2.7000000000012734, -0.5823198428738453 
2.7100000000012945, -0.5836149955561913 
2.7200000000013156, -0.5841679502833506 
2.7300000000013367, -0.5833261625840656 
2.740000000001358, -0.5813716071611352 
2.750000000001379, -0.5792316662595002 
2.7600000000014, -0.5776348337086693 
2.770000000001421, -0.5767688391516966 
2.780000000001442, -0.5764774195391817 
2.7900000000014633, -0.5765236116669908 
2.8000000000014844, -0.576717405293767 
2.8100000000015055, -0.5769392240849988 
2.8200000000015266, -0.5771236932620541 
2.8300000000015477, -0.5772378360634502 
2.840000000001569, -0.577264354394357 
2.85000000000159, -0.5771910475698752 
2.860000000001611, -0.5770051514066771 
2.870000000001632, -0.5766917577027995 
2.8800000000016532, -0.576236309388411 
2.8900000000016743, -0.5756311539494623 
2.9000000000016954, -0.5748842889701362 
2.9100000000017165, -0.5740252957666564 
2.9200000000017377, -0.5731025405029768 
2.9300000000017588, -0.5721705550343053 
2.94000000000178, -0.5712741293309171 
2.950000000001801, -0.5704381082385312 
2.960000000001822, -0.5696669759385274 
2.970000000001843, -0.5689518790168002 
2.9800000000018643, -0.5682799585083793 
2.9900000000018854, -0.567641897050198 
3.0000000000019065, -0.5670362593493433 
3.0100000000019276, -0.5664714861896804 
3.0200000000019487, -0.5659672951289791 
3.03000000000197, -0.5655569596548652 
3.040000000001991, -0.5652912742197784 
3.050000000002012, -0.5652445104968623 
3.060000000002033, -0.5655223998176766 
3.070000000002054, -0.5662719027440439 
3.0800000000020753, -0.5676917835064329 
3.0900000000020964, -0.5700409120997361 
3.1000000000021175, -0.5736362074778301 
3.1100000000021386, -0.5788224527675558 
3.1200000000021597, -0.5858837583846365 
3.130000000002181, -0.5948684058235879 
3.140000000002202, -0.6053594224433796 
3.150000000002223, -0.6163664651498574 
3.160000000002244, -0.6265836462932809 
3.1700000000022652, -0.6349640896886021 
3.1800000000022863, -0.641133628762814 
3.1900000000023074, -0.6453172617557343 
3.2000000000023285, -0.6479957454067331 
3.2100000000023496, -0.6496347811612646 
3.2200000000023707, -0.6505819530465605 
3.230000000002392, -0.6510644602513398 
3.240000000002413, -0.65121715113468 
3.250000000002434, -0.6511086339337554 
3.260000000002455, -0.6507570338860762 
3.2700000000024763, -0.6501352759388013 
3.2800000000024974, -0.6491676739116381 
3.2900000000025185, -0.6477211993298341 
3.3000000000025396, -0.6456001316114687 
3.3100000000025607, -0.6425639932285214 
3.3200000000025818, -0.6383983242226545 
3.330000000002603, -0.6330471720806415 
3.340000000002624, -0.6267401947681578 
3.350000000002645, -0.6199852452935091 
3.360000000002666, -0.6133866893543182 
3.3700000000026873, -0.6074260140892405 
3.3800000000027084, -0.6023587584839383 
3.3900000000027295, -0.5982410469012549 
3.4000000000027506, -0.5950082047311323 
3.4100000000027717, -0.5925436821917327 
3.420000000002793, -0.5907203513196841 
3.430000000002814, -0.5894196228651274 
3.440000000002835, -0.5885380961845836 
3.450000000002856, -0.587988680277468 
3.460000000002877, -0.5876998038131173 
3.4700000000028983, -0.5876141945570541 
3.4800000000029194, -0.5876876856484231 
3.4900000000029405, -0.5878881601411104 
3.5000000000029616, -0.5881946738502023 
3.5100000000029827, -0.5885966919568622 
3.520000000003004, -0.5890930382467775 
3.530000000003025, -0.5896895904951851 
3.540000000003046, -0.5903943282920128 
3.550000000003067, -0.5912087910900949 
3.5600000000030882, -0.5921170323459573 
3.5700000000031094, -0.5930765701946868 
3.5800000000031305, -0.594018471799609 
3.5900000000031516, -0.5948613215462767 
3.6000000000031727, -0.5955344910554249 
3.6100000000031938, -0.5959971544215645 
3.620000000003215, -0.5962420614986722 
3.630000000003236, -0.5962853395753569 
3.640000000003257, -0.5961518277806966 
3.650000000003278, -0.5958637385081205 
3.6600000000032993, -0.5954348243432867 
3.6700000000033204, -0.5948688360372154 
3.6800000000033415, -0.594160625359687 
3.6900000000033626, -0.5932990367545102 
3.7000000000033837, -0.5922711345864956 
3.710000000003405, -0.5910657129339535 
3.720000000003426, -0.5896677068120948 
3.730000000003447, -0.5880216634381455 
3.740000000003468, -0.5859334167278124 
3.750000000003489, -0.5829342029864535 
3.7600000000035103, -0.5783279776011185 
3.7700000000035314, -0.5717408192284352 
3.7800000000035525, -0.5638386246814526 
3.7900000000035736, -0.5561413230224705 
3.8000000000035947, -0.5499485440237379 
3.810000000003616, -0.545682468969569 
3.820000000003637, -0.5430837040229602 
3.830000000003658, -0.5416617016528531 
3.840000000003679, -0.5409702343299976 
3.8500000000037002, -0.5406896198400608 
3.8600000000037213, -0.5406165902089588 
3.8700000000037424, -0.5406303024424183 
3.8800000000037635, -0.5406613186810871 
3.8900000000037847, -0.5406696198126251 
3.9000000000038058, -0.5406308119589665 
3.910000000003827, -0.5405285145636507 
3.920000000003848, -0.540351444282966 
3.930000000003869, -0.5400942293394217 
3.94000000000389, -0.5397606830568885 
3.9500000000039113, -0.5393670057161619 
3.9600000000039324, -0.5389413472080516 
3.9700000000039535, -0.5385174523848886 
3.9800000000039746, -0.5381240734869985 
3.9900000000039957, -0.5377753407126307 
4.000000000004016, -0.5374670544357839 
4.010000000003993, -0.5371803823517908 
4.02000000000397, -0.5368905253386753 
4.030000000003946, -0.5365757913345452 
4.040000000003923, -0.5362232584331064 
4.0500000000039, -0.5358301501022095 
4.0600000000038765, -0.5354028044513746 
4.070000000003853, -0.5349559594340888 
4.08000000000383, -0.5345144462634136 
4.090000000003807, -0.5341186616857034 
4.100000000003783, -0.53383510852876 
4.11000000000376, -0.5337737305172529 
4.120000000003737, -0.5341140336883212 
4.130000000003713, -0.5351405155385117 
4.14000000000369, -0.5372809379376843 
4.150000000003667, -0.5411207502406011 
4.1600000000036434, -0.5473252966103961 
4.17000000000362, -0.5563590888073625 
4.180000000003597, -0.5679710342477682 
4.1900000000035735, -0.580795678253015 
4.20000000000355, -0.5927683835783557 
4.210000000003527, -0.6023222408237336 
4.220000000003504, -0.6091167931540229 
4.23000000000348, -0.6136685758710005 
4.240000000003457, -0.6166681265681695 
4.250000000003434, -0.6186478394296762 
4.26000000000341, -0.619951688263065 
4.270000000003387, -0.620792624039767 
4.280000000003364, -0.6213028918382405 
4.2900000000033405, -0.6215638089700501 
4.300000000003317, -0.6216215840472984 
4.310000000003294, -0.6214953077261842 
4.320000000003271, -0.6211806572543954 
4.330000000003247, -0.6206518336788236 
4.340000000003224, -0.6198648268247646 
4.350000000003201, -0.6187665043962026 
4.360000000003177, -0.6173139388607477 
4.370000000003154, -0.6155026600365302 
4.380000000003131, -0.613390334362899 
4.390000000003107, -0.6110953246381935 
4.400000000003084, -0.6087638209444901 
4.410000000003061, -0.6065257358422838 
4.4200000000030375, -0.6044669148751398 
4.430000000003014, -0.6026269421932742 
4.440000000002991, -0.6010130114381788 
4.450000000002968, -0.5996167565159534 
4.460000000002944, -0.5984267735059364 
4.470000000002921, -0.5974354489173488 
4.480000000002898, -0.596641486714311 
4.490000000002874, -0.5960499898956954 
4.500000000002851, -0.5956715016117216 
4.510000000002828, -0.5955208812177254 
4.520000000002804, -0.5956165375514517 
4.530000000002781, -0.5959803113301526 
4.540000000002758, -0.5966380539461484 
4.5500000000027345, -0.5976205657673924 
4.560000000002711, -0.5989639211567871 
4.570000000002688, -0.6007072310218401 
4.580000000002665, -0.602884682555251 
4.590000000002641, -0.6055080665658494 
4.600000000002618, -0.6085383124801222 
4.610000000002595, -0.6118535028927952 
4.620000000002571, -0.6152361813226697 
4.630000000002548, -0.6184090511625963 
4.640000000002525, -0.6211198683554121 
4.6500000000025015, -0.6232249935143155 
4.660000000002478, -0.6247125302118961 
4.670000000002455, -0.6256617113366345 
4.6800000000024315, -0.62618298121346 
4.690000000002408, -0.6263755151598966 
4.700000000002385, -0.6263086472218089 
4.710000000002362, -0.6260175018868127 
4.720000000002338, -0.6255024286685391 
4.730000000002315, -0.6247256131818916 
4.740000000002292, -0.6236006189168756 
4.750000000002268, -0.6219710044597222 
4.760000000002245, -0.619574659639406 
4.770000000002222, -0.6159973274168927 
4.7800000000021985, -0.6106468597211607 
4.790000000002175, -0.6028443612489466 
4.800000000002152, -0.5921738723987395 
4.810000000002129, -0.5790373297584208 
4.820000000002105, -0.5648788684081525 
4.830000000002082, -0.5515769121711546 
4.840000000002059, -0.5404916886639943 
4.850000000002035, -0.5320664162623998 
4.860000000002012, -0.5260681287824449 
4.870000000001989, -0.521989282644502 
4.880000000001965, -0.5193106768134373 
4.890000000001942, -0.5176063818223169 
4.900000000001919, -0.5165606000839159 
4.9100000000018955, -0.5159513289599109 
4.920000000001872, -0.5156272849909943 
