t, s[1].omega / s[0].omega 
0, -0.6899976965260535 
0.009999999999999995, -0.6897650078598166 
0.019999999999999934, -0.6895201212378039 
0.029999999999999874, -0.6892444796885852 
0.04000000000000012, -0.6889180431589467 
0.050000000000000405, -0.6885286822219961 
0.06000000000000069, -0.6880773346848559 
0.07000000000000098, -0.6875790126187988 
0.08000000000000126, -0.6870627248003738 
0.09000000000000155, -0.6865732958592088 
0.10000000000000184, -0.686176225649203 
0.11000000000000212, -0.6859648764348887 
0.12000000000000241, -0.6860679983144867 
0.130000000000002, -0.6866549231730787 
0.1400000000000009, -0.6879357727309549 
0.1499999999999998, -0.6901546367856792 
0.1599999999999987, -0.6935738864297708 
0.1699999999999976, -0.6984457405549415 
0.1799999999999965, -0.7049619590501445 
0.1899999999999954, -0.7131680919071636 
0.1999999999999943, -0.7228397426735562 
0.2099999999999932, -0.7333679881968405 
0.2199999999999921, -0.743779935858772 
0.229999999999991, -0.7530119206372656 
0.2399999999999899, -0.7603297916263512 
0.2499999999999888, -0.7655660251755082 
0.2599999999999877, -0.7690058615593831 
0.2699999999999866, -0.7711060130851346 
0.2799999999999855, -0.7722847733315976 
0.2899999999999844, -0.7728444862312032 
0.2999999999999833, -0.772972880536622 
0.3099999999999822, -0.7727671604744162 
0.3199999999999811, -0.7722539081438248 
0.32999999999998, -0.7713966868766782 
0.3399999999999789, -0.7700895788370341 
0.3499999999999778, -0.7681352727221398 
0.35999999999997667, -0.7652052589102101 
0.36999999999997557, -0.7607805700879038 
0.37999999999997447, -0.7540820383599496 
0.38999999999997337, -0.7440450675970879 
0.39999999999997227, -0.7295265097283201 
0.40999999999997117, -0.710076852868743 
0.41999999999997006, -0.6871642087792158 
0.42999999999996896, -0.6643823602372417 
0.43999999999996786, -0.645478417698729 
0.44999999999996676, -0.6321597910934244 
0.45999999999996566, -0.6239656005510054 
0.46999999999996456, -0.6194733776712168 
0.47999999999996346, -0.6172829451539299 
0.48999999999996235, -0.616376392997782 
0.49999999999996125, -0.6161169189771136 
0.5099999999999602, -0.6161405152537747 
0.519999999999959, -0.6162512069264886 
0.529999999999958, -0.616346916482728 
0.5399999999999568, -0.6163733389012248 
0.5499999999999557, -0.6162973265139253 
0.5599999999999546, -0.6160929330809062 
0.5699999999999535, -0.6157363393969756 
0.5799999999999524, -0.615208196071881 
0.5899999999999513, -0.6145020576844404 
0.5999999999999502, -0.6136346878039749 
0.6099999999999491, -0.6126502370578253 
0.619999999999948, -0.611611634312921 
0.6299999999999469, -0.6105816141697705 
0.6399999999999458, -0.6096045117405539 
0.6499999999999447, -0.6086987068859087 
0.6599999999999436, -0.6078610312664918 
0.6699999999999425, -0.6070777850415078 
0.6799999999999414, -0.6063359581511221 
0.6899999999999403, -0.6056309013768568 
0.6999999999999392, -0.6049701357172173 
0.7099999999999381, -0.604375122149497 
0.719999999999937, -0.6038830208542659 
0.7299999999999359, -0.6035495490668208 
0.7399999999999348, -0.6034530719851887 
0.7499999999999337, -0.6036995321453702 
0.7599999999999326, -0.6044277110499008 
0.7699999999999315, -0.6058143285589084 
0.7799999999999304, -0.6080780632903269 
0.7899999999999293, -0.6114797120836677 
0.7999999999999282, -0.6163108679207309 
0.8099999999999271, -0.6228544430982773 
0.819999999999926, -0.6312901546891073 
0.8299999999999249, -0.6415247691275143 
0.8399999999999238, -0.6529915256517124 
0.8499999999999227, -0.6645973671993931 
0.8599999999999216, -0.6750334463712991 
0.8699999999999205, -0.6833479769432673 
0.8799999999999194, -0.6892973453786874 
0.8899999999999183, -0.6932090073884607 
0.8999999999999172, -0.695618067725335 
0.9099999999999161, -0.6970077496378462 
0.919999999999915, -0.6977223783453201 
0.9299999999999139, -0.6979747521506647 
0.9399999999999128, -0.6978770122507691 
0.9499999999999117, -0.6974642178502857 
0.9599999999999106, -0.6967020542641388 
0.9699999999999095, -0.6954759651146729 
0.9799999999999084, -0.6935579241066401 
0.9899999999999073, -0.6905465325021387 
0.9999999999999062, -0.6857883253716672 
1.0099999999999052, -0.6783398248468056 
1.019999999999904, -0.6671423845037219 
1.029999999999903, -0.6516335327615528 
1.039999999999902, -0.6326162779839789 
1.0499999999999008, -0.6124300426865383 
1.0599999999998997, -0.5938163508586698 
1.0699999999998986, -0.5785414410681338 
1.0799999999998975, -0.567033632474123 
1.0899999999998964, -0.5588601179598881 
1.0999999999998953, -0.5532908867768689 
1.1099999999998942, -0.5496197293634666 
1.119999999999893, -0.5472768538853409 
1.129999999999892, -0.5458391293257769 
1.1399999999998909, -0.5450056833428769 
1.1499999999998898, -0.5445681232183898 
1.1599999999998887, -0.5443848863596614 
1.1699999999998876, -0.5443615608776265 
1.1799999999998865, -0.5444367130034559 
1.1899999999998854, -0.544572359554574 
1.1999999999998843, -0.5447482714595413 
1.2099999999998832, -0.5449591553039912 
1.219999999999882, -0.5452131711067729 
1.229999999999881, -0.5455294284897872 
1.2399999999998799, -0.5459319354446686 
1.2499999999998788, -0.5464389171026701 
1.2599999999998777, -0.5470494453764261 
1.2699999999998766, -0.5477327611560362 
1.2799999999998755, -0.5484276022451151 
1.2899999999998744, -0.5490560449752353 
1.2999999999998733, -0.5495470926133964 
1.3099999999998722, -0.5498563603707234 
1.319999999999871, -0.5499708031050438 
1.32999999999987, -0.5498996412247533 
1.3399999999998689, -0.5496607540951759 
1.3499999999998678, -0.5492701477636134 
1.3599999999998666, -0.548736754889364 
1.3699999999998655, -0.5480616941542484 
1.3799999999998644, -0.5472407779621505 
1.3899999999998633, -0.5462695659996278 
1.3999999999998622, -0.5451490619423685 
1.4099999999998611, -0.5438824000598126 
1.41999999999986, -0.5424280039445665 
1.429999999999859, -0.5405228127265903 
1.4399999999998578, -0.537268609133625 
1.4499999999998567, -0.5306917948216767 
1.4599999999998556, -0.5184153903657227 
1.4699999999998545, -0.5003098997807041 
1.4799999999998534, -0.480078740626604 
1.4899999999998523, -0.46239865493260135 
1.4999999999998512, -0.4494915334615305 
1.5099999999998501, -0.4410860520148122 
1.519999999999849, -0.4359670380679521 
1.529999999999848, -0.4329732384409778 
1.5399999999998468, -0.43127507925551745 
1.5499999999998457, -0.4303443378741386 
1.5599999999998446, -0.42986116569968685 
1.5699999999998435, -0.42963612107135035 
1.5799999999998424, -0.4295582249776217 
1.5899999999998413, -0.4295633220706212 
1.5999999999998402, -0.42961588264642714 
1.6099999999998391, -0.4296993919063736 
1.619999999999838, -0.429812223529418 
1.629999999999837, -0.4299666676168994 
1.6399999999998358, -0.4301886651334087 
1.6499999999998347, -0.4305154298675832 
1.6599999999998336, -0.4309884764167303 
1.6699999999998325, -0.4316410819219299 
1.6799999999998314, -0.432481606737222 
1.6899999999998303, -0.43347756850762786 
1.6999999999998292, -0.4345498717930477 
1.709999999999828, -0.43558718781432687 
1.719999999999827, -0.4364792017749671 
1.729999999999826, -0.4371499285594271 
1.7399999999998248, -0.4375701312998953 
1.7499999999998237, -0.4377461328475265 
1.7599999999998226, -0.4376983843329432 
1.7699999999998215, -0.43744230220049307 
1.7799999999998204, -0.4369745564771044 
1.7899999999998193, -0.43626116776371554 
1.7999999999998182, -0.43522094120278343 
1.809999999999817, -0.4336959973088582 
1.819999999999816, -0.431399596488047 
1.8299999999998149, -0.42783732297324895 
1.8399999999998138, -0.4222381973410606 
1.8499999999998127, -0.41365178401984914 
1.8599999999998116, -0.4014874460768607 
1.8699999999998105, -0.3864141718488675 
1.8799999999998094, -0.37056927592239514 
1.8899999999998083, -0.3563330111239938 
1.8999999999998072, -0.34498548615406444 
1.909999999999806, -0.33658638592525414 
1.919999999999805, -0.33059206097145116 
1.9299999999998039, -0.3263653786952563 
1.9399999999998028, -0.3233842236575712 
1.9499999999998017, -0.3212750359207691 
1.9599999999998006, -0.3197873292271577 
1.9699999999997995, -0.3187603642238359 
1.9799999999997984, -0.3180970231990973 
1.9899999999997973, -0.31774687981068594 
1.9999999999997962, -0.31769724516215025 
2.0099999999998173, -0.31797099462917083 
2.0199999999998384, -0.31863088891658886 
2.0299999999998595, -0.31979120179112097 
2.0399999999998806, -0.32163841751202565 
2.0499999999999017, -0.3244626638441911 
2.059999999999923, -0.3286972989935679 
2.069999999999944, -0.3349469348950322 
2.079999999999965, -0.34393710819959505 
2.089999999999986, -0.35623871575605637 
2.100000000000007, -0.37163209863139485 
2.1100000000000283, -0.3884378393911746 
2.1200000000000494, -0.4038878032311974 
2.1300000000000705, -0.4158228915608496 
2.1400000000000916, -0.4238523853871299 
2.1500000000001127, -0.4288217060310216 
2.160000000000134, -0.4317896902325771 
2.170000000000155, -0.4335442910186823 
2.180000000000176, -0.43456812423551894 
2.190000000000197, -0.4351340309362464 
2.2000000000002182, -0.4353902346895556 
2.2100000000002393, -0.4354125205929898 
2.2200000000002604, -0.43523273747647356 
2.2300000000002815, -0.4348547781923629 
2.2400000000003026, -0.4342663248905804 
2.2500000000003237, -0.43345233714644504 
2.260000000000345, -0.4324130271901824 
2.270000000000366, -0.4311824101524618 
2.280000000000387, -0.4298357630655575 
2.290000000000408, -0.42847551554914826 
2.3000000000004293, -0.4272003887349102 
2.3100000000004504, -0.4260769490547955 
2.3200000000004715, -0.42512863418137725 
2.3300000000004926, -0.42434208044440663 
2.3400000000005137, -0.4236819812518434 
2.3500000000005348, -0.4231065721046871 
2.360000000000556, -0.4225793238636234 
2.370000000000577, -0.4220752487827587 
2.380000000000598, -0.421582626793374 
2.390000000000619, -0.4211026359737836 
2.4000000000006403, -0.42064973217746965 
2.4100000000006614, -0.4202551790948072 
2.4200000000006825, -0.41997595332999743 
2.4300000000007036, -0.4199119705523306 
2.4400000000007247, -0.4202361151485178 
2.450000000000746, -0.42124261901271626 
2.460000000000767, -0.42341465267037826 
2.470000000000788, -0.42748402450138423 
2.480000000000809, -0.4343623586294917 
2.49000000000083, -0.44463363106175413 
2.5000000000008513, -0.45729651406149135 
2.5100000000008724, -0.4686656797517609 
2.5200000000008935, -0.4742693458314388 
2.5300000000009146, -0.47325091127074004 
2.5400000000009357, -0.46879517856611785 
2.550000000000957, -0.4642473137084447 
2.560000000000978, -0.46100609553459526 
2.570000000000999, -0.4590962075299336 
2.58000000000102, -0.4581174864346309 
2.5900000000010412, -0.457689500590745 
2.6000000000010624, -0.45755228778201873 
2.6100000000010835, -0.4575494797583011 
2.6200000000011046, -0.45759234663906206 
2.6300000000011257, -0.45763150509425465 
2.6400000000011468, -0.4576391104508118 
2.650000000001168, -0.45759918516691744 
2.660000000001189, -0.45750379314076894 
2.67000000000121, -0.45735345560894514 
2.680000000001231, -0.45716005872521703 
2.6900000000012523, -0.45694938691425824 
2.7000000000012734, -0.45675957356201635 
2.7100000000012945, -0.45663317084126487 
2.7200000000013156, -0.4566043219081329 
2.7300000000013367, -0.45668582972776867 
2.740000000001358, -0.45686150686264754 
2.750000000001379, -0.45708778768154457 
2.7600000000014, -0.4573055690486269 
2.770000000001421, -0.4574578484951274 
2.780000000001442, -0.45750419103727014 
2.7900000000014633, -0.4574251528087981 
2.8000000000014844, -0.45721722469228654 
2.8100000000015055, -0.4568838856685888 
2.8200000000015266, -0.45642759678709055 
2.8300000000015477, -0.4558442113425631 
2.840000000001569, -0.455118636469041 
2.85000000000159, -0.4542187736617744 
2.860000000001611, -0.45308155767591896 
2.870000000001632, -0.45157609240230273 
2.8800000000016532, -0.44940789848973595 
2.8900000000016743, -0.445896587479062 
2.9000000000016954, -0.4395910143275209 
2.9100000000017165, -0.4280704666409131 
2.9200000000017377, -0.40914503857307344 
2.9300000000017588, -0.38389981240988136 
2.94000000000178, -0.3576016915528722 
2.950000000001801, -0.33555745377276175 
2.960000000001822, -0.31962988299750567 
2.970000000001843, -0.3090095260445452 
2.9800000000018643, -0.3021561399283149 
2.9900000000018854, -0.29776370107455846 
3.0000000000019065, -0.294939370988238 
3.0100000000019276, -0.2931202626950574 
3.0200000000019487, -0.29196247998419034 
3.03000000000197, -0.2912595440894373 
3.040000000001991, -0.29089128898383076 
3.050000000002012, -0.290794217735081 
3.060000000002033, -0.29094578598023635 
3.070000000002054, -0.2913579976437831 
3.0800000000020753, -0.2920779305363164 
3.0900000000020964, -0.29319414220435736 
3.1000000000021175, -0.2948482037028055 
3.1100000000021386, -0.29724897125061955 
3.1200000000021597, -0.3006809420585682 
3.130000000002181, -0.30548218840465863 
3.140000000002202, -0.31194138067405297 
3.150000000002223, -0.3200612862252342 
3.160000000002244, -0.3292608260573324 
3.1700000000022652, -0.33835439484791674 
3.1800000000022863, -0.3460939746719433 
3.1900000000023074, -0.35184735857810984 
3.2000000000023285, -0.3557131268626168 
3.2100000000023496, -0.35814752384579024 
3.2200000000023707, -0.35961501003780383 
3.230000000002392, -0.36045482722863176 
3.240000000002413, -0.3608798981399753 
3.250000000002434, -0.36101170906209745 
3.260000000002455, -0.36091166652474826 
3.2700000000024763, -0.3606021937960566 
3.2800000000024974, -0.36008127734117296 
3.2900000000025185, -0.3593361264255688 
3.3000000000025396, -0.3583604459800605 
3.3100000000025607, -0.35717500647270983 
3.3200000000025818, -0.3558426579354541 
3.330000000002603, -0.3544641845050081 
3.340000000002624, -0.3531514084363948 
3.350000000002645, -0.3519930035451818 
3.360000000002666, -0.35103373653910264 
3.3700000000026873, -0.3502737911637194 
3.3800000000027084, -0.3496809231300175 
3.3900000000027295, -0.3492063409024304 
3.4000000000027506, -0.34879910304244327 
3.4100000000027717, -0.3484163412787345 
3.420000000002793, -0.348027958836454 
3.430000000002814, -0.3476163716705455 
3.440000000002835, -0.34717355195269645 
3.450000000002856, -0.3466978058212339 
3.460000000002877, -0.346191656222542 
3.4700000000028983, -0.3456607879898723 
3.4800000000029194, -0.34511208070136856 
3.4900000000029405, -0.34454404141990097 
3.5000000000029616, -0.34390924952792457 
3.5100000000029827, -0.3429932404277214 
3.520000000003004, -0.3410935559123457 
3.530000000003025, -0.3364169183658619 
3.540000000003046, -0.32576356589771954 
3.550000000003067, -0.30647132739900007 
3.5600000000030882, -0.2806799481719936 
3.5700000000031094, -0.25515269078154434 
3.5800000000031305, -0.23509008328256362 
3.5900000000031516, -0.22133586638113711 
3.6000000000031727, -0.21245711752701285 
3.6100000000031938, -0.2068054158173525 
3.620000000003215, -0.20317997040228253 
3.630000000003236, -0.20082329242538366 
3.640000000003257, -0.19928170496315917 
3.650000000003278, -0.1982899060272026 
3.6600000000032993, -0.19769831450934347 
3.6700000000033204, -0.19743218129495785 
3.6800000000033415, -0.1974714079849686 
3.6900000000033626, -0.1978446829817914 
3.7000000000033837, -0.19863579005812734 
3.710000000003405, -0.20000356051394313 
3.720000000003426, -0.20222030961475398 
3.730000000003447, -0.2057355703557589 
3.740000000003468, -0.21126496443583434 
3.750000000003489, -0.21986080904325306 
3.7600000000035103, -0.2327787657143927 
3.7700000000035314, -0.2507118242472307 
3.7800000000035525, -0.27220882711356276 
3.7900000000035736, -0.2929965518341558 
3.8000000000035947, -0.30874615305376807 
3.810000000003616, -0.3184249421274471 
3.820000000003637, -0.32366449981609136 
3.830000000003658, -0.32639902671346954 
3.840000000003679, -0.3278670717391974 
3.8500000000037002, -0.32869815138040037 
3.8600000000037213, -0.32918738645150913 
3.8700000000037424, -0.32947268793553675 
3.8800000000037635, -0.3296205698714785 
3.8900000000037847, -0.3296643012966666 
3.9000000000038058, -0.3296213371799831 
3.910000000003827, -0.32950279964529944 
3.920000000003848, -0.3293205985925266 
3.930000000003869, -0.32909403696211287 
3.94000000000389, -0.3288550634340627 
3.9500000000039113, -0.32864950963258605 
3.9600000000039324, -0.32853197314891475 
3.9700000000039535, -0.32855477844227676 
3.9800000000039746, -0.3287541589451852 
3.9900000000039957, -0.3291372034125227 
4.000000000004016, -0.32967305414170955 
4.010000000003993, -0.33029359405621045 
4.02000000000397, -0.3309084275633674 
4.030000000003946, -0.331430600298592 
4.040000000003923, -0.3317990632593295 
4.0500000000039, -0.3319852398506433 
4.0600000000038765, -0.33198378989673555 
4.070000000003853, -0.33179663078006855 
4.08000000000383, -0.33141755050284527 
4.090000000003807, -0.330818475278365 
4.100000000003783, -0.32993386315966133 
4.11000000000376, -0.328637854576979 
4.120000000003737, -0.3267101618765967 
4.130000000003713, -0.323797445421312 
4.14000000000369, -0.3194128874457441 
4.150000000003667, -0.3130806975349455 
4.1600000000036434, -0.3047175578874498 
4.17000000000362, -0.2950278756749559 
4.180000000003597, -0.2853438044933859 
4.1900000000035735, -0.2768726932972732 
4.20000000000355, -0.27015135066985013 
4.210000000003527, -0.2651181418830032 
4.220000000003504, -0.26144465088744806 
4.23000000000348, -0.25877481128130236 
4.240000000003457, -0.25681931492566007 
4.250000000003434, -0.2553702757303947 
4.26000000000341, -0.2542888801388977 
4.270000000003387, -0.25348947174956266 
4.280000000003364, -0.25292760719782537 
4.2900000000033405, -0.2525939308874489 
4.300000000003317, -0.25251457563251983 
4.310000000003294, -0.2527595240073137 
4.320000000003271, -0.2534622394909877 
4.330000000003247, -0.2548569175914335 
4.340000000003224, -0.25734346381036344 
4.350000000003201, -0.2615902849433255 
4.360000000003177, -0.2686600555352172 
4.370000000003154, -0.2800239358897749 
4.380000000003131, -0.2969934647361025 
4.390000000003107, -0.31881376692955143 
4.400000000003084, -0.3403703966311661 
4.410000000003061, -0.35451476720979463 
4.4200000000030375, -0.3591053940474203 
4.430000000003014, -0.35792189324535734 
4.440000000002991, -0.3551804436035563 
4.450000000002968, -0.35283824468922853 
4.460000000002944, -0.3512860295771335 
4.470000000002921, -0.3503743843617656 
4.480000000002898, -0.3498811856891537 
4.490000000002874, -0.3496367775297322 
4.500000000002851, -0.3495323219298837 
4.510000000002828, -0.3495031183140563 
4.520000000002804, -0.34951287707980394 
4.530000000002781, -0.3495436065330074 
4.540000000002758, -0.3495905744850106 
4.5500000000027345, -0.34966100926785104 
4.560000000002711, -0.349775040846776 
4.570000000002688, -0.3499669264180493 
4.580000000002665, -0.3502841112688186 
4.590000000002641, -0.3507817957197218 
4.600000000002618, -0.35151150199276343 
4.610000000002595, -0.3525032365996318 
4.620000000002571, -0.3537433494211845 
4.630000000002548, -0.3551568734930363 
4.640000000002525, -0.3566109811219541 
4.6500000000025015, -0.3579504282090309 
4.660000000002478, -0.3590493875677038 
4.670000000002455, -0.35984460439959665 
4.6800000000024315, -0.360331745277248 
4.690000000002408, -0.36053830186893066 
4.700000000002385, -0.36049521913588006 
4.710000000002362, -0.36021735565988666 
4.720000000002338, -0.3596908872751535 
4.730000000002315, -0.35886176841872997 
4.740000000002292, -0.3576206708075595 
4.750000000002268, -0.3557849764063837 
4.760000000002245, -0.3530914462801188 
4.770000000002222, -0.3492384292110363 
4.7800000000021985, -0.3440325095116517 
4.790000000002175, -0.3376217978759024 
4.800000000002152, -0.33061031504632393 
4.810000000002129, -0.3238307901023117 
4.820000000002105, -0.3179334379684046 
4.830000000002082, -0.31317724655740264 
4.840000000002059, -0.3095084900224416 
4.850000000002035, -0.3067330477182316 
4.860000000002012, -0.3046381511643839 
4.870000000001989, -0.30304518939528785 
4.880000000001965, -0.3018221374212373 
