t, s[1].omega / s[0].omega 
0, -1.480029127872508 
0.009999999999999995, -1.4823786000302275 
0.019999999999999934, -1.483776039853066 
0.029999999999999874, -1.484454065637905 
0.04000000000000012, -1.4846056458592758 
0.050000000000000405, -1.4843781994676448 
0.06000000000000069, -1.4838865408083026 
0.07000000000000098, -1.4832350179845846 
0.08000000000000126, -1.4825335079659916 
0.09000000000000155, -1.481891141789617 
0.10000000000000184, -1.4813942673879092 
0.11000000000000212, -1.4810911304187768 
0.12000000000000241, -1.4809784362984075 
0.130000000000002, -1.480986357982332 
0.1400000000000009, -1.4809944623947557 
0.1499999999999998, -1.480872506448834 
0.1599999999999987, -1.4804957047136784 
0.1699999999999976, -1.4797201919991727 
0.1799999999999965, -1.4783407885630049 
0.1899999999999954, -1.4760521443681902 
0.1999999999999943, -1.4724332277698204 
0.2099999999999932, -1.4669964150613382 
0.2199999999999921, -1.4593919618698463 
0.229999999999991, -1.4498970318089672 
0.2399999999999899, -1.440073865509586 
0.2499999999999888, -1.4325883618158968 
0.2599999999999877, -1.4291678283752671 
0.2699999999999866, -1.4289649434933533 
0.2799999999999855, -1.4299767710563387 
0.2899999999999844, -1.4309351718820158 
0.2999999999999833, -1.4314663206997644 
0.3099999999999822, -1.4315679695576993 
0.3199999999999811, -1.4312870144856642 
0.32999999999998, -1.430615209953555 
0.3399999999999789, -1.4294829072465773 
0.3499999999999778, -1.4278505045247443 
0.35999999999997667, -1.4260340618608196 
0.36999999999997557, -1.4253180688469358 
0.37999999999997447, -1.4279892006908 
0.38999999999997337, -1.4353345664136026 
0.39999999999997227, -1.4456353636384673 
0.40999999999997117, -1.4557550902935954 
0.41999999999997006, -1.463740583960419 
0.42999999999996896, -1.4692230725079323 
0.43999999999996786, -1.4726264493378154 
0.44999999999996676, -1.474540246485021 
0.45999999999996566, -1.475461259337283 
0.46999999999996456, -1.4757391011039318 
0.47999999999996346, -1.4756011006799166 
0.48999999999996235, -1.4752009488721822 
0.49999999999996125, -1.4746684157606336 
0.5099999999999602, -1.4741397093451196 
0.519999999999959, -1.4737436833134976 
0.529999999999958, -1.4735543710369527 
0.5399999999999568, -1.4735686885717467 
0.5499999999999557, -1.473727819231256 
0.5599999999999546, -1.4739413722715422 
0.5699999999999535, -1.4741034985671988 
0.5799999999999524, -1.474110444319832 
0.5899999999999513, -1.473866839074195 
0.5999999999999502, -1.473274297454009 
0.6099999999999491, -1.4722150643782954 
0.619999999999948, -1.4705437983716274 
0.6299999999999469, -1.4680937117735737 
0.6399999999999458, -1.4647041306088946 
0.6499999999999447, -1.4602911576453397 
0.6599999999999436, -1.4550026429129788 
0.6699999999999425, -1.4494516202955565 
0.6799999999999414, -1.4447660877167756 
0.6899999999999403, -1.4419783509648112 
0.6999999999999392, -1.4411166610231636 
0.7099999999999381, -1.441313976373382 
0.719999999999937, -1.4417265142603815 
0.7299999999999359, -1.4419502460817277 
0.7399999999999348, -1.441866320273692 
0.7499999999999337, -1.4414239003037486 
0.7599999999999326, -1.440519808337718 
0.7699999999999315, -1.4389410613779643 
0.7799999999999304, -1.436387677087937 
0.7899999999999293, -1.4327954835452839 
0.7999999999999282, -1.429381875297985 
0.8099999999999271, -1.42982348509299 
0.819999999999926, -1.4380438253881582 
0.8299999999999249, -1.4526790472045983 
0.8399999999999238, -1.4678252379820789 
0.8499999999999227, -1.4793266337111768 
0.8599999999999216, -1.4866034549280271 
0.8699999999999205, -1.4907174201605888 
0.8799999999999194, -1.492837128218499 
0.8899999999999183, -1.4937808214824384 
0.8999999999999172, -1.4940351578712585 
0.9099999999999161, -1.4938743825768808 
0.919999999999915, -1.4934691341833277 
0.9299999999999139, -1.492970200493746 
0.9399999999999128, -1.4925516112826935 
0.9499999999999117, -1.4923762228267625 
0.9599999999999106, -1.4925063999417467 
0.9699999999999095, -1.4928760581136955 
0.9799999999999084, -1.493356400247321 
0.9899999999999073, -1.493819598844201 
0.9999999999999062, -1.4941585314614056 
1.0099999999999052, -1.4942877857725283 
1.019999999999904, -1.4941375072721648 
1.029999999999903, -1.493642074073855 
1.039999999999902, -1.4927307043615445 
1.0499999999999008, -1.491324993180052 
1.0599999999998997, -1.4893446989706802 
1.0699999999998986, -1.4867266987142247 
1.0799999999998975, -1.4834736554306553 
1.0899999999998964, -1.479757214566991 
1.0999999999998953, -1.4760529980941324 
1.1099999999998942, -1.4731076650028825 
1.119999999999893, -1.4714815786297435 
1.129999999999892, -1.4710451373759263 
1.1399999999998909, -1.4711840922508475 
1.1499999999998898, -1.4713704893666795 
1.1599999999998887, -1.4713509817438308 
1.1699999999998876, -1.4710180724200441 
1.1799999999998865, -1.4702589027352306 
1.1899999999998854, -1.468850434205251 
1.1999999999998843, -1.4663872775313291 
1.2099999999998832, -1.4623499573248189 
1.219999999999882, -1.4567841588962287 
1.229999999999881, -1.4521597834364974 
1.2399999999998799, -1.4541768501876517 
1.2499999999998788, -1.4660212366766556 
1.2599999999998777, -1.482633476192521 
1.2699999999998766, -1.4968875386351623 
1.2799999999998755, -1.5062372257474297 
1.2899999999998744, -1.5115215568443179 
1.2999999999998733, -1.514233326901351 
1.3099999999998722, -1.515472159477858 
1.319999999999871, -1.5158806919543315 
1.32999999999987, -1.5158049174317259 
1.3399999999998689, -1.5154417524698325 
1.3499999999998678, -1.5149483233649366 
1.3599999999998666, -1.5145099649275615 
1.3699999999998655, -1.5143241326665007 
1.3799999999998644, -1.5144921718874387 
1.3899999999998633, -1.5149523972297327 
1.3999999999998622, -1.5155494800347613 
1.4099999999998611, -1.5161309876777902 
1.41999999999986, -1.51658004194923 
1.429999999999859, -1.516811311111039 
1.4399999999998578, -1.5167600585445375 
1.4499999999998567, -1.5163691194611713 
1.4599999999998556, -1.515578297578339 
1.4699999999998545, -1.514320232156794 
1.4799999999998534, -1.5125239081542454 
1.4899999999998523, -1.5101301138515424 
1.4999999999998512, -1.5071340578664578 
1.5099999999998501, -1.5036805174481969 
1.519999999999849, -1.5001989203509458 
1.529999999999848, -1.4973960288740649 
1.5399999999998468, -1.4958327531754105 
1.5499999999998457, -1.4954100456678994 
1.5599999999998446, -1.4955392121822744 
1.5699999999998435, -1.4957049905750934 
1.5799999999998424, -1.4956584484713247 
1.5899999999998413, -1.4952893109186873 
1.5999999999998402, -1.4944736956391227 
1.6099999999998391, -1.4929673442904716 
1.619999999999838, -1.4903400995110379 
1.629999999999837, -1.486106415974826 
1.6399999999998358, -1.4806250165569113 
1.6499999999998347, -1.477149190250208 
1.6599999999998336, -1.4815982881459253 
1.6699999999998325, -1.4953218014264058 
1.6799999999998314, -1.5117556714470228 
1.6899999999998303, -1.5246555082053295 
1.6999999999998292, -1.5326966763483676 
1.709999999999828, -1.5371038542107764 
1.719999999999827, -1.539300798101124 
1.729999999999826, -1.540245646773122 
1.7399999999998248, -1.540480200054353 
1.7499999999998237, -1.5402965097633021 
1.7599999999998226, -1.5398731804710528 
1.7699999999998215, -1.5393727183669732 
1.7799999999998204, -1.5389836532823655 
1.7899999999998193, -1.5388674426893507 
1.7999999999998182, -1.5390589792532867 
1.809999999999817, -1.5394618874700896 
1.819999999999816, -1.53993542857142 
1.8299999999998149, -1.5403526168054624 
1.8399999999998138, -1.5406099430157094 
1.8499999999998127, -1.5406236581317443 
1.8599999999998116, -1.5403194279785963 
1.8699999999998105, -1.5396175960836083 
1.8799999999998094, -1.5384224341917185 
1.8899999999998083, -1.5366203578718862 
1.8999999999998072, -1.5340911016205139 
1.909999999999806, -1.5307472518892318 
1.919999999999805, -1.5266403045504018 
1.9299999999998039, -1.522162877312162 
1.9399999999998028, -1.5181916497842738 
1.9499999999998017, -1.5156979092183138 
1.9599999999998006, -1.5148720987132216 
1.9699999999997995, -1.5150111404245223 
1.9799999999997984, -1.5153408851981716 
1.9899999999997973, -1.5154763532971676 
1.9999999999997962, -1.5152953354502203 
2.0099999999998173, -1.5147259233218793 
2.0199999999998384, -1.513625653720182 
2.0299999999998595, -1.5117380065462818 
2.0399999999998806, -1.5088232676083004 
2.0499999999999017, -1.5053621955785368 
2.059999999999923, -1.5040046933874383 
2.069999999999944, -1.509124709999053 
2.079999999999965, -1.5214029187813156 
2.089999999999986, -1.5357193691267552 
2.100000000000007, -1.547243948113669 
2.1100000000000283, -1.5547704236820383 
2.1200000000000494, -1.5591151108188226 
2.1300000000000705, -1.561391513399298 
2.1400000000000916, -1.562424749247309 
2.1500000000001127, -1.5627212727734066 
2.160000000000134, -1.5625722645994593 
2.170000000000155, -1.5621581532004911 
2.180000000000176, -1.5616290564473114 
2.190000000000197, -1.561141927077357 
2.2000000000002182, -1.5608292185991586 
2.2100000000002393, -1.5607387036080946 
2.2200000000002604, -1.5608315370461845 
2.2300000000002815, -1.5610244134532905 
2.2400000000003026, -1.5612124267433942 
2.2500000000003237, -1.5612822799667294 
2.260000000000345, -1.5611252933148745 
2.270000000000366, -1.5606302904666833 
2.280000000000387, -1.5596578100929706 
2.290000000000408, -1.55801343829793 
2.3000000000004293, -1.5554340586131405 
2.3100000000004504, -1.551604340817333 
2.3200000000004715, -1.5462523310103937 
2.3300000000004926, -1.5394331481628583 
2.3400000000005137, -1.532050450013504 
2.3500000000005348, -1.5260439365143068 
2.360000000000556, -1.5230639895463023 
2.370000000000577, -1.5227461752249387 
2.380000000000598, -1.5234883650045112 
2.390000000000619, -1.5241867278202252 
2.4000000000006403, -1.5245043764909227 
2.4100000000006614, -1.524422473059376 
2.4200000000006825, -1.52395052565262 
2.4300000000007036, -1.5230388313589098 
2.4400000000007247, -1.521614871779199 
2.450000000000746, -1.519832423837131 
2.460000000000767, -1.5186845903907673 
2.470000000000788, -1.5203260490934698 
2.480000000000809, -1.5262792953008009 
2.49000000000083, -1.5350702371214626 
2.5000000000008513, -1.5437153126025187 
2.5100000000008724, -1.5504486790658036 
2.5200000000008935, -1.5550113657711342 
2.5300000000009146, -1.5578063850614652 
2.5400000000009357, -1.559336691723272 
2.550000000000957, -1.5600108754444606 
2.560000000000978, -1.5601146068611995 
2.570000000000999, -1.5598374633045948 
2.58000000000102, -1.5593155961312337 
2.5900000000010412, -1.5586715676277554 
2.6000000000010624, -1.5580295253361425 
2.6100000000010835, -1.5574956281247243 
2.6200000000011046, -1.5571345052911318 
2.6300000000011257, -1.5569638374466046 
2.6400000000011468, -1.5569414336788348 
2.650000000001168, -1.5569597641147315 
2.660000000001189, -1.5568811093829436 
2.67000000000121, -1.5565692917668401 
2.680000000001231, -1.5558726162363368 
2.6900000000012523, -1.5545701434357944 
2.7000000000012734, -1.5523055379943345 
2.7100000000012945, -1.5485298322343009 
2.7200000000013156, -1.5425134978398864 
2.7300000000013367, -1.5336081987656904 
2.740000000001358, -1.5220858916589979 
2.750000000001379, -1.5103997634379196 
2.7600000000014, -1.502633762529292 
2.770000000001421, -1.50050008752354 
2.780000000001442, -1.501700057915325 
2.7900000000014633, -1.5034614152126173 
2.8000000000014844, -1.5046646749517154 
2.8100000000015055, -1.505218090098307 
2.8200000000015266, -1.505267795750024 
2.8300000000015477, -1.5049188247000613 
2.840000000001569, -1.504204962698962 
2.85000000000159, -1.5031647615244965 
2.860000000001611, -1.5020570378621119 
2.870000000001632, -1.501694202316847 
2.8800000000016532, -1.503330160095802 
2.8900000000016743, -1.5074758474463084 
2.9000000000016954, -1.5130833228269203 
2.9100000000017165, -1.5185839710512306 
2.9200000000017377, -1.523054470447311 
2.9300000000017588, -1.5262809243316093 
2.94000000000178, -1.528394129934947 
2.950000000001801, -1.5296184830775574 
2.960000000001822, -1.5301687843804475 
2.970000000001843, -1.5302191701956729 
2.9800000000018643, -1.5299020462058175 
2.9900000000018854, -1.5293225927605525 
3.0000000000019065, -1.5285799840290504 
3.0100000000019276, -1.5277808550053662 
3.0200000000019487, -1.5270340837070489 
3.03000000000197, -1.5264370437001618 
3.040000000001991, -1.5260581362239258 
3.050000000002012, -1.5258976362599765 
3.060000000002033, -1.5258608495943131 
3.070000000002054, -1.525797834981351 
3.0800000000020753, -1.5255596799883935 
3.0900000000020964, -1.524997946554856 
3.1000000000021175, -1.5239105783311286 
3.1100000000021386, -1.5219625240628323 
3.1200000000021597, -1.518597452559799 
3.130000000002181, -1.512985169979863 
3.140000000002202, -1.5041704913436114 
3.150000000002223, -1.4918070329175477 
3.160000000002244, -1.4776984082839555 
3.1700000000022652, -1.46642041216733 
3.1800000000022863, -1.4616967065306814 
3.1900000000023074, -1.4622923278818862 
3.2000000000023285, -1.4645833285387702 
3.2100000000023496, -1.4664791972653197 
3.2200000000023707, -1.4675599559996328 
3.230000000002392, -1.4679806145937173 
3.240000000002413, -1.4679268064083293 
3.250000000002434, -1.4674963730261052 
3.260000000002455, -1.466724024928356 
3.2700000000024763, -1.4656855239459274 
3.2800000000024974, -1.4647291187055222 
3.2900000000025185, -1.4647366613587116 
3.3000000000025396, -1.4668230873666406 
3.3100000000025607, -1.4712075411004912 
3.3200000000025818, -1.4767766800460964 
3.330000000002603, -1.4821316370266817 
3.340000000002624, -1.4864844726041713 
3.350000000002645, -1.4896520876176373 
3.360000000002666, -1.491749544394301 
3.3700000000026873, -1.4929813753399692 
3.3800000000027084, -1.4935503377614343 
3.3900000000027295, -1.493625737443745 
3.4000000000027506, -1.4933392312597333 
3.4100000000027717, -1.4927966997989315 
3.420000000002793, -1.492097993708068 
3.430000000002814, -1.4913500326429951 
3.440000000002835, -1.4906599824375502 
3.450000000002856, -1.4901169773705611 
3.460000000002877, -1.4897768710178283 
3.4700000000028983, -1.4896387210188753 
3.4800000000029194, -1.489624129672109 
3.4900000000029405, -1.4896016418714473 
3.5000000000029616, -1.4894341701963174 
3.5100000000029827, -1.4889894391747336 
3.520000000003004, -1.4881057863009233 
3.530000000003025, -1.4865390508292775 
3.540000000003046, -1.4839107178020114 
3.550000000003067, -1.479682928929186 
3.5600000000030882, -1.4732278819317504 
3.5700000000031094, -1.464142943804708 
3.5800000000031305, -1.4529888627770908 
3.5900000000031516, -1.4420985921718867 
3.6000000000031727, -1.434780948230006 
3.6100000000031938, -1.4323243150842988 
3.620000000003215, -1.4329469586437205 
3.630000000003236, -1.4343408629853256 
3.640000000003257, -1.435404526110507 
3.650000000003278, -1.435935505335193 
3.6600000000032993, -1.4360074503061497 
3.6700000000033204, -1.435691704751461 
3.6800000000033415, -1.434992532002458 
3.6900000000033626, -1.4338715266163677 
3.7000000000033837, -1.4323842838823126 
3.710000000003405, -1.4310448085541292 
3.720000000003426, -1.4312719962029166 
3.730000000003447, -1.4348853091018599 
3.740000000003468, -1.4421453465557916 
3.750000000003489, -1.4510488295943749 
3.7600000000035103, -1.4592424533555195 
3.7700000000035314, -1.4655532954831219 
3.7800000000035525, -1.469874482919784 
3.7900000000035736, -1.4725647071137395 
3.8000000000035947, -1.4740649452938202 
3.810000000003616, -1.4747468590623032 
3.820000000003637, -1.4748795685846712 
3.830000000003658, -1.4746465040581371 
3.840000000003679, -1.4741815504381042 
3.8500000000037002, -1.4736067950665093 
3.8600000000037213, -1.4730501530188154 
3.8700000000037424, -1.472624605831193 
3.8800000000037635, -1.4723905045359296 
3.8900000000037847, -1.4723457604260854 
3.9000000000038058, -1.4724392608142818 
3.910000000003827, -1.472581594919243 
3.920000000003848, -1.472662473443837 
3.930000000003869, -1.4725730488328115 
3.94000000000389, -1.4722093306168587 
3.9500000000039113, -1.4714547742621242 
3.9600000000039324, -1.470159511768174 
3.9700000000039535, -1.4681305730515732 
3.9800000000039746, -1.4651421104178632 
3.9900000000039957, -1.4609802539116816 
4.000000000004016, -1.4555590082335195 
4.010000000003993, -1.4491595368479715 
4.02000000000397, -1.4427257405511658 
4.030000000003946, -1.4377438374936926 
4.040000000003923, -1.4352184828610055 
4.0500000000039, -1.4347604821715494 
4.0600000000038765, -1.435208684077569 
4.070000000003853, -1.4357115648182301 
4.08000000000383, -1.4359442835490193 
4.090000000003807, -1.4358386338293678 
4.100000000003783, -1.4353631370577804 
4.11000000000376, -1.4344236319005625 
4.120000000003737, -1.4328316159407106 
4.130000000003713, -1.4303826611291863 
4.14000000000369, -1.4272894806623824 
4.150000000003667, -1.4252284121480217 
4.1600000000036434, -1.4278270793098125 
4.17000000000362, -1.4375781286373894 
4.180000000003597, -1.4518483488303215 
4.1900000000035735, -1.465443937922461 
4.20000000000355, -1.4754627869154078 
4.210000000003527, -1.4817828699895297 
4.220000000003504, -1.4853793774759074 
4.23000000000348, -1.4872375501181305 
4.240000000003457, -1.4880479985523678 
4.250000000003434, -1.4882299532685057 
4.26000000000341, -1.4880273160133357 
4.270000000003387, -1.4875999277527217 
4.280000000003364, -1.4870949850703292 
4.2900000000033405, -1.4866777908366995 
4.300000000003317, -1.4864915146849242 
4.310000000003294, -1.4865815985373172 
4.320000000003271, -1.4868846476202051 
4.330000000003247, -1.4872870561950724 
4.340000000003224, -1.4876721899438743 
4.350000000003201, -1.4879359887821917 
4.360000000003177, -1.4879911831894768 
4.370000000003154, -1.4877627291672284 
4.380000000003131, -1.4871762994972277 
4.390000000003107, -1.4861488946418544 
4.400000000003084, -1.484587283182646 
4.410000000003061, -1.4823960085778094 
4.4200000000030375, -1.4795012725419714 
4.430000000003014, -1.4759105944193813 
4.440000000002991, -1.4718351457570742 
4.450000000002968, -1.4678360292402695 
4.460000000002944, -1.4647479856364092 
4.470000000002921, -1.463129596478528 
4.480000000002898, -1.4627598121336254 
4.490000000002874, -1.4629520428137879 
4.500000000002851, -1.4631651816398223 
4.510000000002828, -1.4631566233957405 
4.520000000002804, -1.4628293234350134 
4.530000000002781, -1.4620784079914044 
4.540000000002758, -1.4606921013555962 
4.5500000000027345, -1.4582910533814224 
4.560000000002711, -1.4544186769579377 
4.570000000002688, -1.4492385689661929 
4.580000000002665, -1.4453021563227428 
4.590000000002641, -1.4480716804113891 
4.600000000002618, -1.46026807230075 
4.610000000002595, -1.4768254168477297 
4.620000000002571, -1.4909612084924961 
4.630000000002548, -1.5002782192629267 
4.640000000002525, -1.5055864900931384 
4.6500000000025015, -1.5083344118965267 
4.660000000002478, -1.5096032712426706 
4.670000000002455, -1.5100331478269995 
4.6800000000024315, -1.5099721750334199 
4.690000000002408, -1.5096188011303973 
4.700000000002385, -1.5091285087595838 
4.710000000002362, -1.5086816066714686 
4.720000000002338, -1.5084720642375513 
4.730000000002315, -1.5086061168519147 
4.740000000002292, -1.509033083231391 
4.750000000002268, -1.509605962900022 
4.760000000002245, -1.5101749659894879 
4.770000000002222, -1.5106223644955272 
4.7800000000021985, -1.5108607638714795 
4.790000000002175, -1.5108235715420402 
4.800000000002152, -1.5104525606532941 
4.810000000002129, -1.5096871788591257 
4.820000000002105, -1.5084601077752458 
4.830000000002082, -1.5067003267404302 
4.840000000002059, -1.5043473067853574 
4.850000000002035, -1.5013901028895555 
4.860000000002012, -1.4979558595822842 
4.870000000001989, -1.4944424005283075 
4.880000000001965, -1.4915358128220486 
4.890000000001942, -1.4898336508093548 
4.900000000001919, -1.4893102574511194 
4.9100000000018955, -1.4894054323394395 
4.920000000001872, -1.4895818692439726 
4.930000000001849, -1.489566073681129 
