t, s[1].omega / s[0].omega 
0, -1.0799982427924992 
0.009999999999999995, -1.079733179821207 
0.019999999999999934, -1.0792939024633161 
0.029999999999999874, -1.0786910494839308 
0.04000000000000012, -1.0779458293339401 
0.050000000000000405, -1.0770922831434115 
0.06000000000000069, -1.0761789358509894 
0.07000000000000098, -1.0752683670921592 
0.08000000000000126, -1.074432263093199 
0.09000000000000155, -1.0737405557300916 
0.10000000000000184, -1.0732466574823996 
0.11000000000000212, -1.072973594903185 
0.12000000000000241, -1.072906305024853 
0.130000000000002, -1.0729942880899652 
0.1400000000000009, -1.0731648606567177 
0.1499999999999998, -1.0733406296315373 
0.1599999999999987, -1.073452430213894 
0.1699999999999976, -1.0734443111105822 
0.1799999999999965, -1.073273684281114 
0.1899999999999954, -1.07291108270304 
0.1999999999999943, -1.0723409379118356 
0.2099999999999932, -1.0715618744057296 
0.2199999999999921, -1.0705851859346696 
0.229999999999991, -1.0694325164856058 
0.2399999999999899, -1.0681350518679378 
0.2499999999999888, -1.0667352584639394 
0.2599999999999877, -1.0652898947048326 
0.2699999999999866, -1.0638714211859992 
0.2799999999999855, -1.0625644950764048 
0.2899999999999844, -1.0614549627347907 
0.2999999999999833, -1.0606110803542872 
0.3099999999999822, -1.0600616581763462 
0.3199999999999811, -1.0597823094400805 
0.32999999999998, -1.0597009951568777 
0.3399999999999789, -1.0597212912497658 
0.3499999999999778, -1.0597477585523154 
0.35999999999997667, -1.0596992018730382 
0.36999999999997557, -1.0595086893291763 
0.37999999999997447, -1.0591184467377543 
0.38999999999997337, -1.0584778709027378 
0.39999999999997227, -1.05754800716378 
0.40999999999997117, -1.0563099701229919 
0.41999999999997006, -1.0547712008025802 
0.42999999999996896, -1.052965287366713 
0.43999999999996786, -1.0509470362995756 
0.44999999999996676, -1.0487881974278452 
0.45999999999996566, -1.0465770288665748 
0.46999999999996456, -1.0444196449668444 
0.47999999999996346, -1.0424371196793172 
0.48999999999996235, -1.040751525011628 
0.49999999999996125, -1.0394582385201516 
0.5099999999999602, -1.0385929627892603 
0.519999999999959, -1.0381139872504852 
0.529999999999958, -1.0379162754376534 
0.5399999999999568, -1.0378695787984076 
0.5499999999999557, -1.0378539535456777 
0.5599999999999546, -1.037774120402166 
0.5699999999999535, -1.0375544716960525 
0.5799999999999524, -1.0371269193289199 
0.5899999999999513, -1.0364224924892782 
0.5999999999999502, -1.0353728959639048 
0.6099999999999491, -1.0339231288675068 
0.619999999999948, -1.0320496935108032 
0.6299999999999469, -1.0297737747862423 
0.6399999999999458, -1.0271617019795598 
0.6499999999999447, -1.024315332890777 
0.6599999999999436, -1.0213616516438437 
0.6699999999999425, -1.018446920365465 
0.6799999999999414, -1.015731548531394 
0.6899999999999403, -1.0133761221684299 
0.6999999999999392, -1.0115118019513083 
0.7099999999999381, -1.0102013082132135 
0.719999999999937, -1.009413152375052 
0.7299999999999359, -1.0090320396774373 
0.7399999999999348, -1.0089025055372756 
0.7499999999999337, -1.0088762421271147 
0.7599999999999326, -1.008836634704573 
0.7699999999999315, -1.0086974851206396 
0.7799999999999304, -1.0083885214693988 
0.7899999999999293, -1.0078407474069242 
0.7999999999999282, -1.0069797620174612 
0.8099999999999271, -1.0057313659253584 
0.819999999999926, -1.0040393950680828 
0.8299999999999249, -1.0018882806154465 
0.8399999999999238, -0.9993170584455452 
0.8499999999999227, -0.9964163296394674 
0.8599999999999216, -0.993312975688322 
0.8699999999999205, -0.9901546928061011 
0.8799999999999194, -0.9871005287977266 
0.8899999999999183, -0.9843129914698032 
0.8999999999999172, -0.9819424089881131 
0.9099999999999161, -0.9800989548228936 
0.919999999999915, -0.9788206381880513 
0.9299999999999139, -0.9780575573449399 
0.9399999999999128, -0.9776883468937623 
0.9499999999999117, -0.9775616617138425 
0.9599999999999106, -0.9775368657056394 
0.9699999999999095, -0.977503808141646 
0.9799999999999084, -0.9773809000736545 
0.9899999999999073, -0.9771025587178055 
0.9999999999999062, -0.9766071645551971 
1.0099999999999052, -0.9758325205696418 
1.019999999999904, -0.9747219833473293 
1.029999999999903, -0.9732396895561207 
1.039999999999902, -0.9713868525542718 
1.0499999999999008, -0.9692081780858505 
1.0599999999998997, -0.9667840342345958 
1.0699999999998986, -0.9642151954604463 
1.0799999999998975, -0.9616106346185047 
1.0899999999998964, -0.9590823993031707 
1.0999999999998953, -0.9567435341477072 
1.1099999999998942, -0.9547020427089613 
1.119999999999893, -0.9530465139543415 
1.129999999999892, -0.9518256002329988 
1.1399999999998909, -0.9510311977366062 
1.1499999999998898, -0.9505976140674808 
1.1599999999998887, -0.9504205388930522 
1.1699999999998876, -0.9503856455832063 
1.1799999999998865, -0.9503911306819106 
1.1899999999998854, -0.9503560603074112 
1.1999999999998843, -0.950217325246417 
1.2099999999998832, -0.9499230359392603 
1.219999999999882, -0.9494291194579743 
1.229999999999881, -0.9487021418334105 
1.2399999999998799, -0.9477267034214796 
1.2499999999998788, -0.9465116827371016 
1.2599999999998777, -0.9450895965060496 
1.2699999999998766, -0.9435088316193175 
1.2799999999998755, -0.9418243905904878 
1.2899999999998744, -0.9400928880476792 
1.2999999999998733, -0.938372759284143 
1.3099999999998722, -0.9367264376162725 
1.319999999999871, -0.9352203335278426 
1.32999999999987, -0.9339198942899534 
1.3399999999998689, -0.9328794597847294 
1.3499999999998678, -0.9321295179256388 
1.3599999999998666, -0.9316666224980548 
1.3699999999998655, -0.9314517559151984 
1.3799999999998644, -0.9314192998202199 
1.3899999999998633, -0.9314925114767366 
1.3999999999998622, -0.9315978841537476 
1.4099999999998611, -0.9316732114643512 
1.41999999999986, -0.9316695688443037 
1.429999999999859, -0.9315507663341093 
1.4399999999998578, -0.9312933389980789 
1.4499999999998567, -0.9308873456182767 
1.4599999999998556, -0.9303359217325896 
1.4699999999998545, -0.929651983483903 
1.4799999999998534, -0.9288533297130943 
1.4899999999998523, -0.9279593341786562 
1.4999999999998512, -0.9269911775690728 
1.5099999999998501, -0.9259747819569754 
1.519999999999849, -0.9249441189166647 
1.529999999999848, -0.9239428139502455 
1.5399999999998468, -0.9230226524249723 
1.5499999999998457, -0.9222382039760821 
1.5599999999998446, -0.9216379587504704 
1.5699999999998435, -0.921254192341123 
1.5799999999998424, -0.9210950918139593 
1.5899999999998413, -0.9211423391984008 
1.5999999999998402, -0.9213553222219778 
1.6099999999998391, -0.9216803354980831 
1.619999999999838, -0.9220610897180539 
1.629999999999837, -0.9224469655936505 
1.6399999999998358, -0.9227974501350268 
1.6499999999998347, -0.9230831440176743 
1.6599999999998336, -0.9232843018919746 
1.6699999999998325, -0.923387717229096 
1.6799999999998314, -0.9233832040151813 
1.6899999999998303, -0.9232617324895678 
1.6999999999998292, -0.9230167590138848 
1.709999999999828, -0.9226480315410861 
1.719999999999827, -0.9221653607963756 
1.729999999999826, -0.9215905840807326 
1.7399999999998248, -0.9209580757674898 
1.7499999999998237, -0.9203148779474997 
1.7599999999998226, -0.9197200316840345 
1.7699999999998215, -0.919240833031729 
1.7799999999998204, -0.9189439794030857 
1.7899999999998193, -0.9188827040493465 
1.7999999999998182, -0.919084777082104 
1.809999999999817, -0.9195469361013261 
1.819999999999816, -0.9202378876322103 
1.8299999999998149, -0.9211075479202252 
1.8399999999998138, -0.9220979677120873 
1.8499999999998127, -0.9231518843211693 
1.8599999999998116, -0.9242167581372668 
1.8699999999998105, -0.9252443411591249 
1.8799999999998094, -0.9261878523807846 
1.8899999999998083, -0.9270003544935774 
1.8999999999998072, -0.9276377680396795 
1.909999999999806, -0.9280667907627839 
1.919999999999805, -0.9282732824853884 
1.9299999999998039, -0.9282653038462068 
1.9399999999998028, -0.928069377007947 
1.9499999999998017, -0.9277241968781196 
1.9599999999998006, -0.9272773350251983 
1.9699999999997995, -0.9267873817426097 
1.9799999999997984, -0.926329639056006 
1.9899999999997973, -0.9259998529689806 
1.9999999999997962, -0.9259089428447785 
2.0099999999998173, -0.9261648908294088 
2.0199999999998384, -0.9268466462686303 
2.0299999999998595, -0.9279828678698469 
2.0399999999998806, -0.9295465910788497 
2.0499999999999017, -0.9314659358806694 
2.059999999999923, -0.9336414540895943 
2.069999999999944, -0.9359601123939305 
2.079999999999965, -0.9383019826814589 
2.089999999999986, -0.9405428483506115 
2.100000000000007, -0.9425601924049906 
2.1100000000000283, -0.9442482456640071 
2.1200000000000494, -0.9455388095061193 
2.1300000000000705, -0.9464151493137077 
2.1400000000000916, -0.9469081854074295 
2.1500000000001127, -0.9470777256314458 
2.160000000000134, -0.9469917380874051 
2.170000000000155, -0.946714645159501 
2.180000000000176, -0.9463078999043292 
2.190000000000197, -0.9458410097395833 
2.2000000000002182, -0.9454089277494108 
2.2100000000002393, -0.9451483650270811 
2.2200000000002604, -0.9452402305286258 
2.2300000000002815, -0.9458847256101646 
2.2400000000003026, -0.9472491164222149 
2.2500000000003237, -0.9494113511268003 
2.260000000000345, -0.9523311862713625 
2.270000000000366, -0.9558603898278928 
2.280000000000387, -0.9597762488239683 
2.290000000000408, -0.9638164217999883 
2.3000000000004293, -0.9677079745901376 
2.3100000000004504, -0.9711984494084698 
2.3200000000004715, -0.9740951911733944 
2.3300000000004926, -0.9763015640349275 
2.3400000000005137, -0.9778265192165014 
2.3500000000005348, -0.9787579249130982 
2.360000000000556, -0.9792171023025247 
2.370000000000577, -0.9793208135487574 
2.380000000000598, -0.9791637388999641 
2.390000000000619, -0.9788199494896445 
2.4000000000006403, -0.9783576977837954 
2.4100000000006614, -0.9778637628671252 
2.4200000000006825, -0.9774731819641517 
2.4300000000007036, -0.977392324097179 
2.4400000000007247, -0.9778916083229312 
2.450000000000746, -0.9792467226160484 
2.460000000000767, -0.9816409167600094 
2.470000000000788, -0.9850829248796149 
2.480000000000809, -0.9893913832903461 
2.49000000000083, -0.9942439874951079 
2.5000000000008513, -0.9992508122906039 
2.5100000000008724, -1.0040213618415617 
2.5200000000008935, -1.00822279125764 
2.5300000000009146, -1.011632322004716 
2.5400000000009357, -1.0141695170773362 
2.550000000000957, -1.0158868537294905 
2.560000000000978, -1.0169202176170162 
2.570000000000999, -1.017428770882611 
2.58000000000102, -1.017553335368555 
2.5900000000010412, -1.0174018217273697 
2.6000000000010624, -1.0170554161660688 
2.6100000000010835, -1.0165878643345483 
2.6200000000011046, -1.0160937582777119 
2.6300000000011257, -1.0157204210515682 
2.6400000000011468, -1.0156872844209421 
2.650000000001168, -1.0162646673200468 
2.660000000001189, -1.0176957819107044 
2.67000000000121, -1.0200939047045094 
2.680000000001231, -1.0233842028595226 
2.6900000000012523, -1.0273277817168947 
2.7000000000012734, -1.031597369188069 
2.7100000000012945, -1.035851441084889 
2.7200000000013156, -1.0397839273291762 
2.7300000000013367, -1.0431575615133286 
2.740000000001358, -1.0458304346126002 
2.750000000001379, -1.0477688489730728 
2.7600000000014, -1.0490332599703862 
2.770000000001421, -1.0497396307887636 
2.780000000001442, -1.0500164659380544 
2.7900000000014633, -1.0499769357247133 
2.8000000000014844, -1.0497118074201333 
2.8100000000015055, -1.0492991272151149 
2.8200000000015266, -1.0488246772796657 
2.8300000000015477, -1.0484060317318942 
2.840000000001569, -1.0482064803588451 
2.85000000000159, -1.048418325000103 
2.860000000001611, -1.049206562422437 
2.870000000001632, -1.0506401057808414 
2.8800000000016532, -1.0526606040752637 
2.8900000000016743, -1.0551094111149124 
2.9000000000016954, -1.057784207286026 
2.9100000000017165, -1.0604860301938035 
2.9200000000017377, -1.0630421176637408 
2.9300000000017588, -1.0653127232371222 
2.94000000000178, -1.0671951296761155 
2.950000000001801, -1.0686306377374293 
2.960000000001822, -1.0696098946982457 
2.970000000001843, -1.070168272828409 
2.9800000000018643, -1.0703700299819905 
2.9900000000018854, -1.0702895704210684 
3.0000000000019065, -1.0699999019587192 
3.0100000000019276, -1.0695727332366332 
3.0200000000019487, -1.0690880068112891 
3.03000000000197, -1.068645223024837 
3.040000000001991, -1.0683642971230747 
3.050000000002012, -1.0683650547757417 
3.060000000002033, -1.0687295115463729 
3.070000000002054, -1.0694709135068714 
3.0800000000020753, -1.0705322861656443 
3.0900000000020964, -1.071812120046917 
3.1000000000021175, -1.0731964247626458 
3.1100000000021386, -1.0745809010076073 
3.1200000000021597, -1.0758799601910254 
3.130000000002181, -1.0770268153087583 
3.140000000002202, -1.0779704583367478 
3.150000000002223, -1.0786741575892944 
3.160000000002244, -1.0791171888531061 
3.1700000000022652, -1.079297801897864 
3.1800000000022863, -1.0792337168732267 
3.1900000000023074, -1.0789588353152308 
3.2000000000023285, -1.0785189347183457 
3.2100000000023496, -1.077970208036438 
3.2200000000023707, -1.0773811723025877 
3.230000000002392, -1.0768333208925596 
3.240000000002413, -1.0764134660791924 
3.250000000002434, -1.0761954598866255 
3.260000000002455, -1.076219298516713 
3.2700000000024763, -1.076480442650074 
3.2800000000024974, -1.0769346225001162 
3.2900000000025185, -1.0775128670019034 
3.3000000000025396, -1.0781385761671032 
3.3100000000025607, -1.0787410443127121 
3.3200000000025818, -1.0792629695120557 
3.330000000002603, -1.0796622635200128 
3.340000000002624, -1.079910307647028 
3.350000000002645, -1.0799890399294312 
3.360000000002666, -1.0798886907333543 
3.3700000000026873, -1.0796072604322053 
3.3800000000027084, -1.0791517423640777 
3.3900000000027295, -1.078540082602915 
3.4000000000027506, -1.077802956446414 
3.4100000000027717, -1.0769851295095367 
3.420000000002793, -1.0761456887511796 
3.430000000002814, -1.0753547740884293 
3.440000000002835, -1.074684347335747 
3.450000000002856, -1.074193880855408 
3.460000000002877, -1.073915895268479 
3.4700000000028983, -1.0738469798103067 
3.4800000000029194, -1.0739479198062882 
3.4900000000029405, -1.074153665577243 
3.5000000000029616, -1.074389275034774 
3.5100000000029827, -1.074584331222647 
3.520000000003004, -1.0746806416069743 
3.530000000003025, -1.0746339949171797 
3.540000000003046, -1.0744137836630852 
3.550000000003067, -1.0740027411981834 
3.5600000000030882, -1.0733963904783663 
3.5700000000031094, -1.0726013777895962 
3.5800000000031305, -1.0716334845705826 
3.5900000000031516, -1.0705171162600584 
3.6000000000031727, -1.0692870708001698 
3.6100000000031938, -1.0679915455204347 
3.620000000003215, -1.0666940187008653 
3.630000000003236, -1.0654711473668566 
3.640000000003257, -1.0644043313096134 
3.650000000003278, -1.063564377948489 
3.6600000000032993, -1.0629920262600814 
3.6700000000033204, -1.0626820539092665 
3.6800000000033415, -1.0625814909421742 
3.6900000000033626, -1.0626056709066367 
3.7000000000033837, -1.0626622713793217 
3.710000000003405, -1.0626685801024847 
3.720000000003426, -1.0625561741531724 
3.730000000003447, -1.0622680206624617 
3.740000000003468, -1.061756027133661 
3.750000000003489, -1.0609834753801441 
3.7600000000035103, -1.059931173187335 
3.7700000000035314, -1.058602413663744 
3.7800000000035525, -1.057022883453381 
3.7900000000035736, -1.055236589389772 
3.8000000000035947, -1.053302317102746 
3.810000000003616, -1.0512935977926774 
3.820000000003637, -1.0493008097061438 
3.830000000003658, -1.0474305775185888 
3.840000000003679, -1.0457965299018637 
3.8500000000037002, -1.0444976172564138 
3.8600000000037213, -1.0435878115909536 
3.8700000000037424, -1.0430526844377703 
3.8800000000037635, -1.0428115020140665 
3.8900000000037847, -1.042746573590685 
3.9000000000038058, -1.0427392793091586 
3.910000000003827, -1.042690737807914 
3.920000000003848, -1.0425225309235564 
3.930000000003869, -1.0421669930033208 
3.94000000000389, -1.0415584889760683 
3.9500000000039113, -1.0406329607162115 
3.9600000000039324, -1.0393377024686161 
3.9700000000039535, -1.0376470473198525 
3.9800000000039746, -1.0355746315102032 
3.9900000000039957, -1.0331748255296858 
4.000000000004016, -1.0305348831034877 
4.010000000003993, -1.0277659757918167 
4.02000000000397, -1.0249985809127584 
4.030000000003946, -1.0223795626566965 
4.040000000003923, -1.0200623271313458 
4.0500000000039, -1.0181822132926068 
4.0600000000038765, -1.0168193336631641 
4.070000000003853, -1.0159673977875299 
4.08000000000383, -1.0155333148512404 
4.090000000003807, -1.015372846736021 
4.100000000003783, -1.0153382047372257 
4.11000000000376, -1.0153082237948834 
4.120000000003737, -1.015192315812088 
4.130000000003713, -1.014918267810907 
4.14000000000369, -1.0144174824970844 
4.150000000003667, -1.0136168817288311 
4.1600000000036434, -1.0124424598650275 
4.17000000000362, -1.0108351746097943 
4.180000000003597, -1.0087728405479388 
4.1900000000035735, -1.0062854649134176 
4.20000000000355, -1.0034546746525168 
4.210000000003527, -1.0004003207962175 
4.220000000003504, -0.9972656366155054 
4.23000000000348, -0.9942078890096443 
4.240000000003457, -0.9913910286609091 
4.250000000003434, -0.9889709857056452 
4.26000000000341, -0.9870678225244326 
4.270000000003387, -0.9857315966420039 
4.280000000003364, -0.9849224361881594 
4.2900000000033405, -0.9845234512347769 
4.300000000003317, -0.9843820177135557 
4.310000000003294, -0.9843531912775927 
4.320000000003271, -0.9843224596084552 
4.330000000003247, -0.9842052201302154 
4.340000000003224, -0.9839340504991687 
4.350000000003201, -0.9834456339867099 
4.360000000003177, -0.9826749182076318 
4.370000000003154, -0.9815602444349872 
4.380000000003131, -0.9800586959053403 
4.390000000003107, -0.9781642423875508 
4.400000000003084, -0.9759170437575803 
4.410000000003061, -0.9733976577027812 
4.4200000000030375, -0.9707117453276528 
4.430000000003014, -0.9679763765175341 
4.440000000002991, -0.9653133488235326 
4.450000000002968, -0.9628460486689928 
4.460000000002944, -0.9606923821446754 
4.470000000002921, -0.9589487255895481 
4.480000000002898, -0.9576672063287175 
4.490000000002874, -0.9568374866928441 
4.500000000002851, -0.9563868403100246 
4.510000000002828, -0.9562021779478279 
4.520000000002804, -0.9561617964140445 
4.530000000002781, -0.9561592730546392 
4.540000000002758, -0.9561112548121236 
4.5500000000027345, -0.9559529777315131 
4.560000000002711, -0.955630276111654 
4.570000000002688, -0.9550953296887377 
4.580000000002665, -0.9543095427501622 
4.590000000002641, -0.9532522175656795 
4.600000000002618, -0.951929015323288 
4.610000000002595, -0.9503732356005555 
4.620000000002571, -0.9486383489960101 
4.630000000002548, -0.9467873747131911 
4.640000000002525, -0.9448860164828414 
4.6500000000025015, -0.9430015947101463 
4.660000000002478, -0.9412046813718093 
4.670000000002455, -0.9395687497284355 
4.6800000000024315, -0.9381645426668015 
4.690000000002408, -0.9370486984537101 
4.700000000002385, -0.936249734396501 
4.710000000002362, -0.9357577399227923 
4.720000000002338, -0.9355243750654758 
4.730000000002315, -0.9354747476430963 
4.740000000002292, -0.9355252798454655 
4.750000000002268, -0.935598635154669 
4.760000000002245, -0.9356307615935094 
4.770000000002222, -0.9355714135727912 
4.7800000000021985, -0.9353826974430834 
4.790000000002175, -0.9350391491865284 
4.800000000002152, -0.9345295310254329 
4.810000000002129, -0.9338576745386078 
4.820000000002105, -0.9330398386522685 
4.830000000002082, -0.932099292232438 
4.840000000002059, -0.9310616776666552 
4.850000000002035, -0.9299539915464287 
4.860000000002012, -0.9288069288471791 
4.870000000001989, -0.9276581716850044 
4.880000000001965, -0.9265540623267308 
4.890000000001942, -0.9255479006744846 
4.900000000001919, -0.9246941163180395 
4.9100000000018955, -0.9240390180996787 
4.920000000001872, -0.9236106121442258 
4.930000000001849, -0.9234111453422026 
