t, s[1].omega / s[0].omega 
0, -1.680169634806473 
0.009999999999999995, -1.6957502953432388 
0.019999999999999934, -1.7060632328554028 
0.029999999999999874, -1.7115876450700191 
0.04000000000000012, -1.7142257593753736 
0.050000000000000405, -1.7153149809033181 
0.06000000000000069, -1.7155743894053572 
0.07000000000000098, -1.715367801998628 
0.08000000000000126, -1.7149059861045726 
0.09000000000000155, -1.7143688800033545 
0.10000000000000184, -1.7139328102322857 
0.11000000000000212, -1.7137020273361425 
0.12000000000000241, -1.7136679612181784 
0.130000000000002, -1.7137601636352546 
0.1400000000000009, -1.7138789758099293 
0.1499999999999998, -1.7138979701301342 
0.1599999999999987, -1.713681472592255 
0.1699999999999976, -1.7130771754112026 
0.1799999999999965, -1.7118603439458977 
0.1899999999999954, -1.70964663325524 
0.1999999999999943, -1.705792999017343 
0.2099999999999932, -1.6993654826909856 
0.2199999999999921, -1.6895193318004615 
0.229999999999991, -1.6770531089054437 
0.2399999999999899, -1.6664195191703512 
0.2499999999999888, -1.6625055686009067 
0.2599999999999877, -1.6639737551628115 
0.2699999999999866, -1.6665058628524592 
0.2799999999999855, -1.6681869690693165 
0.2899999999999844, -1.6689437017839783 
0.2999999999999833, -1.6690651074727534 
0.3099999999999822, -1.6687511745847747 
0.3199999999999811, -1.6681166815450705 
0.32999999999998, -1.6673380206205017 
0.3399999999999789, -1.6668652255389584 
0.3499999999999778, -1.6673708873179662 
0.35999999999997667, -1.6690915746830892 
0.36999999999997557, -1.6714581736160408 
0.37999999999997447, -1.6737270743177812 
0.38999999999997337, -1.675509927418703 
0.39999999999997227, -1.676720661147879 
0.40999999999997117, -1.6773918961953622 
0.41999999999997006, -1.677577616469668 
0.42999999999996896, -1.6773200181474373 
0.43999999999996786, -1.676642079800872 
0.44999999999996676, -1.6755512366542635 
0.45999999999996566, -1.674053835464958 
0.46999999999996456, -1.67219022964815 
0.47999999999996346, -1.670110600109155 
0.48999999999996235, -1.6681708288025525 
0.49999999999996125, -1.666848847029438 
0.5099999999999602, -1.6663315077761276 
0.519999999999959, -1.666309280171021 
0.529999999999958, -1.6663433379342716 
0.5399999999999568, -1.6661642399170824 
0.5499999999999557, -1.6656132991232604 
0.5599999999999546, -1.6644779123260374 
0.5699999999999535, -1.6623524697640601 
0.5799999999999524, -1.6586399933815315 
0.5899999999999513, -1.6533360764336904 
0.5999999999999502, -1.6496323526510352 
0.6099999999999491, -1.6543544408120865 
0.619999999999948, -1.6682861501683124 
0.6299999999999469, -1.683260913642845 
0.6399999999999458, -1.693778717011119 
0.6499999999999447, -1.6997847077169705 
0.6599999999999436, -1.702842535392311 
0.6699999999999425, -1.7042183096388357 
0.6799999999999414, -1.704656608031042 
0.6899999999999403, -1.7045555564874193 
0.6999999999999392, -1.704138976413552 
0.7099999999999381, -1.7035736188137378 
0.719999999999937, -1.703019713534011 
0.7299999999999359, -1.7026014620282268 
0.7399999999999348, -1.7023648397644 
0.7499999999999337, -1.702294281768864 
0.7599999999999326, -1.7023250254904319 
0.7699999999999315, -1.7023361182527623 
0.7799999999999304, -1.7021799035160101 
0.7899999999999293, -1.7017002081778625 
0.7999999999999282, -1.7006862136523921 
0.8099999999999271, -1.6987742843181965 
0.819999999999926, -1.695314276801625 
0.8299999999999249, -1.6892503118049695 
0.8399999999999238, -1.6793152501856738 
0.8499999999999227, -1.665453435855916 
0.8599999999999216, -1.6517698799493612 
0.8699999999999205, -1.6451870853733634 
0.8799999999999194, -1.6463383735594124 
0.8899999999999183, -1.6498453220274096 
0.8999999999999172, -1.6524495708312368 
0.9099999999999161, -1.6537857587410567 
0.919999999999915, -1.65425366450662 
0.9299999999999139, -1.654177522764228 
0.9399999999999128, -1.6537322056566672 
0.9499999999999117, -1.6530549853041374 
0.9599999999999106, -1.6524225921182327 
0.9699999999999095, -1.6523559312105178 
0.9799999999999084, -1.6532976748840529 
0.9899999999999073, -1.6550786498789507 
0.9999999999999062, -1.6570848312335837 
1.0099999999999052, -1.6588298384415068 
1.019999999999904, -1.6601181924581163 
1.029999999999903, -1.6609199072181788 
1.039999999999902, -1.6612582785898788 
1.0499999999999008, -1.6611605489871255 
1.0599999999998997, -1.6606412667354786 
1.0699999999998986, -1.659699546973611 
1.0799999999998975, -1.6583257110667688 
1.0899999999998964, -1.6565228624651467 
1.0999999999998953, -1.6543611062808972 
1.1099999999998942, -1.6520819269395897 
1.119999999999893, -1.6501631568969404 
1.129999999999892, -1.6490682667325458 
1.1399999999998909, -1.6487784572959758 
1.1499999999998898, -1.648843513067693 
1.1599999999998887, -1.6488516896038565 
1.1699999999998876, -1.6485899741172136 
1.1799999999998865, -1.6479109960944207 
1.1899999999998854, -1.6465738294573484 
1.1999999999998843, -1.6441366650809883 
1.2099999999998832, -1.640093857592332 
1.219999999999882, -1.6350698179285548 
1.229999999999881, -1.6334179410396374 
1.2399999999998799, -1.64112890837965 
1.2499999999998788, -1.6560021410339147 
1.2599999999998777, -1.6699418044169332 
1.2699999999998766, -1.679210644020846 
1.2799999999998755, -1.6844025010834838 
1.2899999999998744, -1.687017394497213 
1.2999999999998733, -1.6881621683276784 
1.3099999999998722, -1.6884770486496532 
1.319999999999871, -1.6883072997079254 
1.32999999999987, -1.6878554775966506 
1.3399999999998689, -1.687283418946802 
1.3499999999998678, -1.6867478946041004 
1.3599999999998666, -1.6863623242149548 
1.3699999999998655, -1.686160928728474 
1.3799999999998644, -1.6861195891144072 
1.3899999999998633, -1.6861650776733648 
1.3999999999998622, -1.6861728285506288 
1.4099999999998611, -1.6859979684662147 
1.41999999999986, -1.685486642398504 
1.429999999999859, -1.684427082496315 
1.4399999999998578, -1.6824568500178327 
1.4499999999998567, -1.6789439604723018 
1.4599999999998556, -1.6728964114059335 
1.4699999999998545, -1.6631825018233415 
1.4799999999998534, -1.6498536895242069 
1.4899999999998523, -1.63671372919022 
1.4999999999998512, -1.6300556472621672 
1.5099999999998501, -1.630654824549191 
1.519999999999849, -1.6337202917108384 
1.529999999999848, -1.636117554911016 
1.5399999999998468, -1.6373757929180504 
1.5499999999998457, -1.6378164257961647 
1.5599999999998446, -1.63772868837447 
1.5699999999998435, -1.6372699232536305 
1.5799999999998424, -1.636561740565908 
1.5899999999998413, -1.6358691168051949 
1.5999999999998402, -1.6357437942737754 
1.6099999999998391, -1.6367338826152718 
1.619999999999838, -1.6387435745859338 
1.629999999999837, -1.641093790482029 
1.6399999999998358, -1.6431877928337877 
1.6499999999998347, -1.6447729806254645 
1.6599999999998336, -1.6458127167984569 
1.6699999999998325, -1.6463449910106394 
1.6799999999998314, -1.6464176577493834 
1.6899999999998303, -1.6460672051751981 
1.6999999999998292, -1.645315073826532 
1.709999999999828, -1.644173275271159 
1.719999999999827, -1.64266086458229 
1.729999999999826, -1.6408402196204719 
1.7399999999998248, -1.6388863631606607 
1.7499999999998237, -1.637150356597455 
1.7599999999998226, -1.6360326748812213 
1.7699999999998215, -1.6356230654233372 
1.7799999999998204, -1.6356068878900192 
1.7899999999998193, -1.6356020859065352 
1.7999999999998182, -1.6353732070395899 
1.809999999999817, -1.634759808697638 
1.819999999999816, -1.6335235870153848 
1.8299999999998149, -1.631200030743381 
1.8399999999998138, -1.627042207565458 
1.8499999999998127, -1.6206517125918567 
1.8599999999998116, -1.6146085268023747 
1.8699999999998105, -1.6163841239862617 
1.8799999999998094, -1.6293891480636749 
1.8899999999998083, -1.6457301688583132 
1.8999999999998072, -1.6579132375569838 
1.909999999999806, -1.6649828628987418 
1.919999999999805, -1.6685910740213985 
1.9299999999998039, -1.6702414938627537 
1.9399999999998028, -1.6708283940985993 
1.9499999999998017, -1.670821092603029 
1.9599999999998006, -1.6704715239551742 
1.9699999999997995, -1.6699570948424138 
1.9799999999997984, -1.6694550178901335 
1.9899999999997973, -1.669120299401857 
1.9999999999997962, -1.669009054989304 
2.0099999999998173, -1.6690761639343397 
2.0199999999998384, -1.669233345207679 
2.0299999999998595, -1.6693704252023251 
2.0399999999998806, -1.6693633995941106 
2.0499999999999017, -1.6690864284219078 
2.059999999999923, -1.668393290464282 
2.069999999999944, -1.6670670502329645 
2.079999999999965, -1.6647578493982995 
2.089999999999986, -1.66093047018935 
2.100000000000007, -1.6548944721147756 
2.1100000000000283, -1.6461666681424583 
2.1200000000000494, -1.6355940285659263 
2.1300000000000705, -1.6265418149086521 
2.1400000000000916, -1.6225986591428962 
2.1500000000001127, -1.623085044603806 
2.160000000000134, -1.6248413796615941 
2.170000000000155, -1.6261474379693088 
2.180000000000176, -1.6267514465965707 
2.190000000000197, -1.626807731545123 
2.2000000000002182, -1.6264466434421063 
2.2100000000002393, -1.625732525660553 
2.2200000000002604, -1.624784551489822 
2.2300000000002815, -1.6240430174864968 
2.2400000000003026, -1.6244138323556256 
2.2500000000003237, -1.6265796190066701 
2.260000000000345, -1.6300448879935387 
2.270000000000366, -1.633649495779565 
2.280000000000387, -1.6366275943882027 
2.290000000000408, -1.6387704558348415 
2.3000000000004293, -1.6401378459242946 
2.3100000000004504, -1.6408555543481136 
2.3200000000004715, -1.6410408089911948 
2.3300000000004926, -1.6407847109754752 
2.3400000000005137, -1.6401544291110794 
2.3500000000005348, -1.63920506052906 
2.360000000000556, -1.637999110984864 
2.370000000000577, -1.6366331311378857 
2.380000000000598, -1.6352739330367385 
2.390000000000619, -1.6341696640328518 
2.4000000000006403, -1.6335278795954846 
2.4100000000006614, -1.633313005686111 
2.4200000000006825, -1.63326901734121 
2.4300000000007036, -1.6331331646077323 
2.4400000000007247, -1.6327164664763998 
2.450000000000746, -1.6318156525469003 
2.460000000000767, -1.6300591953103503 
2.470000000000788, -1.6267071498791768 
2.480000000000809, -1.6205081874839498 
2.49000000000083, -1.6104063034930232 
2.5000000000008513, -1.5989646224027547 
2.5100000000008724, -1.5954344988222358 
2.5200000000008935, -1.6051690559354896 
2.5300000000009146, -1.619824114501403 
2.5400000000009357, -1.63086698067346 
2.550000000000957, -1.6370912124865409 
2.560000000000978, -1.6401381859886306 
2.570000000000999, -1.6414523529368317 
2.58000000000102, -1.6418481522987136 
2.5900000000010412, -1.6417334368452763 
2.6000000000010624, -1.6413291920083868 
2.6100000000010835, -1.6408198364551658 
2.6200000000011046, -1.6404273360868693 
2.6300000000011257, -1.6403480937769015 
2.6400000000011468, -1.6406100102283188 
2.650000000001168, -1.6410741255537993 
2.660000000001189, -1.641568671190957 
2.67000000000121, -1.6419585013202327 
2.680000000001231, -1.6421406238654837 
2.6900000000012523, -1.6420289756749742 
2.7000000000012734, -1.641534945930659 
2.7100000000012945, -1.6405437420114928 
2.7200000000013156, -1.6388955031800982 
2.7300000000013367, -1.6363789487261795 
2.740000000001358, -1.632757598129223 
2.750000000001379, -1.6278963937718416 
2.7600000000014, -1.6221122409307536 
2.770000000001421, -1.6166383152152275 
2.780000000001442, -1.6132161629769333 
2.7900000000014633, -1.6123350640744913 
2.8000000000014844, -1.6128101106710826 
2.8100000000015055, -1.6134270435203828 
2.8200000000015266, -1.6137150648599363 
2.8300000000015477, -1.6136062328410017 
2.840000000001569, -1.6130938560161145 
2.85000000000159, -1.6121199788984253 
2.860000000001611, -1.6106385235478886 
2.870000000001632, -1.6089803528437479 
2.8800000000016532, -1.6085488812260764 
2.8900000000016743, -1.6114912627359537 
2.9000000000016954, -1.6180301327979152 
2.9100000000017165, -1.625676106408956 
2.9200000000017377, -1.6321225740337373 
2.9300000000017588, -1.6366650158317018 
2.94000000000178, -1.6395230296068632 
2.950000000001801, -1.6411296568551095 
2.960000000001822, -1.6418620432344764 
2.970000000001843, -1.6419911003899634 
2.9800000000018643, -1.6416985279852114 
2.9900000000018854, -1.641111866201991 
3.0000000000019065, -1.6403409117942196 
3.0100000000019276, -1.6394989757974585 
3.0200000000019487, -1.6387025452771429 
3.03000000000197, -1.6380666858342914 
3.040000000001991, -1.637679524326396 
3.050000000002012, -1.6375269937163939 
3.060000000002033, -1.6374669934643602 
3.070000000002054, -1.637312305299987 
3.0800000000020753, -1.636889044821266 
3.0900000000020964, -1.6359903886862408 
3.1000000000021175, -1.634256420286372 
3.1100000000021386, -1.630993118047386 
3.1200000000021597, -1.6249540493263193 
3.130000000002181, -1.6144052483091724 
3.140000000002202, -1.5986894500176956 
3.150000000002223, -1.58227928583638 
3.160000000002244, -1.5745099703379455 
3.1700000000022652, -1.5775844610079717 
3.1800000000022863, -1.584256823518416 
3.1900000000023074, -1.5893189998816015 
3.2000000000023285, -1.5921145674356971 
3.2100000000023496, -1.5933938793010454 
3.2200000000023707, -1.5938021286237292 
3.230000000002392, -1.593696470001916 
3.240000000002413, -1.5932627341122119 
3.250000000002434, -1.5926579018222744 
3.260000000002455, -1.5921513060619081 
3.2700000000024763, -1.5921505109886125 
3.2800000000024974, -1.5929281234001296 
3.2900000000025185, -1.5943201063361907 
3.3000000000025396, -1.595892853044201 
3.3100000000025607, -1.5972962640347594 
3.3200000000025818, -1.5983629595881985 
3.330000000002603, -1.599039533101272 
3.340000000002624, -1.5993183010590206 
3.350000000002645, -1.5992023162959572 
3.360000000002666, -1.5986906866835309 
3.3700000000026873, -1.597774601981979 
3.3800000000027084, -1.596441305735946 
3.3900000000027295, -1.594689656250663 
3.4000000000027506, -1.5925690275610533 
3.4100000000027717, -1.590256878885371 
3.420000000002793, -1.5881367695908264 
3.430000000002814, -1.5866864632752065 
3.440000000002835, -1.5860849253970204 
3.450000000002856, -1.5860337303605372 
3.460000000002877, -1.5860948283378646 
3.4700000000028983, -1.5859871450256504 
3.4800000000029194, -1.5855573579958033 
3.4900000000029405, -1.5846341963181092 
3.5000000000029616, -1.5828910115558237 
3.5100000000029827, -1.579742186283447 
3.520000000003004, -1.5745239580437214 
3.530000000003025, -1.5678902388782712 
3.540000000003046, -1.5647000479077358 
3.550000000003067, -1.5718363669556519 
3.5600000000030882, -1.5875276233488744 
3.5700000000031094, -1.6028623802109176 
3.5800000000031305, -1.6131963292040108 
3.5900000000031516, -1.6189715984077964 
3.6000000000031727, -1.621868859287407 
3.6100000000031938, -1.6231559983082078 
3.620000000003215, -1.6235578016750296 
3.630000000003236, -1.6234549711752948 
3.640000000003257, -1.6230621085562542 
3.650000000003278, -1.6225494324192902 
3.6600000000032993, -1.6220994450806951 
3.6700000000033204, -1.621865281898143 
3.6800000000033415, -1.621884564499641 
3.6900000000033626, -1.6220841752453115 
3.7000000000033837, -1.6223529802730112 
3.710000000003405, -1.6225756894410985 
3.720000000003426, -1.6226393035528002 
3.730000000003447, -1.6224366550005762 
3.740000000003468, -1.6218513768238527 
3.750000000003489, -1.620726540080243 
3.7600000000035103, -1.6188334421146706 
3.7700000000035314, -1.6158546683839188 
3.7800000000035525, -1.6114118339173078 
3.7900000000035736, -1.6052346932574753 
3.8000000000035947, -1.5976557114670076 
3.810000000003616, -1.5903114151341986 
3.820000000003637, -1.5856604913944143 
3.830000000003658, -1.5844892465279128 
3.840000000003679, -1.5852041899347389 
3.8500000000037002, -1.5861401224597553 
3.8600000000037213, -1.5866740608384515 
3.8700000000037424, -1.58675197221747 
3.8800000000037635, -1.5864224082808778 
3.8900000000037847, -1.5856869551200385 
3.9000000000038058, -1.5845292169632896 
3.910000000003827, -1.5831434986406436 
3.920000000003848, -1.5824236360180828 
3.930000000003869, -1.584019682073381 
3.94000000000389, -1.5887090496515361 
3.9500000000039113, -1.59505663522872 
3.9600000000039324, -1.6010145375589366 
3.9700000000039535, -1.605577394080963 
3.9800000000039746, -1.608667280377786 
3.9900000000039957, -1.6105524461090384 
4.000000000004016, -1.6115381308843368 
4.010000000003993, -1.6118725649186771 
4.02000000000397, -1.6117358098066532 
4.030000000003946, -1.6112559822046066 
4.040000000003923, -1.6105359651043263 
4.0500000000039, -1.6096784457423254 
4.0600000000038765, -1.6087956434178188 
4.070000000003853, -1.608007193983368 
4.08000000000383, -1.6074304859800446 
4.090000000003807, -1.6071263003499408 
4.100000000003783, -1.6070252406058612 
4.11000000000376, -1.6069546647078021 
4.120000000003737, -1.6067327986960092 
4.130000000003713, -1.6061894456651753 
4.14000000000369, -1.6050933060506885 
4.150000000003667, -1.6030222333898094 
4.1600000000036434, -1.5991801369072842 
4.17000000000362, -1.5922197890954528 
4.180000000003597, -1.5805102008677874 
4.1900000000035735, -1.5641005947464486 
4.20000000000355, -1.54841176065355 
4.210000000003527, -1.5419474541767006 
4.220000000003504, -1.5451646772565255 
4.23000000000348, -1.5511535466777613 
4.240000000003457, -1.555611316147734 
4.250000000003434, -1.5580755667027826 
4.26000000000341, -1.559198609153572 
4.270000000003387, -1.5595334341647282 
4.280000000003364, -1.559387547094663 
4.2900000000033405, -1.5589216996552664 
4.300000000003317, -1.5582800249987308 
4.310000000003294, -1.5577358413041886 
4.320000000003271, -1.5577419140384796 
4.330000000003247, -1.5586552446390183 
4.340000000003224, -1.560348910200162 
4.350000000003201, -1.5623250956999293 
4.360000000003177, -1.5641403627489272 
4.370000000003154, -1.565574672940302 
4.380000000003131, -1.5665644735017068 
4.390000000003107, -1.5671138782710927 
4.400000000003084, -1.5672468387122902 
4.410000000003061, -1.566987743461076 
4.4200000000030375, -1.5663557615565886 
4.430000000003014, -1.5653669424264693 
4.440000000002991, -1.5640440594104583 
4.450000000002968, -1.5624375737158014 
4.460000000002944, -1.5606633898148103 
4.470000000002921, -1.558950256063231 
4.480000000002898, -1.5576204246845733 
4.490000000002874, -1.556894916591461 
4.500000000002851, -1.5566820755942907 
4.510000000002828, -1.5566721025146963 
4.520000000002804, -1.556585324066897 
4.530000000002781, -1.5562424591453676 
4.540000000002758, -1.5554747841749361 
4.5500000000027345, -1.5539906541124098 
4.560000000002711, -1.551214662527509 
4.570000000002688, -1.546136030703205 
4.580000000002665, -1.537584200557989 
4.590000000002641, -1.5262346457358549 
4.600000000002618, -1.518249339678881 
4.610000000002595, -1.5218509763821053 
4.620000000002571, -1.5350093956161315 
4.630000000002548, -1.548321415579744 
4.640000000002525, -1.5571487661138754 
4.6500000000025015, -1.561942809004289 
4.660000000002478, -1.5642642435124423 
4.670000000002455, -1.5652338907943657 
4.6800000000024315, -1.5654640431068532 
4.690000000002408, -1.5652654210714916 
4.700000000002385, -1.5648198881707462 
4.710000000002362, -1.5643066073756526 
4.720000000002338, -1.5639668999973424 
4.730000000002315, -1.5640288867214858 
4.740000000002292, -1.5645326164377706 
4.750000000002268, -1.5653054048105302 
4.760000000002245, -1.566121043294655 
4.770000000002222, -1.566812809892784 
4.7800000000021985, -1.5672785250788719 
4.790000000002175, -1.5674545441125796 
4.800000000002152, -1.5672937723375742 
4.810000000002129, -1.5667497792180165 
4.820000000002105, -1.5657678932687538 
4.830000000002082, -1.5642838753165118 
4.840000000002059, -1.5622326818792371 
4.850000000002035, -1.5595795464392128 
4.860000000002012, -1.5564013428246457 
4.870000000001989, -1.5530338910418282 
4.880000000001965, -1.5501505226700352 
4.890000000001942, -1.5484244950701835 
4.900000000001919, -1.5479017537042794 
4.9100000000018955, -1.5480129965985974 
4.920000000001872, -1.5481914893844548 
4.930000000001849, -1.5481563073593039 
4.940000000001826, -1.5477900161246132 
