t, s[1].omega / s[0].omega 
0, -0.7800038698613669 
0.009999999999999995, -0.7803575866299359 
0.019999999999999934, -0.7806232480089417 
0.029999999999999874, -0.7807700000397376 
0.04000000000000012, -0.7807777561184411 
0.050000000000000405, -0.7806429249164115 
0.06000000000000069, -0.7803779410532735 
0.07000000000000098, -0.7800074519066744 
0.08000000000000126, -0.7795658124863838 
0.09000000000000155, -0.779098800354601 
0.10000000000000184, -0.7786698028630917 
0.11000000000000212, -0.7783685745077421 
0.12000000000000241, -0.7783188765622733 
0.130000000000002, -0.7786800059307145 
0.1400000000000009, -0.7796375872330219 
0.1499999999999998, -0.7813820746317632 
0.1599999999999987, -0.784077883195935 
0.1699999999999976, -0.787828298201243 
0.1799999999999965, -0.792639234822338 
0.1899999999999954, -0.7983824191803348 
0.1999999999999943, -0.8047644312258541 
0.2099999999999932, -0.81132653540677 
0.2199999999999921, -0.8175143963989097 
0.229999999999991, -0.8228266676067075 
0.2399999999999899, -0.826971718088194 
0.2499999999999888, -0.829924014434982 
0.2599999999999877, -0.831852377883737 
0.2699999999999866, -0.8329970907510458 
0.2799999999999855, -0.8335785825774099 
0.2899999999999844, -0.8337598408273539 
0.2999999999999833, -0.8336440076307398 
0.3099999999999822, -0.8332852166972243 
0.3199999999999811, -0.8327014919373135 
0.32999999999998, -0.8318883052417485 
0.3399999999999789, -0.8308383561919366 
0.3499999999999778, -0.829579543748982 
0.35999999999997667, -0.8282485432382668 
0.36999999999997557, -0.8272126656320612 
0.37999999999997447, -0.8272137833346258 
0.38999999999997337, -0.8294093650529989 
0.39999999999997227, -0.8350742069093471 
0.40999999999997117, -0.8448324046279361 
0.41999999999997006, -0.8578474380869834 
0.42999999999996896, -0.8719004621061638 
0.43999999999996786, -0.8845862476284561 
0.44999999999996676, -0.8945089627444884 
0.45999999999996566, -0.9014890228551342 
0.46999999999996456, -0.9060476420902364 
0.47999999999996346, -0.9088692035659933 
0.48999999999996235, -0.9105296221359941 
0.49999999999996125, -0.9114317031361431 
0.5099999999999602, -0.9118276972503189 
0.519999999999959, -0.9118584915331235 
0.529999999999958, -0.9115831642611724 
0.5399999999999568, -0.9109927667597164 
0.5499999999999557, -0.910007752437369 
0.5599999999999546, -0.9084586394620014 
0.5699999999999535, -0.9060501997786151 
0.5799999999999524, -0.9023173921647455 
0.5899999999999513, -0.896607543250111 
0.5999999999999502, -0.8881772399986086 
0.6099999999999491, -0.8765391494566593 
0.619999999999948, -0.862077179911914 
0.6299999999999469, -0.8465052627551378 
0.6399999999999458, -0.8324144612853525 
0.6499999999999447, -0.8219131932454781 
0.6599999999999436, -0.8155907906610889 
0.6699999999999425, -0.8126816512813024 
0.6799999999999414, -0.8119168006649582 
0.6899999999999403, -0.8121988318176878 
0.6999999999999392, -0.8128283518221394 
0.7099999999999381, -0.8134487989087562 
0.719999999999937, -0.8139149012775047 
0.7299999999999359, -0.8141840765441952 
0.7399999999999348, -0.814249881728422 
0.7499999999999337, -0.8141063568530471 
0.7599999999999326, -0.8137286962949905 
0.7699999999999315, -0.8130604923691205 
0.7799999999999304, -0.812003894316567 
0.7899999999999293, -0.8104160089703123 
0.7999999999999282, -0.8081230547511629 
0.8099999999999271, -0.8049676615054 
0.819999999999926, -0.8008896843652572 
0.8299999999999249, -0.7960015856298489 
0.8399999999999238, -0.7905949259713537 
0.8499999999999227, -0.7850581755572508 
0.8599999999999216, -0.7797624770522248 
0.8699999999999205, -0.7749859871004716 
0.8799999999999194, -0.7708957186254027 
0.8899999999999183, -0.767563050102712 
0.8999999999999172, -0.7649863413741415 
0.9099999999999161, -0.7631096106001756 
0.919999999999915, -0.7618379414036418 
0.9299999999999139, -0.7610530459725149 
0.9399999999999128, -0.7606297147878229 
0.9499999999999117, -0.7604506145488542 
0.9599999999999106, -0.7604161507714997 
0.9699999999999095, -0.7604480179124751 
0.9799999999999084, -0.7604876887742973 
0.9899999999999073, -0.7604926431654324 
0.9999999999999062, -0.7604331212155829 
1.0099999999999052, -0.7602909665015071 
1.019999999999904, -0.7600601516797958 
1.029999999999903, -0.7597466517734801 
1.039999999999902, -0.7593650559437664 
1.0499999999999008, -0.7589317819548321 
1.0599999999998997, -0.7584582217235946 
1.0699999999998986, -0.7579480064600476 
1.0799999999998975, -0.7573997522674003 
1.0899999999998964, -0.756812956661717 
1.0999999999998953, -0.7561934966427855 
1.1099999999998942, -0.7555568573424987 
1.119999999999893, -0.7549295008603736 
1.129999999999892, -0.7543495335162705 
1.1399999999998909, -0.7538669912556343 
1.1499999999998898, -0.7535429121499703 
1.1599999999998887, -0.7534460171265613 
1.1699999999998876, -0.7536466232997193 
1.1799999999998865, -0.7542089046927158 
1.1899999999998854, -0.7551837137784726 
1.1999999999998843, -0.7566038713772405 
1.2099999999998832, -0.758482026671681 
1.219999999999882, -0.7608088594851414 
1.229999999999881, -0.7635479885657961 
1.2399999999998799, -0.7666249563296984 
1.2499999999998788, -0.7699125916515833 
1.2599999999998777, -0.7732239283256596 
1.2699999999998766, -0.7763304759582498 
1.2799999999998755, -0.7790140838145305 
1.2899999999998744, -0.7811308776742587 
1.2999999999998733, -0.7826451021397055 
1.3099999999998722, -0.7836122264938966 
1.319999999999871, -0.7841321286662672 
1.32999999999987, -0.7843061821417138 
1.3399999999998689, -0.7842143065094286 
1.3499999999998678, -0.783909577677542 
1.3599999999998666, -0.7834229397328212 
1.3699999999998655, -0.7827740530538516 
1.3799999999998644, -0.781989801152423 
1.3899999999998633, -0.7811370617911154 
1.3999999999998622, -0.7803797314718779 
1.4099999999998611, -0.7800669553027509 
1.41999999999986, -0.780838374447131 
1.429999999999859, -0.7836774632586843 
1.4399999999998578, -0.7897626633673108 
1.4499999999998567, -0.7999515948120284 
1.4599999999998556, -0.8139919708833714 
1.4699999999998545, -0.8300989867016811 
1.4799999999998534, -0.8456267555198174 
1.4899999999998523, -0.8584656416631541 
1.4999999999998512, -0.8678606245961692 
1.5099999999998501, -0.8741570555853535 
1.519999999999849, -0.8781313561557977 
1.529999999999848, -0.8805291937432418 
1.5399999999998468, -0.8819037446591722 
1.5499999999998457, -0.8826157362295822 
1.5599999999998446, -0.8828801306110853 
1.5699999999998435, -0.8828095930759284 
1.5799999999998424, -0.8824414750387529 
1.5899999999998413, -0.8817473801378499 
1.5999999999998402, -0.8806260165798646 
1.6099999999998391, -0.8788788396961665 
1.619999999999838, -0.87616888195471 
1.629999999999837, -0.8719732533633844 
1.6399999999998358, -0.8655718357514479 
1.6499999999998347, -0.8561767561610096 
1.6599999999998336, -0.8433457781153522 
1.6699999999998325, -0.8276430271411594 
1.6799999999998314, -0.8110005027523088 
1.6899999999998303, -0.7960581958938502 
1.6999999999998292, -0.784778450722217 
1.709999999999828, -0.7776244555951549 
1.719999999999827, -0.7738593747808442 
1.729999999999826, -0.7723256717695727 
1.7399999999998248, -0.77200750996134 
1.7499999999998237, -0.7722211240899779 
1.7599999999998226, -0.7725813250652662 
1.7699999999998215, -0.7729007663753567 
1.7799999999998204, -0.7730997444504177 
1.7899999999998193, -0.7731459650552047 
1.7999999999998182, -0.7730193588902144 
1.809999999999817, -0.7726923274685811 
1.819999999999816, -0.772118516008861 
1.8299999999998149, -0.7712279405316255 
1.8399999999998138, -0.7699313950333835 
1.8499999999998127, -0.7681403858713841 
1.8599999999998116, -0.7658048067826798 
1.8699999999998105, -0.7629547458007655 
1.8799999999998094, -0.759716730081038 
1.8899999999998083, -0.7562848056458313 
1.8999999999998072, -0.7528633279736142 
1.909999999999806, -0.749619361210893 
1.919999999999805, -0.7466655736455529 
1.9299999999998039, -0.7440671778990648 
1.9399999999998028, -0.7418565831959375 
1.9499999999998017, -0.740044839746626 
1.9599999999998006, -0.7386270366318588 
1.9699999999997995, -0.7375835454340833 
1.9799999999997984, -0.7368803241788378 
1.9899999999997973, -0.7364707765654158 
1.9999999999997962, -0.7363000054651143 
2.0099999999998173, -0.7363106405672546 
2.0199999999998384, -0.7364485699547593 
2.0299999999998595, -0.7366671741332265 
2.0399999999998806, -0.7369296219838127 
2.0499999999999017, -0.7372096086708114 
2.059999999999923, -0.7374909725391732 
2.069999999999944, -0.737765966613962 
2.079999999999965, -0.7380314184400192 
2.089999999999986, -0.7382827196578505 
2.100000000000007, -0.738507680666267 
2.1100000000000283, -0.7386840221517411 
2.1200000000000494, -0.7387832387037735 
2.1300000000000705, -0.7387794734223219 
2.1400000000000916, -0.7386581978089206 
2.1500000000001127, -0.7384199799702564 
2.160000000000134, -0.7380791027898882 
2.170000000000155, -0.7376606296011319 
2.180000000000176, -0.7371997959761241 
2.190000000000197, -0.7367456150860631 
2.2000000000002182, -0.7363685229612995 
2.2100000000002393, -0.7361703466852988 
2.2200000000002604, -0.7362934650206596 
2.2300000000002815, -0.7369247789924057 
2.2400000000003026, -0.7382897947049608 
2.2500000000003237, -0.7406333096969375 
2.260000000000345, -0.7441849835292184 
2.270000000000366, -0.7491085501488054 
2.280000000000387, -0.7554332107678412 
2.290000000000408, -0.7629723889498952 
2.3000000000004293, -0.7712605247077949 
2.3100000000004504, -0.7795771211095733 
2.3200000000004715, -0.7871218264895463 
2.3300000000004926, -0.7932895894959864 
2.3400000000005137, -0.7978596501076379 
2.3500000000005348, -0.8009659733394464 
2.360000000000556, -0.8029211413560644 
2.370000000000577, -0.8040506181497197 
2.380000000000598, -0.8046105259171108 
2.390000000000619, -0.8047718990902653 
2.4000000000006403, -0.8046328679541279 
2.4100000000006614, -0.8042345253734693 
2.4200000000006825, -0.8035714865361925 
2.4300000000007036, -0.8025960491058106 
2.4400000000007247, -0.8012184679058848 
2.450000000000746, -0.7993089813438892 
2.460000000000767, -0.7967116258327406 
2.470000000000788, -0.7932833066268296 
2.480000000000809, -0.7889649691510597 
2.49000000000083, -0.7838658564857184 
2.5000000000008513, -0.7783189561089661 
2.5100000000008724, -0.7728933011184242 
2.5200000000008935, -0.7683473118512861 
2.5300000000009146, -0.7653875066974065 
2.5400000000009357, -0.7642585869254777 
2.550000000000957, -0.7646006140354631 
2.560000000000978, -0.7657505515795363 
2.570000000000999, -0.767121192324451 
2.58000000000102, -0.7683613911378886 
2.5900000000010412, -0.7693273370971367 
2.6000000000010624, -0.7699955842736583 
2.6100000000010835, -0.7703914501031351 
2.6200000000011046, -0.7705471733246839 
2.6300000000011257, -0.7704811510084507 
2.6400000000011468, -0.7701873405548867 
2.650000000001168, -0.7696276873439782 
2.660000000001189, -0.7687248774214346 
2.67000000000121, -0.767357835085726 
2.680000000001231, -0.7653692854317284 
2.6900000000012523, -0.7626005910431498 
2.7000000000012734, -0.7589619439471931 
2.7100000000012945, -0.754513226744222 
2.7200000000013156, -0.7494944563915777 
2.7300000000013367, -0.7442648844658815 
2.740000000001358, -0.7391883264991644 
2.750000000001379, -0.734543407604519 
2.7600000000014, -0.7304961993111189 
2.770000000001421, -0.7271172962942418 
2.780000000001442, -0.7244111428561554 
2.7900000000014633, -0.7223395968796179 
2.8000000000014844, -0.7208368215638439 
2.8100000000015055, -0.7198191213506002 
2.8200000000015266, -0.7191934430430159 
2.8300000000015477, -0.7188658866332077 
2.840000000001569, -0.7187494151749417 
2.85000000000159, -0.7187692744883576 
2.860000000001611, -0.718865370777308 
2.870000000001632, -0.7189921109710627 
2.8800000000016532, -0.7191170447405437 
2.8900000000016743, -0.7192195790240278 
2.9000000000016954, -0.7192900796982892 
2.9100000000017165, -0.7193283453313946 
2.9200000000017377, -0.7193398543723155 
2.9300000000017588, -0.7193294546066957 
2.94000000000178, -0.7192948183029524 
2.950000000001801, -0.7192235961002352 
2.960000000001822, -0.7190966380689672 
2.970000000001843, -0.718895662857314 
2.9800000000018643, -0.7186107909531894 
2.9900000000018854, -0.7182442689551578 
3.0000000000019065, -0.7178104214976673 
3.0100000000019276, -0.7173346582277161 
3.0200000000019487, -0.716854360580271 
3.03000000000197, -0.716422797628025 
3.040000000001991, -0.7161154733664115 
3.050000000002012, -0.7160370062712165 
3.060000000002033, -0.7163257580943246 
3.070000000002054, -0.7171531592856859 
3.0800000000020753, -0.7187152922223785 
3.0900000000020964, -0.7212153568449052 
3.1000000000021175, -0.7248357643825346 
3.1100000000021386, -0.7296968179815143 
3.1200000000021597, -0.7357976932026433 
3.130000000002181, -0.742943213563058 
3.140000000002202, -0.7506873222680343 
3.150000000002223, -0.7583615358110847 
3.160000000002244, -0.7652449455736481 
3.1700000000022652, -0.7708162453396349 
3.1800000000022863, -0.7749105826068433 
3.1900000000023074, -0.7776745256702093 
3.2000000000023285, -0.7794007254841826 
3.2100000000023496, -0.7803829814237105 
3.2200000000023707, -0.7808482520856345 
3.230000000002392, -0.7809455891160006 
3.240000000002413, -0.7807575231840438 
3.250000000002434, -0.7803132837093938 
3.260000000002455, -0.7795962382348062 
3.2700000000024763, -0.778544192895003 
3.2800000000024974, -0.7770436145793227 
3.2900000000025185, -0.7749205891912372 
3.3000000000025396, -0.7719341953242591 
3.3100000000025607, -0.7677823568595847 
3.3200000000025818, -0.7621367928317733 
3.330000000002603, -0.7547394662902946 
3.340000000002624, -0.745619217010464 
3.350000000002645, -0.7354223093838289 
3.360000000002666, -0.7255280110174851 
3.3700000000026873, -0.7174892489470219 
3.3800000000027084, -0.7121421052532872 
3.3900000000027295, -0.7093174114039675 
3.4000000000027506, -0.7082727590483875 
3.4100000000027717, -0.7082243293485754 
3.420000000002793, -0.7086042402719166 
3.430000000002814, -0.7090825704567432 
3.440000000002835, -0.709498255485508 
3.450000000002856, -0.709785433411636 
3.460000000002877, -0.7099217026062205 
3.4700000000028983, -0.7098974425383817 
3.4800000000029194, -0.7096988402794444 
3.4900000000029405, -0.7092986696788458 
3.5000000000029616, -0.7086523195896326 
3.5100000000029827, -0.7077002946726393 
3.520000000003004, -0.7063811098254092 
3.530000000003025, -0.7046568179601091 
3.540000000003046, -0.7025436961967834 
3.550000000003067, -0.7001280849550007 
3.5600000000030882, -0.6975499078613286 
3.5700000000031094, -0.6949608504384408 
3.5800000000031305, -0.6924849438284947 
3.5900000000031516, -0.6902021104042959 
3.6000000000031727, -0.6881535277217962 
3.6100000000031938, -0.6863561218527976 
3.620000000003215, -0.6848156779126638 
3.630000000003236, -0.6835344859647603 
3.640000000003257, -0.6825138288410617 
3.650000000003278, -0.6817532393101571 
3.6600000000032993, -0.6812485469275714 
3.6700000000033204, -0.680990281098729 
3.6800000000033415, -0.680963375814889 
3.6900000000033626, -0.6811484455812324 
3.7000000000033837, -0.6815242914791867 
3.710000000003405, -0.6820708920530493 
3.720000000003426, -0.6827719635186619 
3.730000000003447, -0.6836160941993386 
3.740000000003468, -0.6845953238954355 
3.750000000003489, -0.6857000470558585 
3.7600000000035103, -0.686910002958881 
3.7700000000035314, -0.6881837011516284 
3.7800000000035525, -0.689452448803503 
3.7900000000035736, -0.6906267898783696 
3.8000000000035947, -0.6916175456570817 
3.810000000003616, -0.6923616229881352 
3.820000000003637, -0.692836379869638 
3.830000000003658, -0.6930551479443632 
3.840000000003679, -0.6930510495983968 
3.8500000000037002, -0.6928611154837362 
3.8600000000037213, -0.6925175040158458 
3.8700000000037424, -0.6920466688210672 
3.8800000000037635, -0.6914755574715024 
3.8900000000037847, -0.6908454415877674 
3.9000000000038058, -0.690236600033417 
3.910000000003827, -0.6898090665994785 
3.920000000003848, -0.6898633449817715 
3.930000000003869, -0.690914365034805 
3.94000000000389, -0.6937413512315382 
3.9500000000039113, -0.6993183783491238 
3.9600000000039324, -0.7084800108444461 
3.9700000000039535, -0.7212811683809492 
3.9800000000039746, -0.7364401639430136 
3.9900000000039957, -0.7516266193414577 
4.000000000004016, -0.7646757444897719 
4.010000000003993, -0.7745884783869549 
4.02000000000397, -0.7814939078176237 
4.030000000003946, -0.7860437646080106 
4.040000000003923, -0.7889325081287099 
4.0500000000039, -0.7907064870953636 
4.0600000000038765, -0.7917419130272825 
4.070000000003853, -0.7922783710039372 
4.08000000000383, -0.7924568044297665 
4.090000000003807, -0.7923466760290242 
4.100000000003783, -0.7919599476801319 
4.11000000000376, -0.7912523854471581 
4.120000000003737, -0.7901125051378459 
4.130000000003713, -0.7883392012548986 
4.14000000000369, -0.7856154402462925 
4.150000000003667, -0.7815040472316103 
4.1600000000036434, -0.7755220402058088 
4.17000000000362, -0.7673539707781002 
4.180000000003597, -0.7571584571172328 
4.1900000000035735, -0.74572635420547 
4.20000000000355, -0.7342569394597868 
4.210000000003527, -0.7238791342967064 
4.220000000003504, -0.7152934021674116 
4.23000000000348, -0.7087130821903547 
4.240000000003457, -0.7040002351963883 
4.250000000003434, -0.7008367464606298 
4.26000000000341, -0.6988529885817574 
4.270000000003387, -0.6977036399660328 
4.280000000003364, -0.6971032359407433 
4.2900000000033405, -0.6968354335874187 
4.300000000003317, -0.6967469162240048 
4.310000000003294, -0.6967341079037349 
4.320000000003271, -0.6967284560349288 
4.330000000003247, -0.6966838349971975 
4.340000000003224, -0.696567922680155 
4.350000000003201, -0.6963582777449757 
4.360000000003177, -0.6960427913300159 
4.370000000003154, -0.6956225481892001 
4.380000000003131, -0.6951133052103189 
4.390000000003107, -0.6945418757215716 
4.400000000003084, -0.6939372660058681 
4.410000000003061, -0.6933210594159398 
4.4200000000030375, -0.6927026251967372 
4.430000000003014, -0.6920812219232586 
4.440000000002991, -0.6914526010664559 
4.450000000002968, -0.690815961796309 
4.460000000002944, -0.690178575061738 
4.470000000002921, -0.6895579840701624 
4.480000000002898, -0.6889831281476018 
4.490000000002874, -0.6884954803592922 
4.500000000002851, -0.6881502457662945 
4.510000000002828, -0.6880168464598315 
4.520000000002804, -0.6881777699041903 
4.530000000002781, -0.6887253458170346 
4.540000000002758, -0.6897567569576829 
4.5500000000027345, -0.6913679156073774 
4.560000000002711, -0.693646084763623 
4.570000000002688, -0.6966591081814192 
4.580000000002665, -0.7004366717254755 
4.590000000002641, -0.7049387354438197 
4.600000000002618, -0.7100131885303778 
4.610000000002595, -0.7153635756276364 
4.620000000002571, -0.7205695178901043 
4.630000000002548, -0.7251909285023013 
4.640000000002525, -0.7289161534043018 
4.6500000000025015, -0.7316505193654097 
4.660000000002478, -0.7334874132307789 
4.670000000002455, -0.7346100113446064 
4.6800000000024315, -0.7352036411461307 
4.690000000002408, -0.7354121162860083 
4.700000000002385, -0.7353279491714325 
4.710000000002362, -0.7349967151989438 
4.720000000002338, -0.7344228473990262 
4.730000000002315, -0.7335715475919258 
4.740000000002292, -0.7323653435667855 
4.750000000002268, -0.7306753197524805 
4.760000000002245, -0.7283077071316402 
4.770000000002222, -0.7249871899032938 
4.7800000000021985, -0.7203414952355949 
4.790000000002175, -0.7139106026668222 
4.800000000002152, -0.705265296771705 
4.810000000002129, -0.694376788166472 
4.820000000002105, -0.6821378757396734 
4.830000000002082, -0.6703572766425657 
4.840000000002059, -0.6608109940501932 
4.850000000002035, -0.6542645388354409 
4.860000000002012, -0.650426065652369 
4.870000000001989, -0.6485184597055546 
4.880000000001965, -0.6477745045862495 
4.890000000001942, -0.6476350007999747 
4.900000000001919, -0.6477543771087572 
4.9100000000018955, -0.6479412660359316 
4.920000000001872, -0.6480976841741168 
