t, s[1].omega / s[0].omega 
0, -0.539997752470129 
0.009999999999999995, -0.5398517124605315 
0.019999999999999934, -0.5398385692858916 
0.029999999999999874, -0.5398972953456992 
0.04000000000000012, -0.5399493084961251 
0.050000000000000405, -0.5399242266256894 
0.06000000000000069, -0.5397785721889112 
0.07000000000000098, -0.53950025847066 
0.08000000000000126, -0.539103243078998 
0.09000000000000155, -0.5386228203086184 
0.10000000000000184, -0.5381206080091736 
0.11000000000000212, -0.5377064581317169 
0.12000000000000241, -0.537587940605919 
0.130000000000002, -0.5381693045015263 
0.1400000000000009, -0.5402448637165195 
0.1499999999999998, -0.5453746483585841 
0.1599999999999987, -0.5565982007988757 
0.1699999999999976, -0.5796830682435645 
0.1799999999999965, -0.6247539500633656 
0.1899999999999954, -0.7060958398514346 
0.1999999999999943, -0.8330609870400574 
0.2099999999999932, -0.9888411564857348 
0.2199999999999921, -1.1282276180380173 
0.229999999999991, -1.2197859644334954 
0.2399999999999899, -1.2680434151102422 
0.2499999999999888, -1.2907479224709675 
0.2599999999999877, -1.3009972041833855 
0.2699999999999866, -1.3055441415287257 
0.2799999999999855, -1.307447921018998 
0.2899999999999844, -1.3080372692950235 
0.2999999999999833, -1.3078847187578444 
0.3099999999999822, -1.3072676351163994 
0.3199999999999811, -1.3064627196354666 
0.32999999999998, -1.3060344365016423 
0.3399999999999789, -1.3069569801440308 
0.3499999999999778, -1.3100966937208258 
0.35999999999997667, -1.3153200824044806 
0.36999999999997557, -1.32153579538534 
0.37999999999997447, -1.3276266558950351 
0.38999999999997337, -1.3329832962247798 
0.39999999999997227, -1.3374145507541704 
0.40999999999997117, -1.3409191263829883 
0.41999999999997006, -1.3435521031695292 
0.42999999999996896, -1.345380561982925 
0.43999999999996786, -1.3464810703297192 
0.44999999999996676, -1.3469458523464146 
0.45999999999996566, -1.3468816622482487 
0.46999999999996456, -1.3464038482577585 
0.47999999999996346, -1.345636392135591 
0.48999999999996235, -1.344716212254122 
0.49999999999996125, -1.3437827717728583 
0.5099999999999602, -1.342950326405392 
0.519999999999959, -1.3422991547445884 
0.529999999999958, -1.3418920002489771 
0.5399999999999568, -1.3417542392862791 
0.5499999999999557, -1.3418160328083086 
0.5599999999999546, -1.3419100445766756 
0.5699999999999535, -1.3418356806045537 
0.5799999999999524, -1.3413985856887574 
0.5899999999999513, -1.3403921886723595 
0.5999999999999502, -1.3385633291228862 
0.6099999999999491, -1.3356039303016822 
0.619999999999948, -1.3311796781003484 
0.6299999999999469, -1.3249750347893294 
0.6399999999999458, -1.3167282500614887 
0.6499999999999447, -1.3062805680582539 
0.6599999999999436, -1.2937477916690932 
0.6699999999999425, -1.2799344070294802 
0.6799999999999414, -1.266792355263757 
0.6899999999999403, -1.25697583807541 
0.6999999999999392, -1.2519174489989073 
0.7099999999999381, -1.2506084104461406 
0.719999999999937, -1.250980628300064 
0.7299999999999359, -1.251605258348132 
0.7399999999999348, -1.2519047253023021 
0.7499999999999337, -1.2516861589050616 
0.7599999999999326, -1.2507637673770795 
0.7699999999999315, -1.2486946275992847 
0.7799999999999304, -1.2444062327590015 
0.7899999999999293, -1.2353873102552309 
0.7999999999999282, -1.2159268786187434 
0.8099999999999271, -1.1741330507398966 
0.819999999999926, -1.0907265043824872 
0.8299999999999249, -0.9509352181068234 
0.8399999999999238, -0.7724712427423467 
0.8499999999999227, -0.60665522165341 
0.8599999999999216, -0.49096608801621455 
0.8699999999999205, -0.4241124601228644 
0.8799999999999194, -0.38850475575047294 
0.8899999999999183, -0.36980455183669814 
0.8999999999999172, -0.3598487220409464 
0.9099999999999161, -0.3544506387614374 
0.919999999999915, -0.3514928045179685 
0.9299999999999139, -0.3498842141384268 
0.9399999999999128, -0.3490475167268137 
0.9499999999999117, -0.34867022548037585 
0.9599999999999106, -0.34858231326487055 
0.9699999999999095, -0.3486952847291725 
0.9799999999999084, -0.3489725721922289 
0.9899999999999073, -0.3494169735260565 
0.9999999999999062, -0.3500677859974932 
1.0099999999999052, -0.3510029595502109 
1.019999999999904, -0.3523423587459268 
1.029999999999903, -0.35424771161954854 
1.039999999999902, -0.3569110363296195 
1.0499999999999008, -0.3605135647080481 
1.0599999999998997, -0.3651292498592859 
1.0699999999998986, -0.3705767270010341 
1.0799999999998975, -0.3763274983670466 
1.0899999999998964, -0.3816482750688609 
1.0999999999998953, -0.38595226868250326 
1.1099999999998942, -0.38903749791502057 
1.119999999999893, -0.3910242989981496 
1.129999999999892, -0.39215333245721046 
1.1399999999998909, -0.39263874449700953 
1.1499999999998898, -0.39261133670343584 
1.1599999999998887, -0.3921066384186534 
1.1699999999998876, -0.3910581160788221 
1.1799999999998865, -0.3892782542496882 
1.1899999999998854, -0.38643215565358313 
1.1999999999998843, -0.38204620309732196 
1.2099999999998832, -0.37565571897393635 
1.219999999999882, -0.3671837938366281 
1.229999999999881, -0.35734100793060447 
1.2399999999998799, -0.34747807068963765 
1.2499999999998788, -0.33882781342548063 
1.2599999999998777, -0.3319422941683147 
1.2699999999998766, -0.3267630087631913 
1.2799999999998755, -0.3229593906566432 
1.2899999999998744, -0.3201709469738869 
1.2999999999998733, -0.3181020410273768 
1.3099999999998722, -0.3165379437381606 
1.319999999999871, -0.3153351253259583 
1.32999999999987, -0.314407924444894 
1.3399999999998689, -0.3137186215381333 
1.3499999999998678, -0.3132736877901719 
1.3599999999998666, -0.31312894578110545 
1.3699999999998655, -0.3134083654347136 
1.3799999999998644, -0.31434611037133775 
1.3899999999998633, -0.31637241656031667 
1.3999999999998622, -0.3202880647358343 
1.4099999999998611, -0.3276248837321557 
1.41999999999986, -0.34139621472102655 
1.429999999999859, -0.3675918416528553 
1.4399999999998578, -0.4175742339269613 
1.4499999999998567, -0.508884662744707 
1.4599999999998556, -0.6539247870874935 
1.4699999999998545, -0.8321009097398637 
1.4799999999998534, -0.9911930300857558 
1.4899999999998523, -1.0970169690913067 
1.4999999999998512, -1.1539097671889864 
1.5099999999998501, -1.1811453478852858 
1.519999999999849, -1.1936446830050664 
1.529999999999848, -1.1993284373830058 
1.5399999999998468, -1.2018442510839071 
1.5499999999998457, -1.2027923167395755 
1.5599999999998446, -1.2028529373122168 
1.5699999999998435, -1.2022897935150856 
1.5799999999998424, -1.2012003336824806 
1.5899999999998413, -1.1997622776169323 
1.5999999999998402, -1.198705264741434 
1.6099999999998391, -1.2000137029941942 
1.619999999999838, -1.2068694769283106 
1.629999999999837, -1.2213270621335903 
1.6399999999998358, -1.241656786663869 
1.6499999999998347, -1.2635306882669668 
1.6599999999998336, -1.2833161815278413 
1.6699999999998325, -1.2993483800791363 
1.6799999999998314, -1.3113588028304686 
1.6899999999998303, -1.3197402477190177 
1.6999999999998292, -1.3251597031916382 
1.709999999999828, -1.3283612136853555 
1.719999999999827, -1.3300233929767478 
1.729999999999826, -1.3306730234288962 
1.7399999999998248, -1.3306767191922253 
1.7499999999998237, -1.33029388339216 
1.7599999999998226, -1.3297536366221314 
1.7699999999998215, -1.329303032571154 
1.7799999999998204, -1.3291647744348158 
1.7899999999998193, -1.3294280669468184 
1.7999999999998182, -1.330018488198037 
1.809999999999817, -1.3307907153698226 
1.819999999999816, -1.3316098383998132 
1.8299999999998149, -1.3323574766446782 
1.8399999999998138, -1.3329218030933734 
1.8499999999998127, -1.333204753567518 
1.8599999999998116, -1.3331296875157288 
1.8699999999998105, -1.3326408503525122 
1.8799999999998094, -1.3317000131193646 
1.8899999999998083, -1.3302821499667155 
1.8999999999998072, -1.328369659873599 
1.909999999999806, -1.3259487564575998 
1.919999999999805, -1.3230141008903726 
1.9299999999998039, -1.319588426139322 
1.9399999999998028, -1.3157706403013407 
1.9499999999998017, -1.3118258285698658 
1.9599999999998006, -1.3082602115150448 
1.9699999999997995, -1.3056825399557868 
1.9799999999997984, -1.3043761232477225 
1.9899999999997973, -1.304044709011443 
1.9999999999997962, -1.3041083299744467 
2.0099999999998173, -1.3040963133788661 
2.0199999999998384, -1.3037086605993204 
2.0299999999998595, -1.3026559128299664 
2.0399999999998806, -1.3004339098319528 
2.0499999999999017, -1.2960077197467361 
2.059999999999923, -1.2872969534001417 
2.069999999999944, -1.270460614004016 
2.079999999999965, -1.2395220237491464 
2.089999999999986, -1.188055386106871 
2.100000000000007, -1.114952168398247 
2.1100000000000283, -1.031080913080197 
2.1200000000000494, -0.955819076263567 
2.1300000000000705, -0.9028399312874769 
2.1400000000000916, -0.8729244995170559 
2.1500000000001127, -0.8592703274930669 
2.160000000000134, -0.8545249108535126 
2.170000000000155, -0.8537193192453028 
2.180000000000176, -0.8542485025214941 
2.190000000000197, -0.8549847043394083 
2.2000000000002182, -0.8555195248966972 
2.2100000000002393, -0.8557254645085273 
2.2200000000002604, -0.8555444066864899 
2.2300000000002815, -0.8548885455996592 
2.2400000000003026, -0.8535834143262431 
2.2500000000003237, -0.8513264139096777 
2.260000000000345, -0.847676943317299 
2.270000000000366, -0.8421398618857403 
2.280000000000387, -0.83440132013432 
2.290000000000408, -0.8246267902061086 
2.3000000000004293, -0.8135358602862791 
2.3100000000004504, -0.8021092318920028 
2.3200000000004715, -0.7911916514988773 
2.3300000000004926, -0.7813074820431442 
2.3400000000005137, -0.7727018959767938 
2.3500000000005348, -0.7654549468166075 
2.360000000000556, -0.7595659750555692 
2.370000000000577, -0.7549879522635184 
2.380000000000598, -0.7516291237438548 
2.390000000000619, -0.7493464061584086 
2.4000000000006403, -0.7479491417565891 
2.4100000000006614, -0.7472193104446799 
2.4200000000006825, -0.7469409858706457 
2.4300000000007036, -0.746925831151994 
2.4400000000007247, -0.7470257963557467 
2.450000000000746, -0.747133339844996 
2.460000000000767, -0.7471758169765896 
2.470000000000788, -0.7471111078513359 
2.480000000000809, -0.7469271570336129 
2.49000000000083, -0.7466416532692719 
2.5000000000008513, -0.746294553872226 
2.5100000000008724, -0.7459305799093995 
2.5200000000008935, -0.7455784241180385 
2.5300000000009146, -0.745238136849016 
2.5400000000009357, -0.7448835957090266 
2.550000000000957, -0.744478069007113 
2.560000000000978, -0.7439938376378097 
2.570000000000999, -0.7434262466548415 
2.58000000000102, -0.7427991157139322 
2.5900000000010412, -0.7421655740685028 
2.6000000000010624, -0.7416093049375807 
2.6100000000010835, -0.7412467338100162 
2.6200000000011046, -0.7412260544545586 
2.6300000000011257, -0.7417180260903711 
2.6400000000011468, -0.7428974030913589 
2.650000000001168, -0.7449205836231806 
2.660000000001189, -0.747909259034843 
2.67000000000121, -0.7519470243898347 
2.680000000001231, -0.7570872024008015 
2.6900000000012523, -0.7633608036633283 
2.7000000000012734, -0.7707672946992409 
2.7100000000012945, -0.7792292643739167 
2.7200000000013156, -0.7885026320818369 
2.7300000000013367, -0.7980761729462789 
2.740000000001358, -0.8071695836573396 
2.750000000001379, -0.8149493690827383 
2.7600000000014, -0.8208833623774403 
2.770000000001421, -0.8249297022466164 
2.780000000001442, -0.8274089256633923 
2.7900000000014633, -0.8287448415565504 
2.8000000000014844, -0.8292910592491041 
2.8100000000015055, -0.8292805666236187 
2.8200000000015266, -0.8288413866639551 
2.8300000000015477, -0.8280347072392965 
2.840000000001569, -0.8269118056847681 
2.85000000000159, -0.8256250630810229 
2.860000000001611, -0.8246764197607724 
2.870000000001632, -0.8254446881041797 
2.8800000000016532, -0.8311355927790156 
2.8900000000016743, -0.8480164918461564 
2.9000000000016954, -0.8857580538463212 
2.9100000000017165, -0.9536624189548337 
2.9200000000017377, -1.0498587079905333 
2.9300000000017588, -1.1529653416843302 
2.94000000000178, -1.2361346321595423 
2.950000000001801, -1.2892254264606087 
2.960000000001822, -1.3182017713822503 
2.970000000001843, -1.3326669766032513 
2.9800000000018643, -1.3395440854009057 
2.9900000000018854, -1.3426636875480802 
3.0000000000019065, -1.3439104725429458 
3.0100000000019276, -1.3441676613191402 
3.0200000000019487, -1.343861912910385 
3.03000000000197, -1.343279618957313 
3.040000000001991, -1.3427916242642386 
3.050000000002012, -1.3429441712910184 
3.060000000002033, -1.3442171026792507 
3.070000000002054, -1.3465944303375266 
3.0800000000020753, -1.3495665695454269 
3.0900000000020964, -1.3525708325111787 
3.1000000000021175, -1.3552682784122734 
3.1100000000021386, -1.3575195258893547 
3.1200000000021597, -1.3592844913862394 
3.130000000002181, -1.3605619266998548 
3.140000000002202, -1.3613639201007648 
3.150000000002223, -1.361706031179836 
3.160000000002244, -1.3616059618527756 
3.1700000000022652, -1.3610874896784664 
3.1800000000022863, -1.3601863062111488 
3.1900000000023074, -1.3589559037758472 
3.2000000000023285, -1.3574716428382552 
3.2100000000023496, -1.3558305528065815 
3.2200000000023707, -1.3541560545071178 
3.230000000002392, -1.3526216358956462 
3.240000000002413, -1.3514488812229968 
3.250000000002434, -1.350792830704443 
3.260000000002455, -1.3505890890790178 
3.2700000000024763, -1.350575517398733 
3.2800000000024974, -1.3504529142569712 
3.2900000000025185, -1.349958844042423 
3.3000000000025396, -1.3488017805556525 
3.3100000000025607, -1.3465308157025881 
3.3200000000025818, -1.3423913923437505 
3.330000000002603, -1.3352104679505215 
3.340000000002624, -1.3234021440632757 
3.350000000002645, -1.3052144017204683 
3.360000000002666, -1.2793329138175056 
3.3700000000026873, -1.2460220908639226 
3.3800000000027084, -1.2087799349143393 
3.3900000000027295, -1.1748712998238315 
3.4000000000027506, -1.1516662609278143 
3.4100000000027717, -1.1408541835161952 
3.420000000002793, -1.1382990025046427 
3.430000000002814, -1.1390635004163756 
3.440000000002835, -1.1403794095098736 
3.450000000002856, -1.1413043074756142 
3.460000000002877, -1.141660915139836 
3.4700000000028983, -1.1414275351576977 
3.4800000000029194, -1.1404833259386797 
3.4900000000029405, -1.1384390163923532 
3.5000000000029616, -1.1343507325130897 
3.5100000000029827, -1.1260833090327542 
3.520000000003004, -1.1089619404790607 
3.530000000003025, -1.0734981573587052 
3.540000000003046, -1.004017180011995 
3.550000000003067, -0.8861023335886952 
3.5600000000030882, -0.7296437561791634 
3.5700000000031094, -0.5781449797426869 
3.5800000000031305, -0.46895400366310164 
3.5900000000031516, -0.40398420820682146 
3.6000000000031727, -0.3682732408116906 
3.6100000000031938, -0.3488452152948729 
3.620000000003215, -0.33808558756869467 
3.630000000003236, -0.33198843942416734 
3.640000000003257, -0.328477079236084 
3.650000000003278, -0.3264548397604017 
3.6600000000032993, -0.32532718125553495 
3.6700000000033204, -0.32476524072309026 
3.6800000000033415, -0.32458748087545986 
3.6900000000033626, -0.32469996851151944 
3.7000000000033837, -0.32506724211561444 
3.710000000003405, -0.32570053903594454 
3.720000000003426, -0.32665705059556915 
3.730000000003447, -0.32804695114834936 
3.740000000003468, -0.3300459365016656 
3.750000000003489, -0.33290951912262573 
3.7600000000035103, -0.33697721798084246 
3.7700000000035314, -0.342632023959231 
3.7800000000035525, -0.3501459299244677 
3.7900000000035736, -0.35936187277564274 
3.8000000000035947, -0.36938516087495854 
3.810000000003616, -0.37876519772766615 
3.820000000003637, -0.38628687517612337 
3.830000000003658, -0.39157651801462035 
3.840000000003679, -0.39495066385466987 
3.8500000000037002, -0.39693971760237035 
3.8600000000037213, -0.39798991871953876 
3.8700000000037424, -0.3983873842684477 
3.8800000000037635, -0.3982755229508014 
3.8900000000037847, -0.3976833484001815 
3.9000000000038058, -0.396540071434892 
3.910000000003827, -0.3946805914042207 
3.920000000003848, -0.3918674870029709 
3.930000000003869, -0.3878766892521395 
3.94000000000389, -0.3826783152380883 
3.9500000000039113, -0.37662125804233926 
3.9600000000039324, -0.37039358188562554 
3.9700000000039535, -0.36469949116832556 
3.9800000000039746, -0.3599505835145987 
3.9900000000039957, -0.3562208736276738 
4.000000000004016, -0.3533812481386565 
4.010000000003993, -0.35123671712664495 
4.02000000000397, -0.34960157520370233 
4.030000000003946, -0.3483272844000082 
4.040000000003923, -0.3473083794918618 
4.0500000000039, -0.34648052672830826 
4.0600000000038765, -0.3458170910156354 
4.070000000003853, -0.345328247964802 
4.08000000000383, -0.3450666734626052 
4.090000000003807, -0.3451451410598728 
4.100000000003783, -0.34577528039104977 
4.11000000000376, -0.34734635784994006 
4.120000000003737, -0.3505845560908895 
4.130000000003713, -0.356880345506043 
4.14000000000369, -0.3689674251989547 
4.150000000003667, -0.39228189519996537 
4.1600000000036434, -0.4372388123235359 
4.17000000000362, -0.520684790412149 
4.180000000003597, -0.6578110468211726 
4.1900000000035735, -0.8364685294135825 
4.20000000000355, -1.0077653337116823 
4.210000000003527, -1.1284540091323385 
4.220000000003504, -1.195104623925828 
4.23000000000348, -1.2270113358629116 
4.240000000003457, -1.2414517095081448 
4.250000000003434, -1.2479066810325228 
4.26000000000341, -1.2507309452833582 
4.270000000003387, -1.251810050328318 
4.280000000003364, -1.2519405157918295 
4.2900000000033405, -1.2514446609886554 
4.300000000003317, -1.2504758478497384 
4.310000000003294, -1.249301503371439 
4.320000000003271, -1.2487462652425045 
4.330000000003247, -1.25057999333921 
4.340000000003224, -1.256829472372028 
4.350000000003201, -1.2677801954041548 
4.360000000003177, -1.2813177611720847 
4.370000000003154, -1.2947787703944456 
4.380000000003131, -1.306541646205717 
4.390000000003107, -1.3160568032280906 
4.400000000003084, -1.3233251901751122 
4.410000000003061, -1.3285562052839974 
4.4200000000030375, -1.3320464975010204 
4.430000000003014, -1.3341393039865355 
4.440000000002991, -1.3351809565638757 
4.450000000002968, -1.3354746990046236 
4.460000000002944, -1.3352626313353337 
4.470000000002921, -1.3347465932644986 
4.480000000002898, -1.3341256043117922 
4.490000000002874, -1.3336013356772893 
4.500000000002851, -1.3333219666517722 
4.510000000002828, -1.3333251312137038 
4.520000000002804, -1.3335622103651545 
4.530000000002781, -1.333957641020794 
4.540000000002758, -1.3344193604042967 
4.5500000000027345, -1.334826566153318 
4.560000000002711, -1.3350445632562677 
4.570000000002688, -1.3349483056400742 
4.580000000002665, -1.334428345052749 
4.590000000002641, -1.333388116984373 
4.600000000002618, -1.3317458436477236 
4.610000000002595, -1.3294378085375071 
4.620000000002571, -1.3264150464070947 
4.630000000002548, -1.3226369132513593 
4.640000000002525, -1.3180781044917367 
4.6500000000025015, -1.312775241009634 
4.660000000002478, -1.3069458264555986 
4.670000000002455, -1.3011644016583097 
4.6800000000024315, -1.2963781298366128 
4.690000000002408, -1.2934138983494168 
4.700000000002385, -1.2922766054581447 
4.710000000002362, -1.2922117546846494 
4.720000000002338, -1.2924173435205932 
4.730000000002315, -1.292416974196804 
4.740000000002292, -1.2919454785503657 
4.750000000002268, -1.2907007263058794 
4.760000000002245, -1.2880681636068576 
4.770000000002222, -1.2826821209892876 
4.7800000000021985, -1.2715719200205264 
4.790000000002175, -1.2487002070894095 
4.800000000002152, -1.2036884696414532 
4.810000000002129, -1.1248902915780028 
4.820000000002105, -1.0127207035865196 
4.830000000002082, -0.8916551186579692 
4.840000000002059, -0.7930715922433793 
4.850000000002035, -0.728902725051799 
4.860000000002012, -0.6930394841222675 
4.870000000001989, -0.675008628102347 
4.880000000001965, -0.6667533712507294 
4.890000000001942, -0.6634033126424168 
4.900000000001919, -0.6623274746795198 
4.9100000000018955, -0.6621984935809201 
