t, s[1].omega / s[0].omega 
0, -0.2798345506129573 
0.009999999999999995, -0.2644496241068636 
0.019999999999999934, -0.2523605603031243 
0.029999999999999874, -0.24373513492312235 
0.04000000000000012, -0.23785327329065437 
0.050000000000000405, -0.23389442226817359 
0.06000000000000069, -0.2312221820936336 
0.07000000000000098, -0.22940641708616596 
0.08000000000000126, -0.2281735891888892 
0.09000000000000155, -0.22735657736642384 
0.10000000000000184, -0.22685951842023627 
0.11000000000000212, -0.22663683069553758 
0.12000000000000241, -0.2266831062519452 
0.130000000000002, -0.22703168969055332 
0.1400000000000009, -0.22776150952782293 
0.1499999999999998, -0.22901340789650065 
0.1599999999999987, -0.231018314659865 
0.1699999999999976, -0.2341380252091585 
0.1799999999999965, -0.23890779071510515 
0.1899999999999954, -0.24603010199771647 
0.1999999999999943, -0.25617975512575825 
0.2099999999999932, -0.269416793243726 
0.2199999999999921, -0.2843594221723281 
0.229999999999991, -0.29824687263047 
0.2399999999999899, -0.3087069626137252 
0.2499999999999888, -0.31530752060703665 
0.2599999999999877, -0.31904288938587666 
0.2699999999999866, -0.3210819667708902 
0.2799999999999855, -0.32221307303875335 
0.2899999999999844, -0.3228629557734105 
0.2999999999999833, -0.3232438854371666 
0.3099999999999822, -0.3234600750174398 
0.3199999999999811, -0.32356378967476807 
0.32999999999998, -0.32358212809447134 
0.3399999999999789, -0.32353006314734345 
0.3499999999999778, -0.3234179371889162 
0.35999999999997667, -0.32325722680680335 
0.36999999999997557, -0.32306580734963564 
0.37999999999997447, -0.32287196781866095 
0.38999999999997337, -0.32271508689397915 
0.39999999999997227, -0.3226411333384132 
0.40999999999997117, -0.32269320446046845 
0.41999999999997006, -0.32289949153867464 
0.42999999999996896, -0.3232618811061043 
0.43999999999996786, -0.32374894808618554 
0.44999999999996676, -0.32429821207279785 
0.45999999999996566, -0.32483074170347853 
0.46999999999996456, -0.32527339304580755 
0.47999999999996346, -0.3255765240168651 
0.48999999999996235, -0.32571792862889903 
0.49999999999996125, -0.3256943131580802 
0.5099999999999602, -0.3255079524854967 
0.519999999999959, -0.3251542308665226 
0.529999999999958, -0.3246108761884766 
0.5399999999999568, -0.32382647088514316 
0.5499999999999557, -0.32270507949634597 
0.5599999999999546, -0.3210860179632019 
0.5699999999999535, -0.31872666446360703 
0.5799999999999524, -0.31531847011264663 
0.5899999999999513, -0.31059434554258736 
0.5999999999999502, -0.3045545137678646 
0.6099999999999491, -0.29766462129666 
0.619999999999948, -0.2907453573378474 
0.6299999999999469, -0.2845601606279278 
0.6399999999999458, -0.2794982948425136 
0.6499999999999447, -0.2755795845208161 
0.6599999999999436, -0.2726280097961601 
0.6699999999999425, -0.2704212340120371 
0.6799999999999414, -0.2687635212330625 
0.6899999999999403, -0.2675064708478077 
0.6999999999999392, -0.2665473177027455 
0.7099999999999381, -0.26582126137217155 
0.719999999999937, -0.2652946072690246 
0.7299999999999359, -0.26496117496683863 
0.7399999999999348, -0.2648431101704877 
0.7499999999999337, -0.2649973544318642 
0.7599999999999326, -0.26552994092967264 
0.7699999999999315, -0.2666216277961768 
0.7799999999999304, -0.2685690107031961 
0.7899999999999293, -0.27184048065418265 
0.7999999999999282, -0.27712060751971374 
0.8099999999999271, -0.28523283943128125 
0.819999999999926, -0.2966676397955147 
0.8299999999999249, -0.3104743895242471 
0.8399999999999238, -0.3233929566521258 
0.8499999999999227, -0.33158018323312166 
0.8599999999999216, -0.33411502442197416 
0.8699999999999205, -0.3331755510812152 
0.8799999999999194, -0.33121065791842513 
0.8899999999999183, -0.32945841469711723 
0.8999999999999172, -0.32822544582009394 
0.9099999999999161, -0.3274487151940536 
0.919999999999915, -0.32699120429861617 
0.9299999999999139, -0.3267374275769604 
0.9399999999999128, -0.3266086988891705 
0.9499999999999117, -0.3265564662001657 
0.9599999999999106, -0.3265533949863534 
0.9699999999999095, -0.32658710027067916 
0.9799999999999084, -0.32665700348454585 
0.9899999999999073, -0.3267736919232065 
0.9999999999999062, -0.32695975536398003 
1.0099999999999052, -0.32725060490031815 
1.019999999999904, -0.3276932917914916 
1.029999999999903, -0.328341133423417 
1.039999999999902, -0.3292421112083717 
1.0499999999999008, -0.3304198851512035 
1.0599999999998997, -0.33184993350498115 
1.0699999999998986, -0.3334420644058853 
1.0799999999998975, -0.33504845769806957 
1.0899999999998964, -0.33650623378483135 
1.0999999999998953, -0.3376926659556972 
1.1099999999998942, -0.3385549771041501 
1.119999999999893, -0.3391008092888118 
1.129999999999892, -0.3393678906339832 
1.1399999999998909, -0.3393960236390339 
1.1499999999998898, -0.3392100783621772 
1.1599999999998887, -0.3388113577472043 
1.1699999999998876, -0.3381722436024216 
1.1799999999998865, -0.33723145482346356 
1.1899999999998854, -0.3358919664965304 
1.1999999999998843, -0.33403076932874415 
1.2099999999998832, -0.3315366156076161 
1.219999999999882, -0.32838459531800457 
1.229999999999881, -0.3247154237015152 
1.2399999999998799, -0.32083959371952664 
1.2499999999998788, -0.31712502077023597 
1.2599999999998777, -0.3138490735055551 
1.2699999999998766, -0.3111301896810041 
1.2799999999998755, -0.3089553134317529 
1.2899999999998744, -0.30724304485875603 
1.2999999999998733, -0.3058944038290875 
1.3099999999998722, -0.3048200603923512 
1.319999999999871, -0.30395068339475023 
1.32999999999987, -0.30323869216769356 
1.3399999999998689, -0.3026568818089078 
1.3499999999998678, -0.3021970702224285 
1.3599999999998666, -0.3018706922813474 
1.3699999999998655, -0.301712855502153 
1.3799999999998644, -0.30179159142717926 
1.3899999999998633, -0.30222470169593657 
1.3999999999998622, -0.3032069926057656 
1.4099999999998611, -0.3050480230603408 
1.41999999999986, -0.30820551181284206 
1.429999999999859, -0.3132486992337107 
1.4399999999998578, -0.3205716455531753 
1.4499999999998567, -0.3296108294086156 
1.4599999999998556, -0.33791172095154715 
1.4699999999998545, -0.3419079259522574 
1.4799999999998534, -0.34019403328335374 
1.4899999999998523, -0.3349496264039574 
1.4999999999998512, -0.32924396595725863 
1.5099999999998501, -0.3246967923220346 
1.519999999999849, -0.3215640890974544 
1.529999999999848, -0.3195560750103286 
1.5399999999998468, -0.31831687173424605 
1.5499999999998457, -0.3175721773110243 
1.5599999999998446, -0.31713990158827965 
1.5699999999998435, -0.31690711444792014 
1.5799999999998424, -0.3168071015164763 
1.5899999999998413, -0.31680345454579045 
1.5999999999998402, -0.31688069548909936 
1.6099999999998391, -0.31703971445506696 
1.619999999999838, -0.3172964714108818 
1.629999999999837, -0.31768252069846115 
1.6399999999998358, -0.31824564501507213 
1.6499999999998347, -0.31904827295020355 
1.6599999999998336, -0.32016045965212775 
1.6699999999998325, -0.3216432301708086 
1.6799999999998314, -0.32351884235950557 
1.6899999999998303, -0.3257322954168499 
1.6999999999998292, -0.32812665212134606 
1.709999999999828, -0.3304672532788409 
1.719999999999827, -0.3325218446597618 
1.729999999999826, -0.3341448790008508 
1.7399999999998248, -0.3353039782405734 
1.7499999999998237, -0.33604600918019717 
1.7599999999998226, -0.336445983182951 
1.7699999999998215, -0.33657126893518785 
1.7799999999998204, -0.33646557876244665 
1.7899999999998193, -0.33614444620672346 
1.7999999999998182, -0.33559473217499247 
1.809999999999817, -0.33477553773358315 
1.819999999999816, -0.33362298654157213 
1.8299999999998149, -0.33206600216111076 
1.8399999999998138, -0.33006087962567576 
1.8499999999998127, -0.3276401880913106 
1.8599999999998116, -0.3249449655191541 
1.8699999999998105, -0.3221992266309518 
1.8799999999998094, -0.3196292903822354 
1.8899999999998083, -0.3173868799613015 
1.8999999999998072, -0.3155254750029872 
1.909999999999806, -0.31402362758316416 
1.919999999999805, -0.3128218869654024 
1.9299999999998039, -0.3118516005341848 
1.9399999999998028, -0.31105124062209777 
1.9499999999998017, -0.31037340206880176 
1.9599999999998006, -0.3097864136421306 
1.9699999999997995, -0.309273640538032 
1.9799999999997984, -0.3088327416669603 
1.9899999999997973, -0.30847654285209936 
1.9999999999997962, -0.30823684795406037 
2.0099999999998173, -0.30817245614624716 
2.0199999999998384, -0.30838246435509586 
2.0299999999998595, -0.30902387516623203 
2.0399999999998806, -0.31032314716926546 
2.0499999999999017, -0.3125406490888283 
2.059999999999923, -0.3157750169091841 
2.069999999999944, -0.31942844421694777 
2.079999999999965, -0.32146653273693726 
2.089999999999986, -0.31880252088903027 
2.100000000000007, -0.3101500172621022 
2.1100000000000283, -0.29811018541288803 
2.1200000000000494, -0.28662364135446317 
2.1300000000000705, -0.2777769145833291 
2.1400000000000916, -0.2716919717276155 
2.1500000000001127, -0.2677183035295307 
2.160000000000134, -0.265173224740017 
2.170000000000155, -0.2635535993325725 
2.180000000000176, -0.2625317067748847 
2.190000000000197, -0.26190536987575996 
2.2000000000002182, -0.26155449696477506 
2.2100000000002393, -0.2614122519514451 
2.2200000000002604, -0.26144821880576097 
2.2300000000002815, -0.2616599894162831 
2.2400000000003026, -0.2620706847755149 
2.2500000000003237, -0.26273090233652596 
2.260000000000345, -0.2637239318244463 
2.270000000000366, -0.26517236240619324 
2.280000000000387, -0.2672413618766817 
2.290000000000408, -0.2701270426918937 
2.3000000000004293, -0.2740072474560138 
2.3100000000004504, -0.278929208606936 
2.3200000000004715, -0.28465311775668284 
2.3300000000004926, -0.2905849944858662 
2.3400000000005137, -0.2959708127181207 
2.3500000000005348, -0.30026835917827766 
2.360000000000556, -0.30334833985625453 
2.370000000000577, -0.3053884928366211 
2.380000000000598, -0.30666305357147744 
2.390000000000619, -0.3074114403957243 
2.4000000000006403, -0.3078013633346154 
2.4100000000006614, -0.3079367114783865 
2.4200000000006825, -0.30787525032124174 
2.4300000000007036, -0.3076438540284986 
2.4400000000007247, -0.30725025280288765 
2.450000000000746, -0.30669380575021976 
2.460000000000767, -0.30597772106603327 
2.470000000000788, -0.3051223853432622 
2.480000000000809, -0.3041747378980367 
2.49000000000083, -0.30320606884005724 
2.5000000000008513, -0.30229583231714097 
2.5100000000008724, -0.30150953955006854 
2.5200000000008935, -0.3008829375719745 
2.5300000000009146, -0.30041811642571625 
2.5400000000009357, -0.3000891158027802 
2.550000000000957, -0.29985246039094854 
2.560000000000978, -0.2996592243372959 
2.570000000000999, -0.2994655299496787 
2.58000000000102, -0.2992384949196761 
2.5900000000010412, -0.29895649215282843 
2.6000000000010624, -0.29860509546507846 
2.6100000000010835, -0.2981709405040479 
2.6200000000011046, -0.29763454838352854 
2.6300000000011257, -0.29696099767248446 
2.6400000000011468, -0.29608469294488093 
2.650000000001168, -0.29488088804657037 
2.660000000001189, -0.2931125217467848 
2.67000000000121, -0.2903445999273732 
2.680000000001231, -0.28586283555979286 
2.6900000000012523, -0.27877295688415005 
2.7000000000012734, -0.2685799911533172 
2.7100000000012945, -0.25606841711714096 
2.7200000000013156, -0.243294182035705 
2.7300000000013367, -0.23223977904136536 
2.740000000001358, -0.22373794531264699 
2.750000000001379, -0.21762277924552165 
2.7600000000014, -0.21334510945765275 
2.770000000001421, -0.21036377735392278 
2.780000000001442, -0.20826896401431555 
2.7900000000014633, -0.2067821463488126 
2.8000000000014844, -0.20572475534279938 
2.8100000000015055, -0.20498882988590247 
2.8200000000015266, -0.20451707168965827 
2.8300000000015477, -0.20429216559817465 
2.840000000001569, -0.20433434867003292 
2.85000000000159, -0.2047073516776614 
2.860000000001611, -0.2055346829116255 
2.870000000001632, -0.20703035285239552 
2.8800000000016532, -0.20954911269684384 
2.8900000000016743, -0.2136544616986893 
2.9000000000016954, -0.22016519168673526 
2.9100000000017165, -0.23002051278462682 
2.9200000000017377, -0.2435937597379902 
2.9300000000017588, -0.2592840473159386 
2.94000000000178, -0.2729678540904697 
2.950000000001801, -0.2809003409742559 
2.960000000001822, -0.2831549625852441 
2.970000000001843, -0.2823867626445203 
2.9800000000018643, -0.2808320602382975 
2.9900000000018854, -0.27946307440098955 
3.0000000000019065, -0.27849258874590777 
3.0100000000019276, -0.2778671294412071 
3.0200000000019487, -0.2774863065801417 
3.03000000000197, -0.2772677354729841 
3.040000000001991, -0.277156462265225 
3.050000000002012, -0.2771203177306006 
3.060000000002033, -0.2771443263460688 
3.070000000002054, -0.27722734105563185 
3.0800000000020753, -0.2773811481301802 
3.0900000000020964, -0.2776314417014129 
3.1000000000021175, -0.2780195925374314 
3.1100000000021386, -0.27860357754623066 
3.1200000000021597, -0.27945569670051607 
3.130000000002181, -0.2806535651443672 
3.140000000002202, -0.28225951374111236 
3.150000000002223, -0.2842849810709422 
3.160000000002244, -0.28664800817429187 
3.1700000000022652, -0.28915482635265716 
3.1800000000022863, -0.2915436420316218 
3.1900000000023074, -0.29358237648251 
3.2000000000023285, -0.2951493846671279 
3.2100000000023496, -0.29624055936505694 
3.2200000000023707, -0.2969210683156077 
3.230000000002392, -0.2972725396665149 
3.240000000002413, -0.2973619168777546 
3.250000000002434, -0.2972301613456488 
3.260000000002455, -0.2968909623445176 
3.2700000000024763, -0.29633304641709646 
3.2800000000024974, -0.2955250151262995 
3.2900000000025185, -0.294425876627141 
3.3000000000025396, -0.29300600688820067 
3.3100000000025607, -0.2912781356714134 
3.3200000000025818, -0.2893236699908948 
3.330000000002603, -0.28728864670279985 
3.340000000002624, -0.2853398225652543 
3.350000000002645, -0.2836081559470954 
3.360000000002666, -0.2821577438075845 
3.3700000000026873, -0.2809899908556446 
3.3800000000027084, -0.28006611815501253 
3.3900000000027295, -0.2793301385383903 
3.4000000000027506, -0.27872511911358366 
3.4100000000027717, -0.2782024562977791 
3.420000000002793, -0.2777256324311651 
3.430000000002814, -0.27727010100949145 
3.440000000002835, -0.2768210604086894 
3.450000000002856, -0.27637064112581555 
3.460000000002877, -0.2759152530210561 
3.4700000000028983, -0.2754526123362491 
3.4800000000029194, -0.27497588048352306 
3.4900000000029405, -0.27445764155103264 
3.5000000000029616, -0.27380530493913774 
3.5100000000029827, -0.2727483267190497 
3.520000000003004, -0.27060538502496645 
3.530000000003025, -0.2659986515972806 
3.540000000003046, -0.2570701276651678 
3.550000000003067, -0.2430758756944306 
3.5600000000030882, -0.22620292293744262 
3.5700000000031094, -0.21031586028848032 
3.5800000000031305, -0.19786278997986623 
3.5900000000031516, -0.18909509521674517 
3.6000000000031727, -0.1832085160635437 
3.6100000000031938, -0.17929918165618433 
3.620000000003215, -0.1766852016584418 
3.630000000003236, -0.17491810643633526 
3.640000000003257, -0.17371978801378637 
3.650000000003278, -0.17292470791347808 
3.6600000000032993, -0.17244157333719087 
3.6700000000033204, -0.172231775217021 
3.6800000000033415, -0.17230041683520167 
3.6900000000033626, -0.17269782927328253 
3.7000000000033837, -0.1735320903403565 
3.710000000003405, -0.1749957611146188 
3.720000000003426, -0.17741206476564503 
3.730000000003447, -0.18130251128076047 
3.740000000003468, -0.18745202435972758 
3.750000000003489, -0.19685261223582723 
3.7600000000035103, -0.21020293934842757 
3.7700000000035314, -0.22664283843327912 
3.7800000000035525, -0.24272009097629418 
3.7900000000035736, -0.25427312759334414 
3.8000000000035947, -0.26008930087450116 
3.810000000003616, -0.26198333520647815 
3.820000000003637, -0.26214004608454794 
3.830000000003658, -0.26180078813820196 
3.840000000003679, -0.2614374493922353 
3.8500000000037002, -0.2611691432663481 
3.8600000000037213, -0.26099775558361415 
3.8700000000037424, -0.26089947000615765 
3.8800000000037635, -0.260852805327057 
3.8900000000037847, -0.26084493491141125 
3.9000000000038058, -0.26087229819812385 
3.910000000003827, -0.26094078060975356 
3.920000000003848, -0.26106688543451456 
3.930000000003869, -0.261279846455556 
3.94000000000389, -0.26162379437016103 
3.9500000000039113, -0.26215841369029813 
3.9600000000039324, -0.26295586003241445 
3.9700000000039535, -0.26409070414855723 
3.9800000000039746, -0.26561853008136904 
3.9900000000039957, -0.2675409250158326 
4.000000000004016, -0.2697669870008516 
4.010000000003993, -0.27210273832949533 
4.02000000000397, -0.2743007550557024 
4.030000000003946, -0.27615322090243255 
4.040000000003923, -0.2775595354511947 
4.0500000000039, -0.2785244466788345 
4.0600000000038765, -0.2791107761142692 
4.070000000003853, -0.27939234896268117 
4.08000000000383, -0.27942745332422364 
4.090000000003807, -0.27924958170144776 
4.100000000003783, -0.2788666957808139 
4.11000000000376, -0.2782639440397764 
4.120000000003737, -0.27740971357186806 
4.130000000003713, -0.27626850152966875 
4.14000000000369, -0.2748241429736614 
4.150000000003667, -0.2731094065853023 
4.1600000000036434, -0.27122379182812345 
4.17000000000362, -0.2693173147692158 
4.180000000003597, -0.2675419216880014 
4.1900000000035735, -0.2660031181822181 
4.20000000000355, -0.2647414667658602 
4.210000000003527, -0.26374349704569133 
4.220000000003504, -0.26296393641575727 
4.23000000000348, -0.26234562819974194 
4.240000000003457, -0.2618330961531525 
4.250000000003434, -0.2613801267049468 
4.26000000000341, -0.2609524217338925 
4.270000000003387, -0.2605265821731438 
4.280000000003364, -0.2600869689240365 
4.2900000000033405, -0.2596216865322366 
4.300000000003317, -0.25911786647711305 
4.310000000003294, -0.25855465379030174 
4.320000000003271, -0.25788917623917 
4.330000000003247, -0.257024407245845 
4.340000000003224, -0.2557361944028508 
4.350000000003201, -0.2535275773592798 
4.360000000003177, -0.24942849637057654 
4.370000000003154, -0.24201545225375068 
4.380000000003131, -0.23029082103468568 
4.390000000003107, -0.21527473825787422 
4.400000000003084, -0.20002021556643004 
4.410000000003061, -0.18726518202572495 
4.4200000000030375, -0.17788362949805486 
4.430000000003014, -0.1714197981373959 
4.440000000002991, -0.16706214980284778 
4.450000000002968, -0.16411695577087554 
4.460000000002944, -0.16210136972972736 
4.470000000002921, -0.16070618790922703 
4.480000000002898, -0.159742221197002 
4.490000000002874, -0.15910021489529882 
4.500000000002851, -0.15872653142876395 
4.510000000002828, -0.15861146453013356 
4.520000000002804, -0.15878797275471856 
4.530000000002781, -0.15934092583484682 
4.540000000002758, -0.16042963250342152 
4.5500000000027345, -0.16232887780869737 
4.560000000002711, -0.16549249148207473 
4.570000000002688, -0.17062362765806988 
4.580000000002665, -0.17865110372212825 
4.590000000002641, -0.19029000000687396 
4.600000000002618, -0.20471946813079928 
4.610000000002595, -0.21814762987005745 
4.620000000002571, -0.22569479188659755 
4.630000000002548, -0.22633052389107547 
4.640000000002525, -0.2231713236233846 
4.6500000000025015, -0.2193764301580614 
4.660000000002478, -0.21631140137097252 
4.670000000002455, -0.21416861220419242 
4.6800000000024315, -0.21275782043365118 
4.690000000002408, -0.21185500713578492 
4.700000000002385, -0.21129240152757406 
4.710000000002362, -0.21096175694917627 
4.720000000002338, -0.21079983218822332 
4.730000000002315, -0.21077556442360912 
4.740000000002292, -0.21088245450402704 
4.750000000002268, -0.2111358108598898 
4.760000000002245, -0.21157401221435096 
4.770000000002222, -0.21226305764263942 
4.7800000000021985, -0.2133034260031877 
4.790000000002175, -0.21483681518369271 
4.800000000002152, -0.21704595670053034 
4.810000000002129, -0.22013114915844584 
4.820000000002105, -0.22423555263921718 
4.830000000002082, -0.22930281965340313 
4.840000000002059, -0.2349338018962625 
4.850000000002035, -0.24042719423089642 
