t, s[1].omega / s[0].omega 
0, -1.3999935720178258 
0.009999999999999995, -1.399131321501559 
0.019999999999999934, -1.3978349318549612 
0.029999999999999874, -1.3961052486359777 
0.04000000000000012, -1.3939435263276398 
0.050000000000000405, -1.3913516411351528 
0.06000000000000069, -1.3883323774390475 
0.07000000000000098, -1.3848897798149198 
0.08000000000000126, -1.3810295596325768 
0.09000000000000155, -1.3767595430917334 
0.10000000000000184, -1.3720901485326504 
0.11000000000000212, -1.3670348888430754 
0.12000000000000241, -1.3616109138547539 
0.130000000000002, -1.3558396391729919 
0.1400000000000009, -1.349747546487322 
0.1499999999999998, -1.3433672703277293 
0.1599999999999987, -1.3367390813947773 
0.1699999999999976, -1.3299128068016675 
0.1799999999999965, -1.322950071365047 
0.1899999999999954, -1.3159265053549767 
0.1999999999999943, -1.3089332863605192 
0.2099999999999932, -1.3020771539144171 
0.2199999999999921, -1.2954779753544388 
0.229999999999991, -1.2892631685066698 
0.2399999999999899, -1.28355886164332 
0.2499999999999888, -1.2784785318672507 
0.2599999999999877, -1.274110788179265 
0.2699999999999866, -1.2705086113428161 
0.2799999999999855, -1.2676823965198214 
0.2899999999999844, -1.2655984276352643 
0.2999999999999833, -1.2641831211895413 
0.3099999999999822, -1.2633319605668791 
0.3199999999999811, -1.2629210112491547 
0.32999999999998, -1.2628185852497147 
0.3399999999999789, -1.2628950087389585 
0.3499999999999778, -1.2630292692312401 
0.35999999999997667, -1.2631122144093332 
0.36999999999997557, -1.2630466627921215 
0.37999999999997447, -1.2627451504971536 
0.38999999999997337, -1.2621261076746326 
0.39999999999997227, -1.261109138384055 
0.40999999999997117, -1.2596098834132683 
0.41999999999997006, -1.2575347628383728 
0.42999999999996896, -1.2547757730955613 
0.43999999999996786, -1.2512054725302255 
0.44999999999996676, -1.246672334140756 
0.45999999999996566, -1.2409967713732943 
0.46999999999996456, -1.233968343851208 
0.47999999999996346, -1.225344906489275 
0.48999999999996235, -1.2148547393466078 
0.49999999999996125, -1.202202916153183 
0.5099999999999602, -1.1870832242073825 
0.519999999999959, -1.1691966869948065 
0.529999999999958, -1.148277006468281 
0.5399999999999568, -1.124121940250426 
0.5499999999999557, -1.096627831870034 
0.5599999999999546, -1.0658225577497542 
0.5699999999999535, -1.0318906705012192 
0.5799999999999524, -0.9951842803399293 
0.5899999999999513, -0.9562148200323576 
0.5999999999999502, -0.9156242908315504 
0.6099999999999491, -0.8741390758237432 
0.619999999999948, -0.8325134921054312 
0.6299999999999469, -0.7914724800464235 
0.6399999999999458, -0.7516624460132695 
0.6499999999999447, -0.7136165962960651 
0.6599999999999436, -0.6777372718432388 
0.6699999999999425, -0.6442941709857619 
0.6799999999999414, -0.6134348904273995 
0.6899999999999403, -0.5852032265094543 
0.6999999999999392, -0.5595609133392919 
0.7099999999999381, -0.5364094283658424 
0.719999999999937, -0.5156096773446398 
0.7299999999999359, -0.49699844268468407 
0.7399999999999348, -0.4804012834677317 
0.7499999999999337, -0.46564208699983467 
0.7599999999999326, -0.4525497381815491 
0.7699999999999315, -0.4409624659705826 
0.7799999999999304, -0.4307304132737655 
0.7899999999999293, -0.42171690942687373 
0.7999999999999282, -0.41379883732080847 
0.8099999999999271, -0.4068664002252536 
0.819999999999926, -0.4008225163854339 
0.8299999999999249, -0.3955820061607314 
0.8399999999999238, -0.3910706869609793 
0.8499999999999227, -0.38722445396173194 
0.8599999999999216, -0.38398839739340745 
0.8699999999999205, -0.38131598793556065 
0.8799999999999194, -0.37916834849226017 
0.8899999999999183, -0.37751362180281045 
0.8999999999999172, -0.37632643771561597 
0.9099999999999161, -0.37558748057665825 
0.919999999999915, -0.3752831553495056 
0.9299999999999139, -0.3754053502634709 
0.9399999999999128, -0.3759512935845496 
0.9499999999999117, -0.3769235022133443 
0.9599999999999106, -0.3783298199826752 
0.9699999999999095, -0.380183543525821 
0.9799999999999084, -0.3825036331812349 
0.9899999999999073, -0.3853150053269223 
0.9999999999999062, -0.38864890047338474 
1.0099999999999052, -0.3925433179713453 
1.019999999999904, -0.3970435027617548 
1.029999999999903, -0.402202461489325 
1.039999999999902, -0.4080814735783257 
1.0499999999999008, -0.41475054634405556 
1.0599999999998997, -0.4222887404605277 
1.0699999999998986, -0.43078426156345373 
1.0799999999998975, -0.44033417402204694 
1.0899999999998964, -0.45104354329137214 
1.0999999999998953, -0.46302375493040066 
1.1099999999998942, -0.47638969616939647 
1.119999999999893, -0.49125543099834246 
1.129999999999892, -0.5077279730306866 
1.1399999999998909, -0.5258987958366441 
1.1499999999998898, -0.5458328661831484 
1.1599999999998887, -0.5675552989429231 
1.1699999999998876, -0.5910362628070261 
1.1799999999998865, -0.6161755209134144 
1.1899999999998854, -0.6427888857553633 
1.1999999999998843, -0.6705996783867176 
1.2099999999998832, -0.6992386356295374 
1.219999999999882, -0.7282551744051305 
1.229999999999881, -0.7571412196735067 
1.2399999999998799, -0.7853660729216055 
1.2499999999998788, -0.8124177552975979 
1.2599999999998777, -0.837844023360715 
1.2699999999998766, -0.8612858408097995 
1.2799999999998755, -0.8824978176231847 
1.2899999999998744, -0.9013533811155037 
1.2999999999998733, -0.9178359774944918 
1.3099999999998722, -0.9320202083684899 
1.319999999999871, -0.9440478629658459 
1.32999999999987, -0.9541034114314503 
1.3399999999998689, -0.9623922399110867 
1.3499999999998678, -0.9691233824111808 
1.3599999999998666, -0.9744972045167912 
1.3699999999998655, -0.9786976263378703 
1.3799999999998644, -0.9818880372381306 
1.3899999999998633, -0.9842099474088792 
1.3999999999998622, -0.9857835120144144 
1.4099999999998611, -0.9867092454130443 
1.41999999999986, -0.9870704452663682 
1.429999999999859, -0.986936031560506 
1.4399999999998578, -0.9863636590195484 
1.4499999999998567, -0.9854030813919438 
1.4599999999998556, -0.9840998362727251 
1.4699999999998545, -0.982499383466846 
1.4799999999998534, -0.9806518697249837 
1.4899999999998523, -0.9786177050158874 
1.4999999999998512, -0.9764741123947026 
1.5099999999998501, -0.9743227423747923 
1.519999999999849, -0.9722983077442776 
1.529999999999848, -0.9705779800514076 
1.5399999999998468, -0.9693909828700855 
1.5499999999998457, -0.9690274175198162 
1.5599999999998446, -0.9698448775379335 
1.5699999999998435, -0.972270883315319 
1.5799999999998424, -0.976798661731646 
1.5899999999998413, -0.983973417622391 
1.5999999999998402, -0.9943661835621053 
1.6099999999998391, -1.0085329029471517 
1.619999999999838, -1.0269580489536831 
1.629999999999837, -1.0499852982516333 
1.6399999999998358, -1.077742751622027 
1.6499999999998347, -1.1100761915788835 
1.6599999999998336, -1.1465086308780854 
1.6699999999998325, -1.1862443384967383 
1.6799999999998314, -1.2282275238883733 
1.6899999999998303, -1.271250393704641 
1.6999999999998292, -1.3140882538707381 
1.709999999999828, -1.3556295547713066 
1.719999999999827, -1.3949719255678097 
1.729999999999826, -1.431469261070345 
1.7399999999998248, -1.4647317410505794 
1.7499999999998237, -1.4945923598201107 
1.7599999999998226, -1.5210570656195657 
1.7699999999998215, -1.544252760987373 
1.7799999999998204, -1.56438191497878 
1.7899999999998193, -1.5816873675405512 
1.7999999999998182, -1.5964274062146588 
1.809999999999817, -1.6088594366003492 
1.819999999999816, -1.6192300552635714 
1.8299999999998149, -1.627769506592594 
1.8399999999998138, -1.634688950312779 
1.8499999999998127, -1.6401794456844352 
1.8599999999998116, -1.6444119633555796 
1.8699999999998105, -1.6475380343047685 
1.8799999999998094, -1.6496908421963217 
1.8899999999998083, -1.6509866792870673 
1.8999999999998072, -1.6515267365069548 
1.909999999999806, -1.6513992007121072 
1.919999999999805, -1.650681595838712 
1.9299999999998039, -1.6494432364749918 
1.9399999999998028, -1.6477475737373068 
1.9499999999998017, -1.645654131325107 
1.9599999999998006, -1.6432197046969108 
1.9699999999997995, -1.640498595764514 
1.9799999999997984, -1.63754193026695 
1.9899999999997973, -1.6343965320236158 
1.9999999999997962, -1.6311042620407896 
2.0099999999998173, -1.627702920418867 
2.0199999999998384, -1.624229514714365 
2.0299999999998595, -1.6207258522036672 
2.0399999999998806, -1.61724521652715 
2.0499999999999017, -1.6138577678324098 
2.059999999999923, -1.6106517715515396 
2.069999999999944, -1.6077282591445257 
2.079999999999965, -1.6051884592128651 
2.089999999999986, -1.603116021702008 
2.100000000000007, -1.6015587063421062 
2.1100000000000283, -1.6005153622983486 
2.1200000000000494, -1.5999326349792138 
2.1300000000000705, -1.5997122424763544 
2.1400000000000916, -1.5997256865519336 
2.1500000000001127, -1.599830985558215 
2.160000000000134, -1.5998863068293905 
2.170000000000155, -1.5997574849201937 
2.180000000000176, -1.5993188359581119 
2.190000000000197, -1.5984482793487538 
2.2000000000002182, -1.5970182508402722 
2.2100000000002393, -1.594883534424611 
2.2200000000002604, -1.591866414819572 
2.2300000000002815, -1.5877387970367316 
2.2400000000003026, -1.5822003203664214 
2.2500000000003237, -1.5748510785239243 
2.260000000000345, -1.5651574271208784 
2.270000000000366, -1.5524097242787123 
2.280000000000387, -1.5356721760796914 
2.290000000000408, -1.513728114374468 
2.3000000000004293, -1.4850304017243405 
2.3100000000004504, -1.4476779620869118 
2.3200000000004715, -1.3994566690478334 
2.3300000000004926, -1.338003138277889 
2.3400000000005137, -1.261160688662382 
2.3500000000005348, -1.167569313442712 
2.360000000000556, -1.0574284030680476 
2.370000000000577, -0.9331873768169062 
2.380000000000598, -0.7997545095089577 
2.390000000000619, -0.6638753009290717 
2.4000000000006403, -0.532738129512632 
2.4100000000006614, -0.41238105085269183 
2.4200000000006825, -0.3066252458465427 
2.4300000000007036, -0.21688409054367946 
2.4400000000007247, -0.14266487858715676 
2.450000000000746, -0.08233058857282641 
2.460000000000767, -0.03377573457086365 
2.470000000000788, 0.004946811817924718 
2.480000000000809, 0.0348529467242195 
2.49000000000083, 0.058620416958773555 
2.5000000000008513, 0.07754922866018867 
2.5100000000008724, 0.0926666291332056 
2.5200000000008935, 0.1047747146133695 
2.5300000000009146, 0.11449633417690794 
2.5400000000009357, 0.12231449445539788 
2.550000000000957, 0.12860424324433686 
2.560000000000978, 0.13365763492806176 
2.570000000000999, 0.13770291969974155 
2.58000000000102, 0.140919144714965 
2.5900000000010412, 0.14344721017683812 
2.6000000000010624, 0.14539822800968896 
2.6100000000010835, 0.14685984458386664 
2.6200000000011046, 0.14790103236402818 
2.6300000000011257, 0.14857573178343278 
2.6400000000011468, 0.1489256310238794 
2.650000000001168, 0.14898230297960197 
2.660000000001189, 0.14876887122288376 
2.67000000000121, 0.1483013473173476 
2.680000000001231, 0.14758976916331515 
2.6900000000012523, 0.14663927521618583 
2.7000000000012734, 0.1454512762191776 
2.7100000000012945, 0.14402494223350093 
2.7200000000013156, 0.1423593214881313 
2.7300000000013367, 0.14045657025879363 
2.740000000001358, 0.13832703258244466 
2.750000000001379, 0.13599731391088324 
2.7600000000014, 0.13352311184395038 
2.770000000001421, 0.13100948497463083 
2.780000000001442, 0.12864253933053035 
2.7900000000014633, 0.12673819958654542 
2.8000000000014844, 0.12581555669770356 
2.8100000000015055, 0.1267032805000235 
2.8200000000015266, 0.13068510128039118 
2.8300000000015477, 0.13967819505133985 
2.840000000001569, 0.15640401283699276 
2.85000000000159, 0.1844353118016738 
2.860000000001611, 0.22787385880918615 
2.870000000001632, 0.29028914036697795 
2.8800000000016532, 0.372694262830661 
2.8900000000016743, 0.4712124388080348 
2.9000000000016954, 0.576494018789204 
2.9100000000017165, 0.6767290448103129 
2.9200000000017377, 0.7626665899398937 
2.9300000000017588, 0.8305063179643506 
2.94000000000178, 0.8811186990918297 
2.950000000001801, 0.9176322202714623 
2.960000000001822, 0.9435218041950936 
2.970000000001843, 0.9617271154003249 
2.9800000000018643, 0.9744541136681012 
2.9900000000018854, 0.9832625932666291 
3.0000000000019065, 0.9892214661162354 
3.0100000000019276, 0.9930486386728926 
3.0200000000019487, 0.9952157932579758 
3.03000000000197, 0.9960207364151682 
3.040000000001991, 0.9956351720852383 
3.050000000002012, 0.9941353269677556 
3.060000000002033, 0.9915212711577712 
3.070000000002054, 0.9877295063948139 
3.0800000000020753, 0.9826428189164405 
3.0900000000020964, 0.976101529068325 
3.1000000000021175, 0.9679209133662654 
3.1100000000021386, 0.9579201603030916 
3.1200000000021597, 0.9459675333671288 
3.130000000002181, 0.932042494896966 
3.140000000002202, 0.9163065185803875 
3.150000000002223, 0.8991609526610024 
3.160000000002244, 0.8812594412441842 
3.1700000000022652, 0.8634466383224165 
3.1800000000022863, 0.8466225978349803 
3.1900000000023074, 0.831572647781857 
3.2000000000023285, 0.8188266658083531 
3.2100000000023496, 0.8085977901810385 
3.2200000000023707, 0.8008087577304003 
3.230000000002392, 0.7951759929070233 
3.240000000002413, 0.7913091429192749 
3.250000000002434, 0.7887944811401325 
3.260000000002455, 0.7872491456697203 
3.2700000000024763, 0.7863474430391496 
3.2800000000024974, 0.7858269334964064 
3.2900000000025185, 0.7854826933465645 
3.3000000000025396, 0.7851561554997272 
3.3100000000025607, 0.7847224422336279 
3.3200000000025818, 0.7840780933380385 
3.330000000002603, 0.7831297541313381 
3.340000000002624, 0.7817835849753046 
3.350000000002645, 0.7799346725620275 
3.360000000002666, 0.7774553708084365 
3.3700000000026873, 0.7741811214724283 
3.3800000000027084, 0.7698917699896236 
3.3900000000027295, 0.7642855697663636 
3.4000000000027506, 0.7569418177987514 
3.4100000000027717, 0.747266264469338 
3.420000000002793, 0.7344111295079465 
3.430000000002814, 0.7171593790548163 
3.440000000002835, 0.6937633179327694 
3.450000000002856, 0.6617375236316979 
3.460000000002877, 0.6176422440728133 
3.4700000000028983, 0.5569856561129731 
3.4800000000029194, 0.4745478613116599 
3.4900000000029405, 0.36561388500239855 
3.5000000000029616, 0.22843601577942482 
3.5100000000029827, 0.06716483171312511 
3.520000000003004, -0.10633371463676956 
3.530000000003025, -0.27708382899212153 
3.540000000003046, -0.43162277661516696 
3.550000000003067, -0.5618743883904667 
3.5600000000030882, -0.6672097699934649 
3.5700000000031094, -0.7538652258903994 
3.5800000000031305, -0.8340169085066659 
3.5900000000031516, -0.9256673640819056 
3.6000000000031727, -1.0531120931052202 
3.6100000000031938, -1.2454204530870217 
3.620000000003215, -1.5262209138709657 
3.630000000003236, -1.8865091354252879 
3.640000000003257, -2.258737742686523 
3.650000000003278, -2.555428174096879 
3.6600000000032993, -2.7459811591406504 
3.6700000000033204, -2.8546416143070723 
3.6800000000033415, -2.914390012279877 
3.6900000000033626, -2.947447416520529 
3.7000000000033837, -2.9660604815674176 
3.710000000003405, -2.9766296196055637 
3.720000000003426, -2.9825111187361957 
3.730000000003447, -2.985507952537941 
3.740000000003468, -2.9866203919808187 
3.750000000003489, -2.9864265257697817 
3.7600000000035103, -2.9852787448441367 
3.7700000000035314, -2.9834003296101836 
3.7800000000035525, -2.980918974453069 
3.7900000000035736, -2.977864211802688 
3.8000000000035947, -2.9741691664322416 
3.810000000003616, -2.9697267578653883 
3.820000000003637, -2.964530612122874 
3.830000000003658, -2.958874415130072 
3.840000000003679, -2.9534828190511697 
3.8500000000037002, -2.949349923318792 
3.8600000000037213, -2.947205554234063 
3.8700000000037424, -2.94700986305832 
3.8800000000037635, -2.948016301916397 
3.8900000000037847, -2.949292515827832 
3.9000000000038058, -2.9501319552255265 
3.910000000003827, -2.950120100437772 
3.920000000003848, -2.9490092677701223 
3.930000000003869, -2.946584154861202 
3.94000000000389, -2.942602556684061 
3.9500000000039113, -2.9368720818370915 
3.9600000000039324, -2.9295776049074287 
3.9700000000039535, -2.9219608178119794 
3.9800000000039746, -2.916991351338893 
3.9900000000039957, -2.9186585661082605 
4.000000000004016, -2.928989349341204 
4.010000000003993, -2.945698958269332 
4.02000000000397, -2.9640260908857563 
4.030000000003946, -2.9802659231741373 
4.040000000003923, -2.9930102488202577 
4.0500000000039, -3.0023734621002482 
4.0600000000038765, -3.008999586074193 
4.070000000003853, -3.0135256376673185 
4.08000000000383, -3.0164064392797587 
4.090000000003807, -3.01790160308479 
4.100000000003783, -3.018103949866286 
4.11000000000376, -3.0169553822657877 
4.120000000003737, -3.0142295914396047 
4.130000000003713, -3.0094689670532087 
4.14000000000369, -3.001852345295691 
4.150000000003667, -2.9899413425625427 
4.1600000000036434, -2.9711966159093346 
4.17000000000362, -2.9410527204776886 
4.180000000003597, -2.891193380832331 
4.1900000000035735, -2.8066897030227933 
4.20000000000355, -2.663034447092776 
4.210000000003527, -2.430055449442008 
4.220000000003504, -2.0973715868487828 
4.23000000000348, -1.7089249469232344 
4.240000000003457, -1.34067864796429 
4.250000000003434, -1.0373962073898735 
4.26000000000341, -0.801161782214837 
4.270000000003387, -0.6173653005548009 
4.280000000003364, -0.47181704421183823 
4.2900000000033405, -0.3547250022446316 
4.300000000003317, -0.2597956724765593 
4.310000000003294, -0.18275461647341903 
4.320000000003271, -0.12037781976910876 
4.330000000003247, -0.07002605584139167 
4.340000000003224, -0.029466419509063098 
4.350000000003201, 0.003052530448669958 
4.360000000003177, 0.028123318009427103 
4.370000000003154, 0.048136854131427556 
4.380000000003131, 0.06412232734639146 
4.390000000003107, 0.07689706571787312 
4.400000000003084, 0.0871046164441658 
4.410000000003061, 0.0952489391261133 
4.4200000000030375, 0.10172336977447517 
4.430000000003014, 0.10683421907336152 
4.440000000002991, 0.1108194976278195 
4.450000000002968, 0.11386350142495616 
4.460000000002944, 0.11610801364298373 
4.470000000002921, 0.11766079923168606 
4.480000000002898, 0.11860195236469633 
4.490000000002874, 0.11898853715244528 
4.500000000002851, 0.11885785292456107 
4.510000000002828, 0.1182295607153451 
4.520000000002804, 0.11710682605761127 
4.530000000002781, 0.11547656127295074 
4.540000000002758, 0.11330878362068399 
4.5500000000027345, 0.11055503891135424 
4.560000000002711, 0.10714576803851376 
4.570000000002688, 0.10298641030602461 
4.580000000002665, 0.09795193573217333 
4.590000000002641, 0.09187937151341401 
4.600000000002618, 0.08455772880003977 
4.610000000002595, 0.07571454127611599 
4.620000000002571, 0.06499800264291324 
4.630000000002548, 0.0519534651877789 
4.640000000002525, 0.035992916936824534 
4.6500000000025015, 0.016356177253870483 
4.660000000002478, -0.007560904145144225 
4.670000000002455, -0.03652092513175081 
4.6800000000024315, -0.0729872548045519 
4.690000000002408, -0.1189309561458857 
4.700000000002385, -0.1766956156264985 
4.710000000002362, -0.24888716804333136 
4.720000000002338, -0.3380740621954731 
4.730000000002315, -0.4462093113968097 
4.740000000002292, -0.5737532389222475 
4.750000000002268, -0.7186677111847491 
4.760000000002245, -0.8757416495207023 
4.770000000002222, -1.0368705663923035 
4.7800000000021985, -1.1926019053452488 
4.790000000002175, -1.3344473459911512 
4.800000000002152, -1.4568119594315994 
4.810000000002129, -1.5576379093991986 
4.820000000002105, -1.637785119757669 
4.830000000002082, -1.6998387164372768 
4.840000000002059, -1.747010751298472 
4.850000000002035, -1.7824276670071588 
4.860000000002012, -1.8087900324575765 
4.870000000001989, -1.828277777041364 
4.880000000001965, -1.8425809393568275 
4.890000000001942, -1.8529783063863428 
4.900000000001919, -1.8604236840436243 
4.9100000000018955, -1.8656228754501751 
4.920000000001872, -1.8690965180187966 
4.930000000001849, -1.871229256617534 
4.940000000001826, -1.8723075841363668 
