t, s[1].omega / s[0].omega 
0, -1.6399623290063932 
0.009999999999999995, -1.6353355632098754 
0.019999999999999934, -1.6288438577982958 
0.029999999999999874, -1.6208865094902507 
0.04000000000000012, -1.6133690876082878 
0.050000000000000405, -1.6089672174987188 
0.06000000000000069, -1.6082062067745198 
0.07000000000000098, -1.609153625279033 
0.08000000000000126, -1.6101401021739428 
0.09000000000000155, -1.6106495879846203 
0.10000000000000184, -1.6106844655526327 
0.11000000000000212, -1.6103089614182462 
0.12000000000000241, -1.609534542397299 
0.130000000000002, -1.6083888576650391 
0.1400000000000009, -1.6071999777650248 
0.1499999999999998, -1.6070210687395687 
0.1599999999999987, -1.6092482683555758 
0.1699999999999976, -1.6139129470573246 
0.1799999999999965, -1.619375657905828 
0.1899999999999954, -1.624118738514849 
0.1999999999999943, -1.627603167877306 
0.2099999999999932, -1.6298928197452127 
0.2199999999999921, -1.631225764724347 
0.229999999999991, -1.6318344882596212 
0.2399999999999899, -1.6319006492083967 
0.2499999999999888, -1.6315556527562038 
0.2599999999999877, -1.6308973273731542 
0.2699999999999866, -1.6300134743221488 
0.2799999999999855, -1.6290024708955742 
0.2899999999999844, -1.6279856374324972 
0.2999999999999833, -1.627114703540895 
0.3099999999999822, -1.626537195950474 
0.3199999999999811, -1.6262827527994488 
0.32999999999998, -1.6262058584119228 
0.3399999999999789, -1.6260906067285448 
0.3499999999999778, -1.6257492548389318 
0.35999999999997667, -1.6249907311090244 
0.36999999999997557, -1.6235008851689545 
0.37999999999997447, -1.6206601869585882 
0.38999999999997337, -1.615304236350814 
0.39999999999997227, -1.6056989939420667 
0.40999999999997117, -1.590972550692875 
0.41999999999997006, -1.5754476212374462 
0.42999999999996896, -1.5691814165801607 
0.43999999999996786, -1.574914764694253 
0.44999999999996676, -1.584301773114496 
0.45999999999996566, -1.5911936534655515 
0.46999999999996456, -1.5949878279309007 
0.47999999999996346, -1.5967757305733161 
0.48999999999996235, -1.5974506192779554 
0.49999999999996125, -1.5975034172563214 
0.5099999999999602, -1.5971821036349751 
0.519999999999959, -1.5966521681706767 
0.529999999999958, -1.5961317172662268 
0.5399999999999568, -1.5959422383012547 
0.5499999999999557, -1.5963398436404128 
0.5599999999999546, -1.5972674683702408 
0.5699999999999535, -1.5984181288085977 
0.5799999999999524, -1.5994991502300409 
0.5899999999999513, -1.6003424581138375 
0.5999999999999502, -1.6008707168576415 
0.6099999999999491, -1.6010482003244058 
0.619999999999948, -1.6008510939769618 
0.6299999999999469, -1.600251922794215 
0.6399999999999458, -1.5992133631255163 
0.6499999999999447, -1.5976901663737155 
0.6599999999999436, -1.5956440719120515 
0.6699999999999425, -1.593088881399956 
0.6799999999999414, -1.5901935797175453 
0.6899999999999403, -1.5874146324192244 
0.6999999999999392, -1.5854129054967205 
0.7099999999999381, -1.5845344043111635 
0.719999999999937, -1.5844593070346482 
0.7299999999999359, -1.5846131525572411 
0.7399999999999348, -1.5846271560502279 
0.7499999999999337, -1.5843404520350703 
0.7599999999999326, -1.583628627932217 
0.7699999999999315, -1.5822673285733238 
0.7799999999999304, -1.5798601480079881 
0.7899999999999293, -1.5760126986268177 
0.7999999999999282, -1.571427992064016 
0.8099999999999271, -1.5700480672233827 
0.819999999999926, -1.5773082586167604 
0.8299999999999249, -1.5918623103195106 
0.8399999999999238, -1.6063787261550657 
0.8499999999999227, -1.6166072725199492 
0.8599999999999216, -1.6226126674374277 
0.8699999999999205, -1.6257757479304402 
0.8799999999999194, -1.62726331907531 
0.8899999999999183, -1.6277951214594915 
0.8999999999999172, -1.6277703635520637 
0.9099999999999161, -1.6274153135759906 
0.919999999999915, -1.6268935538571792 
0.9299999999999139, -1.6263667580083094 
0.9399999999999128, -1.6259797536404406 
0.9499999999999117, -1.6257987866287642 
0.9599999999999106, -1.6258018130303615 
0.9699999999999095, -1.6259183733800302 
0.9799999999999084, -1.6260464186562813 
0.9899999999999073, -1.6260635340351441 
0.9999999999999062, -1.625845495898379 
1.0099999999999052, -1.625256952119082 
1.019999999999904, -1.624109909146479 
1.029999999999903, -1.6221108354477831 
1.039999999999902, -1.6188157348867815 
1.0499999999999008, -1.6136371155215674 
1.0599999999998997, -1.6060490609091254 
1.0699999999998986, -1.596300668936553 
1.0799999999998975, -1.5865688818779045 
1.0899999999998964, -1.5804398506762332 
1.0999999999998953, -1.5791331993112547 
1.1099999999998942, -1.5803506640633533 
1.119999999999893, -1.5817725867889476 
1.129999999999892, -1.582620944822766 
1.1399999999998909, -1.5828955045864375 
1.1499999999998898, -1.5827203952128328 
1.1599999999998887, -1.5821606103083714 
1.1699999999998876, -1.581247377124438 
1.1799999999998865, -1.5801519938417674 
1.1899999999998854, -1.5795220524598672 
1.1999999999998843, -1.5805264720737129 
1.2099999999998832, -1.583800264069804 
1.219999999999882, -1.5884663315087009 
1.229999999999881, -1.5930681107899753 
1.2399999999998799, -1.5967658512748264 
1.2499999999998788, -1.5993878667842512 
1.2599999999998777, -1.6010587818915751 
1.2699999999998766, -1.6019674924279528 
1.2799999999998755, -1.6022845007931412 
1.2899999999998744, -1.6021432809093892 
1.2999999999998733, -1.6016444686198266 
1.3099999999998722, -1.6008710946253895 
1.319999999999871, -1.5999084934955285 
1.32999999999987, -1.5988599169883115 
1.3399999999998689, -1.5978563902494434 
1.3499999999998678, -1.5970549613626066 
1.3599999999998666, -1.5965764820894064 
1.3699999999998655, -1.596394004906163 
1.3799999999998644, -1.596330159485903 
1.3899999999998633, -1.5961780387361473 
1.3999999999998622, -1.5957626962124363 
1.4099999999998611, -1.5948846668280976 
1.41999999999986, -1.593195915562735 
1.429999999999859, -1.590019175920316 
1.4399999999998578, -1.5841294697796529 
1.4499999999998567, -1.5738165981195094 
1.4599999999998556, -1.5584332755216177 
1.4699999999998545, -1.5423986335378248 
1.4799999999998534, -1.53509641843436 
1.4899999999998523, -1.5391140937543204 
1.4999999999998512, -1.547106209933955 
1.5099999999998501, -1.553296858524537 
1.519999999999849, -1.5568177777744154 
1.529999999999848, -1.5585135733005162 
1.5399999999998468, -1.5591627076685912 
1.5499999999998457, -1.559210730880634 
1.5599999999998446, -1.5588842651796557 
1.5699999999998435, -1.5583311909317932 
1.5799999999998424, -1.5577568942405426 
1.5899999999998413, -1.5575110131448113 
1.5999999999998402, -1.5579521825129254 
1.6099999999998391, -1.5591172360568 
1.619999999999838, -1.5606681973018985 
1.629999999999837, -1.5622051813055748 
1.6399999999998358, -1.5634824408725405 
1.6499999999998347, -1.5643987211277945 
1.6599999999998336, -1.5649268590144934 
1.6699999999998325, -1.565067053162161 
1.6799999999998314, -1.5648247119474175 
1.6899999999998303, -1.5642019793417428 
1.6999999999998292, -1.56319727422156 
1.709999999999828, -1.5618123460640052 
1.719999999999827, -1.560071187373259 
1.729999999999826, -1.558060037182034 
1.7399999999998248, -1.5559917319780037 
1.7499999999998237, -1.554232754165604 
1.7599999999998226, -1.5531369364303083 
1.7699999999998215, -1.5527355723236047 
1.7799999999998204, -1.5527145478574669 
1.7899999999998193, -1.5527179947259575 
1.7999999999998182, -1.552523354900503 
1.809999999999817, -1.551981468191251 
1.819999999999816, -1.5508853436472305 
1.8299999999998149, -1.5488301710055232 
1.8399999999998138, -1.5450739947167027 
1.8499999999998127, -1.5386346377791116 
1.8599999999998116, -1.5295792866538953 
1.8699999999998105, -1.5222829224784906 
1.8799999999998094, -1.5249130907180857 
1.8899999999998083, -1.5383591614090393 
1.8999999999998072, -1.5537597923526256 
1.909999999999806, -1.5647758889678118 
1.919999999999805, -1.571045254417293 
1.9299999999998039, -1.5742052788365453 
1.9399999999998028, -1.5756286471852194 
1.9499999999998017, -1.576110328704479 
1.9599999999998006, -1.5760608407635717 
1.9699999999997995, -1.5757011345956378 
1.9799999999997984, -1.5752010040444773 
1.9899999999997973, -1.5747639900258585 
1.9999999999997962, -1.5746072505276512 
2.0099999999998173, -1.5748277419088121 
2.0199999999998384, -1.575333370790747 
2.0299999999998595, -1.575943850958478 
2.0399999999998806, -1.576500662982746 
2.0499999999999017, -1.576889937192083 
2.059999999999923, -1.577029301582224 
2.069999999999944, -1.5768518415872474 
2.079999999999965, -1.5762893220119705 
2.089999999999986, -1.575259154577764 
2.100000000000007, -1.573659403004712 
2.1100000000000283, -1.5713752460777137 
2.1200000000000494, -1.5683107227101754 
2.1300000000000705, -1.5644841368306668 
2.1400000000000916, -1.5602299346343649 
2.1500000000001127, -1.5563812894818372 
2.160000000000134, -1.5539351327227073 
2.170000000000155, -1.5531356962117144 
2.180000000000176, -1.5532890794895653 
2.190000000000197, -1.5536130513799393 
2.2000000000002182, -1.5537259451472991 
2.2100000000002393, -1.5535096230830918 
2.2200000000002604, -1.5528883943837284 
2.2300000000002815, -1.5517104152259775 
2.2400000000003026, -1.5497287059184832 
2.2500000000003237, -1.5468389840186723 
2.260000000000345, -1.544020805975943 
2.270000000000366, -1.544584460987048 
2.280000000000387, -1.552039474570106 
2.290000000000408, -1.5646776430251346 
2.3000000000004293, -1.5771267929440254 
2.3100000000004504, -1.5862603558425312 
2.3200000000004715, -1.591945428948546 
2.3300000000004926, -1.595128513501057 
2.3400000000005137, -1.5967251452598032 
2.3500000000005348, -1.5973609021540338 
2.360000000000556, -1.5974126301421516 
2.370000000000577, -1.5971036224248967 
2.380000000000598, -1.5965893494742187 
2.390000000000619, -1.596015252632687 
2.4000000000006403, -1.5955215667982718 
2.4100000000006614, -1.5951993861550666 
2.4200000000006825, -1.5950664858621768 
2.4300000000007036, -1.5950858867861544 
2.4400000000007247, -1.5951754110150842 
2.450000000000746, -1.5952160649690028 
2.460000000000767, -1.5950793628462123 
2.470000000000788, -1.5946344507532688 
2.480000000000809, -1.5937156882438974 
2.49000000000083, -1.5920700562510166 
2.5000000000008513, -1.5893049393778511 
2.5100000000008724, -1.5848649770523608 
2.5200000000008935, -1.5781291484385973 
2.5300000000009146, -1.5688642374738149 
2.5400000000009357, -1.5582626623729223 
2.550000000000957, -1.549579336274919 
2.560000000000978, -1.5457276812477596 
2.570000000000999, -1.5459314051179665 
2.58000000000102, -1.5474464196257653 
2.5900000000010412, -1.5486748119690763 
2.6000000000010624, -1.5492917313016705 
2.6100000000010835, -1.5493917785288382 
2.6200000000011046, -1.5490794279456253 
2.6300000000011257, -1.5483915589303634 
2.6400000000011468, -1.5473618180852848 
2.650000000001168, -1.546239914169099 
2.660000000001189, -1.5458459853494437 
2.67000000000121, -1.5474459440634138 
2.680000000001231, -1.551478185212376 
2.6900000000012523, -1.5567922876708473 
2.7000000000012734, -1.561851963447919 
2.7100000000012945, -1.5658526182426549 
2.7200000000013156, -1.5686666799041802 
2.7300000000013367, -1.5704537367991551 
2.740000000001358, -1.571431836785734 
2.750000000001379, -1.5717955932088874 
2.7600000000014, -1.571697172328286 
2.770000000001421, -1.571251306117141 
2.780000000001442, -1.5705524023850423 
2.7900000000014633, -1.5696951653134557 
2.8000000000014844, -1.5687859647506701 
2.8100000000015055, -1.5679417179876798 
2.8200000000015266, -1.56728212869918 
2.8300000000015477, -1.5668904094069254 
2.840000000001569, -1.5667396088500474 
2.85000000000159, -1.566684680340701 
2.860000000001611, -1.5665461364468949 
2.870000000001632, -1.5661618531651744 
2.8800000000016532, -1.5653486050254208 
2.8900000000016743, -1.5638059765438277 
2.9000000000016954, -1.5609804430764302 
2.9100000000017165, -1.5559035094344764 
2.9200000000017377, -1.5471624940629172 
2.9300000000017588, -1.5336193621154122 
2.94000000000178, -1.516821649229791 
2.950000000001801, -1.5031696649440112 
2.960000000001822, -1.4987895553902262 
2.970000000001843, -1.5017444210279831 
2.9800000000018643, -1.5062729771408399 
2.9900000000018854, -1.5095311372764744 
3.0000000000019065, -1.5113119002874396 
3.0100000000019276, -1.5120845437732164 
3.0200000000019487, -1.5122323617639735 
3.03000000000197, -1.511965548207869 
3.040000000001991, -1.5113949792444967 
3.050000000002012, -1.5106503708540235 
3.060000000002033, -1.510045509843946 
3.070000000002054, -1.5101599791191227 
3.0800000000020753, -1.5115109525022792 
3.0900000000020964, -1.5139909912109022 
3.1000000000021175, -1.5169269594262056 
3.1100000000021386, -1.5196688835742522 
3.1200000000021597, -1.5218865530201962 
3.130000000002181, -1.5234972818458128 
3.140000000002202, -1.5245310931559102 
3.150000000002223, -1.525053260203138 
3.160000000002244, -1.5251328832372817 
3.1700000000022652, -1.5248326988903023 
3.1800000000022863, -1.5242086555272416 
3.1900000000023074, -1.5233167158670118 
3.2000000000023285, -1.5222253261974132 
3.2100000000023496, -1.5210293022300698 
3.2200000000023707, -1.5198619683661898 
3.230000000002392, -1.5188929968517528 
3.240000000002413, -1.5182680817160539 
3.250000000002434, -1.517995773341406 
3.260000000002455, -1.517920953090577 
3.2700000000024763, -1.5178343289585674 
3.2800000000024974, -1.517561135202237 
3.2900000000025185, -1.5169401647084888 
3.3000000000025396, -1.515735386983501 
3.3100000000025607, -1.5135104171716685 
3.3200000000025818, -1.5094624742040241 
3.330000000002603, -1.502288535792838 
3.340000000002624, -1.4904992996507085 
3.350000000002645, -1.4741703518792542 
3.360000000002666, -1.4579525298529832 
3.3700000000026873, -1.4495481100353733 
3.3800000000027084, -1.4508259567704633 
3.3900000000027295, -1.4562962757236062 
3.4000000000027506, -1.4611508266853086 
3.4100000000027717, -1.464156896047667 
3.420000000002793, -1.4656986336246494 
3.430000000002814, -1.4663233178058006 
3.440000000002835, -1.4663842850416424 
3.450000000002856, -1.4660641460090618 
3.460000000002877, -1.4654644777291006 
3.4700000000028983, -1.4647232760795132 
3.4800000000029194, -1.4641697691151863 
3.4900000000029405, -1.4643812898023796 
3.5000000000029616, -1.465853927557925 
3.5100000000029827, -1.4684825702421649 
3.520000000003004, -1.4716138808309067 
3.530000000003025, -1.4745909660770424 
3.540000000003046, -1.4770545888593105 
3.550000000003067, -1.4788967955592445 
3.5600000000030882, -1.4801356009671949 
3.5700000000031094, -1.4808355144919705 
3.5800000000031305, -1.4810721331282932 
3.5900000000031516, -1.4809184799636446 
3.6000000000031727, -1.4804414595250233 
3.6100000000031938, -1.4797057910622666 
3.620000000003215, -1.4787838995097966 
3.630000000003236, -1.4777657479768933 
3.640000000003257, -1.4767621818315153 
3.650000000003278, -1.4759001138313343 
3.6600000000032993, -1.4752953091913936 
3.6700000000033204, -1.4749864530813503 
3.6800000000033415, -1.4748875644961843 
3.6900000000033626, -1.4748334161300116 
3.7000000000033837, -1.4746600142454738 
3.710000000003405, -1.4742224420256385 
3.720000000003426, -1.4733468021017453 
3.730000000003447, -1.4717509355610852 
3.740000000003468, -1.4689479412145072 
3.750000000003489, -1.4641548372136708 
3.7600000000035103, -1.456319703700747 
3.7700000000035314, -1.4445875380950564 
3.7800000000035525, -1.4296264380031174 
3.7900000000035736, -1.4151227971802267 
3.8000000000035947, -1.4061944403384385 
3.810000000003616, -1.404282692874742 
3.820000000003637, -1.4062438493437883 
3.830000000003658, -1.4087635800881042 
3.840000000003679, -1.4105384688760516 
3.8500000000037002, -1.4114845831012905 
3.8600000000037213, -1.4118156073793584 
3.8700000000037424, -1.4117042245842553 
3.8800000000037635, -1.4112302492727298 
3.8900000000037847, -1.4104153137698652 
3.9000000000038058, -1.409321906549517 
3.910000000003827, -1.4082765936131303 
3.920000000003848, -1.4081579420972345 
3.930000000003869, -1.4102177261976232 
3.94000000000389, -1.4149795145588904 
3.9500000000039113, -1.4214667084263344 
3.9600000000039324, -1.4280519688675384 
3.9700000000039535, -1.4336168108609249 
3.9800000000039746, -1.4377843596555944 
3.9900000000039957, -1.44062505372578 
4.000000000004016, -1.442379118879551 
4.010000000003993, -1.4433104351310861 
4.02000000000397, -1.4436460308150376 
4.030000000003946, -1.4435601502870006 
4.040000000003923, -1.4431835551963252 
4.0500000000039, -1.442626622365502 
4.0600000000038765, -1.4420017708912587 
4.070000000003853, -1.441425084963444 
4.08000000000383, -1.4409908513261231 
4.090000000003807, -1.440745842556106 
4.100000000003783, -1.4406849796372276 
4.11000000000376, -1.4407539791583512 
4.120000000003737, -1.4408569124327832 
4.130000000003713, -1.4408806418938007 
4.14000000000369, -1.4407169508861424 
4.150000000003667, -1.440259855013418 
4.1600000000036434, -1.4393854600894955 
4.17000000000362, -1.4379332561313827 
4.180000000003597, -1.435701562164043 
4.1900000000035735, -1.4324657876307383 
4.20000000000355, -1.428034164962146 
4.210000000003527, -1.4223741207873541 
4.220000000003504, -1.4158453222308376 
4.23000000000348, -1.409439451342816 
4.240000000003457, -1.4045751711237178 
4.250000000003434, -1.4021181122799458 
4.26000000000341, -1.4016396655472128 
4.270000000003387, -1.4020413090231627 
4.280000000003364, -1.4025169034110965 
4.2900000000033405, -1.402745505098217 
4.300000000003317, -1.4026508088754874 
4.310000000003294, -1.4021964441215535 
4.320000000003271, -1.4012860708644772 
4.330000000003247, -1.399717734595391 
4.340000000003224, -1.3972100243061367 
4.350000000003201, -1.3936953274391852 
4.360000000003177, -1.3902510432247628 
4.370000000003154, -1.3902324186122486 
4.380000000003131, -1.3976261604419427 
4.390000000003107, -1.4119208860062524 
4.400000000003084, -1.4276612856491966 
4.410000000003061, -1.440196703047752 
4.4200000000030375, -1.4483996281194564 
4.430000000003014, -1.4531561897414391 
4.440000000002991, -1.4556757918582977 
4.450000000002968, -1.4568620531004695 
4.460000000002944, -1.4572680936286928 
4.470000000002921, -1.457206334745286 
4.480000000002898, -1.4568607401352736 
4.490000000002874, -1.4563768730209232 
4.500000000002851, -1.4559237914379597 
4.510000000002828, -1.455692212367242 
4.520000000002804, -1.455807348194132 
4.530000000002781, -1.4562476391553107 
4.540000000002758, -1.4568782516858403 
4.5500000000027345, -1.4575434089093064 
4.560000000002711, -1.458116452419119 
4.570000000002688, -1.4585056696316268 
4.580000000002665, -1.4586465505288542 
4.590000000002641, -1.4584911264646925 
4.600000000002618, -1.4579984641628276 
4.610000000002595, -1.4571298003854782 
4.620000000002571, -1.4558489523354567 
4.630000000002548, -1.4541284329636954 
4.640000000002525, -1.451965597252921 
4.6500000000025015, -1.4494183903562363 
4.660000000002478, -1.446667950554445 
4.670000000002455, -1.4440754796642137 
4.6800000000024315, -1.442108080219538 
4.690000000002408, -1.4410446077660815 
4.700000000002385, -1.4407376424166052 
4.710000000002362, -1.440778874062864 
4.720000000002338, -1.4408184372280601 
4.730000000002315, -1.4406617453345922 
4.740000000002292, -1.4401853874759851 
4.750000000002268, -1.439222920561071 
4.760000000002245, -1.4374527516827398 
4.770000000002222, -1.43426992456063 
4.7800000000021985, -1.4287122358010103 
4.790000000002175, -1.4198629727089638 
4.800000000002152, -1.4086516416832493 
4.810000000002129, -1.4003987461490313 
4.820000000002105, -1.4019886686479877 
4.830000000002082, -1.4128855459936958 
4.840000000002059, -1.4256531745781935 
4.850000000002035, -1.4351394744062438 
4.860000000002012, -1.440770730210369 
4.870000000001989, -1.443724489239278 
4.880000000001965, -1.4451123577357776 
4.890000000001942, -1.4456184739419684 
4.900000000001919, -1.445606314524428 
4.9100000000018955, -1.4452653042454393 
4.920000000001872, -1.4447287808956086 
4.930000000001849, -1.4441808558973341 
