t, s[1].omega / s[0].omega 
0, -0.5699977382259722 
0.009999999999999995, -0.5697946121017482 
0.019999999999999934, -0.5696266630682472 
0.029999999999999874, -0.5694670243995925 
0.04000000000000012, -0.569283160750808 
0.050000000000000405, -0.5690482498404995 
0.06000000000000069, -0.5687480044772814 
0.07000000000000098, -0.5683816762781886 
0.08000000000000126, -0.5679599949844993 
0.09000000000000155, -0.5675039534827208 
0.10000000000000184, -0.5670473224272827 
0.11000000000000212, -0.5666447443142952 
0.12000000000000241, -0.5663872944589988 
0.130000000000002, -0.5664283019348454 
0.1400000000000009, -0.567023149483115 
0.1499999999999998, -0.5685859249500893 
0.1599999999999987, -0.5717585149275187 
0.1699999999999976, -0.5774628084242012 
0.1799999999999965, -0.5868457108561853 
0.1899999999999954, -0.6009337914366824 
0.1999999999999943, -0.6198342546524773 
0.2099999999999932, -0.641819394558164 
0.2199999999999921, -0.6634799184717763 
0.229999999999991, -0.6815601460062019 
0.2399999999999899, -0.6947268135047519 
0.2499999999999888, -0.7034840156709741 
0.2599999999999877, -0.7090317223024256 
0.2699999999999866, -0.7124661231426148 
0.2799999999999855, -0.7145580940461477 
0.2899999999999844, -0.7157954651321679 
0.2999999999999833, -0.7164721137964827 
0.3099999999999822, -0.716756922124247 
0.3199999999999811, -0.7167359744397206 
0.32999999999998, -0.7164341478252105 
0.3399999999999789, -0.715821741315929 
0.3499999999999778, -0.7148099773996565 
0.35999999999997667, -0.7132401549466378 
0.36999999999997557, -0.7108781413551859 
0.37999999999997447, -0.7074401020243507 
0.38999999999997337, -0.702684611194696 
0.39999999999997227, -0.6965724262989836 
0.40999999999997117, -0.689399267782479 
0.41999999999997006, -0.6817564197594327 
0.42999999999996896, -0.674310020256529 
0.43999999999996786, -0.6675731448232531 
0.44999999999996676, -0.6618175615273885 
0.45999999999996566, -0.6571123730518117 
0.46999999999996456, -0.6534039727655225 
0.47999999999996346, -0.6505812623166934 
0.48999999999996235, -0.6485137794027723 
0.49999999999996125, -0.6470701443506524 
0.5099999999999602, -0.6461264197854415 
0.519999999999959, -0.6455704249818406 
0.529999999999958, -0.6453044912705244 
0.5399999999999568, -0.6452471240554647 
0.5499999999999557, -0.6453334474578825 
0.5599999999999546, -0.6455145425701867 
0.5699999999999535, -0.645756192635152 
0.5799999999999524, -0.6460376208432485 
0.5899999999999513, -0.6463502966627355 
0.5999999999999502, -0.6466959133110278 
0.6099999999999491, -0.6470819063751334 
0.619999999999948, -0.6475135055611139 
0.6299999999999469, -0.6479837703718274 
0.6399999999999458, -0.648466145643777 
0.6499999999999447, -0.6489151443607696 
0.6599999999999436, -0.6492773647704999 
0.6699999999999425, -0.6495079233469345 
0.6799999999999414, -0.6495826563402629 
0.6899999999999403, -0.649499952408445 
0.6999999999999392, -0.6492744351902293 
0.7099999999999381, -0.648929338076837 
0.719999999999937, -0.648493049251474 
0.7299999999999359, -0.6480022494806047 
0.7399999999999348, -0.6475128249116986 
0.7499999999999337, -0.6471204850268291 
0.7599999999999326, -0.6469943907919476 
0.7699999999999315, -0.6474273538729924 
0.7799999999999304, -0.6489024627187137 
0.7899999999999293, -0.6521624820160594 
0.7999999999999282, -0.6582344903840934 
0.8099999999999271, -0.6682990942648206 
0.819999999999926, -0.6832360132534269 
0.8299999999999249, -0.7028006456900429 
0.8399999999999238, -0.7249350878756183 
0.8499999999999227, -0.7462511228662407 
0.8599999999999216, -0.7638093529807888 
0.8699999999999205, -0.7765130357691341 
0.8799999999999194, -0.7848994656601884 
0.8899999999999183, -0.790130599025779 
0.8999999999999172, -0.7932814405577009 
0.9099999999999161, -0.7951194693472243 
0.919999999999915, -0.7961306437228329 
0.9299999999999139, -0.7966015754799588 
0.9399999999999128, -0.7966875548298161 
0.9499999999999117, -0.7964539200341707 
0.9599999999999106, -0.7958938323875164 
0.9699999999999095, -0.7949257604730052 
0.9799999999999084, -0.7933708470642111 
0.9899999999999073, -0.7909093320172317 
0.9999999999999062, -0.7870241456130952 
1.0099999999999052, -0.7809741891145536 
1.019999999999904, -0.7719089996366437 
1.029999999999903, -0.7592705462937628 
1.039999999999902, -0.7434136438521213 
1.0499999999999008, -0.7259021013995632 
1.0599999999998997, -0.7089486552415895 
1.0699999999998986, -0.6943845366696191 
1.0799999999998975, -0.683062294115628 
1.0899999999998964, -0.6749492635670824 
1.0999999999998953, -0.6695249751530957 
1.1099999999998942, -0.6661255736339946 
1.119999999999893, -0.6641359523314827 
1.129999999999892, -0.6630641195503972 
1.1399999999998909, -0.662550750895298 
1.1499999999998898, -0.6623500887529129 
1.1599999999998887, -0.6623020526265163 
1.1699999999998876, -0.6623053664838994 
1.1799999999998865, -0.6622958878373967 
1.1899999999998854, -0.6622314019313565 
1.1999999999998843, -0.6620828999063589 
1.2099999999998832, -0.6618318534269795 
1.219999999999882, -0.6614721405006546 
1.229999999999881, -0.6610134430195872 
1.2399999999998799, -0.6604812909120248 
1.2499999999998788, -0.6599103115925009 
1.2599999999998777, -0.6593324110922597 
1.2699999999998766, -0.6587662881665632 
1.2799999999998755, -0.6582141127802327 
1.2899999999998744, -0.6576662602106145 
1.2999999999998733, -0.6571103252097095 
1.3099999999998722, -0.6565394375938177 
1.319999999999871, -0.6559571296631123 
1.32999999999987, -0.6553792423868015 
1.3399999999998689, -0.6548350483843185 
1.3499999999998678, -0.6543693840910102 
1.3599999999998666, -0.6540462659981796 
1.3699999999998655, -0.653953325191683 
1.3799999999998644, -0.6542058123189916 
1.3899999999998633, -0.6549488695092234 
1.3999999999998622, -0.6563570167786325 
1.4099999999998611, -0.6586297975355278 
1.41999999999986, -0.661981247271468 
1.429999999999859, -0.6666172165727418 
1.4399999999998578, -0.6726889715495441 
1.4499999999998567, -0.680209331315002 
1.4599999999998556, -0.6889344358517803 
1.4699999999998545, -0.6982693410424695 
1.4799999999998534, -0.7073230762267597 
1.4899999999998523, -0.7151924835186689 
1.4999999999998512, -0.7213237367733663 
1.5099999999998501, -0.7256580500534876 
1.519999999999849, -0.728485055547382 
1.529999999999848, -0.7302008559457369 
1.5399999999998468, -0.7311502465234623 
1.5499999999998457, -0.7315763236779573 
1.5599999999998446, -0.7316265427300879 
1.5699999999998435, -0.7313722023654765 
1.5799999999998424, -0.7308219877366451 
1.5899999999998413, -0.7299232462066891 
1.5999999999998402, -0.7285479157869996 
1.6099999999998391, -0.726458643520783 
1.619999999999838, -0.7232490347336663 
1.629999999999837, -0.718258759011247 
1.6399999999998358, -0.7105036500550385 
1.6499999999998347, -0.6987737922971797 
1.6599999999998336, -0.6821912928581905 
1.6699999999998325, -0.6612765883016285 
1.6799999999998314, -0.6385727430610225 
1.6899999999998303, -0.6175754959847685 
1.6999999999998292, -0.6007567006279257 
1.709999999999828, -0.588728707544562 
1.719999999999827, -0.5808185131721486 
1.729999999999826, -0.5759357076503767 
1.7399999999998248, -0.5730800156216966 
1.7499999999998237, -0.5715005116108423 
1.7599999999998226, -0.5706868209932654 
1.7699999999998215, -0.5703112189940093 
1.7799999999998204, -0.5701705525007623 
1.7899999999998193, -0.5701414669264092 
1.7999999999998182, -0.5701494641687895 
1.809999999999817, -0.5701490076620717 
1.819999999999816, -0.5701118938740248 
1.8299999999998149, -0.5700218614060215 
1.8399999999998138, -0.5698737730693233 
1.8499999999998127, -0.5696751297796788 
1.8599999999998116, -0.5694465051458283 
1.8699999999998105, -0.5692174070937389 
1.8799999999998094, -0.5690167273293055 
1.8899999999998083, -0.5688612064298391 
1.8999999999998072, -0.5687476816383319 
1.909999999999806, -0.5686533888564212 
1.919999999999805, -0.5685444248166215 
1.9299999999998039, -0.5683879944698008 
1.9399999999998028, -0.5681621636364049 
1.9499999999998017, -0.5678593853089667 
1.9599999999998006, -0.5674849037576666 
1.9699999999997995, -0.5670540179512027 
1.9799999999997984, -0.5665918953164373 
1.9899999999997973, -0.5661382304057619 
1.9999999999997962, -0.565758495785402 
2.0099999999998173, -0.565564204406795 
2.0199999999998384, -0.5657458934547537 
2.0299999999998595, -0.5666231987254708 
2.0399999999998806, -0.5687133098070728 
2.0499999999999017, -0.5728040480925376 
2.059999999999923, -0.5799733723684931 
2.069999999999944, -0.5914067354301762 
2.079999999999965, -0.6077900054696252 
2.089999999999986, -0.628305857268169 
2.100000000000007, -0.6501271308512397 
2.1100000000000283, -0.6696394688487473 
2.1200000000000494, -0.6846100700509922 
2.1300000000000705, -0.6949164278706522 
2.1400000000000916, -0.7015956020883344 
2.1500000000001127, -0.7058076411035712 
2.160000000000134, -0.7084277362459801 
2.170000000000155, -0.7100288155641375 
2.180000000000176, -0.7109654433969859 
2.190000000000197, -0.7114495977511444 
2.2000000000002182, -0.7116001540754288 
2.2100000000002393, -0.711470779450476 
2.2200000000002604, -0.7110623970062748 
2.2300000000002815, -0.710324411169674 
2.2400000000003026, -0.709148413635128 
2.2500000000003237, -0.7073615644223576 
2.260000000000345, -0.704736211809297 
2.270000000000366, -0.7010431711240095 
2.280000000000387, -0.6961657434243846 
2.290000000000408, -0.6902311206210957 
2.3000000000004293, -0.6836454135114798 
2.3100000000004504, -0.6769645332443088 
2.3200000000004715, -0.670691422650205 
2.3300000000004926, -0.6651489636811033 
2.3400000000005137, -0.6604727661014653 
2.3500000000005348, -0.6566682747777082 
2.360000000000556, -0.6536716429582776 
2.370000000000577, -0.6513900750196789 
2.380000000000598, -0.6497224669254487 
2.390000000000619, -0.6485684085704391 
2.4000000000006403, -0.6478322756565651 
2.4100000000006614, -0.6474259624958115 
2.4200000000006825, -0.6472713283981417 
2.4300000000007036, -0.6473021821914948 
2.4400000000007247, -0.6474654162687593 
2.450000000000746, -0.6477212453681853 
2.460000000000767, -0.6480428634158064 
2.470000000000788, -0.6484157726963266 
2.480000000000809, -0.6488364101813879 
2.49000000000083, -0.6493088424348425 
2.5000000000008513, -0.6498381611049712 
2.5100000000008724, -0.6504207532670054 
2.5200000000008935, -0.651034680458179 
2.5300000000009146, -0.6516360215916851 
2.5400000000009357, -0.6521660804939077 
2.550000000000957, -0.6525680426824778 
2.560000000000978, -0.6528038900708552 
2.570000000000999, -0.6528616097178217 
2.58000000000102, -0.6527508625547249 
2.5900000000010412, -0.6524934442160403 
2.6000000000010624, -0.6521159502298121 
2.6100000000010835, -0.6516485769660199 
2.6200000000011046, -0.6511313401140991 
2.6300000000011257, -0.6506289955014252 
2.6400000000011468, -0.650257585738746 
2.650000000001168, -0.6502271588043325 
2.660000000001189, -0.650904586878047 
2.67000000000121, -0.6528930039530678 
2.680000000001231, -0.6571006460847226 
2.6900000000012523, -0.6647175628785602 
2.7000000000012734, -0.6769368732784782 
2.7100000000012945, -0.6942529090876687 
2.7200000000013156, -0.7155284651747792 
2.7300000000013367, -0.7377751997450173 
2.740000000001358, -0.7575043579884413 
2.750000000001379, -0.7726346753381541 
2.7600000000014, -0.7830405607010983 
2.770000000001421, -0.7897116741559298 
2.780000000001442, -0.7938138435416524 
2.7900000000014633, -0.7962636031879647 
2.8000000000014844, -0.797671899911026 
2.8100000000015055, -0.7984131656564714 
2.8200000000015266, -0.7987022176081765 
2.8300000000015477, -0.7986476358426929 
2.840000000001569, -0.7982803492800499 
2.85000000000159, -0.7975613058501942 
2.860000000001611, -0.7963699822936342 
2.870000000001632, -0.7944731173266264 
2.8800000000016532, -0.7914759722274328 
2.8900000000016743, -0.7867775267133569 
2.9000000000016954, -0.7796009527111981 
2.9100000000017165, -0.7692315080864878 
2.9200000000017377, -0.7555268787772096 
2.9300000000017588, -0.7394075267788367 
2.94000000000178, -0.7227365907782122 
2.950000000001801, -0.7074953153493142 
2.960000000001822, -0.6949711189905423 
2.970000000001843, -0.6855449629239863 
2.9800000000018643, -0.6789515819044082 
2.9900000000018854, -0.6746323643683313 
3.0000000000019065, -0.6719819612667449 
3.0100000000019276, -0.6704712675331075 
3.0200000000019487, -0.6696886684122657 
3.03000000000197, -0.6693383709805526 
3.040000000001991, -0.6692201823370914 
3.050000000002012, -0.669204318294603 
3.060000000002033, -0.6692082419268828 
3.070000000002054, -0.6691786187547784 
3.0800000000020753, -0.6690793670097931 
3.0900000000020964, -0.6688858380347635 
3.1000000000021175, -0.66858447612797 
3.1100000000021386, -0.6681758960237101 
3.1200000000021597, -0.6676772450028218 
3.130000000002181, -0.6671191685930195 
3.140000000002202, -0.6665361150877642 
3.150000000002223, -0.6659543791372056 
3.160000000002244, -0.6653847215390514 
3.1700000000022652, -0.6648232301993018 
3.1800000000022863, -0.6642587071675392 
3.1900000000023074, -0.6636817379924999 
3.2000000000023285, -0.663091322165796 
3.2100000000023496, -0.6624980336169064 
3.2200000000023707, -0.6619252909623167 
3.230000000002392, -0.6614108210924772 
3.240000000002413, -0.6610093384279201 
3.250000000002434, -0.6607961444221668 
3.260000000002455, -0.6608705265646536 
3.2700000000024763, -0.6613576458807461 
3.2800000000024974, -0.662407916225417 
3.2900000000025185, -0.6641932870278158 
3.3000000000025396, -0.6668995072816222 
3.3100000000025607, -0.6707113061026364 
3.3200000000025818, -0.6757830478911322 
3.330000000002603, -0.6821830599368264 
3.340000000002624, -0.6898042261121897 
3.350000000002645, -0.6982633375130517 
3.360000000002666, -0.7068713803521905 
3.3700000000026873, -0.7147825248400825 
3.3800000000027084, -0.7213055581901597 
3.3900000000027295, -0.7261569023299048 
3.4000000000027506, -0.7294571857828325 
3.4100000000027717, -0.7315364904553177 
3.420000000002793, -0.7327430378115033 
3.430000000002814, -0.7333490943855415 
3.440000000002835, -0.7335336315214742 
3.450000000002856, -0.7333955249949944 
3.460000000002877, -0.7329689868820436 
3.4700000000028983, -0.7322301761529326 
3.4800000000029194, -0.7310910603388542 
3.4900000000029405, -0.7293771711931846 
3.5000000000029616, -0.7267839613443232 
3.5100000000029827, -0.7228066365459985 
3.520000000003004, -0.7166533985931494 
3.530000000003025, -0.7072159716176352 
3.540000000003046, -0.6933185499883016 
3.550000000003067, -0.6745370345976351 
3.5600000000030882, -0.6522999793065474 
3.5700000000031094, -0.6298881303388927 
3.5800000000031305, -0.6106529127029201 
3.5900000000031516, -0.5962528629347735 
3.6000000000031727, -0.5865453339797526 
3.6100000000031938, -0.580494721077721 
3.620000000003215, -0.5769544747020926 
3.630000000003236, -0.5750047704324627 
3.640000000003257, -0.5740059521683318 
3.650000000003278, -0.5735462990964427 
3.6600000000032993, -0.5733728445782929 
3.6700000000033204, -0.5733344794149084 
3.6800000000033415, -0.5733419150373029 
3.6900000000033626, -0.5733417264109605 
3.7000000000033837, -0.5733007740790577 
3.710000000003405, -0.5731982128664869 
3.720000000003426, -0.5730232051048543 
3.730000000003447, -0.57277646764147 
3.740000000003468, -0.5724726641507253 
3.750000000003489, -0.5721395550548294 
3.7600000000035103, -0.5718110535140466 
3.7700000000035314, -0.5715155796183121 
3.7800000000035525, -0.5712651996046064 
3.7900000000035736, -0.571051268433554 
3.8000000000035947, -0.5708487423124876 
3.810000000003616, -0.5706266834859244 
3.820000000003637, -0.5703594010260332 
3.830000000003658, -0.5700332144441631 
3.840000000003679, -0.5696476825075809 
3.8500000000037002, -0.5692139532162717 
3.8600000000037213, -0.5687539900985357 
3.8700000000037424, -0.5683034702159055 
3.8800000000037635, -0.5679201651996995 
3.8900000000037847, -0.5676996109042117 
3.9000000000038058, -0.567800634635544 
3.910000000003827, -0.5684840128298251 
3.920000000003848, -0.5701664586299487 
3.930000000003869, -0.5734849315297799 
3.94000000000389, -0.5793426497432699 
3.9500000000039113, -0.5888516134449316 
3.9600000000039324, -0.6030011779441657 
3.9700000000039535, -0.621899522893895 
3.9800000000039746, -0.6438916716739248 
3.9900000000039957, -0.6656591495439472 
4.000000000004016, -0.6839452630244376 
4.010000000003993, -0.6973276693900878 
4.02000000000397, -0.7062379660400029 
4.030000000003946, -0.711864703974335 
4.040000000003923, -0.7153257361045102 
4.0500000000039, -0.717415882730844 
4.0600000000038765, -0.718638558082143 
4.070000000003853, -0.7192953715764127 
4.08000000000383, -0.7195579209152487 
4.090000000003807, -0.7195120337961575 
4.100000000003783, -0.7191801828024433 
4.11000000000376, -0.7185278632934333 
4.120000000003737, -0.7174577906237769 
4.130000000003713, -0.7157965988952397 
4.14000000000369, -0.7132861243540968 
4.150000000003667, -0.7096076578898355 
4.1600000000036434, -0.704480588607642 
4.17000000000362, -0.697843013039017 
4.180000000003597, -0.6900116759462059 
4.1900000000035735, -0.6816486356152409 
4.20000000000355, -0.6735109913280082 
4.210000000003527, -0.6661830768883296 
4.220000000003504, -0.6599698198421482 
4.23000000000348, -0.6549407405590891 
4.240000000003457, -0.6510237260590543 
4.250000000003434, -0.64808176969004 
4.26000000000341, -0.6459579933996268 
4.270000000003387, -0.6444976161352873 
4.280000000003364, -0.6435579043779815 
4.2900000000033405, -0.6430129348213567 
4.300000000003317, -0.6427560117981488 
4.310000000003294, -0.6427004568908836 
4.320000000003271, -0.6427789326558635 
4.330000000003247, -0.6429417012698946 
4.340000000003224, -0.6431545456710389 
4.350000000003201, -0.643397034556979 
4.360000000003177, -0.6436611879504784 
4.370000000003154, -0.6439495400016343 
4.380000000003131, -0.6442708287421981 
4.390000000003107, -0.644632205171734 
4.400000000003084, -0.6450293776123133 
4.410000000003061, -0.6454391579111832 
4.4200000000030375, -0.6458198295032445 
4.430000000003014, -0.6461214289081156 
4.440000000002991, -0.6463013099284723 
4.450000000002968, -0.6463359325951535 
4.460000000002944, -0.6462230348630866 
4.470000000002921, -0.6459761244086768 
4.480000000002898, -0.6456176617499157 
4.490000000002874, -0.6451761827387826 
4.500000000002851, -0.6446898099995104 
4.510000000002828, -0.6442174102396435 
4.520000000002804, -0.6438592753871484 
4.530000000002781, -0.6437903587595624 
4.540000000002758, -0.6443090975681978 
4.5500000000027345, -0.6459009934192574 
4.560000000002711, -0.6493029225834647 
4.570000000002688, -0.6555217672331854 
4.580000000002665, -0.6657013509819002 
4.590000000002641, -0.6806783342726263 
4.600000000002618, -0.7001864524046357 
4.610000000002595, -0.7221928204770524 
4.620000000002571, -0.743365485513544 
4.630000000002548, -0.7608057432073793 
4.640000000002525, -0.7734240215499563 
4.6500000000025015, -0.7817496708840693 
4.660000000002478, -0.7869372316293738 
4.670000000002455, -0.7900570449330823 
4.6800000000024315, -0.7918731784035832 
4.690000000002408, -0.7928687695020721 
4.700000000002385, -0.7933281382299782 
4.710000000002362, -0.7934047649184598 
4.720000000002338, -0.7931625045834212 
4.730000000002315, -0.7925931338487123 
4.740000000002292, -0.7916135546055573 
4.750000000002268, -0.7900428171646479 
4.760000000002245, -0.7875581559194045 
4.770000000002222, -0.7836383808051336 
4.7800000000021985, -0.7775379561390297 
4.790000000002175, -0.7684050380348219 
4.800000000002152, -0.7556895785677793 
4.810000000002129, -0.7397670192891161 
4.820000000002105, -0.7222245531528004 
4.830000000002082, -0.7052827282379269 
4.840000000002059, -0.6907595843408574 
4.850000000002035, -0.6794859783870985 
4.860000000002012, -0.671412908774626 
4.870000000001989, -0.6660134217486737 
4.880000000001965, -0.6626246106463429 
4.890000000001942, -0.6606357060981105 
4.900000000001919, -0.6595594579600023 
4.9100000000018955, -0.6590402303466465 
4.920000000001872, -0.6588345699154907 
