t, s[1].omega / s[0].omega 
0, -1.0199980628556125 
0.009999999999999995, -1.0197192787388012 
0.019999999999999934, -1.019446676171309 
0.029999999999999874, -1.0193563778323869 
0.04000000000000012, -1.0191405265461573 
0.050000000000000405, -1.018787889883034 
0.06000000000000069, -1.0185817728055606 
0.07000000000000098, -1.0184428130178405 
0.08000000000000126, -1.018117196876183 
0.09000000000000155, -1.0177484317332892 
0.10000000000000184, -1.017602219925557 
0.11000000000000212, -1.0173591897127985 
0.12000000000000241, -1.01694033264785 
0.130000000000002, -1.0166246170001367 
0.1400000000000009, -1.016474411472488 
0.1499999999999998, -1.0161045815844671 
0.1599999999999987, -1.0156343556544065 
0.1699999999999976, -1.015411856309148 
0.1799999999999965, -1.0151727305794787 
0.1899999999999954, -1.0146828016844542 
0.1999999999999943, -1.014236794176321 
0.2099999999999932, -1.014070650834552 
0.2199999999999921, -1.0136866213387496 
0.229999999999991, -1.0131100876703591 
0.2399999999999899, -1.0127724658362107 
0.2499999999999888, -1.0125624431155045 
0.2599999999999877, -1.0120207651003603 
0.2699999999999866, -1.0114283633566332 
0.2799999999999855, -1.011211988639209 
0.2899999999999844, -1.0108628105728545 
0.2999999999999833, -1.0101921159679488 
0.3099999999999822, -1.0096951454149974 
0.3199999999999811, -1.0095109567697167 
0.32999999999998, -1.008974135706092 
0.3399999999999789, -1.0082421103132642 
0.3499999999999778, -1.0079155373320559 
0.35999999999997667, -1.0076391132080582 
0.36999999999997557, -1.006925442042487 
0.37999999999997447, -1.0062473501594107 
0.38999999999997337, -1.0060462035243976 
0.39999999999997227, -1.0055881140085223 
0.40999999999997117, -1.0047644950405346 
0.41999999999997006, -1.0042652190191994 
0.42999999999996896, -1.0040581965056479 
0.43999999999996786, -1.0033931528843985 
0.44999999999996676, -1.002568703300457 
0.45999999999996566, -1.0022742531164686 
0.46999999999996456, -1.0019394779655446 
0.47999999999996346, -1.0011182338361122 
0.48999999999996235, -1.0004301179943005 
0.49999999999996125, -1.0002401878418712 
0.5099999999999602, -0.99971195505111 
0.519999999999959, -0.9988379771516824 
0.529999999999958, -0.998378401605926 
0.5399999999999568, -0.9981528335960737 
0.5499999999999557, -0.9974446075681314 
0.5599999999999546, -0.9966394681536516 
0.5699999999999535, -0.9963789068497804 
0.5799999999999524, -0.9960189838843069 
0.5899999999999513, -0.9952149995125646 
0.5999999999999502, -0.9945906445764837 
0.6099999999999491, -0.994408181720067 
0.619999999999948, -0.9938839872541729 
0.6299999999999469, -0.9930900166135292 
0.6399999999999458, -0.992689463261322 
0.6499999999999447, -0.9924629246679987 
0.6599999999999436, -0.9918196423094243 
0.6699999999999425, -0.9911283046408397 
0.6799999999999414, -0.9908965105067977 
0.6899999999999403, -0.9905579746800586 
0.6999999999999392, -0.9898804604221808 
0.7099999999999381, -0.9893594002632536 
0.719999999999937, -0.9891884096197329 
0.7299999999999359, -0.9887377414627856 
0.7399999999999348, -0.9881007852978246 
0.7499999999999337, -0.9877636784120383 
0.7599999999999326, -0.9875593783514437 
0.7699999999999315, -0.9870477188270016 
0.7799999999999304, -0.9865045437069118 
0.7899999999999293, -0.9863020270919444 
0.7999999999999282, -0.9860225440265493 
0.8099999999999271, -0.985509163471644 
0.819999999999926, -0.9850973805657591 
0.8299999999999249, -0.984949401332416 
0.8399999999999238, -0.984606839796265 
0.8499999999999227, -0.9841312241450956 
0.8599999999999216, -0.9838588617157785 
0.8699999999999205, -0.9836987442609637 
0.8799999999999194, -0.983330446056673 
0.8899999999999183, -0.9829213005112465 
0.8999999999999172, -0.9827581279320274 
0.9099999999999161, -0.9825602820428541 
0.919999999999915, -0.9821952913375873 
0.9299999999999139, -0.9818805594279151 
0.9399999999999128, -0.981775038940574 
0.9499999999999117, -0.9815497304297024 
0.9599999999999106, -0.9812032123493204 
0.9699999999999095, -0.9809985572921757 
0.9799999999999084, -0.9809068356388486 
0.9899999999999073, -0.9806709262261472 
0.9999999999999062, -0.9803630046743268 
1.0099999999999052, -0.9802594675923036 
1.019999999999904, -0.9801646822727452 
1.029999999999903, -0.9799213689718562 
1.039999999999902, -0.9796852164883146 
1.0499999999999008, -0.9796555027398121 
1.0599999999998997, -0.9795591019219203 
1.0699999999998986, -0.979307679096863 
1.0799999999998975, -0.9791761976636751 
1.0899999999998964, -0.9791944050772072 
1.0999999999998953, -0.9790903844833075 
1.1099999999998942, -0.9788510427491994 
1.119999999999893, -0.978840558825568 
1.129999999999892, -0.9788941898890163 
1.1399999999998909, -0.9787608712565946 
1.1499999999998898, -0.9785831893067553 
1.1599999999998887, -0.9786909029077628 
1.1699999999998876, -0.9787668081896325 
1.1799999999998865, -0.978589620351704 
1.1899999999998854, -0.9785385495201312 
1.1999999999998843, -0.978754379172197 
1.2099999999998832, -0.9788146714873069 
1.219999999999882, -0.9786175647693938 
1.229999999999881, -0.978752870705527 
1.2399999999998799, -0.9790629208598332 
1.2499999999998788, -0.979052711007235 
1.2599999999998777, -0.9789109250402752 
1.2699999999998766, -0.9792714125038202 
1.2799999999998755, -0.9796299528934412 
1.2899999999998744, -0.9795207119683309 
1.2999999999998733, -0.9795552747547539 
1.3099999999998722, -0.9801513525252196 
1.319999999999871, -0.9804580889824109 
1.32999999999987, -0.9802836310818391 
1.3399999999998689, -0.9806404627505655 
1.3499999999998678, -0.9814332249681977 
1.3599999999998666, -0.9815800986025139 
1.3699999999998655, -0.9814482595866822 
1.3799999999998644, -0.9822533910051895 
1.3899999999998633, -0.9830993997740756 
1.3999999999998622, -0.9830560452484116 
1.4099999999998611, -0.9831730788115562 
1.41999999999986, -0.9844567771741047 
1.429999999999859, -0.9851214308431704 
1.4399999999998578, -0.9849545636146517 
1.4499999999998567, -0.9856135076540117 
1.4599999999998556, -0.9872075393270708 
1.4699999999998545, -0.9875229856145239 
1.4799999999998534, -0.9873818378246966 
1.4899999999998523, -0.9888273654769998 
1.4999999999998512, -0.9903263961504876 
1.5099999999998501, -0.9903238343167605 
1.519999999999849, -0.9905218465268844 
1.529999999999848, -0.9926885676579391 
1.5399999999998468, -0.9936760738389674 
1.5499999999998457, -0.9935014787002387 
1.5599999999998446, -0.994483470500406 
1.5699999999998435, -0.9968226148784296 
1.5799999999998424, -0.9971980463836742 
1.5899999999998413, -0.9970613078178127 
1.5999999999998402, -0.9990242618491506 
1.6099999999998391, -1.0008172432432492 
1.619999999999838, -1.0007902823398382 
1.629999999999837, -1.0011051165633713 
1.6399999999998358, -1.003595671652786 
1.6499999999998347, -1.0045180042511175 
1.6599999999998336, -1.0043274434208278 
1.6699999999998325, -1.0054871155893457 
1.6799999999998314, -1.007642253067606 
1.6899999999998303, -1.007880251394734 
1.6999999999998292, -1.0078090468255956 
1.709999999999828, -1.0096421291735584 
1.719999999999827, -1.0109491726519007 
1.729999999999826, -1.0108446003395104 
1.7399999999998248, -1.0112795770535277 
1.7499999999998237, -1.0130919961163745 
1.7599999999998226, -1.0136034941001164 
1.7699999999998215, -1.0134220954948405 
1.7799999999998204, -1.014424894151448 
1.7899999999998193, -1.0156818524931412 
1.7999999999998182, -1.015711254080252 
1.809999999999817, -1.0157460467800545 
1.819999999999816, -1.0169137298740287 
1.8299999999998149, -1.0175301964455952 
1.8399999999998138, -1.017360406395003 
1.8499999999998127, -1.0177730534969671 
1.8599999999998116, -1.0186884949817272 
1.8699999999998105, -1.0188292698667214 
1.8799999999998094, -1.0186947731307068 
1.8899999999998083, -1.0193144097408484 
1.8999999999998072, -1.0198392950905912 
1.909999999999806, -1.0197185327144598 
1.919999999999805, -1.0197947958491842 
1.9299999999998039, -1.0203437107250197 
1.9399999999998028, -1.0205145769791815 
1.9499999999998017, -1.0203233462501673 
1.9599999999998006, -1.0205801268715073 
1.9699999999997995, -1.0209263439667207 
1.9799999999997984, -1.0208475054759487 
1.9899999999997973, -1.020745503860016 
1.9999999999997962, -1.0210196143487371 
2.0099999999998173, -1.0211433332173598 
2.0199999999998384, -1.0209407569327213 
2.0299999999998595, -1.0209717735515933 
2.0399999999998806, -1.021149259051011 
2.0499999999999017, -1.0210788274541944 
2.059999999999923, -1.0208817860215256 
2.069999999999944, -1.0209697864076672 
2.079999999999965, -1.0210122836249398 
2.089999999999986, -1.0208075345719976 
2.100000000000007, -1.0206927820931928 
2.1100000000000283, -1.0207458941435212 
2.1200000000000494, -1.0206486682699023 
2.1300000000000705, -1.0203960646632324 
2.1400000000000916, -1.0203524817347909 
2.1500000000001127, -1.0203187589424083 
2.160000000000134, -1.0201000935945959 
2.170000000000155, -1.0198812713358945 
2.180000000000176, -1.019847719415981 
2.190000000000197, -1.0197058200787152 
2.2000000000002182, -1.0194110830013088 
2.2100000000002393, -1.0192605660315361 
2.2200000000002604, -1.0191743071452244 
2.2300000000002815, -1.0189236943748243 
2.2400000000003026, -1.0186196177268283 
2.2500000000003237, -1.0185162049259493 
2.260000000000345, -1.0183349245849127 
2.270000000000366, -1.0179950672970788 
2.280000000000387, -1.0177421735875 
2.290000000000408, -1.0176253906943145 
2.3000000000004293, -1.0173342899970788 
2.3100000000004504, -1.0169499340233452 
2.3200000000004715, -1.0167714085836534 
2.3300000000004926, -1.0165736048535439 
2.3400000000005137, -1.0161799970766958 
2.3500000000005348, -1.0158179015180462 
2.360000000000556, -1.015675718310553 
2.370000000000577, -1.0153571700666182 
2.380000000000598, -1.0148901975050406 
2.390000000000619, -1.0146136039270917 
2.4000000000006403, -1.0144241490527617 
2.4100000000006614, -1.013979171166221 
2.4200000000006825, -1.0134982864353839 
2.4300000000007036, -1.0133111720142356 
2.4400000000007247, -1.0129996425338705 
2.450000000000746, -1.0124506511229028 
2.460000000000767, -1.0120441313240554 
2.470000000000788, -1.011869701103297 
2.480000000000809, -1.0114034668001153 
2.49000000000083, -1.0108020584631274 
2.5000000000008513, -1.0105270652060263 
2.5100000000008724, -1.0102599309265052 
2.5200000000008935, -1.0096506808734993 
2.5300000000009146, -1.0090900088997001 
2.5400000000009357, -1.0089051228189598 
2.550000000000957, -1.0084737626740876 
2.560000000000978, -1.0077715255220023 
2.570000000000999, -1.0073551832410685 
2.58000000000102, -1.0071445943551995 
2.5900000000010412, -1.0065335333089798 
2.6000000000010624, -1.0058258451896873 
2.6100000000010835, -1.0055725973557899 
2.6200000000011046, -1.0052283383110858 
2.6300000000011257, -1.004480313531681 
2.6400000000011468, -1.0038893921891816 
2.650000000001168, -1.0037052899846721 
2.660000000001189, -1.003172830146746 
2.67000000000121, -1.0023727296967793 
2.680000000001231, -1.001981302084677 
2.6900000000012523, -1.0017361610876745 
2.7000000000012734, -1.0010316949463052 
2.7100000000012945, -1.000293166686354 
2.7200000000013156, -1.0000658502450261 
2.7300000000013367, -0.9996685954287895 
2.740000000001358, -0.9988691626509707 
2.750000000001379, -0.9983068143134931 
2.7600000000014, -0.9981209635781247 
2.770000000001421, -0.9975479872087843 
2.780000000001442, -0.9967552331159125 
2.7900000000014633, -0.9964062145385052 
2.8000000000014844, -0.9961433840971701 
2.8100000000015055, -0.9954441481634594 
2.8200000000015266, -0.9947620303195521 
2.8300000000015477, -0.994556014644649 
2.840000000001569, -0.9941539234676424 
2.85000000000159, -0.993417349218483 
2.860000000001611, -0.9929235482185843 
2.870000000001632, -0.9927410653136188 
2.8800000000016532, -0.9922078704790027 
2.8900000000016743, -0.9915187976737727 
2.9000000000016954, -0.9912153580417045 
2.9100000000017165, -0.9909626994752119 
2.9200000000017377, -0.9903604857926663 
2.9300000000017588, -0.9897890401632332 
2.94000000000178, -0.9896025756725311 
2.950000000001801, -0.9892458727670261 
2.960000000001822, -0.9886456700127797 
2.970000000001843, -0.9882356529963392 
2.9800000000018643, -0.9880688494312346 
2.9900000000018854, -0.9876325060700685 
3.0000000000019065, -0.9870868851061941 
3.0100000000019276, -0.9868299015661846 
3.0200000000019487, -0.9866148947321749 
3.03000000000197, -0.9861497928749914 
3.040000000001991, -0.9856997764654908 
3.050000000002012, -0.9855392581013834 
3.060000000002033, -0.9852604310089742 
3.070000000002054, -0.9848079957767761 
3.0800000000020753, -0.9844816167529404 
3.0900000000020964, -0.9843473669135541 
3.1000000000021175, -0.984028012235591 
3.1100000000021386, -0.9836153119506236 
3.1200000000021597, -0.9834101086884062 
3.130000000002181, -0.9832555132097163 
3.140000000002202, -0.9829246437972659 
3.150000000002223, -0.9825797512069678 
3.160000000002244, -0.9824610953100693 
3.1700000000022652, -0.982277915251394 
3.1800000000022863, -0.9819508898756754 
3.1900000000023074, -0.9817017642056732 
3.2000000000023285, -0.9816239240757764 
3.2100000000023496, -0.9814245419352338 
3.2200000000023707, -0.9811142359721525 
3.230000000002392, -0.9809720396869257 
3.240000000002413, -0.9809042639215285 
3.250000000002434, -0.9806944140996343 
3.260000000002455, -0.9804291291852266 
3.2700000000024763, -0.9803806687814264 
3.2800000000024974, -0.9803152826462039 
3.2900000000025185, -0.9800893498598637 
3.3000000000025396, -0.9799092936433029 
3.3100000000025607, -0.979929033318564 
3.3200000000025818, -0.9798623703143583 
3.330000000002603, -0.9796253195115521 
3.340000000002624, -0.9795638991664282 
3.350000000002645, -0.9796325628098854 
3.360000000002666, -0.9795448430341095 
3.3700000000026873, -0.9793333190836997 
3.3800000000027084, -0.9794034394979456 
3.3900000000027295, -0.9795087646544592 
3.4000000000027506, -0.9793733806905005 
3.4100000000027717, -0.9792527303822209 
3.420000000002793, -0.9794495384971096 
3.430000000002814, -0.9795626229822958 
3.440000000002835, -0.979378891883636 
3.450000000002856, -0.9794231909951133 
3.460000000002877, -0.9797350184247469 
3.4700000000028983, -0.979798747777686 
3.4800000000029194, -0.9796168252742289 
3.4900000000029405, -0.9798865565825293 
3.5000000000029616, -0.9802834048635574 
3.5100000000029827, -0.9802446577191896 
3.520000000003004, -0.9801693718108923 
3.530000000003025, -0.9806946991071828 
3.540000000003046, -0.9810930467445557 
3.550000000003067, -0.9809513285879907 
3.5600000000030882, -0.9811308111105528 
3.5700000000031094, -0.9818981106830303 
3.5800000000031305, -0.9821726987756073 
3.5900000000031516, -0.9819986663911677 
3.6000000000031727, -0.9825881478795981 
3.6100000000031938, -0.9834990075786134 
3.620000000003215, -0.9835677467064863 
3.630000000003236, -0.9835181887060879 
3.640000000003257, -0.9846093815807795 
3.650000000003278, -0.9854454566594224 
3.6600000000032993, -0.98533455833045 
3.6700000000033204, -0.9856739789846461 
3.6800000000033415, -0.9871945074768366 
3.6900000000033626, -0.98772160181825 
3.7000000000033837, -0.9875399541603528 
3.710000000003405, -0.9885642068571426 
3.720000000003426, -0.9901949302268768 
3.730000000003447, -0.9903465457442361 
3.740000000003468, -0.9903137685902189 
3.750000000003489, -0.9921295079065016 
3.7600000000035103, -0.9934099835058906 
3.7700000000035314, -0.9933041411713405 
3.7800000000035525, -0.9938179206737665 
3.7900000000035736, -0.996092124096604 
3.8000000000035947, -0.9967519714719565 
3.810000000003616, -0.9965610512206702 
3.820000000003637, -0.9979738036359546 
3.830000000003658, -1.000017835779659 
3.840000000003679, -1.0001538905842329 
3.8500000000037002, -1.0001751058077122 
3.8600000000037213, -1.0023541603324142 
3.8700000000037424, -1.00364105635988 
3.8800000000037635, -1.003504169061116 
3.8900000000037847, -1.0041773678723158 
3.9000000000038058, -1.0064149931552826 
3.910000000003827, -1.0069180499769825 
3.920000000003848, -1.006744082330813 
3.930000000003869, -1.0081894410179426 
3.94000000000389, -1.0098014233968884 
3.9500000000039113, -1.0098208660397543 
3.9600000000039324, -1.0099545997810486 
3.9700000000039535, -1.0117016064066668 
3.9800000000039746, -1.0125076036150773 
3.9900000000039957, -1.0123319658173755 
4.000000000004016, -1.0130234372598657 
4.010000000003993, -1.014450959010815 
4.02000000000397, -1.014656431143956 
4.030000000003946, -1.0145467808314155 
4.040000000003923, -1.015599340430347 
4.0500000000039, -1.016444170849466 
4.0600000000038765, -1.0163387443986809 
4.070000000003853, -1.0165456069457492 
4.08000000000383, -1.0175272422382868 
4.090000000003807, -1.0178462199360712 
4.100000000003783, -1.0176648496528207 
4.11000000000376, -1.018174304848909 
4.120000000003737, -1.0188366342403539 
4.130000000003713, -1.018811756550588 
4.14000000000369, -1.018766293595875 
4.150000000003667, -1.0193297478809424 
4.1600000000036434, -1.019637972525527 
4.17000000000362, -1.0194569316996034 
4.180000000003597, -1.0196227964051725 
4.1900000000035735, -1.0200426085947014 
4.20000000000355, -1.0200630921065794 
4.210000000003527, -1.0198991189202606 
4.220000000003504, -1.0201632722802914 
4.23000000000348, -1.0203777858797942 
4.240000000003457, -1.020217416936751 
4.250000000003434, -1.0201785284269593 
4.26000000000341, -1.020396017912392 
4.270000000003387, -1.0204087758204303 
4.280000000003364, -1.0201923830668522 
4.2900000000033405, -1.0202557877488907 
4.300000000003317, -1.0203582584190507 
4.310000000003294, -1.0202086892181208 
4.320000000003271, -1.0200452088227623 
4.330000000003247, -1.0201181682671463 
4.340000000003224, -1.0200857870111477 
4.350000000003201, -1.0198441745534368 
4.360000000003177, -1.0197667014465763 
4.370000000003154, -1.0197776633573752 
4.380000000003131, -1.0196151386632593 
4.390000000003107, -1.019369642953516 
4.400000000003084, -1.0193372939086327 
4.410000000003061, -1.019250694237966 
4.4200000000030375, -1.0189870948384578 
4.430000000003014, -1.018799511649953 
4.440000000002991, -1.0187471832988562 
4.450000000002968, -1.0185521081144224 
4.460000000002944, -1.0182443650836936 
4.470000000002921, -1.018122153551882 
4.480000000002898, -1.0179952881520713 
4.490000000002874, -1.0176998878392043 
4.500000000002851, -1.017415096258919 
4.510000000002828, -1.0173156433181831 
4.520000000002804, -1.0170857950887096 
4.530000000002781, -1.0167207563416225 
4.540000000002758, -1.0165053259672319 
4.5500000000027345, -1.0163605477348423 
4.560000000002711, -1.0160245435156854 
4.570000000002688, -1.0156458380957918 
4.580000000002665, -1.015494942641355 
4.590000000002641, -1.0152489796285231 
4.600000000002618, -1.0148240080177846 
4.610000000002595, -1.014500786636678 
4.620000000002571, -1.0143510374539508 
4.630000000002548, -1.0139824582641674 
4.640000000002525, -1.0135099717824356 
4.6500000000025015, -1.0132829760564224 
4.660000000002478, -1.0130505478468685 
4.670000000002455, -1.0125682970065124 
4.6800000000024315, -1.012121339946863 
4.690000000002408, -1.0119559675907672 
4.700000000002385, -1.011587395789195 
4.710000000002362, -1.011025785799848 
4.720000000002338, -1.0106851180412355 
4.730000000002315, -1.0104856378843468 
4.740000000002292, -1.0099718101915887 
4.750000000002268, -1.0093968628395282 
4.760000000002245, -1.0091776079878714 
4.770000000002222, -1.0088538096541586 
4.7800000000021985, -1.0082248780409735 
4.790000000002175, -1.0077369081478762 
4.800000000002152, -1.0075593262186409 
4.810000000002129, -1.0070688307054225 
4.820000000002105, -1.0063866586893522 
4.830000000002082, -1.006057203280659 
4.840000000002059, -1.0058058610698521 
4.850000000002035, -1.005162393645316 
4.860000000002012, -1.0045242144579911 
4.870000000001989, -1.0043208174541738 
4.880000000001965, -1.0039146908665886 
4.890000000001942, -1.0031784232867949 
4.900000000001919, -1.002692686585349 
4.9100000000018955, -1.0025005483233316 
4.920000000001872, -1.0019203024433438 
4.930000000001849, -1.0011798952938098 
