t, s[1].omega / s[0].omega 
0, -0.5399992184468798 
0.009999999999999995, -0.5399449061320614 
0.019999999999999934, -0.5399237936496952 
0.029999999999999874, -0.5399045134222329 
0.04000000000000012, -0.5398509978301738 
0.050000000000000405, -0.5397337491036258 
0.06000000000000069, -0.5395362990686545 
0.07000000000000098, -0.539255334832682 
0.08000000000000126, -0.538897161450574 
0.09000000000000155, -0.5384743647818653 
0.10000000000000184, -0.5380053289754562 
0.11000000000000212, -0.5375179758252501 
0.12000000000000241, -0.5370589206715255 
0.130000000000002, -0.5367099945734022 
0.1400000000000009, -0.5366148583798156 
0.1499999999999998, -0.5370172194407861 
0.1599999999999987, -0.5383037783771399 
0.1699999999999976, -0.5410183049343967 
0.1799999999999965, -0.5457568913949794 
0.1899999999999954, -0.5528074410981344 
0.1999999999999943, -0.5615610618441912 
0.2099999999999932, -0.5703009521948873 
0.2199999999999921, -0.577159864081337 
0.229999999999991, -0.5815048235531197 
0.2399999999999899, -0.5839897528664478 
0.2499999999999888, -0.5855292669561264 
0.2599999999999877, -0.5866658939874698 
0.2699999999999866, -0.5875921221321401 
0.2799999999999855, -0.5883460538970129 
0.2899999999999844, -0.5889299013935185 
0.2999999999999833, -0.5893481406911211 
0.3099999999999822, -0.5896106646988495 
0.3199999999999811, -0.5897272116240468 
0.32999999999998, -0.5897019892198225 
0.3399999999999789, -0.5895302922305563 
0.3499999999999778, -0.5891973866220078 
0.35999999999997667, -0.5886805229866494 
0.36999999999997557, -0.5879557603789209 
0.37999999999997447, -0.5870105087680069 
0.38999999999997337, -0.5858586211061954 
0.39999999999997227, -0.5845490422701098 
0.40999999999997117, -0.5831586901341123 
0.41999999999997006, -0.5817705443667434 
0.42999999999996896, -0.5804500921441293 
0.43999999999996786, -0.5792334206168521 
0.44999999999996676, -0.5781296578964075 
0.45999999999996566, -0.5771316824849311 
0.46999999999996456, -0.5762277915546654 
0.47999999999996346, -0.5754102099892328 
0.48999999999996235, -0.5746797922428718 
0.49999999999996125, -0.574048202070016 
0.5099999999999602, -0.5735391858361529 
0.519999999999959, -0.5731900183135916 
0.529999999999958, -0.5730535609914825 
0.5399999999999568, -0.573200997899352 
0.5499999999999557, -0.5737251857535458 
0.5599999999999546, -0.5747444402415771 
0.5699999999999535, -0.5764060818952883 
0.5799999999999524, -0.5788875546542952 
0.5899999999999513, -0.5823895245839625 
0.5999999999999502, -0.5871094730017676 
0.6099999999999491, -0.5931781648354865 
0.619999999999948, -0.6005464070277434 
0.6299999999999469, -0.6088501310865397 
0.6399999999999458, -0.6173642954844676 
0.6499999999999447, -0.6251843915491812 
0.6599999999999436, -0.6315946674778457 
0.6699999999999425, -0.6363341862818321 
0.6799999999999414, -0.6395567848735235 
0.6899999999999403, -0.6416066573051501 
0.6999999999999392, -0.6428276144573257 
0.7099999999999381, -0.6434813778890761 
0.719999999999937, -0.6437387836419407 
0.7299999999999359, -0.6436959787776925 
0.7399999999999348, -0.64339042029093 
0.7499999999999337, -0.6428081787305078 
0.7599999999999326, -0.6418804797731225 
0.7699999999999315, -0.6404692179950396 
0.7799999999999304, -0.6383441458310193 
0.7899999999999293, -0.6351653734968158 
0.7999999999999282, -0.6305101494719112 
0.8099999999999271, -0.624009079835118 
0.819999999999926, -0.6156136497802669 
0.8299999999999249, -0.6058358134661738 
0.8399999999999238, -0.5956689683581889 
0.8499999999999227, -0.5861620855919896 
0.8599999999999216, -0.5780128170300378 
0.8699999999999205, -0.5714656334252558 
0.8799999999999194, -0.5664436912525708 
0.8899999999999183, -0.5627215675704859 
0.8999999999999172, -0.5600414314001249 
0.9099999999999161, -0.5581679390108778 
0.919999999999915, -0.5569058869015633 
0.9299999999999139, -0.5561009221541432 
0.9399999999999128, -0.5556343962880468 
0.9499999999999117, -0.555417148143203 
0.9599999999999106, -0.5553838925500881 
0.9699999999999095, -0.5554886698127923 
0.9799999999999084, -0.5557014387570058 
0.9899999999999073, -0.5560057607093288 
0.9999999999999062, -0.5563972743654074 
1.0099999999999052, -0.5568821400826098 
1.019999999999904, -0.5574739586813979 
1.029999999999903, -0.5581873859344071 
1.039999999999902, -0.5590275809467603 
1.0499999999999008, -0.5599772912567312 
1.0599999999998997, -0.5609873209686522 
1.0699999999998986, -0.5619786730433552 
1.0799999999998975, -0.5628607700330781 
1.0899999999998964, -0.5635584994056991 
1.0999999999998953, -0.5640316947534919 
1.1099999999998942, -0.5642762853843822 
1.119999999999893, -0.5643110281734676 
1.129999999999892, -0.5641611022261489 
1.1399999999998909, -0.5638461261778014 
1.1499999999998898, -0.5633736886722529 
1.1599999999998887, -0.5627361541241065 
1.1699999999998876, -0.5619080238652152 
1.1799999999998865, -0.5608411770720504 
1.1899999999998854, -0.5594539113709474 
1.1999999999998843, -0.5576049629521183 
1.2099999999998832, -0.5550347136877143 
1.219999999999882, -0.5512530449813114 
1.229999999999881, -0.5454101976412665 
1.2399999999998799, -0.536397766861229 
1.2499999999998788, -0.5236105138829561 
1.2599999999998777, -0.5080923229187053 
1.2699999999998766, -0.492475732551015 
1.2799999999998755, -0.47925668547660916 
1.2899999999998744, -0.4694593142974006 
1.2999999999998733, -0.46282195424476863 
1.3099999999998722, -0.4585750987977473 
1.319999999999871, -0.4559582170312507 
1.32999999999987, -0.4543932086575989 
1.3399999999998689, -0.453487344911599 
1.3499999999998678, -0.4529878831903497 
1.3599999999998666, -0.4527366146506265 
1.3699999999998655, -0.452636158859742 
1.3799999999998644, -0.4526276603753215 
1.3899999999998633, -0.452677011852835 
1.3999999999998622, -0.4527670213221072 
1.4099999999998611, -0.45289362286747653 
1.41999999999986, -0.4530645277672619 
1.429999999999859, -0.4532984900624445 
1.4399999999998578, -0.45362295399364916 
1.4499999999998567, -0.45406798031648454 
1.4599999999998556, -0.4546556035845538 
1.4699999999998545, -0.45538618336429043 
1.4799999999998534, -0.4562266115149695 
1.4899999999998523, -0.45710822844484433 
1.4999999999998512, -0.4579408070949265 
1.5099999999998501, -0.45863908534878933 
1.519999999999849, -0.4591467451435379 
1.529999999999848, -0.45944375687917455 
1.5399999999998468, -0.4595367954201378 
1.5499999999998457, -0.4594428563883671 
1.5599999999998446, -0.4591748857272589 
1.5699999999998435, -0.45873161505564025 
1.5799999999998424, -0.45808908692760114 
1.5899999999998413, -0.45718945103384867 
1.5999999999998402, -0.45592148858091297 
1.6099999999998391, -0.4540860355850205 
1.619999999999838, -0.4513413751742042 
1.629999999999837, -0.4471431108059466 
1.6399999999998358, -0.4407596306219571 
1.6499999999998347, -0.4315472946654165 
1.6599999999998336, -0.4195760507640475 
1.6699999999998325, -0.40610422210388314 
1.6799999999998314, -0.3930866253103459 
1.6899999999998303, -0.3820420912771713 
1.6999999999998292, -0.3734942004998401 
1.709999999999828, -0.3672302901131866 
1.719999999999827, -0.36276312978580166 
1.729999999999826, -0.35961191077696647 
1.7399999999998248, -0.3573985200767126 
1.7499999999998237, -0.3558535595252007 
1.7599999999998226, -0.35479480869515184 
1.7699999999998215, -0.3541038694693933 
1.7799999999998204, -0.3537083016748886 
1.7899999999998193, -0.353569966013478 
1.7999999999998182, -0.3536786456902622 
1.809999999999817, -0.35405000907883666 
1.819999999999816, -0.3547273224679893 
1.8299999999998149, -0.3557864934168992 
1.8399999999998138, -0.3573435567841295 
1.8499999999998127, -0.35956173795426544 
1.8599999999998116, -0.362650070860126 
1.8699999999998105, -0.36683535080373336 
1.8799999999998094, -0.37227745177254373 
1.8899999999998083, -0.37890928683883474 
1.8999999999998072, -0.3862668513252775 
1.909999999999806, -0.39350879364810937 
1.919999999999805, -0.39976170517300613 
1.9299999999998039, -0.4045431203024716 
1.9399999999998028, -0.4078650752825534 
1.9499999999998017, -0.41002230501418235 
1.9599999999998006, -0.41135355231622384 
1.9699999999997995, -0.41212656503717177 
1.9799999999997984, -0.4125196739917407 
1.9899999999997973, -0.4126391820097665 
1.9999999999997962, -0.41254012929585293 
2.0099999999998173, -0.4122413708952302 
2.0199999999998384, -0.4117356593953775 
2.0299999999998595, -0.41099863425660255 
2.0399999999998806, -0.41000161408413316 
2.0499999999999017, -0.40873157155961837 
2.059999999999923, -0.4072149138929232 
2.069999999999944, -0.4055311437101742 
2.079999999999965, -0.40380048811303987 
2.089999999999986, -0.40214717150587037 
2.100000000000007, -0.4006617196253089 
2.1100000000000283, -0.39938436438257974 
2.1200000000000494, -0.3983113265385153 
2.1300000000000705, -0.3974120839450171 
2.1400000000000916, -0.39664662171680626 
2.1500000000001127, -0.3959777146709591 
2.160000000000134, -0.39537758209006885 
2.170000000000155, -0.3948303159318555 
2.180000000000176, -0.3943322997599723 
2.190000000000197, -0.3938928397605499 
2.2000000000002182, -0.3935368484869536 
2.2100000000002393, -0.39331120813945036 
2.2200000000002604, -0.3932967095686629 
2.2300000000002815, -0.39362807415151624 
2.2400000000003026, -0.3945245263531373 
2.2500000000003237, -0.3963292955714719 
2.260000000000345, -0.39953851576827726 
2.270000000000366, -0.40474801944317773 
2.280000000000387, -0.41235291603254326 
2.290000000000408, -0.4218448488291601 
2.3000000000004293, -0.43113933782975167 
2.3100000000004504, -0.4373636014548066 
2.3200000000004715, -0.43926795789895856 
2.3300000000004926, -0.43814535579638203 
2.3400000000005137, -0.4360578731726739 
2.3500000000005348, -0.4342437683568906 
2.360000000000556, -0.4330398846115533 
2.370000000000577, -0.4323620177180653 
2.380000000000598, -0.43203349996608376 
2.390000000000619, -0.4319058262975212 
2.4000000000006403, -0.4318791155759606 
2.4100000000006614, -0.4318922624805216 
2.4200000000006825, -0.43190944127156505 
2.4300000000007036, -0.43191002126815814 
2.4400000000007247, -0.4318826614319512 
2.450000000000746, -0.43182296213249965 
2.460000000000767, -0.43173386310239775 
2.470000000000788, -0.43162759097617787 
2.480000000000809, -0.43152711629542856 
2.49000000000083, -0.43146450202841313 
2.5000000000008513, -0.4314744132515382 
2.5100000000008724, -0.4315835618292826 
2.5200000000008935, -0.43179943683480115 
2.5300000000009146, -0.4321029292159458 
2.5400000000009357, -0.43244923235478616 
2.550000000000957, -0.432778838596772 
2.560000000000978, -0.4330347135451114 
2.570000000000999, -0.4331766624367372 
2.58000000000102, -0.4331857050631445 
2.5900000000010412, -0.4330587290189659 
2.6000000000010624, -0.4327988680958903 
2.6100000000010835, -0.43240632434631393 
2.6200000000011046, -0.4318708209188783 
2.6300000000011257, -0.4311639353728475 
2.6400000000011468, -0.4302275604575553 
2.650000000001168, -0.42895225040838075 
2.660000000001189, -0.42713512636179984 
2.67000000000121, -0.424404238363035 
2.680000000001231, -0.420113809700667 
2.6900000000012523, -0.4133065526404406 
2.7000000000012734, -0.403029961983518 
2.7100000000012945, -0.3892370657598131 
2.7200000000013156, -0.37355856342635974 
2.7300000000013367, -0.3585924214926939 
2.740000000001358, -0.34623570837797135 
2.750000000001379, -0.3369883506746572 
2.7600000000014, -0.33043794058197473 
2.770000000001421, -0.32591058922032706 
2.780000000001442, -0.322804955577698 
2.7900000000014633, -0.32067735025135363 
2.8000000000014844, -0.31922639692806365 
2.8100000000015055, -0.31825605518020145 
2.8200000000015266, -0.3176434658132633 
2.8300000000015477, -0.3173166474035824 
2.840000000001569, -0.31724090458513043 
2.85000000000159, -0.3174119715470051 
2.860000000001611, -0.31785448059711596 
2.870000000001632, -0.3186250336114481 
2.8800000000016532, -0.319819480771108 
2.8900000000016743, -0.32158342171792026 
2.9000000000016954, -0.32412214474058926 
2.9100000000017165, -0.3276985309304423 
2.9200000000017377, -0.3325919557632634 
2.9300000000017588, -0.3389748407008428 
2.94000000000178, -0.34668965134986995 
2.950000000001801, -0.35505193085027437 
2.960000000001822, -0.36297542947118006 
2.970000000001843, -0.3695022151938932 
2.9800000000018643, -0.3742638352667097 
2.9900000000018854, -0.37744503760919834 
3.0000000000019065, -0.3794544692752435 
3.0100000000019276, -0.38067412990534344 
3.0200000000019487, -0.3813768323438458 
3.03000000000197, -0.38173378679785597 
3.040000000001991, -0.3818437726026235 
3.050000000002012, -0.3817578463746273 
3.060000000002033, -0.38149579431067415 
3.070000000002054, -0.38105736804728274 
3.0800000000020753, -0.38043254555942463 
3.0900000000020964, -0.3796142970855399 
3.1000000000021175, -0.37861423636481034 
3.1100000000021386, -0.3774756368530203 
3.1200000000021597, -0.3762738141189804 
3.130000000002181, -0.3750987768583801 
3.140000000002202, -0.3740285614744398 
3.150000000002223, -0.3731091281265483 
3.160000000002244, -0.3723495365099454 
3.1700000000022652, -0.37172963790943764 
3.1800000000022863, -0.37121308026540467 
3.1900000000023074, -0.37075998804944177 
3.2000000000023285, -0.3703361197604158 
3.2100000000023496, -0.3699172759892325 
3.2200000000023707, -0.3694896454161485 
3.230000000002392, -0.36904807637752024 
3.240000000002413, -0.3685943403841033 
3.250000000002434, -0.36813671681839055 
3.260000000002455, -0.3676913941341167 
3.2700000000024763, -0.36728530094779094 
3.2800000000024974, -0.3669579233338568 
3.2900000000025185, -0.36675326333603375 
3.3000000000025396, -0.36667556753761804 
3.3100000000025607, -0.3665469849661731 
3.3200000000025818, -0.36568441728455997 
3.330000000002603, -0.36250309646867696 
3.340000000002624, -0.35483618292412167 
3.350000000002645, -0.341907641774881 
3.360000000002666, -0.32611073570642424 
3.3700000000026873, -0.3112944187346541 
3.3800000000027084, -0.29974494257028483 
3.3900000000027295, -0.29166943124492684 
3.4000000000027506, -0.2863147682932702 
3.4100000000027717, -0.28283491519323134 
3.420000000002793, -0.2805842841065961 
3.430000000002814, -0.2791326803020221 
3.440000000002835, -0.27820945277590825 
3.450000000002856, -0.27764971385708964 
3.460000000002877, -0.27735702716588373 
3.4700000000028983, -0.2772806311226787 
3.4800000000029194, -0.2774029950709261 
3.4900000000029405, -0.27773455248900086 
3.5000000000029616, -0.27831372981790875 
3.5100000000029827, -0.2792111458256626 
3.520000000003004, -0.28053675311291376 
3.530000000003025, -0.28244697257577506 
3.540000000003046, -0.2851437932677686 
3.550000000003067, -0.2888472327745143 
3.5600000000030882, -0.29371026871119826 
3.5700000000031094, -0.29965886515022083 
3.5800000000031305, -0.3062318155169445 
3.5900000000031516, -0.3126267077187511 
3.6000000000031727, -0.31805814680522715 
3.6100000000031938, -0.3221402050854149 
3.620000000003215, -0.3249335344146916 
3.630000000003236, -0.32672470047284186 
3.640000000003257, -0.327816267095136 
3.650000000003278, -0.32843808613748415 
3.6600000000032993, -0.3287396924040366 
3.6700000000033204, -0.32880907272894755 
3.6800000000033415, -0.3286922238932996 
3.6900000000033626, -0.3284076933992627 
3.7000000000033837, -0.3279577038692828 
3.710000000003405, -0.3273391092359995 
3.720000000003426, -0.326556363206514 
3.730000000003447, -0.3256350343893404 
3.740000000003468, -0.32462935012159716 
3.750000000003489, -0.3236161285696662 
3.7600000000035103, -0.32267515146007525 
3.7700000000035314, -0.32186670604219364 
3.7800000000035525, -0.32121834963569734 
3.7900000000035736, -0.3207243594408504 
3.8000000000035947, -0.3203538981340771 
3.810000000003616, -0.32006286425935726 
3.820000000003637, -0.3198057489159364 
3.830000000003658, -0.31954444966256873 
3.840000000003679, -0.319251995970939 
3.8500000000037002, -0.31891133359182655 
3.8600000000037213, -0.3185111062983784 
3.8700000000037424, -0.31804035016346743 
3.8800000000037635, -0.31748255976911344 
3.8900000000037847, -0.3168075440559368 
3.9000000000038058, -0.3159566947421892 
3.910000000003827, -0.3148124446728769 
3.920000000003848, -0.313135008078759 
3.930000000003869, -0.31044683275671653 
3.94000000000389, -0.3058906680847223 
3.9500000000039113, -0.2982778161645244 
3.9600000000039324, -0.2867902487506232 
3.9700000000039535, -0.2722392137267724 
3.9800000000039746, -0.2572104379504373 
3.9900000000039957, -0.24426335983043362 
4.000000000004016, -0.23444272939865413 
4.010000000003993, -0.2275031395028737 
4.02000000000397, -0.22273925088230198 
4.030000000003946, -0.21948214339216685 
4.040000000003923, -0.21723913804108141 
4.0500000000039, -0.21568250589819873 
4.0600000000038765, -0.2146053272457804 
4.070000000003853, -0.213883358901877 
4.08000000000383, -0.21344982017846575 
4.090000000003807, -0.21328160253034337 
4.100000000003783, -0.21339479310493997 
4.11000000000376, -0.213848816373346 
4.120000000003737, -0.21476040366181928 
4.130000000003713, -0.2163306042565723 
4.14000000000369, -0.21888909352599306 
4.150000000003667, -0.2229552533301559 
4.1600000000036434, -0.22928844416210384 
4.17000000000362, -0.23881256168667275 
4.180000000003597, -0.2521373920658202 
4.1900000000035735, -0.2684596985867761 
4.20000000000355, -0.2847440273858518 
4.210000000003527, -0.29728377134621553 
4.220000000003504, -0.30469744891800554 
4.23000000000348, -0.3082184955488168 
4.240000000003457, -0.30966665990182846 
4.250000000003434, -0.31023371275675254 
4.26000000000341, -0.31047356789317704 
4.270000000003387, -0.31059776408061257 
4.280000000003364, -0.31067645990206433 
4.2900000000033405, -0.3107297635956877 
4.300000000003317, -0.31076245383805945 
4.310000000003294, -0.3107760256745034 
4.320000000003271, -0.3107730453155534 
4.330000000003247, -0.31075960041652945 
4.340000000003224, -0.310747833334177 
4.350000000003201, -0.3107587620436559 
4.360000000003177, -0.31082439180852595 
4.370000000003154, -0.31098735578863407 
4.380000000003131, -0.31129639131448095 
4.390000000003107, -0.31179681410114723 
4.400000000003084, -0.31251620426265264 
4.410000000003061, -0.3134472820272869 
4.4200000000030375, -0.31453437189273065 
4.430000000003014, -0.3156751914919676 
4.440000000002991, -0.31674616057887284 
4.450000000002968, -0.3176414501253723 
4.460000000002944, -0.3183009309816291 
4.470000000002921, -0.31871150647755747 
4.480000000002898, -0.318888769396182 
4.490000000002874, -0.3188550810182881 
4.500000000002851, -0.31862331116300174 
4.510000000002828, -0.3181864991846857 
4.520000000002804, -0.31751007813347365 
4.530000000002781, -0.31652426780534515 
4.540000000002758, -0.3151183506707258 
4.5500000000027345, -0.3131464714424612 
4.560000000002711, -0.3104647582376808 
4.570000000002688, -0.30701650195986097 
4.580000000002665, -0.30293649661480004 
4.590000000002641, -0.2985756928838362 
4.600000000002618, -0.294375053512763 
4.610000000002595, -0.29067678864559465 
4.620000000002571, -0.28762916271047845 
4.630000000002548, -0.28521734388093267 
4.640000000002525, -0.2833429636302683 
4.6500000000025015, -0.2818875150977743 
4.660000000002478, -0.28074501934868173 
4.670000000002455, -0.2798334095971432 
4.6800000000024315, -0.2790956555265296 
4.690000000002408, -0.27849739718201405 
4.700000000002385, -0.27802461278368557 
4.710000000002362, -0.27768325692755347 
4.720000000002338, -0.27750227213169243 
4.730000000002315, -0.2775415139437615 
4.740000000002292, -0.27790665664959335 
4.750000000002268, -0.2787732510237144 
4.760000000002245, -0.28041875131730176 
4.770000000002222, -0.28324461590509076 
4.7800000000021985, -0.28771578217725746 
4.790000000002175, -0.2940267458434591 
4.800000000002152, -0.30126530377869465 
4.810000000002129, -0.3065778817334187 
4.820000000002105, -0.3064468583186865 
4.830000000002082, -0.3003617584220287 
4.840000000002059, -0.2915507785044958 
4.850000000002035, -0.2834137391143642 
4.860000000002012, -0.27732939240695453 
4.870000000001989, -0.27322261310339746 
