t, s[1].omega / s[0].omega 
0, -0.19983457384363054 
0.009999999999999995, -0.1846157409358051 
0.019999999999999934, -0.17298148633837537 
0.029999999999999874, -0.1649066606340115 
0.04000000000000012, -0.15951729981609186 
0.050000000000000405, -0.15593928058078999 
0.06000000000000069, -0.15353926672664306 
0.07000000000000098, -0.15190871545151355 
0.08000000000000126, -0.15079740088038399 
0.09000000000000155, -0.1500586268584659 
0.10000000000000184, -0.14961449795168955 
0.11000000000000212, -0.1494374222493024 
0.12000000000000241, -0.14954397210331824 
0.130000000000002, -0.149999741916993 
0.1400000000000009, -0.1509367815884142 
0.1499999999999998, -0.15258818123334555 
0.1599999999999987, -0.15534575399169986 
0.1699999999999976, -0.15983757871173704 
0.1799999999999965, -0.16697025645812485 
0.1899999999999954, -0.1777131270063838 
0.1999999999999943, -0.19214187982109504 
0.2099999999999932, -0.20774358134278348 
0.2199999999999921, -0.2195399759394146 
0.229999999999991, -0.2244236958883837 
0.2399999999999899, -0.22397828373359302 
0.2499999999999888, -0.22149404926120458 
0.2599999999999877, -0.21898701744453594 
0.2699999999999866, -0.21708256389020492 
0.2799999999999855, -0.21578366276538782 
0.2899999999999844, -0.21493973751632325 
0.2999999999999833, -0.21440924595545324 
0.3099999999999822, -0.21409288685272979 
0.3199999999999811, -0.21392978383080727 
0.32999999999998, -0.21388814681291396 
0.3399999999999789, -0.2139585405439866 
0.3499999999999778, -0.21415097822458007 
0.35999999999997667, -0.21449547452646506 
0.36999999999997557, -0.21504542990996084 
0.37999999999997447, -0.21588295596995138 
0.38999999999997337, -0.21712426861637962 
0.39999999999997227, -0.21892040071910773 
0.40999999999997117, -0.2214419641525714 
0.41999999999997006, -0.2248275577178011 
0.42999999999996896, -0.22907850793243356 
0.43999999999996786, -0.23393326422079147 
0.44999999999996676, -0.23885028792019827 
0.45999999999996566, -0.24321391649174634 
0.46999999999996456, -0.24663248950746047 
0.47999999999996346, -0.24905135364225545 
0.48999999999996235, -0.250636859492288 
0.49999999999996125, -0.25161172592554126 
0.5099999999999602, -0.25216300899481836 
0.519999999999959, -0.2524196430574875 
0.529999999999958, -0.2524605868944171 
0.5399999999999568, -0.25232923624910153 
0.5499999999999557, -0.2520462501536925 
0.5599999999999546, -0.2516206307791414 
0.5699999999999535, -0.2510608018201001 
0.5799999999999524, -0.25038610971543407 
0.5899999999999513, -0.24963584347687612 
0.5999999999999502, -0.24887021598608502 
0.6099999999999491, -0.24816006894328768 
0.619999999999948, -0.24756942902754392 
0.6299999999999469, -0.24713995535628147 
0.6399999999999458, -0.2468832277637362 
0.6499999999999447, -0.24678074178321255 
0.6599999999999436, -0.2467895240941092 
0.6699999999999425, -0.24685244144173243 
0.6799999999999414, -0.24691145231580655 
0.6899999999999403, -0.24691914223411815 
0.6999999999999392, -0.24684362535908946 
0.7099999999999381, -0.24666576045158273 
0.719999999999937, -0.24637143380153587 
0.7299999999999359, -0.2459419728990174 
0.7399999999999348, -0.24534349322986665 
0.7499999999999337, -0.24451355970310074 
0.7599999999999326, -0.2433424759175046 
0.7699999999999315, -0.24164883068118798 
0.7799999999999304, -0.23916050864309152 
0.7899999999999293, -0.23554170519965606 
0.7999999999999282, -0.23053783754727575 
0.8099999999999271, -0.22424743098059047 
0.819999999999926, -0.21729434895600655 
0.8299999999999249, -0.21059181685387837 
0.8399999999999238, -0.2048515484151577 
0.8499999999999227, -0.20033208309274012 
0.8599999999999216, -0.19694240661670903 
0.8699999999999205, -0.19445007991583088 
0.8799999999999194, -0.19261722047361518 
0.8899999999999183, -0.19125201068985792 
0.8999999999999172, -0.19021572729385183 
0.9099999999999161, -0.18941478267894027 
0.919999999999915, -0.18879078728505883 
0.9299999999999139, -0.1883129569294809 
0.9399999999999128, -0.1879740654041601 
0.9499999999999117, -0.18779040589146878 
0.9599999999999106, -0.18780626384900112 
0.9699999999999095, -0.1881032604344998 
0.9799999999999084, -0.18881271687424098 
0.9899999999999073, -0.19011902451310603 
0.9999999999999062, -0.19220762774948927 
1.0099999999999052, -0.19502571978027072 
1.019999999999904, -0.19763795749339033 
1.029999999999903, -0.19737791106325292 
1.039999999999902, -0.19067185175063442 
1.0499999999999008, -0.17708432427314375 
1.0599999999998997, -0.16108558285519564 
1.0699999999998986, -0.1474094489026525 
1.0799999999998975, -0.13762351998917816 
1.0899999999998964, -0.13115946402699286 
1.0999999999998953, -0.12698762384953152 
1.1099999999998942, -0.12428510457498584 
1.119999999999893, -0.1225147982069363 
1.129999999999892, -0.12135162880247782 
1.1399999999998909, -0.12060717367972665 
1.1499999999998898, -0.12017996658711272 
1.1599999999998887, -0.1200280463289904 
1.1699999999998876, -0.12015750969397118 
1.1799999999998865, -0.12062377332634648 
1.1899999999998854, -0.12154582799059373 
1.1999999999998843, -0.12313730573425749 
1.2099999999998832, -0.1257607212913162 
1.219999999999882, -0.1300063906154919 
1.229999999999881, -0.13675976848676002 
1.2399999999998799, -0.14708392518217167 
1.2499999999998788, -0.16147822460031933 
1.2599999999998777, -0.1782705307527994 
1.2699999999998766, -0.1930157441124985 
1.2799999999998755, -0.20183501773520537 
1.2899999999998744, -0.20493862039697555 
1.2999999999998733, -0.2049714927073139 
1.3099999999998722, -0.20404703408350328 
1.319999999999871, -0.20309496030411417 
1.32999999999987, -0.20236639729250966 
1.3399999999998689, -0.20186702748968646 
1.3499999999998678, -0.2015460067936728 
1.3599999999998666, -0.20135572736631574 
1.3699999999998655, -0.20126494834514097 
1.3799999999998644, -0.201259104408854 
1.3899999999998633, -0.20133893194691205 
1.3999999999998622, -0.20152053963515026 
1.4099999999998611, -0.20183754480536362 
1.41999999999986, -0.20234505464821959 
1.429999999999859, -0.20312467793040495 
1.4399999999998578, -0.20428860750321615 
1.4499999999998567, -0.20597790675131625 
1.4599999999998556, -0.20834399353676414 
1.4699999999998545, -0.21149520674355288 
1.4799999999998534, -0.21539838745152678 
1.4899999999998523, -0.21977806029433822 
1.4999999999998512, -0.22413186273006067 
1.5099999999998501, -0.22793395964133162 
1.519999999999849, -0.23087929370964888 
1.529999999999848, -0.2329487397197803 
1.5399999999998468, -0.2342962491537745 
1.5499999999998457, -0.23511330593012478 
1.5599999999998446, -0.23555754571262305 
1.5699999999998435, -0.23573664117304993 
1.5799999999998424, -0.2357157450787605 
1.5899999999998413, -0.23552980253917583 
1.5999999999998402, -0.2351950063657914 
1.6099999999998391, -0.23471956425780466 
1.619999999999838, -0.23411503080726864 
1.629999999999837, -0.23340751355962377 
1.6399999999998358, -0.23264461614183993 
1.6499999999998347, -0.23189263389050874 
1.6599999999998336, -0.23122299916224645 
1.6699999999998325, -0.23069453787545666 
1.6799999999998314, -0.23034030882702466 
1.6899999999998303, -0.23016258512943955 
1.6999999999998292, -0.2301344118136508 
1.709999999999828, -0.23020613486963876 
1.719999999999827, -0.23031665635905627 
1.729999999999826, -0.23040721914045478 
1.7399999999998248, -0.23043225684196308 
1.7499999999998237, -0.23036258173277036 
1.7599999999998226, -0.23018086665367213 
1.7699999999998215, -0.229872826607477 
1.7799999999998204, -0.22941704356842618 
1.7899999999998193, -0.2287738462408923 
1.7999999999998182, -0.22787165225588635 
1.809999999999817, -0.2265893752754101 
1.819999999999816, -0.2247386314163467 
1.8299999999998149, -0.22206509787657894 
1.8399999999998138, -0.21831434926585702 
1.8499999999998127, -0.21340449868197017 
1.8599999999998116, -0.20763055094452065 
1.8699999999998105, -0.2016583505786958 
1.8799999999998094, -0.1962041181993218 
1.8899999999998083, -0.19169535879749094 
1.8999999999998072, -0.18820655799460315 
1.909999999999806, -0.1855992394420593 
1.919999999999805, -0.1836708911564591 
1.9299999999998039, -0.18223475494522529 
1.9399999999998028, -0.1811451465585006 
1.9499999999998017, -0.1802978464286121 
1.9599999999998006, -0.1796230101824538 
1.9699999999997995, -0.17907767012578021 
1.9799999999997984, -0.1786401410135002 
1.9899999999997973, -0.17830700183487175 
1.9999999999997962, -0.17809276555225742 
2.0099999999998173, -0.17803173880579193 
2.0199999999998384, -0.17817949622752366 
2.0299999999998595, -0.17860415686482195 
2.0399999999998806, -0.17933585578340264 
2.0499999999999017, -0.18019157305510644 
2.059999999999923, -0.1803391395560276 
2.069999999999944, -0.1776974742270309 
2.079999999999965, -0.1693757788444387 
2.089999999999986, -0.1547037525217026 
2.100000000000007, -0.13745828075033673 
2.1100000000000283, -0.12241007335729712 
2.1200000000000494, -0.11147980247939149 
2.1300000000000705, -0.10420896936796378 
2.1400000000000916, -0.09950095746482354 
2.1500000000001127, -0.09643897468514198 
2.160000000000134, -0.09441570946904913 
2.170000000000155, -0.09306116009272479 
2.180000000000176, -0.09215891876860613 
2.190000000000197, -0.09158937220878706 
2.2000000000002182, -0.09129760589275365 
2.2100000000002393, -0.09127902425756407 
2.2200000000002604, -0.0915786670362703 
2.2300000000002815, -0.09230408478933512 
2.2400000000003026, -0.0936553791153542 
2.2500000000003237, -0.09597823312118826 
2.260000000000345, -0.09983790265406388 
2.270000000000366, -0.10605966552171522 
2.280000000000387, -0.11549335180238776 
2.290000000000408, -0.12792180235652623 
2.3000000000004293, -0.14006383055176708 
2.3100000000004504, -0.14606002472324223 
2.3200000000004715, -0.1435345776695098 
2.3300000000004926, -0.13631227344791602 
2.3400000000005137, -0.12898441621506387 
2.3500000000005348, -0.1234168605647934 
2.360000000000556, -0.11963564697784908 
2.370000000000577, -0.11716392342190123 
2.380000000000598, -0.11556254283071662 
2.390000000000619, -0.11453130418242692 
2.4000000000006403, -0.11388640290773797 
2.4100000000006614, -0.11352435450834712 
2.4200000000006825, -0.11339672643169418 
2.4300000000007036, -0.11349711765444503 
2.4400000000007247, -0.11385842337764265 
2.450000000000746, -0.11455968693931746 
2.460000000000767, -0.11574396447804185 
2.470000000000788, -0.11765042530736951 
2.480000000000809, -0.12066267406688165 
2.49000000000083, -0.1253608389325404 
2.5000000000008513, -0.1325095631369689 
2.5100000000008724, -0.14278563096348743 
2.5200000000008935, -0.1559877371876976 
2.5300000000009146, -0.17012169983228662 
2.5400000000009357, -0.18204370664121855 
2.550000000000957, -0.18989710165328474 
2.560000000000978, -0.19412068600684035 
2.570000000000999, -0.19611264299274772 
2.58000000000102, -0.19699451022088105 
2.5900000000010412, -0.197379368679387 
2.6000000000010624, -0.19754893188614003 
2.6100000000010835, -0.19762381071198487 
2.6200000000011046, -0.1976557763982027 
2.6300000000011257, -0.19766953574245752 
2.6400000000011468, -0.1976809547511801 
2.650000000001168, -0.19770583508716388 
2.660000000001189, -0.19776541517956286 
2.67000000000121, -0.19789091188715388 
2.680000000001231, -0.19812748609154476 
2.6900000000012523, -0.19853693328530958 
2.7000000000012734, -0.19919766731912097 
2.7100000000012945, -0.20019942653418554 
2.7200000000013156, -0.20162775415287942 
2.7300000000013367, -0.20353145166335454 
2.740000000001358, -0.2058730619124287 
2.750000000001379, -0.20848740286898132 
2.7600000000014, -0.21109907603754502 
2.770000000001421, -0.21342079340935066 
2.780000000001442, -0.21526778266924596 
2.7900000000014633, -0.2165976053037122 
2.8000000000014844, -0.21746760083144162 
2.8100000000015055, -0.21796992874963256 
2.8200000000015266, -0.21818845505478185 
2.8300000000015477, -0.21818225409050246 
2.840000000001569, -0.21798436639013818 
2.85000000000159, -0.21760663409982955 
2.860000000001611, -0.2170473299142698 
2.870000000001632, -0.21630200931656823 
2.8800000000016532, -0.21537823258792285 
2.8900000000016743, -0.21431094509770734 
2.9000000000016954, -0.2131695474599363 
2.9100000000017165, -0.21204769656285727 
2.9200000000017377, -0.2110381267935141 
2.9300000000017588, -0.2102073858868485 
2.94000000000178, -0.2095837740924297 
2.950000000001801, -0.20915917729413444 
2.960000000001822, -0.20889790986095463 
2.970000000001843, -0.20874756965173985 
2.9800000000018643, -0.20865047500420908 
2.9900000000018854, -0.20855417494873815 
3.0000000000019065, -0.20841803838324932 
3.0100000000019276, -0.2082138311063785 
3.0200000000019487, -0.20792096360592063 
3.03000000000197, -0.2075186027980643 
3.040000000001991, -0.20697592988497798 
3.050000000002012, -0.2062397482060711 
3.060000000002033, -0.20521697668247518 
3.070000000002054, -0.20375013823563978 
3.0800000000020753, -0.20159164841198707 
3.0900000000020964, -0.19840739437147895 
3.1000000000021175, -0.19388028136050822 
3.1100000000021386, -0.18796707621947636 
3.1200000000021597, -0.1811543919713444 
3.130000000002181, -0.1743490557454209 
3.140000000002202, -0.16838138543661757 
3.150000000002223, -0.1636333616646534 
3.160000000002244, -0.16007282073253645 
3.1700000000022652, -0.1574736288161115 
3.1800000000022863, -0.15558294498034878 
3.1900000000023074, -0.15419085880885902 
3.2000000000023285, -0.1531432284112289 
3.2100000000023496, -0.15233413500483883 
3.2200000000023707, -0.1516947402793935 
3.230000000002392, -0.15118398557339088 
3.240000000002413, -0.15078231936266934 
3.250000000002434, -0.15048841634119656 
3.260000000002455, -0.15031835753370895 
3.2700000000024763, -0.15030560062882498 
3.2800000000024974, -0.150496041632123 
3.2900000000025185, -0.15091980229422394 
3.3000000000025396, -0.15148808953490572 
3.3100000000025607, -0.1517062462367355 
3.3200000000025818, -0.15013504377691766 
3.330000000002603, -0.14416734145508586 
3.340000000002624, -0.1318366774511255 
3.350000000002645, -0.11509553881993677 
3.360000000002666, -0.09885649957746026 
3.3700000000026873, -0.08634121547965329 
3.3800000000027084, -0.07781951326693064 
3.3900000000027295, -0.07228476642954297 
3.4000000000027506, -0.06870389406858113 
3.4100000000027717, -0.0663507518466043 
3.420000000002793, -0.06477400367237045 
3.430000000002814, -0.06370640666634383 
3.440000000002835, -0.06299579100335548 
3.450000000002856, -0.06256375057373233 
3.460000000002877, -0.06238469186701386 
3.4700000000028983, -0.06247947327290441 
3.4800000000029194, -0.06292156068398444 
3.4900000000029405, -0.0638568089805016 
3.5000000000029616, -0.06553883368633098 
3.5100000000029827, -0.06837215046122176 
3.520000000003004, -0.0729032720258738 
3.530000000003025, -0.07952696964968417 
3.540000000003046, -0.08739362837401479 
3.550000000003067, -0.09266357115864328 
3.5600000000030882, -0.08980573753993193 
3.5700000000031094, -0.07843355025317551 
3.5800000000031305, -0.06458851564866817 
3.5900000000031516, -0.05327130009537617 
3.6000000000031727, -0.04552458338165001 
3.6100000000031938, -0.04055106841812369 
3.620000000003215, -0.037387851066088336 
3.630000000003236, -0.035353026061656724 
3.640000000003257, -0.0340299808722756 
3.650000000003278, -0.03317913902220647 
3.6600000000032993, -0.03267141061614954 
3.6700000000033204, -0.03245022113716957 
3.6800000000033415, -0.03251486503970249 
3.6900000000033626, -0.03292032154775375 
3.7000000000033837, -0.03379349281551842 
3.710000000003405, -0.03537068357996446 
3.720000000003426, -0.03806375426008954 
3.730000000003447, -0.042549163156403065 
3.740000000003468, -0.04978943068819693 
3.750000000003489, -0.06060419163106122 
3.7600000000035103, -0.07401373176033563 
3.7700000000035314, -0.08505791913971136 
3.7800000000035525, -0.08758763054753335 
3.7900000000035736, -0.08186963348807587 
3.8000000000035947, -0.07348074671786776 
3.810000000003616, -0.06633946412688953 
3.820000000003637, -0.06131805694874688 
3.830000000003658, -0.05801596122632883 
3.840000000003679, -0.055877937365046905 
3.8500000000037002, -0.054493834555585895 
3.8600000000037213, -0.05360711170619474 
3.8700000000037424, -0.05307066206103668 
3.8800000000037635, -0.052810849649865196 
3.8900000000037847, -0.052807593379390894 
3.9000000000038058, -0.0530885015141373 
3.910000000003827, -0.053736084576787066 
3.920000000003848, -0.05491052441163642 
3.930000000003869, -0.05689452496387165 
3.94000000000389, -0.060168422660403634 
3.9500000000039113, -0.06550778868396209 
3.9600000000039324, -0.0740071247886849 
3.9700000000039535, -0.086664616403446 
3.9800000000039746, -0.1029118657073034 
3.9900000000039957, -0.1188749549746895 
4.000000000004016, -0.12937182987625062 
4.010000000003993, -0.13311943924278996 
4.02000000000397, -0.13281547177049066 
4.030000000003946, -0.13123065301462009 
4.040000000003923, -0.1296688238044841 
4.0500000000039, -0.12847496722545443 
4.0600000000038765, -0.12764287634471 
4.070000000003853, -0.12709059048631213 
4.08000000000383, -0.12674526407742576 
4.090000000003807, -0.12656012350954873 
4.100000000003783, -0.12651378496833918 
4.11000000000376, -0.12660792109816485 
4.120000000003737, -0.1268676912083792 
4.130000000003713, -0.12734623715352372 
4.14000000000369, -0.1281340570933202 
4.150000000003667, -0.12937400679346203 
4.1600000000036434, -0.13128122680252935 
4.17000000000362, -0.13416038157710397 
4.180000000003597, -0.13839177573324593 
4.1900000000035735, -0.14431796891803547 
4.20000000000355, -0.15194923871292457 
4.210000000003527, -0.16058585224574823 
4.220000000003504, -0.16885175464824295 
4.23000000000348, -0.17546831194955673 
4.240000000003457, -0.18000994321230573 
4.250000000003434, -0.1828151229415048 
4.26000000000341, -0.18445124074650637 
4.270000000003387, -0.18538000431047408 
4.280000000003364, -0.18589441543602694 
4.2900000000033405, -0.18616193382555707 
4.300000000003317, -0.18627513308119026 
4.310000000003294, -0.18628599236379895 
4.320000000003271, -0.18622629213764064 
4.330000000003247, -0.186120132590074 
4.340000000003224, -0.1859925996533976 
4.350000000003201, -0.18587616691168557 
4.360000000003177, -0.18581456079872732 
4.370000000003154, -0.18586302446924724 
4.380000000003131, -0.186084349170494 
4.390000000003107, -0.18654064491850428 
4.400000000003084, -0.187280167389298 
4.410000000003061, -0.18831788214150208 
4.4200000000030375, -0.18961275284937643 
4.430000000003014, -0.19105595246461227 
4.440000000002991, -0.19249001611621303 
4.450000000002968, -0.19375976599398287 
4.460000000002944, -0.19476296044892896 
4.470000000002921, -0.19546632139042333 
4.480000000002898, -0.19588642446568763 
4.490000000002874, -0.19605940833237703 
4.500000000002851, -0.19601815200876987 
4.510000000002828, -0.19578077856091827 
4.520000000002804, -0.1953471661124343 
4.530000000002781, -0.194700635068606 
4.540000000002758, -0.19381515545044045 
4.5500000000027345, -0.19267061202759958 
4.560000000002711, -0.19127632393600275 
4.570000000002688, -0.18969359175483935 
4.580000000002665, -0.18803814682248426 
4.590000000002641, -0.18645074464823552 
4.600000000002618, -0.18505129582984808 
4.610000000002595, -0.18390735206869077 
4.620000000002571, -0.18303083786436875 
4.630000000002548, -0.1823928474429522 
4.640000000002525, -0.1819414910101257 
4.6500000000025015, -0.18161619929317455 
4.660000000002478, -0.181358263705525 
4.670000000002455, -0.18111790314898552 
4.6800000000024315, -0.1808570522022515 
4.690000000002408, -0.1805475463593213 
4.700000000002385, -0.1801656718319293 
4.710000000002362, -0.1796842382808479 
4.720000000002338, -0.17906203148615182 
4.730000000002315, -0.17822851476840726 
4.740000000002292, -0.17706010349917117 
4.750000000002268, -0.17534614205614862 
4.760000000002245, -0.17275699784865195 
4.770000000002222, -0.16886911345847838 
4.7800000000021985, -0.1633546079357023 
4.790000000002175, -0.15635447981074552 
4.800000000002152, -0.1486921460067238 
4.810000000002129, -0.1414957227892205 
4.820000000002105, -0.13554218637988702 
