t, s[1].omega / s[0].omega 
0, -0.6499977101502468 
0.009999999999999995, -0.6497640556512967 
0.019999999999999934, -0.6495166567599604 
0.029999999999999874, -0.6492444407058342 
0.04000000000000012, -0.6489353442752893 
0.050000000000000405, -0.6485818151894771 
0.06000000000000069, -0.6481838259820095 
0.07000000000000098, -0.6477493860325441 
0.08000000000000126, -0.6472942517539761 
0.09000000000000155, -0.6468426558045426 
0.10000000000000184, -0.6464300792678793 
0.11000000000000212, -0.6461082751869835 
0.12000000000000241, -0.6459521827621773 
0.130000000000002, -0.6460678502078305 
0.1400000000000009, -0.6465997268021353 
0.1499999999999998, -0.6477344171287236 
0.1599999999999987, -0.6496958438473932 
0.1699999999999976, -0.6527234057287894 
0.1799999999999965, -0.6570211135151631 
0.1899999999999954, -0.6626675711581109 
0.1999999999999943, -0.6694979464290239 
0.2099999999999932, -0.6770207796538259 
0.2199999999999921, -0.6844785340534167 
0.229999999999991, -0.6910975301613191 
0.2399999999999899, -0.6963839243431915 
0.2499999999999888, -0.7002402175530617 
0.2599999999999877, -0.7028572601639962 
0.2699999999999866, -0.7045307341583056 
0.2799999999999855, -0.7055348049928665 
0.2899999999999844, -0.7060750458750792 
0.2999999999999833, -0.706287152459192 
0.3099999999999822, -0.7062501049765312 
0.3199999999999811, -0.7059984370579657 
0.32999999999998, -0.7055285695299875 
0.3399999999999789, -0.7047981369863688 
0.3499999999999778, -0.7037183842464061 
0.35999999999997667, -0.7021411439434302 
0.36999999999997557, -0.6998468416528695 
0.37999999999997447, -0.6965517741930036 
0.38999999999997337, -0.6919687290510527 
0.39999999999997227, -0.6859495903226283 
0.40999999999997117, -0.6786678430391851 
0.41999999999997006, -0.6706902287715619 
0.42999999999996896, -0.662811626212843 
0.43999999999996786, -0.65574817551147 
0.44999999999996676, -0.6499210449016105 
0.45999999999996566, -0.645434445541243 
0.46999999999996456, -0.6421750507599077 
0.47999999999996346, -0.6399274227606435 
0.48999999999996235, -0.638455177098107 
0.49999999999996125, -0.6375440145503655 
0.5099999999999602, -0.6370185489515673 
0.519999999999959, -0.6367445223653344 
0.529999999999958, -0.6366240163887537 
0.5399999999999568, -0.6365880627458541 
0.5499999999999557, -0.6365891133315315 
0.5599999999999546, -0.6365947221459066 
0.5699999999999535, -0.6365831373231218 
0.5799999999999524, -0.6365410126839367 
0.5899999999999513, -0.6364628525559619 
0.5999999999999502, -0.6363509929352368 
0.6099999999999491, -0.6362143072312226 
0.619999999999948, -0.6360643079086927 
0.6299999999999469, -0.6359092644463655 
0.6399999999999458, -0.6357491233264352 
0.6499999999999447, -0.6355743405151894 
0.6599999999999436, -0.6353695563309301 
0.6699999999999425, -0.6351199659153041 
0.6799999999999414, -0.6348168130134313 
0.6899999999999403, -0.6344597859356492 
0.6999999999999392, -0.6340567524524414 
0.7099999999999381, -0.6336229040741027 
0.719999999999937, -0.6331812906247443 
0.7299999999999359, -0.6327658477319489 
0.7399999999999348, -0.6324272948011409 
0.7499999999999337, -0.6322418670790785 
0.7599999999999326, -0.6323223930008834 
0.7699999999999315, -0.6328302563691047 
0.7799999999999304, -0.6339847313566038 
0.7899999999999293, -0.6360623092253416 
0.7999999999999282, -0.6393724028772656 
0.8099999999999271, -0.6441891873478677 
0.819999999999926, -0.6506229231245294 
0.8299999999999249, -0.658452037549519 
0.8399999999999238, -0.6670221148938852 
0.8499999999999227, -0.6753713205366717 
0.8599999999999216, -0.682599904908136 
0.8699999999999205, -0.6882239760622803 
0.8799999999999194, -0.6922382743119233 
0.8899999999999183, -0.6949253837553292 
0.8999999999999172, -0.696636253400839 
0.9099999999999161, -0.6976691169330839 
0.919999999999915, -0.6982374607425723 
0.9299999999999139, -0.698478891939194 
0.9399999999999128, -0.6984728793895424 
0.9499999999999117, -0.6982546794195842 
0.9599999999999106, -0.697822361906175 
0.9699999999999095, -0.697136969432447 
0.9799999999999084, -0.696116814388791 
0.9899999999999073, -0.6946287599964239 
0.9999999999999062, -0.6924846249900944 
1.0099999999999052, -0.6894606296876647 
1.019999999999904, -0.6853645672436411 
1.029999999999903, -0.680155135715268 
1.039999999999902, -0.6740537310277988 
1.0499999999999008, -0.6675398786096884 
1.0599999999998997, -0.661194120447656 
1.0699999999998986, -0.6554972960789284 
1.0799999999998975, -0.6507209897459802 
1.0899999999998964, -0.6469351940933403 
1.0999999999998953, -0.6440745820977499 
1.1099999999998942, -0.6420063815759882 
1.119999999999893, -0.6405773499945688 
1.129999999999892, -0.639640135281642 
1.1399999999998909, -0.639065784799933 
1.1499999999998898, -0.638748205569738 
1.1599999999998887, -0.63860414880866 
1.1699999999998876, -0.6385707904714921 
1.1799999999998865, -0.6386022550899878 
1.1899999999998854, -0.6386660878925796 
1.1999999999998843, -0.6387404118280422 
1.2099999999998832, -0.6388121287576962 
1.219999999999882, -0.6388759317093762 
1.229999999999881, -0.6389331699438383 
1.2399999999998799, -0.6389892339354428 
1.2499999999998788, -0.6390488175959197 
1.2599999999998777, -0.6391102487286386 
1.2699999999998766, -0.6391618110777303 
1.2799999999998755, -0.6391828145018821 
1.2899999999998744, -0.6391495489612191 
1.2999999999998733, -0.6390429457770661 
1.3099999999998722, -0.6388537426341806 
1.319999999999871, -0.6385832617021208 
1.32999999999987, -0.6382412164848263 
1.3399999999998689, -0.6378434226080064 
1.3499999999998678, -0.6374116651075645 
1.3599999999998666, -0.6369768197493839 
1.3699999999998655, -0.6365857031308026 
1.3799999999998644, -0.6363119881689312 
1.3899999999998633, -0.6362712581521521 
1.3999999999998622, -0.6366390926821069 
1.4099999999998611, -0.6376679438376482 
1.41999999999986, -0.639692085323923 
1.429999999999859, -0.6430992832466674 
1.4399999999998578, -0.6482373036484437 
1.4499999999998567, -0.6552328614030508 
1.4599999999998556, -0.6637690857382609 
1.4699999999998545, -0.6729952602941076 
1.4799999999998534, -0.6817684793869864 
1.4899999999998523, -0.6891484550513767 
1.4999999999998512, -0.6947443450732437 
1.5099999999998501, -0.6986694570774296 
1.519999999999849, -0.7012768600880194 
1.529999999999848, -0.7029385675951498 
1.5399999999998468, -0.7039497267544497 
1.5499999999998457, -0.7045149556049402 
1.5599999999998446, -0.704764445429517 
1.5699999999998435, -0.7047730665196863 
1.5799999999998424, -0.7045738460052724 
1.5899999999998413, -0.7041644863003202 
1.5999999999998402, -0.7035076161604297 
1.6099999999998391, -0.7025262693669708 
1.619999999999838, -0.7010981527607261 
1.629999999999837, -0.6990574246871281 
1.6399999999998358, -0.6962202889982094 
1.6499999999998347, -0.692451412879745 
1.6599999999998336, -0.6877626870934895 
1.6699999999998325, -0.6823841690317296 
1.6799999999998314, -0.6767305827920799 
1.6899999999998303, -0.6712645215030897 
1.6999999999998292, -0.6663523219547899 
1.709999999999828, -0.6621979672720624 
1.719999999999827, -0.6588571892662938 
1.729999999999826, -0.656286470844899 
1.7399999999998248, -0.6543902352199813 
1.7499999999998237, -0.6530534059140217 
1.7599999999998226, -0.6521604982525575 
1.7699999999998215, -0.6516058504719852 
1.7799999999998204, -0.6512985886146747 
1.7899999999998193, -0.6511643411773838 
1.7999999999998182, -0.6511448142505879 
1.809999999999817, -0.651196056082548 
1.819999999999816, -0.6512862075189665 
1.8299999999998149, -0.6513934495894471 
1.8399999999998138, -0.6515045519017675 
1.8499999999998127, -0.6516138403390922 
1.8599999999998116, -0.6517217075519761 
1.8699999999998105, -0.6518315306278163 
1.8799999999998094, -0.6519446980864514 
1.8899999999998083, -0.652055290237191 
1.8999999999998072, -0.6521474275254553 
1.909999999999806, -0.6521976674131629 
1.919999999999805, -0.6521818431607919 
1.9299999999998039, -0.6520825909164033 
1.9399999999998028, -0.6518935154678307 
1.9499999999998017, -0.6516188674956634 
1.9599999999998006, -0.6512708041004911 
1.9699999999997995, -0.6508672338675551 
1.9799999999997984, -0.6504322857932957 
1.9899999999997973, -0.6500002807679855 
1.9999999999997962, -0.6496235577756382 
2.0099999999998173, -0.649384354769994 
2.0199999999998384, -0.6494104739312225 
2.0299999999998595, -0.6498928755718151 
2.0399999999998806, -0.6510996803408962 
2.0499999999999017, -0.6533742291367847 
2.059999999999923, -0.657094912682194 
2.069999999999944, -0.6625675857090061 
2.079999999999965, -0.6698392241791558 
2.089999999999986, -0.6784977292153703 
2.100000000000007, -0.6876365650080066 
2.1100000000000283, -0.696142824860052 
2.1200000000000494, -0.7031728374308214 
2.1300000000000705, -0.7084303913636198 
2.1400000000000916, -0.7120773715072294 
2.1500000000001127, -0.7144740995484741 
2.160000000000134, -0.7159808380728367 
2.170000000000155, -0.7168772344572736 
2.180000000000176, -0.717354338357962 
2.190000000000197, -0.717531475143607 
2.2000000000002182, -0.7174744595555226 
2.2100000000002393, -0.7172077212865402 
2.2200000000002604, -0.7167192193233715 
2.2300000000002815, -0.7159587061399316 
2.2400000000003026, -0.7148307228778679 
2.2500000000003237, -0.7131862697356157 
2.260000000000345, -0.7108236950746003 
2.270000000000366, -0.7075194217199585 
2.280000000000387, -0.7031108553096385 
2.290000000000408, -0.697621232813629 
2.3000000000004293, -0.691347994078342 
2.3100000000004504, -0.684814734167124 
2.3200000000004715, -0.6785914211312682 
2.3300000000004926, -0.6731115724508461 
2.3400000000005137, -0.6685952856153656 
2.3500000000005348, -0.6650753140535407 
2.360000000000556, -0.662464734268079 
2.370000000000577, -0.6606194664199497 
2.380000000000598, -0.6593804892317381 
2.390000000000619, -0.6585977981243005 
2.4000000000006403, -0.658142035132052 
2.4100000000006614, -0.6579085008154435 
2.4200000000006825, -0.657816569892552 
2.4300000000007036, -0.6578065435120314 
2.4400000000007247, -0.6578354877265163 
2.450000000000746, -0.6578732775082068 
2.460000000000767, -0.6578996948305937 
2.470000000000788, -0.6579029047569611 
2.480000000000809, -0.6578788778585059 
2.49000000000083, -0.6578305075193647 
2.5000000000008513, -0.6577649376285751 
2.5100000000008724, -0.6576887017680548 
2.5200000000008935, -0.6576023637621428 
2.5300000000009146, -0.6574977143695941 
2.5400000000009357, -0.6573596141862292 
2.550000000000957, -0.6571716630194265 
2.560000000000978, -0.6569223938241089 
2.570000000000999, -0.6566088565922322 
2.58000000000102, -0.6562369584331843 
2.5900000000010412, -0.6558202972459127 
2.6000000000010624, -0.6553797852134685 
2.6100000000010835, -0.6549455618678841 
2.6200000000011046, -0.6545617384261434 
2.6300000000011257, -0.6542938992404268 
2.6400000000011468, -0.6542387947974978 
2.650000000001168, -0.654534869546925 
2.660000000001189, -0.6553708011767913 
2.67000000000121, -0.6569867121457895 
2.680000000001231, -0.6596587897862152 
2.6900000000012523, -0.6636532900308769 
2.7000000000012734, -0.6691350849680056 
2.7100000000012945, -0.6760330751006902 
2.7200000000013156, -0.683917510397729 
2.7300000000013367, -0.6920105864582307 
2.740000000001358, -0.6994215471685082 
2.750000000001379, -0.7054972131704623 
2.7600000000014, -0.7100209220815265 
2.770000000001421, -0.7131412308718375 
2.780000000001442, -0.7151687332278249 
2.7900000000014633, -0.7164145284508034 
2.8000000000014844, -0.7171208255406325 
2.8100000000015055, -0.7174521302031571 
2.8200000000015266, -0.7175085728363888 
2.8300000000015477, -0.7173407978942488 
2.840000000001569, -0.7169592394237218 
2.85000000000159, -0.716336218664012 
2.860000000001611, -0.7154008615785369 
2.870000000001632, -0.7140277547663822 
2.8800000000016532, -0.7120235391092111 
2.8900000000016743, -0.7091247199703204 
2.9000000000016954, -0.705035390532353 
2.9100000000017165, -0.699539828051597 
2.9200000000017377, -0.6926808698024374 
2.9300000000017588, -0.6848889905703541 
2.94000000000178, -0.6769049701551503 
2.950000000001801, -0.6695031196450311 
2.960000000001822, -0.6632232843521764 
2.970000000001843, -0.6582795008527903 
2.9800000000018643, -0.6546256867574657 
2.9900000000018854, -0.6520721207312008 
3.0000000000019065, -0.6503810889493008 
3.0100000000019276, -0.6493238564203605 
3.0200000000019487, -0.6487067812620955 
3.03000000000197, -0.6483785398141857 
3.040000000001991, -0.6482274299361375 
3.050000000002012, -0.6481743390791476 
3.060000000002033, -0.6481646645881582 
3.070000000002054, -0.6481610627994298 
3.0800000000020753, -0.6481380425793187 
3.0900000000020964, -0.6480788474949835 
3.1000000000021175, -0.6479745060102599 
3.1100000000021386, -0.6478241313307379 
3.1200000000021597, -0.6476346938320283 
3.130000000002181, -0.6474184159858242 
3.140000000002202, -0.6471874651140773 
3.150000000002223, -0.6469480730860905 
3.160000000002244, -0.6466974369372575 
3.1700000000022652, -0.6464253450723343 
3.1800000000022863, -0.6461194587492416 
3.1900000000023074, -0.6457710747725237 
3.2000000000023285, -0.6453786551633072 
3.2100000000023496, -0.6449486962243075 
3.2200000000023707, -0.6444954508718099 
3.230000000002392, -0.6440413939969263 
3.240000000002413, -0.6436196148188467 
3.250000000002434, -0.6432784827313028 
3.260000000002455, -0.6430883422467631 
3.2700000000024763, -0.643149494900892 
3.2800000000024974, -0.6436000267427924 
3.2900000000025185, -0.6446208490045243 
3.3000000000025396, -0.6464332600541978 
3.3100000000025607, -0.6492809981498678 
3.3200000000025818, -0.6533847212798484 
3.330000000002603, -0.6588569068250322 
3.340000000002624, -0.6655824765818843 
3.350000000002645, -0.6731193891606967 
3.360000000002666, -0.6807286534788222 
3.3700000000026873, -0.6876033250102582 
3.3800000000027084, -0.6931810594771415 
3.3900000000027295, -0.6973022536341189 
3.4000000000027506, -0.7001278394092184 
3.4100000000027717, -0.7019521808826668 
3.420000000002793, -0.7030614753978908 
3.430000000002814, -0.7036754930803457 
3.440000000002835, -0.7039418598631426 
3.450000000002856, -0.703948713761136 
3.460000000002877, -0.7037379094396151 
3.4700000000028983, -0.7033126304978252 
3.4800000000029194, -0.7026380538484276 
3.4900000000029405, -0.7016351007839045 
3.5000000000029616, -0.7001685307179042 
3.5100000000029827, -0.6980347798028309 
3.520000000003004, -0.6949653442874214 
3.530000000003025, -0.6906767706050717 
3.540000000003046, -0.6849977274747977 
3.550000000003067, -0.6780451736431441 
3.5600000000030882, -0.6703163450957721 
3.5700000000031094, -0.6625615561361704 
3.5800000000031305, -0.6554975184576604 
3.5900000000031516, -0.6495789804071765 
3.6000000000031727, -0.6449524194591875 
3.6100000000031938, -0.6415394615096589 
3.620000000003215, -0.6391476351979154 
3.630000000003236, -0.6375528587046554 
3.640000000003257, -0.6365454319780799 
3.650000000003278, -0.6359496858789908 
3.6600000000032993, -0.6356284453650546 
3.6700000000033204, -0.6354798768133911 
3.6800000000033415, -0.6354311633194641 
3.6900000000033626, -0.6354315417939269 
3.7000000000033837, -0.6354461539673494 
3.710000000003405, -0.6354515184998402 
3.720000000003426, -0.6354329495446008 
3.730000000003447, -0.6353836821930051 
3.740000000003468, -0.6353046905287385 
3.750000000003489, -0.6352035144028774 
3.7600000000035103, -0.635090677560466 
3.7700000000035314, -0.6349739939717255 
3.7800000000035525, -0.6348532656331085 
3.7900000000035736, -0.6347185687037372 
3.8000000000035947, -0.6345534901722344 
3.810000000003616, -0.6343415383992778 
3.820000000003637, -0.6340720852033501 
3.830000000003658, -0.6337431894717989 
3.840000000003679, -0.6333613858451723 
3.8500000000037002, -0.6329404902068481 
3.8600000000037213, -0.6325015997978946 
3.8700000000037424, -0.6320755906441777 
3.8800000000037635, -0.6317086310321341 
3.8900000000037847, -0.6314708208713112 
3.9000000000038058, -0.631467696868082 
3.910000000003827, -0.631853484198536 
3.920000000003848, -0.6328430038834719 
3.930000000003869, -0.6347152360800599 
3.94000000000389, -0.6377949201137784 
3.9500000000039113, -0.642390594460639 
3.9600000000039324, -0.6486677952333066 
3.9700000000039535, -0.6564696951024043 
3.9800000000039746, -0.6651848829147513 
3.9900000000039957, -0.6738367342359873 
4.000000000004016, -0.6814505910945023 
4.010000000003993, -0.6874523034248001 
4.02000000000397, -0.6917790698303597 
4.030000000003946, -0.694699012537772 
4.040000000003923, -0.69657428265122 
4.0500000000039, -0.6977216260855811 
4.0600000000038765, -0.6983713020905822 
4.070000000003853, -0.6986737731091667 
4.08000000000383, -0.6987181053577893 
4.090000000003807, -0.6985472738697118 
4.100000000003783, -0.6981666178684457 
4.11000000000376, -0.6975453976743202 
4.120000000003737, -0.696612446294097 
4.130000000003713, -0.695248413431678 
4.14000000000369, -0.6932815389306549 
4.150000000003667, -0.6905025199572448 
4.1600000000036434, -0.6867212350682667 
4.17000000000362, -0.6818734960230115 
4.180000000003597, -0.6761309750977502 
4.1900000000035735, -0.6699154898091311 
4.20000000000355, -0.6637694953696983 
4.210000000003527, -0.65816795652963 
4.220000000003504, -0.6534008544097099 
4.23000000000348, -0.6495658623640777 
4.240000000003457, -0.6466240407291306 
4.250000000003434, -0.644463333576794 
4.26000000000341, -0.6429448274887514 
4.270000000003387, -0.6419298391926942 
4.280000000003364, -0.6412935873926663 
4.2900000000033405, -0.6409309147681987 
4.300000000003317, -0.6407574829391709 
4.310000000003294, -0.6407083823989754 
4.320000000003271, -0.6407354018413045 
4.330000000003247, -0.6408039210731229 
4.340000000003224, -0.6408901953865481 
4.350000000003201, -0.6409794875897508 
4.360000000003177, -0.6410649672587153 
4.370000000003154, -0.6411465864631473 
4.380000000003131, -0.6412286716723848 
4.390000000003107, -0.6413154485261281 
4.400000000003084, -0.6414053862928344 
4.410000000003061, -0.6414870974090052 
4.4200000000030375, -0.6415397429647072 
4.430000000003014, -0.6415385771637182 
4.440000000002991, -0.6414628047002635 
4.450000000002968, -0.6413013698806505 
4.460000000002944, -0.6410542548393969 
4.470000000002921, -0.6407303440938548 
4.480000000002898, -0.6403447704512448 
4.490000000002874, -0.6399182196210542 
4.500000000002851, -0.6394794510458687 
4.510000000002828, -0.6390715592190497 
4.520000000002804, -0.6387623406715599 
4.530000000002781, -0.6386589609531846 
4.540000000002758, -0.6389261408766846 
4.5500000000027345, -0.6398042851186634 
4.560000000002711, -0.6416179792041147 
4.570000000002688, -0.6447550033117402 
4.580000000002665, -0.6495844729266687 
4.590000000002641, -0.6562869775004145 
4.600000000002618, -0.6646276407190111 
4.610000000002595, -0.6738287160308664 
4.620000000002571, -0.6827569382474977 
4.630000000002548, -0.6904050489579617 
4.640000000002525, -0.6962892755684147 
4.6500000000025015, -0.7004605198079592 
4.660000000002478, -0.7032525325990568 
4.670000000002455, -0.7050437575298956 
4.6800000000024315, -0.7061436609541282 
4.690000000002408, -0.7067703707628077 
4.700000000002385, -0.7070645193436391 
4.710000000002362, -0.7071087102709502 
4.720000000002338, -0.7069420279218359 
4.730000000002315, -0.7065675989013734 
4.740000000002292, -0.7059537192064547 
4.750000000002268, -0.7050298594881417 
4.760000000002245, -0.703680580247267 
4.770000000002222, -0.7017449949368915 
4.7800000000021985, -0.6990370089156308 
4.790000000002175, -0.6954047373849701 
4.800000000002152, -0.6908275381176051 
4.810000000002129, -0.6854988054433282 
4.820000000002105, -0.679813501799243 
4.830000000002082, -0.6742426422339838 
4.840000000002059, -0.669180763915048 
4.850000000002035, -0.6648629072439827 
4.860000000002012, -0.6613676116607333 
4.870000000001989, -0.6586636508128703 
4.880000000001965, -0.656659639942237 
4.890000000001942, -0.6552398012090264 
4.900000000001919, -0.6542854837288585 
4.9100000000018955, -0.6536869081721586 
4.920000000001872, -0.6533490033818865 
