t, s[1].omega / s[0].omega 
0, -0.6099977245156467 
0.009999999999999995, -0.6097784880913268 
0.019999999999999934, -0.6095682231269595 
0.029999999999999874, -0.6093480320842182 
0.04000000000000012, -0.6090958996437313 
0.050000000000000405, -0.6087951332315955 
0.06000000000000069, -0.6084391612106876 
0.07000000000000098, -0.6080322281610522 
0.08000000000000126, -0.6075883403051706 
0.09000000000000155, -0.6071313454685933 
0.10000000000000184, -0.6066980883830352 
0.11000000000000212, -0.6063456494942028 
0.12000000000000241, -0.606163297298216 
0.130000000000002, -0.6062896244840121 
0.1400000000000009, -0.6069346987917792 
0.1499999999999998, -0.6084049002766864 
0.1599999999999987, -0.6111225428148589 
0.1699999999999976, -0.6156202087886958 
0.1799999999999965, -0.6224687489494742 
0.1899999999999954, -0.6320792689716348 
0.1999999999999943, -0.6443557221908665 
0.2099999999999932, -0.6583534456212604 
0.2199999999999921, -0.6723448887296126 
0.229999999999991, -0.6845323612726771 
0.2399999999999899, -0.6939001576650081 
0.2499999999999888, -0.7004309000846657 
0.2599999999999877, -0.7046911147208978 
0.2699999999999866, -0.7073525556931249 
0.2799999999999855, -0.7089558703736618 
0.2899999999999844, -0.7098692094131035 
0.2999999999999833, -0.7103214100536832 
0.3099999999999822, -0.710443500986247 
0.3199999999999811, -0.7102981778869665 
0.32999999999998, -0.7098951089777809 
0.3399999999999789, -0.7091939831694275 
0.3499999999999778, -0.7080972651622558 
0.35999999999997667, -0.7064358270999251 
0.36999999999997557, -0.7039571486444277 
0.37999999999997447, -0.7003410219139532 
0.38999999999997337, -0.6952840435224443 
0.39999999999997227, -0.688673747652299 
0.40999999999997117, -0.680773129996299 
0.41999999999997006, -0.6722364023974314 
0.42999999999996896, -0.6638783747989996 
0.43999999999996786, -0.6563691642267533 
0.44999999999996676, -0.650075466062223 
0.45999999999996566, -0.6450828723364042 
0.46999999999996456, -0.6412983987435531 
0.47999999999996346, -0.6385462114110777 
0.48999999999996235, -0.6366286456185896 
0.49999999999996125, -0.6353577333638614 
0.5099999999999602, -0.6345690720321575 
0.519999999999959, -0.6341265210522374 
0.529999999999958, -0.6339221840814491 
0.5399999999999568, -0.633873828064349 
0.5499999999999557, -0.6339210079973092 
0.5599999999999546, -0.634020928523174 
0.5699999999999535, -0.6341449281546844 
0.5799999999999524, -0.6342761278746049 
0.5899999999999513, -0.6344080987187539 
0.5999999999999502, -0.6345434518135424 
0.6099999999999491, -0.6346906160936563 
0.619999999999948, -0.6348577054271493 
0.6299999999999469, -0.6350446087374216 
0.6399999999999458, -0.6352369563003036 
0.6499999999999447, -0.635406136849432 
0.6599999999999436, -0.6355167056668378 
0.6699999999999425, -0.6355376439185499 
0.6799999999999414, -0.6354511030800566 
0.6899999999999403, -0.6352546073274825 
0.6999999999999392, -0.634957904087585 
0.7099999999999381, -0.6345787326608092 
0.719999999999937, -0.6341412477867299 
0.7299999999999359, -0.6336790190362894 
0.7399999999999348, -0.6332435603633719 
0.7499999999999337, -0.6329194579063506 
0.7599999999999326, -0.6328475130518719 
0.7699999999999315, -0.6332566996056572 
0.7799999999999304, -0.6345023305267906 
0.7899999999999293, -0.6370983808610992 
0.7999999999999282, -0.6417115761779846 
0.8099999999999271, -0.6490527002628824 
0.819999999999926, -0.6595830139055122 
0.8299999999999249, -0.6730433232465531 
0.8399999999999238, -0.6881052574639459 
0.8499999999999227, -0.7026785108594245 
0.8599999999999216, -0.7149144977173005 
0.8699999999999205, -0.7240295277296253 
0.8799999999999194, -0.7302554155313243 
0.8899999999999183, -0.7342774388074984 
0.8999999999999172, -0.736783288871636 
0.9099999999999161, -0.7382922756411343 
0.919999999999915, -0.7391488785937195 
0.9299999999999139, -0.7395650052422809 
0.9399999999999128, -0.7396607299760722 
0.9499999999999117, -0.739491095478802 
0.9599999999999106, -0.7390589830166341 
0.9699999999999095, -0.7383160407780192 
0.9799999999999084, -0.737153323387345 
0.9899999999999073, -0.7353848204488865 
0.9999999999999062, -0.7327345735714579 
1.0099999999999052, -0.7288550526595391 
1.019999999999904, -0.7234216681451796 
1.029999999999903, -0.7163234465477547 
1.039999999999902, -0.7078593143943731 
1.0499999999999008, -0.6987469344355649 
1.0599999999998997, -0.6898692417704657 
1.0699999999998986, -0.6819477864366286 
1.0799999999998975, -0.6753746800208456 
1.0899999999998964, -0.6702358617281281 
1.0999999999998953, -0.6664197059349928 
1.1099999999998942, -0.6637204569113802 
1.119999999999893, -0.6619067045926187 
1.129999999999892, -0.6607590157551713 
1.1399999999998909, -0.6600878243896202 
1.1499999999998898, -0.6597397602289232 
1.1599999999998887, -0.6595971329892479 
1.1699999999998876, -0.6595734733467385 
1.1799999999998865, -0.659607320917871 
1.1899999999998854, -0.6596560560454526 
1.1999999999998843, -0.6596911208976702 
1.2099999999998832, -0.6596953344691217 
1.219999999999882, -0.6596620506230136 
1.229999999999881, -0.6595946871034808 
1.2399999999998799, -0.659504368977209 
1.2499999999998788, -0.6594042834778846 
1.2599999999998777, -0.6593020301440619 
1.2699999999998766, -0.6591938081331705 
1.2799999999998755, -0.6590641674553014 
1.2899999999998744, -0.658891859542698 
1.2999999999998733, -0.6586584075221197 
1.3099999999998722, -0.6583546708631507 
1.319999999999871, -0.6579830502351562 
1.32999999999987, -0.6575566244912128 
1.3399999999998689, -0.65709827995966 
1.3499999999998678, -0.6566423165330998 
1.3599999999998666, -0.6562396525722626 
1.3699999999998655, -0.6559667378040489 
1.3799999999998644, -0.6559376111690091 
1.3899999999998633, -0.6563177216363578 
1.3999999999998622, -0.657336740185327 
1.4099999999998611, -0.6592952264769704 
1.41999999999986, -0.662555935614513 
1.429999999999859, -0.6675038709923123 
1.4399999999998578, -0.6744517355692958 
1.4499999999998567, -0.68347210174389 
1.4599999999998556, -0.6941862508173487 
1.4699999999998545, -0.7056514905166773 
1.4799999999998534, -0.7165588929325051 
1.4899999999998523, -0.7257513591895279 
1.4999999999998512, -0.7326854361949898 
1.5099999999998501, -0.7374661111529675 
1.519999999999849, -0.7405469713037649 
1.529999999999848, -0.742426822996637 
1.5399999999998468, -0.7435020050231936 
1.5499999999998457, -0.7440406721716052 
1.5599999999998446, -0.7442052827840591 
1.5699999999998435, -0.7440804008933125 
1.5799999999998424, -0.743690992619929 
1.5899999999998413, -0.7430082609569678 
1.5999999999998402, -0.7419425588401858 
1.6099999999998391, -0.7403224601340012 
1.619999999999838, -0.7378603151776701 
1.629999999999837, -0.7341145029110765 
1.6399999999998358, -0.7284886230843443 
1.6499999999998347, -0.7203587581086996 
1.6599999999998336, -0.7094230143457294 
1.6699999999998325, -0.6961647156066224 
1.6799999999998314, -0.6819774268934456 
1.6899999999998303, -0.6686225827069411 
1.6999999999998292, -0.6574284615878201 
1.709999999999828, -0.6489098474770713 
1.719999999999827, -0.6429158750880555 
1.729999999999826, -0.6389673511012554 
1.7399999999998248, -0.6365199753122699 
1.7499999999998237, -0.6350973472656816 
1.7599999999998226, -0.6343326986755435 
1.7699999999998215, -0.6339651075509367 
1.7799999999998204, -0.6338188243037771 
1.7899999999998193, -0.6337798269701178 
1.7999999999998182, -0.6337754705807785 
1.809999999999817, -0.6337590941011344 
1.819999999999816, -0.6336997770718241 
1.8299999999998149, -0.6335768996956352 
1.8399999999998138, -0.6333788784422276 
1.8499999999998127, -0.6331047043904972 
1.8599999999998116, -0.6327655882256332 
1.8699999999998105, -0.6323833030587653 
1.8799999999998094, -0.6319835359845715 
1.8899999999998083, -0.6315864798323989 
1.8999999999998072, -0.6311997101792463 
1.909999999999806, -0.6308173062962578 
1.919999999999805, -0.6304252116117117 
1.9299999999998039, -0.6300092931237888 
1.9399999999998028, -0.6295619094208406 
1.9499999999998017, -0.6290850408028466 
1.9599999999998006, -0.6285909421023057 
1.9699999999997995, -0.6281026357286688 
1.9799999999997984, -0.6276561503203866 
1.9899999999997973, -0.6273053605132114 
1.9999999999997962, -0.627129441055555 
2.0099999999998173, -0.6272423912153393 
2.0199999999998384, -0.6278035290370781 
2.0299999999998595, -0.6290269398752931 
2.0399999999998806, -0.6311860166734521 
2.0499999999999017, -0.6346053819170645 
2.059999999999923, -0.6396254642497541 
2.069999999999944, -0.6465165952994707 
2.079999999999965, -0.6553228165363353 
2.089999999999986, -0.6656629887291345 
2.100000000000007, -0.6766275808479032 
2.1100000000000283, -0.6869765334514544 
2.1200000000000494, -0.6956383302812245 
2.1300000000000705, -0.7021367797158242 
2.1400000000000916, -0.706601719042792 
2.1500000000001127, -0.7094746133598802 
2.160000000000134, -0.711226334699487 
2.170000000000155, -0.7122258774592606 
2.180000000000176, -0.7127208501068854 
2.190000000000197, -0.7128599932057292 
2.2000000000002182, -0.7127190286491484 
2.2100000000002393, -0.7123169637811455 
2.2200000000002604, -0.7116204304709353 
2.2300000000002815, -0.7105357922695346 
2.2400000000003026, -0.7088888515370617 
2.2500000000003237, -0.7063950838005256 
2.260000000000345, -0.7026367338811343 
2.270000000000366, -0.6970946087905862 
2.280000000000387, -0.6893157400011685 
2.290000000000408, -0.6792463498491199 
2.3000000000004293, -0.6675348850680777 
2.3100000000004504, -0.6554391238591278 
2.3200000000004715, -0.6442896606100407 
2.3300000000004926, -0.6349639433961101 
2.3400000000005137, -0.6277448140669563 
2.3500000000005348, -0.6224872121272228 
2.360000000000556, -0.6188474326465981 
2.370000000000577, -0.6164429129861675 
2.380000000000598, -0.614930971430348 
2.390000000000619, -0.6140354926149431 
2.4000000000006403, -0.6135478577681659 
2.4100000000006614, -0.6133174356067013 
2.4200000000006825, -0.6132391375713355 
2.4300000000007036, -0.6132414754923978 
2.4400000000007247, -0.6132766709107275 
2.450000000000746, -0.6133134908284681 
2.460000000000767, -0.613332989984982 
2.470000000000788, -0.6133268014646307 
2.480000000000809, -0.6132967660945263 
2.49000000000083, -0.6132537579326602 
2.5000000000008513, -0.6132135399757448 
2.5100000000008724, -0.6131893110250042 
2.5200000000008935, -0.6131835789685717 
2.5300000000009146, -0.6131837609689351 
2.5400000000009357, -0.6131646400138753 
2.550000000000957, -0.6130968996357544 
2.560000000000978, -0.6129570664211357 
2.570000000000999, -0.6127336682589465 
2.58000000000102, -0.6124278688765121 
2.5900000000010412, -0.6120508799355638 
2.6000000000010624, -0.611621825425792 
2.6100000000010835, -0.6111687323926687 
2.6200000000011046, -0.6107340462244406 
2.6300000000011257, -0.6103856512959789 
2.6400000000011468, -0.6102345968383245 
2.650000000001168, -0.6104607475293676 
2.660000000001189, -0.6113461438587451 
2.67000000000121, -0.6133106786549691 
2.680000000001231, -0.6169315168094591 
2.6900000000012523, -0.6229013824664407 
2.7000000000012734, -0.6318472508095943 
2.7100000000012945, -0.6439432483023011 
2.7200000000013156, -0.6584332295352882 
2.7300000000013367, -0.6735267869715809 
2.740000000001358, -0.6871047410453366 
2.750000000001379, -0.6977905438609564 
2.7600000000014, -0.70537089651853 
2.770000000001421, -0.7103896643672936 
2.780000000001442, -0.7135763279254645 
2.7900000000014633, -0.71554069976462 
2.8000000000014844, -0.7167070400140327 
2.8100000000015055, -0.7173449828501094 
2.8200000000015266, -0.7176151128998771 
2.8300000000015477, -0.7176032454852967 
2.840000000001569, -0.7173402189207091 
2.85000000000159, -0.7168093909376927 
2.860000000001611, -0.715944197982745 
2.870000000001632, -0.7146185172161206 
2.8800000000016532, -0.7126365371471238 
2.8900000000016743, -0.7097392600074917 
2.9000000000016954, -0.7056583354643321 
2.9100000000017165, -0.7002413068407076 
2.9200000000017377, -0.6936090749089997 
2.9300000000017588, -0.6862174323597563 
2.94000000000178, -0.6787245347277967 
2.950000000001801, -0.6717475897490788 
2.960000000001822, -0.665690548394912 
2.970000000001843, -0.6607178737141953 
2.9800000000018643, -0.6568186406474096 
2.9900000000018854, -0.6538847081607579 
3.0000000000019065, -0.6517674941225795 
3.0100000000019276, -0.6503107393656075 
3.0200000000019487, -0.6493673587553042 
3.03000000000197, -0.6488076473527788 
3.040000000001991, -0.6485228373640349 
3.050000000002012, -0.6484257433544888 
3.060000000002033, -0.6484493733483372 
3.070000000002054, -0.648544324087491 
3.0800000000020753, -0.648675889206498 
3.0900000000020964, -0.6488217021217917 
3.1000000000021175, -0.6489702294183137 
3.1100000000021386, -0.6491195340273772 
3.1200000000021597, -0.6492748471267393 
3.130000000002181, -0.6494435317949754 
3.140000000002202, -0.6496276993348157 
3.150000000002223, -0.6498173483432086 
3.160000000002244, -0.6499882785649109 
3.1700000000022652, -0.650107267323343 
3.1800000000022863, -0.6501424628629162 
3.1900000000023074, -0.6500731327674198 
3.2000000000023285, -0.6498937206067971 
3.2100000000023496, -0.6496119698960604 
3.2200000000023707, -0.6492448466309435 
3.230000000002392, -0.6488163386826583 
3.240000000002413, -0.6483594965996746 
3.250000000002434, -0.6479237423449289 
3.260000000002455, -0.6475881902417086 
3.2700000000024763, -0.6474818074470761 
3.2800000000024974, -0.6478105974614236 
3.2900000000025185, -0.6488892802102092 
3.3000000000025396, -0.6511681403107005 
3.3100000000025607, -0.6552318571134816 
3.3200000000025818, -0.6617248171073595 
3.330000000002603, -0.6711393710410769 
3.340000000002624, -0.6834439123248204 
3.350000000002645, -0.6977129132038667 
3.360000000002666, -0.7121725096722785 
3.3700000000026873, -0.724919372696688 
3.3800000000027084, -0.7348173894939527 
3.3900000000027295, -0.7417697436130217 
3.4000000000027506, -0.7463234450499224 
3.4100000000027717, -0.7491699919928947 
3.420000000002793, -0.7508813772667745 
3.430000000002814, -0.7518532275838739 
3.440000000002835, -0.7523337567398938 
3.450000000002856, -0.7524661034577804 
3.460000000002877, -0.752319705284747 
3.4700000000028983, -0.7519069194249128 
3.4800000000029194, -0.7511860845783487 
3.4900000000029405, -0.7500520474016156 
3.5000000000029616, -0.7483152398398232 
3.5100000000029827, -0.7456753711905919 
3.520000000003004, -0.7417124021994497 
3.530000000003025, -0.7359478788080184 
3.540000000003046, -0.728042705702807 
3.550000000003067, -0.718106976774574 
3.5600000000030882, -0.7068914979584308 
3.5700000000031094, -0.6955915283785223 
3.5800000000031305, -0.6853524298452226 
3.5900000000031516, -0.6768798847360248 
3.6000000000031727, -0.6703750969702541 
3.6100000000031938, -0.6656863985591872 
3.620000000003215, -0.6624942085398731 
3.630000000003236, -0.6604415456779451 
3.640000000003257, -0.6592034320757484 
3.650000000003278, -0.6585146451543017 
3.6600000000032993, -0.6581740571564795 
3.6700000000033204, -0.6580373592372079 
3.6800000000033415, -0.6580051733207931 
3.6900000000033626, -0.658010677463686 
3.7000000000033837, -0.658009098544481 
3.710000000003405, -0.6579702986881102 
3.720000000003426, -0.6578749152823251 
3.730000000003447, -0.6577137054478255 
3.740000000003468, -0.6574885343619706 
3.750000000003489, -0.6572122055820672 
3.7600000000035103, -0.6569045037034282 
3.7700000000035314, -0.6565844532085334 
3.7800000000035525, -0.656262311604912 
3.7900000000035736, -0.6559359050948654 
3.8000000000035947, -0.6555933569016474 
3.810000000003616, -0.6552202325261959 
3.820000000003637, -0.6548068746081228 
3.830000000003658, -0.6543527611596025 
3.840000000003679, -0.6538677298507719 
3.8500000000037002, -0.6533721263919762 
3.8600000000037213, -0.6528981066422177 
3.8700000000037424, -0.6524932599299716 
3.8800000000037635, -0.6522265910559872 
3.8900000000037847, -0.6521961024984001 
3.9000000000038058, -0.6525366214817006 
3.910000000003827, -0.6534259195389585 
3.920000000003848, -0.655086340965038 
3.930000000003869, -0.6577775297076481 
3.94000000000389, -0.6617724953595406 
3.9500000000039113, -0.6673041730601806 
3.9600000000039324, -0.6744678064575591 
3.9700000000039535, -0.6830821119931377 
3.9800000000039746, -0.6925707461277371 
3.9900000000039957, -0.7020006925932525 
4.000000000004016, -0.710373967401576 
4.010000000003993, -0.7170273247669323 
4.02000000000397, -0.7218226599780624 
4.030000000003946, -0.7250185719180848 
4.040000000003923, -0.7270167702193092 
4.0500000000039, -0.7281840834735268 
4.0600000000038765, -0.7287888176333231 
4.070000000003853, -0.7290023327695365 
4.08000000000383, -0.7289194139177333 
4.090000000003807, -0.7285755533485974 
4.100000000003783, -0.727954354791754 
4.11000000000376, -0.7269832658757408 
4.120000000003737, -0.7255161879274679 
4.130000000003713, -0.7233016960585892 
4.14000000000369, -0.7199413674551882 
4.150000000003667, -0.7148651044255488 
4.1600000000036434, -0.707400268881204 
4.17000000000362, -0.6970538136241348 
4.180000000003597, -0.6840075367326477 
4.1900000000035735, -0.6694493597426006 
4.20000000000355, -0.655221422330625 
4.210000000003527, -0.642943346271269 
4.220000000003504, -0.633404007347721 
4.23000000000348, -0.62658902219953 
4.240000000003457, -0.62203919256328 
4.250000000003434, -0.6191757807766002 
4.26000000000341, -0.6174761286557502 
4.270000000003387, -0.6165331567357831 
4.280000000003364, -0.6160556330931942 
4.2900000000033405, -0.6158465343278513 
4.300000000003317, -0.6157775813020379 
4.310000000003294, -0.6157670638299615 
4.320000000003271, -0.615762995917437 
4.330000000003247, -0.615731659597616 
4.340000000003224, -0.6156510240954677 
4.350000000003201, -0.6155083645030819 
4.360000000003177, -0.6153009199252991 
4.370000000003154, -0.615037341368423 
4.380000000003131, -0.6147367665149764 
4.390000000003107, -0.614423310148297 
4.400000000003084, -0.6141170820151483 
4.410000000003061, -0.6138261300352599 
4.4200000000030375, -0.613543847979482 
4.430000000003014, -0.6132531665956876 
4.440000000002991, -0.6129348412775721 
4.450000000002968, -0.6125752536491401 
4.460000000002944, -0.6121705794798427 
4.470000000002921, -0.6117274348070414 
4.480000000002898, -0.611262397813084 
4.490000000002874, -0.6108029671716212 
4.500000000002851, -0.610391546037643 
4.510000000002828, -0.6100931785498552 
4.520000000002804, -0.610007339314625 
4.530000000002781, -0.6102837246170639 
4.540000000002758, -0.6111411093667458 
4.5500000000027345, -0.6128860231642983 
4.560000000002711, -0.6159226423793165 
4.570000000002688, -0.6207344117928797 
4.580000000002665, -0.6278009199565786 
4.590000000002641, -0.6374035763421266 
4.600000000002618, -0.6493189840757854 
4.610000000002595, -0.662562617437258 
4.620000000002571, -0.6755257796540213 
4.630000000002548, -0.6866437102385551 
4.640000000002525, -0.6951017131688364 
4.6500000000025015, -0.7009585821657408 
4.660000000002478, -0.7047575513325035 
4.670000000002455, -0.7071127165721703 
4.6800000000024315, -0.7085115215058793 
4.690000000002408, -0.7092834839753656 
4.700000000002385, -0.7096313083829261 
4.710000000002362, -0.7096679103021011 
4.720000000002338, -0.7094419092303077 
4.730000000002315, -0.7089496009807499 
4.740000000002292, -0.7081347827363611 
4.750000000002268, -0.7068778834125423 
4.760000000002245, -0.7049776837796734 
4.770000000002222, -0.7021373972753797 
4.7800000000021985, -0.6979861617205836 
4.790000000002175, -0.6921864218924699 
4.800000000002152, -0.6846473968897614 
4.810000000002129, -0.6757348357656154 
4.820000000002105, -0.6662557830789546 
4.830000000002082, -0.6571532277594108 
4.840000000002059, -0.649149607581268 
4.850000000002035, -0.6425932404562329 
4.860000000002012, -0.6375147845630145 
4.870000000001989, -0.6337595193881407 
4.880000000001965, -0.6310985191190384 
4.890000000001942, -0.6292947021706223 
4.900000000001919, -0.6281342542837351 
4.9100000000018955, -0.627438293794473 
4.920000000001872, -0.6270646434792676 
