t, s[1].omega / s[0].omega 
0, -0.8198894794188624 
0.009999999999999995, -0.8099080382576924 
0.019999999999999934, -0.8029125018454886 
0.029999999999999874, -0.7992171050937522 
0.04000000000000012, -0.7980799479391449 
0.050000000000000405, -0.7984105806720065 
0.06000000000000069, -0.7993231604641842 
0.07000000000000098, -0.8002956928553381 
0.08000000000000126, -0.8010946793428921 
0.09000000000000155, -0.8016502205556313 
0.10000000000000184, -0.8019622505691902 
0.11000000000000212, -0.8020471336780804 
0.12000000000000241, -0.8019108207394133 
0.130000000000002, -0.8015345390082098 
0.1400000000000009, -0.8008643438417342 
0.1499999999999998, -0.799801499596463 
0.1599999999999987, -0.7981971552870009 
0.1699999999999976, -0.7958633644208708 
0.1799999999999965, -0.792618699766794 
0.1899999999999954, -0.788374745122984 
0.1999999999999943, -0.7832274674118784 
0.2099999999999932, -0.7774799656471536 
0.2199999999999921, -0.7715597537948422 
0.229999999999991, -0.765885805510335 
0.2399999999999899, -0.7607728615911533 
0.2499999999999888, -0.7564051511815381 
0.2599999999999877, -0.7528548820320744 
0.2699999999999866, -0.7501120930752506 
0.2799999999999855, -0.7481098538677451 
0.2899999999999844, -0.7467436535339329 
0.2999999999999833, -0.7458884049159779 
0.3099999999999822, -0.7454146061881126 
0.3199999999999811, -0.7452021770519783 
0.32999999999998, -0.745149514141945 
0.3399999999999789, -0.7451767055034345 
0.3499999999999778, -0.745224027779235 
0.35999999999997667, -0.7452482318574132 
0.36999999999997557, -0.745219182461346 
0.37999999999997447, -0.7451183848820108 
0.38999999999997337, -0.7449391630667096 
0.39999999999997227, -0.7446864105129375 
0.40999999999997117, -0.7443733721215008 
0.41999999999997006, -0.7440150379979668 
0.42999999999996896, -0.743621130334881 
0.43999999999996786, -0.7431929306275677 
0.44999999999996676, -0.7427257613652563 
0.45999999999996566, -0.7422150973791591 
0.46999999999996456, -0.741662541883932 
0.47999999999996346, -0.7410793518751282 
0.48999999999996235, -0.7404878158394985 
0.49999999999996125, -0.7399220364551468 
0.5099999999999602, -0.7394290191777648 
0.519999999999959, -0.7390695672484374 
0.529999999999958, -0.7389175520585641 
0.5399999999999568, -0.7390562488124874 
0.5499999999999557, -0.7395715770118149 
0.5599999999999546, -0.7405435996854314 
0.5699999999999535, -0.7420383693280904 
0.5799999999999524, -0.7441012850234678 
0.5899999999999513, -0.746750764079677 
0.5999999999999502, -0.7499686804761845 
0.6099999999999491, -0.753683998970813 
0.619999999999948, -0.7577511843420389 
0.6299999999999469, -0.7619367016238476 
0.6399999999999458, -0.7659384343169594 
0.6499999999999447, -0.7694539701623759 
0.6599999999999436, -0.7722726528660816 
0.6699999999999425, -0.7743306539686591 
0.6799999999999414, -0.775693424755485 
0.6899999999999403, -0.7764918131330765 
0.6999999999999392, -0.7768614198912883 
0.7099999999999381, -0.7769096906848241 
0.719999999999937, -0.7767071392627886 
0.7299999999999359, -0.7762907925616981 
0.7399999999999348, -0.775672057445633 
0.7499999999999337, -0.7748475640382668 
0.7599999999999326, -0.7738170202133633 
0.7699999999999315, -0.7726170422796425 
0.7799999999999304, -0.771383100862326 
0.7899999999999293, -0.7704454864675873 
0.7999999999999282, -0.7704315727075459 
0.8099999999999271, -0.7722691333536504 
0.819999999999926, -0.7769103826241712 
0.8299999999999249, -0.7847171878013994 
0.8399999999999238, -0.7949144983970446 
0.8499999999999227, -0.8058009661617621 
0.8599999999999216, -0.8156801966444996 
0.8699999999999205, -0.8236017330894324 
0.8799999999999194, -0.8294076368723496 
0.8899999999999183, -0.8333968561324289 
0.8999999999999172, -0.8360062857522748 
0.9099999999999161, -0.8376361035450379 
0.919999999999915, -0.8385898795084682 
0.9299999999999139, -0.8390727509789997 
0.9399999999999128, -0.8392083889328497 
0.9499999999999117, -0.839055387296957 
0.9599999999999106, -0.838615445367371 
0.9699999999999095, -0.8378303658532715 
0.9799999999999084, -0.8365659897650118 
0.9899999999999073, -0.8345825955819743 
0.9999999999999062, -0.8314988281280231 
1.0099999999999052, -0.8267790809014064 
1.019999999999904, -0.8198149771820716 
1.029999999999903, -0.8101869598372717 
1.039999999999902, -0.7980685415023808 
1.0499999999999008, -0.7844670662209935 
1.0599999999998997, -0.7709549332822598 
1.0699999999998986, -0.7590148333594307 
1.0799999999998975, -0.7495216000690621 
1.0899999999998964, -0.7426531445469486 
1.0999999999998953, -0.7381007068884132 
1.1099999999998942, -0.7353381020647229 
1.119999999999893, -0.7338202056823089 
1.129999999999892, -0.7330880343184363 
1.1399999999998909, -0.7328023022338594 
1.1499999999998898, -0.732735008239659 
1.1599999999998887, -0.7327431305512819 
1.1699999999998876, -0.7327397666339508 
1.1799999999998865, -0.7326701748474647 
1.1899999999998854, -0.7324950610222155 
1.1999999999998843, -0.7321812805596832 
1.2099999999998832, -0.7316997951934134 
1.219999999999882, -0.7310304049187015 
1.229999999999881, -0.7301707013944323 
1.2399999999998799, -0.7291431478878106 
1.2499999999998788, -0.7279932369606881 
1.2599999999998777, -0.7267772737346829 
1.2699999999998766, -0.725546740494522 
1.2799999999998755, -0.7243384992141593 
1.2899999999998744, -0.7231744671095004 
1.2999999999998733, -0.722067778325439 
1.3099999999998722, -0.7210302986654569 
1.319999999999871, -0.720078075853651 
1.32999999999987, -0.7192337775111376 
1.3399999999998689, -0.7185265137180912 
1.3499999999998678, -0.7179896823854881 
1.3599999999998666, -0.7176574366710059 
1.3699999999998655, -0.7175605595393187 
1.3799999999998644, -0.7177228230660962 
1.3899999999998633, -0.7181589072217691 
1.3999999999998622, -0.7188744272364106 
1.4099999999998611, -0.7198677054194245 
1.41999999999986, -0.7211319636053418 
1.429999999999859, -0.7226559015344782 
1.4399999999998578, -0.7244204093819027 
1.4499999999998567, -0.7263899580366154 
1.4599999999998556, -0.7285000163321554 
1.4699999999998545, -0.7306471763759299 
1.4799999999998534, -0.7326936492284875 
1.4899999999998523, -0.7344943588239211 
1.4999999999998512, -0.7359380218662789 
1.5099999999998501, -0.7369769365758628 
1.519999999999849, -0.7376265059626534 
1.529999999999848, -0.7379404387115258 
1.5399999999998468, -0.7379820164315922 
1.5499999999998457, -0.7378055147270894 
1.5599999999998446, -0.7374498713411488 
1.5699999999998435, -0.7369413174871734 
1.5799999999998424, -0.7363028228856463 
1.5899999999998413, -0.735571863354268 
1.5999999999998402, -0.7348318150205921 
1.6099999999998391, -0.7342644890828806 
1.619999999999838, -0.7342277512645307 
1.629999999999837, -0.7353432510865422 
1.6399999999998358, -0.7385318407304041 
1.6499999999998347, -0.7448624802472954 
1.6599999999998336, -0.7550661750326684 
1.6699999999998325, -0.7688076052210078 
1.6799999999998314, -0.7843287341406188 
1.6899999999998303, -0.7991394263951677 
1.6999999999998292, -0.811335175569087 
1.709999999999828, -0.8202899499758575 
1.719999999999827, -0.8263579716958318 
1.729999999999826, -0.8302557157332705 
1.7399999999998248, -0.8326622128315073 
1.7499999999998237, -0.8340846169229652 
1.7599999999998226, -0.8348593711805368 
1.7699999999998215, -0.8351919547226088 
1.7799999999998204, -0.8351942703590653 
1.7899999999998193, -0.8349083547527064 
1.7999999999998182, -0.8343150494217945 
1.809999999999817, -0.8333276230685922 
1.819999999999816, -0.8317693099272487 
1.8299999999998149, -0.8293347294688317 
1.8399999999998138, -0.8255453493889178 
1.8499999999998127, -0.8197407560737465 
1.8599999999998116, -0.8112026314351908 
1.8699999999998105, -0.7995207439733495 
1.8799999999998094, -0.7851158457789571 
1.8899999999998083, -0.7694595164699546 
1.8999999999998072, -0.754567264379377 
1.909999999999806, -0.7420868361331752 
1.919999999999805, -0.7327461167673378 
1.9299999999998039, -0.7264232339989541 
1.9399999999998028, -0.7225275339797446 
1.9499999999998017, -0.7203519192435996 
1.9599999999998006, -0.7192748300638797 
1.9699999999997995, -0.718831824059156 
1.9799999999997984, -0.7187117866034878 
1.9899999999997973, -0.7187223374726066 
1.9999999999997962, -0.7187504340969187 
2.0099999999998173, -0.7187296087718381 
2.0199999999998384, -0.7186167548768541 
2.0299999999998595, -0.7183778300459102 
2.0399999999998806, -0.7179813880342802 
2.0499999999999017, -0.7173994936066148 
2.059999999999923, -0.7166152498395373 
2.069999999999944, -0.7156333739587912 
2.079999999999965, -0.7144864199479515 
2.089999999999986, -0.7132297090605502 
2.100000000000007, -0.7119258247431198 
2.1100000000000283, -0.7106280258771817 
2.1200000000000494, -0.7093718874293271 
2.1300000000000705, -0.7081770588793004 
2.1400000000000916, -0.7070547326815533 
2.1500000000001127, -0.7060154621176362 
2.160000000000134, -0.7050743590988302 
2.170000000000155, -0.7042531735732955 
2.180000000000176, -0.7035798760578779 
2.190000000000197, -0.7030864658220513 
2.2000000000002182, -0.7028056432973372 
2.2100000000002393, -0.7027671199151059 
2.2200000000002604, -0.7029945375474269 
2.2300000000002815, -0.7035038833063832 
2.2400000000003026, -0.7043037456694619 
2.2500000000003237, -0.7053968924070495 
2.260000000000345, -0.7067817329650105 
2.270000000000366, -0.7084515078176475 
2.280000000000387, -0.7103888466168773 
2.290000000000408, -0.7125544188416741 
2.3000000000004293, -0.7148720494216196 
2.3100000000004504, -0.7172191967529843 
2.3200000000004715, -0.7194366484387611 
2.3300000000004926, -0.7213644577122947 
2.3400000000005137, -0.7228893731592769 
2.3500000000005348, -0.7239730462438034 
2.360000000000556, -0.7246441686878945 
2.370000000000577, -0.7249671476288423 
2.380000000000598, -0.72501101020318 
2.390000000000619, -0.7248312708308638 
2.4000000000006403, -0.7244644635019684 
2.4100000000006614, -0.723930724066934 
2.4200000000006825, -0.7232418108035079 
2.4300000000007036, -0.7224158608839117 
2.4400000000007247, -0.7215040887313289 
2.450000000000746, -0.7206373407945464 
2.460000000000767, -0.7200978992602473 
2.470000000000788, -0.7204036185198622 
2.480000000000809, -0.7223418304497279 
2.49000000000083, -0.7268163659733463 
2.5000000000008513, -0.7343780486806768 
2.5100000000008724, -0.7446086819024298 
2.5200000000008935, -0.7560000649347368 
2.5300000000009146, -0.7667222157090141 
2.5400000000009357, -0.775574725933199 
2.550000000000957, -0.7822381749662272 
2.560000000000978, -0.7869489144681422 
2.570000000000999, -0.790132965240943 
2.58000000000102, -0.7922050520446676 
2.5900000000010412, -0.7934957231835889 
2.6000000000010624, -0.7942410401977331 
2.6100000000010835, -0.7945953090407691 
2.6200000000011046, -0.7946474900566127 
2.6300000000011257, -0.7944329206486607 
2.6400000000011468, -0.7939371295051346 
2.650000000001168, -0.7930904654552337 
2.660000000001189, -0.7917535494185247 
2.67000000000121, -0.7896975767902547 
2.680000000001231, -0.7865950877089641 
2.6900000000012523, -0.7820577817362038 
2.7000000000012734, -0.7757692712379586 
2.7100000000012945, -0.7677082367632084 
2.7200000000013156, -0.7583236080579014 
2.7300000000013367, -0.7484666170211265 
2.740000000001358, -0.7390797004787606 
2.750000000001379, -0.7308794294892298 
2.7600000000014, -0.7242264276855614 
2.770000000001421, -0.7191690964911402 
2.780000000001442, -0.7155538356587321 
2.7900000000014633, -0.7131275522826093 
2.8000000000014844, -0.71161036267347 
2.8100000000015055, -0.7107406167621987 
2.8200000000015266, -0.710298654928409 
2.8300000000015477, -0.7101147042034203 
2.840000000001569, -0.710065840484059 
2.85000000000159, -0.7100669316049255 
2.860000000001611, -0.7100599128569801 
2.870000000001632, -0.7100045742101315 
2.8800000000016532, -0.7098727572065645 
2.8900000000016743, -0.7096466352297266 
2.9000000000016954, -0.7093202160561355 
2.9100000000017165, -0.7089012756398991 
2.9200000000017377, -0.7084099315695698 
2.9300000000017588, -0.7078720118450887 
2.94000000000178, -0.7073097595476238 
2.950000000001801, -0.7067352160468259 
2.960000000001822, -0.7061499064701422 
2.970000000001843, -0.7055500656799414 
2.9800000000018643, -0.704933642907083 
2.9900000000018854, -0.7043056721604174 
3.0000000000019065, -0.7036810518486145 
3.0100000000019276, -0.7030857863529372 
3.0200000000019487, -0.7025579881350491 
3.03000000000197, -0.7021489727987076 
3.040000000001991, -0.7019237604536028 
3.050000000002012, -0.7019599311935375 
3.060000000002033, -0.702344202799289 
3.070000000002054, -0.7031669971252634 
3.0800000000020753, -0.7045159613146764 
3.0900000000020964, -0.7064691333314617 
3.1000000000021175, -0.7090868331686967 
3.1100000000021386, -0.7123989664555344 
3.1200000000021597, -0.7163830652476266 
3.130000000002181, -0.7209316343541731 
3.140000000002202, -0.7258196992727962 
3.150000000002223, -0.7307029603709554 
3.160000000002244, -0.7351816039614769 
3.1700000000022652, -0.738922549474298 
3.1800000000022863, -0.7417656325569703 
3.1900000000023074, -0.743737745546007 
3.2000000000023285, -0.7449822560038518 
3.2100000000023496, -0.7456718889920496 
3.2200000000023707, -0.7459536355240477 
3.230000000002392, -0.7459294151520138 
3.240000000002413, -0.7456562911091285 
3.250000000002434, -0.7451522144144498 
3.260000000002455, -0.7444006390471326 
3.2700000000024763, -0.7433525757036834 
3.2800000000024974, -0.7419276793892811 
3.2900000000025185, -0.740018111599017 
3.3000000000025396, -0.7374998651071679 
3.3100000000025607, -0.7342525468437467 
3.3200000000025818, -0.7301771397922883 
3.330000000002603, -0.72519946712586 
3.340000000002624, -0.7193082911944514 
3.350000000002645, -0.7127540775719947 
3.360000000002666, -0.7063011974441152 
3.3700000000026873, -0.7010216847573665 
3.3800000000027084, -0.6976081718481344 
3.3900000000027295, -0.6960048119159796 
3.4000000000027506, -0.6956711768847201 
3.4100000000027717, -0.696009243962012 
3.420000000002793, -0.6965862510750469 
3.430000000002814, -0.6971582442199897 
3.440000000002835, -0.6976140226251444 
3.450000000002856, -0.6979146669367345 
3.460000000002877, -0.6980514748294063 
3.4700000000028983, -0.6980213515983741 
3.4800000000029194, -0.6978132995131988 
3.4900000000029405, -0.6974010893388242 
3.5000000000029616, -0.6967403877601566 
3.5100000000029827, -0.69577208219881 
3.520000000003004, -0.6944359787649856 
3.530000000003025, -0.692696976823421 
3.540000000003046, -0.6905756684584776 
3.550000000003067, -0.688162872807772 
3.5600000000030882, -0.6856011803120207 
3.5700000000031094, -0.6830419254012894 
3.5800000000031305, -0.6806061167603905 
3.5900000000031516, -0.678369272218299 
3.6000000000031727, -0.6763680090368401 
3.6100000000031938, -0.6746152686894307 
3.620000000003215, -0.6731137707674792 
3.630000000003236, -0.6718638480132897 
3.640000000003257, -0.6708661013314857 
3.650000000003278, -0.6701208038661625 
3.6600000000032993, -0.6696259975417804 
3.6700000000033204, -0.66937576727639 
3.6800000000033415, -0.6693596188016241 
3.6900000000033626, -0.6695632988214335 
3.7000000000033837, -0.6699708435278983 
3.710000000003405, -0.6705672209779101 
3.720000000003426, -0.6713406730323385 
3.730000000003447, -0.6722836637159555 
3.740000000003468, -0.673391112991573 
3.750000000003489, -0.674654575946914 
3.7600000000035103, -0.6760520054148625 
3.7700000000035314, -0.6775356682507302 
3.7800000000035525, -0.6790253015602652 
3.7900000000035736, -0.6804158109130408 
3.8000000000035947, -0.6816023651779199 
3.810000000003616, -0.682511192267359 
3.820000000003637, -0.6831164718107736 
3.830000000003658, -0.6834345050613575 
3.840000000003679, -0.6835040299339815 
3.8500000000037002, -0.6833670600223187 
3.8600000000037213, -0.6830578843230791 
3.8700000000037424, -0.6826005075013878 
3.8800000000037635, -0.6820125967571522 
3.8900000000037847, -0.6813155848189556 
3.9000000000038058, -0.6805534660608112 
3.910000000003827, -0.6798254877898084 
3.920000000003848, -0.6793382555010061 
3.930000000003869, -0.6794749999688805 
3.94000000000389, -0.6808520788006676 
3.9500000000039113, -0.6842747273357924 
3.9600000000039324, -0.6904504484363019 
3.9700000000039535, -0.6994286471594345 
3.9800000000039746, -0.71016691998278 
3.9900000000039957, -0.7208949828206166 
4.000000000004016, -0.7301384329903098 
4.010000000003993, -0.7373231731474545 
4.02000000000397, -0.7425665306875046 
4.030000000003946, -0.746244126160617 
4.040000000003923, -0.7487445919309949 
4.0500000000039, -0.7503905572506453 
4.0600000000038765, -0.7514256796981921 
4.070000000003853, -0.7520215776435469 
4.08000000000383, -0.7522897091429572 
4.090000000003807, -0.7522921393377295 
4.100000000003783, -0.7520481018255426 
4.11000000000376, -0.7515349000940345 
4.120000000003737, -0.7506829930589074 
4.130000000003713, -0.749367450344967 
4.14000000000369, -0.7474036225151547 
4.150000000003667, -0.7445649173800529 
4.1600000000036434, -0.7406473538430169 
4.17000000000362, -0.7355852080315872 
4.180000000003597, -0.7295598801004562 
4.1900000000035735, -0.7230001619026221 
4.20000000000355, -0.7164436149241051 
4.210000000003527, -0.710358988864074 
4.220000000003504, -0.7050463492102703 
4.23000000000348, -0.7006351951108456 
4.240000000003457, -0.6971313577618926 
4.250000000003434, -0.69446672336954 
4.26000000000341, -0.6925345116498299 
4.270000000003387, -0.6912111055576442 
4.280000000003364, -0.690370011014483 
4.2900000000033405, -0.6898917496990828 
4.300000000003317, -0.6896708460266627 
4.310000000003294, -0.6896197572278322 
4.320000000003271, -0.6896697227456279 
4.330000000003247, -0.6897692782276835 
4.340000000003224, -0.6898817693197004 
4.350000000003201, -0.6899831795482446 
4.360000000003177, -0.6900608648662789 
4.370000000003154, -0.6901125489013987 
4.380000000003131, -0.6901438697166857 
4.390000000003107, -0.6901630712354316 
4.400000000003084, -0.6901736471679814 
4.410000000003061, -0.6901684130671475 
4.4200000000030375, -0.6901289491524119 
4.430000000003014, -0.6900314711573535 
4.440000000002991, -0.689855883292153 
4.450000000002968, -0.6895928362963214 
4.460000000002944, -0.689245957732649 
4.470000000002921, -0.6888305789852653 
4.480000000002898, -0.6883724315279545 
4.490000000002874, -0.6879091216814216 
4.500000000002851, -0.6874954885042425 
4.510000000002828, -0.6872125783857588 
4.520000000002804, -0.6871789644153686 
4.530000000002781, -0.6875620653724902 
4.540000000002758, -0.6885858398601504 
4.5500000000027345, -0.690529855880399 
4.560000000002711, -0.6937130292350703 
4.570000000002688, -0.69845246194017 
4.580000000002665, -0.7049842696325539 
4.590000000002641, -0.7133365342960383 
4.600000000002618, -0.7231746787770312 
4.610000000002595, -0.7337126431924784 
4.620000000002571, -0.7438426415523759 
4.630000000002548, -0.7525249465276973 
4.640000000002525, -0.759193944568747 
4.6500000000025015, -0.7638578862837204 
4.660000000002478, -0.7668845644387903 
4.670000000002455, -0.7687270710685706 
4.6800000000024315, -0.7697649962487503 
4.690000000002408, -0.7702623276780923 
4.700000000002385, -0.7703806653252535 
4.710000000002362, -0.7702035125707873 
4.720000000002338, -0.7697536382302247 
4.730000000002315, -0.7689988099869459 
4.740000000002292, -0.7678447794971286 
4.750000000002268, -0.7661140507914889 
4.760000000002245, -0.7635087705265206 
4.770000000002222, -0.7595614640131642 
4.7800000000021985, -0.753600406437805 
4.790000000002175, -0.7448152042258667 
4.800000000002152, -0.7325811462667319 
4.810000000002129, -0.7171037862029147 
4.820000000002105, -0.6999387937448238 
4.830000000002082, -0.683569127689561 
4.840000000002059, -0.6701161358861338 
4.850000000002035, -0.6604236649086082 
4.860000000002012, -0.6541764856118961 
4.870000000001989, -0.6505263129097107 
4.880000000001965, -0.6485950024629228 
4.890000000001942, -0.6476936873340461 
4.900000000001919, -0.6473545134205876 
4.9100000000018955, -0.6472872961417675 
4.920000000001872, -0.647322814176746 
