t, s[1].omega / s[0].omega 
0, -1.480026570744946 
0.009999999999999995, -1.482163705446668 
0.019999999999999934, -1.4834193698995708 
0.029999999999999874, -1.4840034548145966 
0.04000000000000012, -1.4840907558415173 
0.050000000000000405, -1.483816616598203 
0.06000000000000069, -1.4832893092266404 
0.07000000000000098, -1.4826104531176358 
0.08000000000000126, -1.4818883574031836 
0.09000000000000155, -1.4812301649654462 
0.10000000000000184, -1.4807214628267809 
0.11000000000000212, -1.4804114547609941 
0.12000000000000241, -1.480294931633635 
0.130000000000002, -1.4802957855191838 
0.1400000000000009, -1.480288257015022 
0.1499999999999998, -1.4801400856475522 
0.1599999999999987, -1.4797240142697907 
0.1699999999999976, -1.478888629395005 
0.1799999999999965, -1.477412621251924 
0.1899999999999954, -1.4749629381948888 
0.1999999999999943, -1.4710789709100258 
0.2099999999999932, -1.4652329507633945 
0.2199999999999921, -1.4570754539878479 
0.229999999999991, -1.4470044715138948 
0.2399999999999899, -1.4368563352328052 
0.2499999999999888, -1.429497337255527 
0.2599999999999877, -1.4264647328372364 
0.2699999999999866, -1.42656571363774 
0.2799999999999855, -1.427702069697742 
0.2899999999999844, -1.4286828159802725 
0.2999999999999833, -1.4292024326277244 
0.3099999999999822, -1.4292855752215097 
0.3199999999999811, -1.428985492335528 
0.32999999999998, -1.4282952702874583 
0.3399999999999789, -1.4271515354405286 
0.3499999999999778, -1.42554045867227 
0.35999999999997667, -1.4238416497344402 
0.36999999999997557, -1.4234081882377951 
0.37999999999997447, -1.4264362250024276 
0.38999999999997337, -1.4339078671622845 
0.39999999999997227, -1.4439543259978591 
0.40999999999997117, -1.4536252735907962 
0.41999999999997006, -1.461195736705786 
0.42999999999996896, -1.4663850435467969 
0.43999999999996786, -1.4696078251867042 
0.44999999999996676, -1.4714174192894203 
0.45999999999996566, -1.472279079938065 
0.46999999999996456, -1.4725220111535093 
0.47999999999996346, -1.4723623579212357 
0.48999999999996235, -1.4719487408624976 
0.49999999999996125, -1.4714091401876366 
0.5099999999999602, -1.4708782686682838 
0.519999999999959, -1.4704816990973697 
0.529999999999958, -1.4702898494526087 
0.5399999999999568, -1.4702986151832242 
0.5499999999999557, -1.4704500630863895 
0.5599999999999546, -1.47065420307766 
0.5699999999999535, -1.470804978815902 
0.5799999999999524, -1.4707984550880782 
0.5899999999999513, -1.4705387446786429 
0.5999999999999502, -1.4699260359093977 
0.6099999999999491, -1.4688401395601942 
0.619999999999948, -1.4671326149996768 
0.6299999999999469, -1.4646336914256195 
0.6399999999999458, -1.4611813563236127 
0.6499999999999447, -1.4566948807706446 
0.6599999999999436, -1.4513338756233967 
0.6699999999999425, -1.4457324260123712 
0.6799999999999414, -1.4410355036705034 
0.6899999999999403, -1.438266481753097 
0.6999999999999392, -1.4374264901856209 
0.7099999999999381, -1.4376346254754693 
0.719999999999937, -1.4380499579177237 
0.7299999999999359, -1.4382737040373903 
0.7399999999999348, -1.43818941876108 
0.7499999999999337, -1.4377469753974792 
0.7599999999999326, -1.4368435287772445 
0.7699999999999315, -1.4352663447519498 
0.7799999999999304, -1.4327139342085244 
0.7899999999999293, -1.429111325387613 
0.7999999999999282, -1.4256416055497416 
0.8099999999999271, -1.4259433403482615 
0.819999999999926, -1.4340028321457425 
0.8299999999999249, -1.448607689267476 
0.8399999999999238, -1.463873831288924 
0.8499999999999227, -1.475537334931105 
0.8599999999999216, -1.4829426470710234 
0.8699999999999205, -1.4871387899500674 
0.8799999999999194, -1.489306798126676 
0.8899999999999183, -1.4902786925274123 
0.8999999999999172, -1.4905502653302685 
0.9099999999999161, -1.4904005342173554 
0.919999999999915, -1.4900016764946034 
0.9299999999999139, -1.4895040422069195 
0.9399999999999128, -1.4890819059469638 
0.9499999999999117, -1.488902349935194 
0.9599999999999106, -1.4890344469433114 
0.9699999999999095, -1.4894151158105138 
0.9799999999999084, -1.48991354452688 
0.9899999999999073, -1.4903990282125419 
0.9999999999999062, -1.4907630768891775 
1.0099999999999052, -1.4909202763192693 
1.019999999999904, -1.4908020350332647 
1.029999999999903, -1.4903455208521996 
1.039999999999902, -1.489484346278123 
1.0499999999999008, -1.4881458415780944 
1.0599999999998997, -1.4862560529485402 
1.0699999999998986, -1.4837565353375308 
1.0799999999998975, -1.4806474242054364 
1.0899999999998964, -1.4770797901439354 
1.0999999999998953, -1.4734826563944403 
1.1099999999998942, -1.4705543031732844 
1.119999999999893, -1.468864415219516 
1.129999999999892, -1.4683514457175424 
1.1399999999998909, -1.46844855881363 
1.1499999999998898, -1.4686268807373792 
1.1599999999998887, -1.4686175900664538 
1.1699999999998876, -1.468304828381616 
1.1799999999998865, -1.4675759025185244 
1.1899999999998854, -1.4662125294778536 
1.1999999999998843, -1.4638083684380088 
1.2099999999998832, -1.459796085243342 
1.219999999999882, -1.4540106860428461 
1.229999999999881, -1.4484718927732125 
1.2399999999998799, -1.4487645843846368 
1.2499999999998788, -1.4591573718586144 
1.2599999999998777, -1.4755820066740213 
1.2699999999998766, -1.490446537825791 
1.2799999999998755, -1.5004424673463999 
1.2899999999998744, -1.5061536365193315 
1.2999999999998733, -1.509105446282063 
1.3099999999998722, -1.5104745281042105 
1.319999999999871, -1.5109563373869566 
1.32999999999987, -1.5109242813216202 
1.3399999999998689, -1.5105856358550596 
1.3499999999998678, -1.5100973186857927 
1.3599999999998666, -1.5096433279246175 
1.3699999999998655, -1.5094334806521825 
1.3799999999998644, -1.5095963682519131 
1.3899999999998633, -1.5100876944099015 
1.3999999999998622, -1.510745776509365 
1.4099999999998611, -1.5114033372749671 
1.41999999999986, -1.511934377154407 
1.429999999999859, -1.512251160136806 
1.4399999999998578, -1.5122911438942295 
1.4499999999998567, -1.5120032781334012 
1.4599999999998556, -1.5113370211766726 
1.4699999999998545, -1.510237383911595 
1.4799999999998534, -1.5086467938085417 
1.4899999999998523, -1.5065164247785081 
1.4999999999998512, -1.503837903378744 
1.5099999999998501, -1.5007159642247285 
1.519999999999849, -1.4974832142469432 
1.529999999999848, -1.494736595313096 
1.5399999999998468, -1.4930447073264295 
1.5499999999998457, -1.492454804147922 
1.5599999999998446, -1.4924902490829928 
1.5699999999998435, -1.492638089923402 
1.5799999999998424, -1.492615194955476 
1.5899999999998413, -1.4922924943255025 
1.5999999999998402, -1.4915468824472364 
1.6099999999998391, -1.490145029509762 
1.619999999999838, -1.4876515964732953 
1.629999999999837, -1.4834555292816949 
1.6399999999998358, -1.4773952050345023 
1.6499999999998347, -1.471734974648929 
1.6599999999998336, -1.4724919867528707 
1.6699999999998325, -1.4836487682159343 
1.6799999999998314, -1.5002147124735081 
1.6899999999998303, -1.5145339387418306 
1.6999999999998292, -1.5238456507481446 
1.709999999999828, -1.529038943391366 
1.719999999999827, -1.5316649761256829 
1.729999999999826, -1.5328404751025213 
1.7399999999998248, -1.533205231727102 
1.7499999999998237, -1.5330990077824431 
1.7599999999998226, -1.532716181139604 
1.7699999999998215, -1.5322178884947424 
1.7799999999998204, -1.5317968489642695 
1.7899999999998193, -1.5316481261351593 
1.7999999999998182, -1.5318529928865878 
1.809999999999817, -1.5323285366088848 
1.819999999999816, -1.532913769641887 
1.8299999999998149, -1.5334608182602991 
1.8399999999998138, -1.533857949893236 
1.8499999999998127, -1.534022593729477 
1.8599999999998116, -1.5338894044634033 
1.8699999999998105, -1.5333963442987193 
1.8799999999998094, -1.5324739532361025 
1.8899999999998083, -1.5310418503807912 
1.8999999999998072, -1.529014245147274 
1.909999999999806, -1.5263220106605109 
1.919999999999805, -1.5229740414164439 
1.9299999999998039, -1.5191886978147262 
1.9399999999998028, -1.5155472317595207 
1.9499999999998017, -1.5128782484697283 
1.9599999999998006, -1.5116387928800716 
1.9699999999997995, -1.511481865668196 
1.9799999999997984, -1.511712836530082 
1.9899999999997973, -1.5118647409157835 
1.9999999999997962, -1.5117492366310157 
2.0099999999998173, -1.5112752289367282 
2.0199999999998384, -1.5103045055524933 
2.0299999999998595, -1.5085658251073049 
2.0399999999998806, -1.5056597257015052 
2.0499999999999017, -1.5014541540404995 
2.059999999999923, -1.4974848379138317 
2.069999999999944, -1.4983806115032403 
2.079999999999965, -1.5081784991051812 
2.089999999999986, -1.5236959009094038 
2.100000000000007, -1.5380643941806933 
2.1100000000000283, -1.5479999515882952 
2.1200000000000494, -1.5538424631224463 
2.1300000000000705, -1.5569442305085628 
2.1400000000000916, -1.5584211237733991 
2.1500000000001127, -1.5589656628064532 
2.160000000000134, -1.5589650495711724 
2.170000000000155, -1.558639432883264 
2.180000000000176, -1.558148562164117 
2.190000000000197, -1.5576578979227882 
2.2000000000002182, -1.5573328919670026 
2.2100000000002393, -1.5572632588917557 
2.2200000000002604, -1.557420892382316 
2.2300000000002815, -1.5577078858776228 
2.2400000000003026, -1.5580109044045922 
2.2500000000003237, -1.5582187513936048 
2.260000000000345, -1.5582295644591366 
2.270000000000366, -1.5579489512485958 
2.280000000000387, -1.5572732639892237 
2.290000000000408, -1.5560693032676978 
2.3000000000004293, -1.5541624768717155 
2.3100000000004504, -1.5513415607659156 
2.3200000000004715, -1.547399575613825 
2.3300000000004926, -1.542266347347348 
2.3400000000005137, -1.536310709580866 
2.3500000000005348, -1.5306777105167355 
2.360000000000556, -1.5269221817643104 
2.370000000000577, -1.525613766237344 
2.380000000000598, -1.525833121795873 
2.390000000000619, -1.5264095508114501 
2.4000000000006403, -1.5267688912974526 
2.4100000000006614, -1.5267733913781945 
2.4200000000006825, -1.526401138404055 
2.4300000000007036, -1.525591591667138 
2.4400000000007247, -1.5242140631116574 
2.450000000000746, -1.5221930633031548 
2.460000000000767, -1.520031536938578 
2.470000000000788, -1.5197147906287332 
2.480000000000809, -1.5241371223576867 
2.49000000000083, -1.533532972364245 
2.5000000000008513, -1.5444412893295725 
2.5100000000008724, -1.5535752888655459 
2.5200000000008935, -1.5599124818731545 
2.5300000000009146, -1.5638231202065838 
2.5400000000009357, -1.5660080997980104 
2.550000000000957, -1.567063435708471 
2.560000000000978, -1.5673990422190358 
2.570000000000999, -1.5672738167985056 
2.58000000000102, -1.5668560222990924 
2.5900000000010412, -1.5662804975454072 
2.6000000000010624, -1.5656817230502744 
2.6100000000010835, -1.565181499170238 
2.6200000000011046, -1.5648523765588176 
2.6300000000011257, -1.5647084861570435 
2.6400000000011468, -1.5647130498820376 
2.650000000001168, -1.5647759929094471 
2.660000000001189, -1.5647717312635794 
2.67000000000121, -1.5645707691707151 
2.680000000001231, -1.564038611434325 
2.6900000000012523, -1.5629971932125022 
2.7000000000012734, -1.5611721827703395 
2.7100000000012945, -1.5581460391188424 
2.7200000000013156, -1.5533507589386102 
2.7300000000013367, -1.5462016162372452 
2.740000000001358, -1.5366003874915592 
2.750000000001379, -1.5259364448525174 
2.7600000000014, -1.517459231147144 
2.770000000001421, -1.513768981248016 
2.780000000001442, -1.5139482088208387 
2.7900000000014633, -1.5153880644869515 
2.8000000000014844, -1.5165769181951059 
2.8100000000015055, -1.5171872504440782 
2.8200000000015266, -1.5172960681163616 
2.8300000000015477, -1.5169974949168408 
2.840000000001569, -1.5163191237499303 
2.85000000000159, -1.5152680618839562 
2.860000000001611, -1.5140210278907786 
2.870000000001632, -1.513304163059409 
2.8800000000016532, -1.5145022874537395 
2.8900000000016743, -1.518532949859122 
2.9000000000016954, -1.5245262529395804 
2.9100000000017165, -1.5306587031936034 
2.9200000000017377, -1.5357174459293172 
2.9300000000017588, -1.5393775057992058 
2.94000000000178, -1.5417761787943023 
2.950000000001801, -1.5431790128870773 
2.960000000001822, -1.543840101411437 
2.970000000001843, -1.5439617349842363 
2.9800000000018643, -1.5436935597366463 
2.9900000000018854, -1.5431497740317868 
3.0000000000019065, -1.5424336232115736 
3.0100000000019276, -1.541653923228058 
3.0200000000019487, -1.5409207813128911 
3.03000000000197, -1.54033100067967 
3.040000000001991, -1.539952842139678 
3.050000000002012, -1.5397903754295723 
3.060000000002033, -1.5397537094367526 
3.070000000002054, -1.5396940999017954 
3.0800000000020753, -1.539461225321151 
3.0900000000020964, -1.5389051227384276 
3.1000000000021175, -1.5378218628675664 
3.1100000000021386, -1.5358713064646756 
3.1200000000021597, -1.5324832694062027 
3.130000000002181, -1.5267975387365786 
3.140000000002202, -1.5178157415632993 
3.150000000002223, -1.5051904118252881 
3.160000000002244, -1.490896627519143 
3.1700000000022652, -1.4798101619764903 
3.1800000000022863, -1.4756065815098847 
3.1900000000023074, -1.4766326020296472 
3.2000000000023285, -1.479095477308349 
3.2100000000023496, -1.4810110056298993 
3.2200000000023707, -1.4820644004897985 
3.230000000002392, -1.4824517835255926 
3.240000000002413, -1.4823678015897552 
3.250000000002434, -1.4819118509363047 
3.260000000002455, -1.481127282858204 
3.2700000000024763, -1.4801228955049368 
3.2800000000024974, -1.4793140886084668 
3.2900000000025185, -1.479611671079124 
3.3000000000025396, -1.4819511787508681 
3.3100000000025607, -1.4862413837733381 
3.3200000000025818, -1.4913114629951645 
3.330000000002603, -1.495984628547376 
3.340000000002624, -1.4996912067169956 
3.350000000002645, -1.5023425701456605 
3.360000000002666, -1.5040616502204405 
3.3700000000026873, -1.505026398459156 
3.3800000000027084, -1.5054064127433406 
3.3900000000027295, -1.5053425233252509 
3.4000000000027506, -1.5049464523897567 
3.4100000000027717, -1.504313160223735 
3.420000000002793, -1.5035382874392305 
3.430000000002814, -1.5027269025256056 
3.440000000002835, -1.5019857550067626 
3.450000000002856, -1.5014091943722887 
3.460000000002877, -1.501058113166452 
3.4700000000028983, -1.5009197506814194 
3.4800000000029194, -1.500890577994928 
3.4900000000029405, -1.5008219975894626 
3.5000000000029616, -1.5005704517231073 
3.5100000000029827, -1.499991315877905 
3.520000000003004, -1.4988868968407947 
3.530000000003025, -1.496935714405009 
3.540000000003046, -1.4936203292993289 
3.550000000003067, -1.4881966490950616 
3.5600000000030882, -1.4798420107810717 
3.5700000000031094, -1.4682720270085188 
3.5800000000031305, -1.454979600432813 
3.5900000000031516, -1.4438275439116564 
3.6000000000031727, -1.4383496608313222 
3.6100000000031938, -1.438047810019219 
3.620000000003215, -1.4398310967714587 
3.630000000003236, -1.4415514454694287 
3.640000000003257, -1.442604077874425 
3.650000000003278, -1.4430431574448734 
3.6600000000032993, -1.4430179963367462 
3.6700000000033204, -1.4426125846772517 
3.6800000000033415, -1.4418420069596973 
3.6900000000033626, -1.4407261391222579 
3.7000000000033837, -1.4394960639095022 
3.710000000003405, -1.4389508645818319 
3.720000000003426, -1.440489046545877 
3.730000000003447, -1.4450111263989656 
3.740000000003468, -1.4516951746485884 
3.750000000003489, -1.4586951640301062 
3.7600000000035103, -1.4646438930957866 
3.7700000000035314, -1.4690718215127965 
3.7800000000035525, -1.4720601741344843 
3.7900000000035736, -1.4738872380214767 
3.8000000000035947, -1.4748490987175176 
3.810000000003616, -1.475192788014097 
3.820000000003637, -1.4751029845228376 
3.830000000003658, -1.4747153601852658 
3.840000000003679, -1.4741428726604444 
3.8500000000037002, -1.4734996037494068 
3.8600000000037213, -1.4729017919912857 
3.8700000000037424, -1.4724426118787788 
3.8800000000037635, -1.472169753687987 
3.8900000000037847, -1.4720809728204423 
3.9000000000038058, -1.4721204453023422 
3.910000000003827, -1.4721849385451695 
3.920000000003848, -1.4721535024279353 
3.930000000003869, -1.4719100679456107 
3.94000000000389, -1.4713339105739547 
3.9500000000039113, -1.4702702591327912 
3.9600000000039324, -1.4685023505762032 
3.9700000000039535, -1.4657403222605612 
3.9800000000039746, -1.4616456488431542 
3.9900000000039957, -1.4559305137423726 
4.000000000004016, -1.448606574142435 
4.010000000003993, -1.4404165686220178 
4.02000000000397, -1.433088347942699 
4.030000000003946, -1.4285018425914624 
4.040000000003923, -1.4270193670999431 
4.0500000000039, -1.4273561472288716 
4.0600000000038765, -1.4281272321057075 
4.070000000003853, -1.428676877409084 
4.08000000000383, -1.428855647627861 
4.090000000003807, -1.4286660040308865 
4.100000000003783, -1.4280914060190542 
4.11000000000376, -1.4270423710232434 
4.120000000003737, -1.4253768533181086 
4.130000000003713, -1.4230947667161946 
4.14000000000369, -1.4209418665329108 
4.150000000003667, -1.4212038349303935 
4.1600000000036434, -1.4267997071015641 
4.17000000000362, -1.4378073177891415 
4.180000000003597, -1.4505926554113935 
4.1900000000035735, -1.4615044182973693 
4.20000000000355, -1.469205982450179 
4.210000000003527, -1.474017356037518 
4.220000000003504, -1.4767516973023755 
4.23000000000348, -1.4781399031994626 
4.240000000003457, -1.4786910743534634 
4.250000000003434, -1.4787223042775088 
4.26000000000341, -1.478428923103769 
4.270000000003387, -1.4779539424106967 
4.280000000003364, -1.4774404458076877 
4.2900000000033405, -1.4770402656934665 
4.300000000003317, -1.4768641941923524 
4.310000000003294, -1.476929304505884 
4.320000000003271, -1.4771710529899862 
4.330000000003247, -1.4774896505579547 
4.340000000003224, -1.4777777532699732 
4.350000000003201, -1.4779338751871525 
4.360000000003177, -1.4778691951639176 
4.370000000003154, -1.4775019117971822 
4.380000000003131, -1.4767444879667941 
4.390000000003107, -1.475495060391903 
4.400000000003084, -1.4736385744773588 
4.410000000003061, -1.4710601999850934 
4.4200000000030375, -1.4676810256513972 
4.430000000003014, -1.4635424112459445 
4.440000000002991, -1.4589627028106527 
4.450000000002968, -1.4546757694741772 
4.460000000002944, -1.4516172326048067 
4.470000000002921, -1.4502207772441462 
4.480000000002898, -1.4500460676269635 
4.490000000002874, -1.4503239552020353 
4.500000000002851, -1.4505479104100583 
4.510000000002828, -1.4505182873721065 
4.520000000002804, -1.4501561783546961 
4.530000000002781, -1.4493583500715455 
4.540000000002758, -1.4479104529593463 
4.5500000000027345, -1.4454461169820099 
4.560000000002711, -1.4415926756200608 
4.570000000002688, -1.4367710531894036 
4.580000000002665, -1.4338904365745713 
4.590000000002641, -1.4381839385839874 
4.600000000002618, -1.451298745609472 
4.610000000002595, -1.4677487008919647 
4.620000000002571, -1.4813696534777703 
4.630000000002548, -1.4902671801869667 
4.640000000002525, -1.49533812541506 
4.6500000000025015, -1.4979696363971686 
4.660000000002478, -1.4991837488067836 
4.670000000002455, -1.4995874741382895 
4.6800000000024315, -1.4995137088230674 
4.690000000002408, -1.4991548334016516 
4.700000000002385, -1.4986641619078438 
4.710000000002362, -1.4982201438882439 
4.720000000002338, -1.498013635021307 
4.730000000002315, -1.4981488055230145 
4.740000000002292, -1.498576350946549 
4.750000000002268, -1.4991518832640602 
4.760000000002245, -1.4997268775384982 
4.770000000002222, -1.500183802741268 
4.7800000000021985, -1.5004353883349917 
4.790000000002175, -1.5004157157202553 
4.800000000002152, -1.5000683312457128 
4.810000000002129, -1.4993360190662075 
4.820000000002105, -1.4981565771083076 
4.830000000002082, -1.4964656426622474 
4.840000000002059, -1.4942094663655727 
4.850000000002035, -1.4913793252325154 
4.860000000002012, -1.4880889133872282 
4.870000000001989, -1.4846932739371927 
4.880000000001965, -1.481819570143716 
4.890000000001942, -1.4800547848050172 
4.900000000001919, -1.4794400750579757 
4.9100000000018955, -1.4794793264175743 
4.920000000001872, -1.4796431216881665 
4.930000000001849, -1.4796409260559433 
4.940000000001826, -1.4793444238889186 
