t, s[1].omega / s[0].omega 
0, -1.1999351827547469 
0.009999999999999995, -1.1927686098558383 
0.019999999999999934, -1.1846117493900687 
0.029999999999999874, -1.17635083953288 
0.04000000000000012, -1.169160708821995 
0.050000000000000405, -1.1640335714419252 
0.06000000000000069, -1.1612445957182744 
0.07000000000000098, -1.1602762571112253 
0.08000000000000126, -1.160288684402969 
0.09000000000000155, -1.1606098671750869 
0.10000000000000184, -1.1608792560546535 
0.11000000000000212, -1.1609522597737283 
0.12000000000000241, -1.1607709199346803 
0.130000000000002, -1.160276042338772 
0.1400000000000009, -1.159349193259105 
0.1499999999999998, -1.1577559874154082 
0.1599999999999987, -1.1550715930099844 
0.1699999999999976, -1.1505968369301431 
0.1799999999999965, -1.143347203789706 
0.1899999999999954, -1.132338987226485 
0.1999999999999943, -1.117451249122532 
0.2099999999999932, -1.1005871666108118 
0.2199999999999921, -1.0856475750286385 
0.229999999999991, -1.0761873416056957 
0.2399999999999899, -1.0728505300894682 
0.2499999999999888, -1.0735946819344435 
0.2599999999999877, -1.0758866672764917 
0.2699999999999866, -1.0781536666567573 
0.2799999999999855, -1.0798279015092132 
0.2899999999999844, -1.0808687882265964 
0.2999999999999833, -1.081396471569478 
0.3099999999999822, -1.0815282923594012 
0.3199999999999811, -1.0813282548074974 
0.32999999999998, -1.0807944240019833 
0.3399999999999789, -1.0798489775256108 
0.3499999999999778, -1.078319421860368 
0.35999999999997667, -1.075916907502266 
0.36999999999997557, -1.0722491170111825 
0.37999999999997447, -1.0669679084890649 
0.38999999999997337, -1.0602028375137895 
0.39999999999997227, -1.053241726861383 
0.40999999999997117, -1.0487336393307616 
0.41999999999997006, -1.0493145943783078 
0.42999999999996896, -1.055297792850789 
0.43999999999996786, -1.0642167566514023 
0.44999999999996676, -1.0729514733744585 
0.45999999999996566, -1.0797252554894206 
0.46999999999996456, -1.0842684589678007 
0.47999999999996346, -1.087037406150063 
0.48999999999996235, -1.0885934396736263 
0.49999999999996125, -1.0893650209259356 
0.5099999999999602, -1.0896206158688693 
0.519999999999959, -1.089503194968486 
0.529999999999958, -1.0890653289027525 
0.5399999999999568, -1.088292455207665 
0.5499999999999557, -1.0871231959280032 
0.5599999999999546, -1.0854942148237794 
0.5699999999999535, -1.0834660926024053 
0.5799999999999524, -1.081503614328827 
0.5899999999999513, -1.0808726250029963 
0.5999999999999502, -1.083721657405243 
0.6099999999999491, -1.0920898684208764 
0.619999999999948, -1.106003700899366 
0.6299999999999469, -1.1226902647585137 
0.6399999999999458, -1.1383200329467906 
0.6499999999999447, -1.1504237906566088 
0.6599999999999436, -1.1585763236848803 
0.6699999999999425, -1.1635538108788848 
0.6799999999999414, -1.1663764571503124 
0.6899999999999403, -1.1678549291800608 
0.6999999999999392, -1.168515560483996 
0.7099999999999381, -1.1686645923394 
0.719999999999937, -1.1684679035430092 
0.7299999999999359, -1.1680152254229286 
0.7399999999999348, -1.1673777402115 
0.7499999999999337, -1.1666798671949055 
0.7599999999999326, -1.1661934097181652 
0.7699999999999315, -1.1664028894158829 
0.7799999999999304, -1.1679087231348342 
0.7899999999999293, -1.171103210689339 
0.7999999999999282, -1.1758558223363929 
0.8099999999999271, -1.1815436241106165 
0.819999999999926, -1.1873796191558355 
0.8299999999999249, -1.1927147341285236 
0.8399999999999238, -1.1971549865411721 
0.8499999999999227, -1.2005488465079535 
0.8599999999999216, -1.2029276438638214 
0.8699999999999205, -1.204434673978107 
0.8799999999999194, -1.2052568751466168 
0.8899999999999183, -1.205573281450531 
0.8999999999999172, -1.2055298810569166 
0.9099999999999161, -1.205239607885767 
0.919999999999915, -1.2047995198179287 
0.9299999999999139, -1.2043149344934965 
0.9399999999999128, -1.2039151046021292 
0.9499999999999117, -1.2037398321666228 
0.9599999999999106, -1.2038920260185126 
0.9699999999999095, -1.2043902581934078 
0.9799999999999084, -1.2051654337405073 
0.9899999999999073, -1.206099820181659 
0.9999999999999062, -1.2070707395732738 
1.0099999999999052, -1.207975546783419 
1.019999999999904, -1.208739029768251 
1.029999999999903, -1.2093112939636064 
1.039999999999902, -1.2096622551627112 
1.0499999999999008, -1.2097765058285797 
1.0599999999998997, -1.2096502804463278 
1.0699999999998986, -1.2092905665734008 
1.0799999999998975, -1.2087155909484049 
1.0899999999998964, -1.2079561865460895 
1.0999999999998953, -1.2070580784225804 
1.1099999999998942, -1.2060841961961963 
1.119999999999893, -1.205113815534781 
1.129999999999892, -1.2042349111471806 
1.1399999999998909, -1.203529132989642 
1.1499999999998898, -1.2030514541412927 
1.1599999999998887, -1.2028091858927834 
1.1699999999998876, -1.2027527351278318 
1.1799999999998865, -1.2027902809068158 
1.1899999999998854, -1.2028178184638159 
1.1999999999998843, -1.2027409830431377 
1.2099999999998832, -1.2024777026428315 
1.219999999999882, -1.2019498686963117 
1.229999999999881, -1.20107710023615 
1.2399999999998799, -1.1997801669345525 
1.2499999999998788, -1.1979940660264061 
1.2599999999998777, -1.1956849771210045 
1.2699999999998766, -1.1928650546064827 
1.2799999999998755, -1.1896050448031796 
1.2899999999998744, -1.1860498040150609 
1.2999999999998733, -1.1824358511832633 
1.3099999999998722, -1.1790896854495312 
1.319999999999871, -1.1763653930397306 
1.32999999999987, -1.174506319956525 
1.3399999999998689, -1.173513890743225 
1.3499999999998678, -1.1731570233473299 
1.3599999999998666, -1.1731213941697494 
1.3699999999998655, -1.1731502685189585 
1.3799999999998644, -1.1730823513597086 
1.3899999999998633, -1.1728153787402251 
1.3999999999998622, -1.172251232184589 
1.4099999999998611, -1.1712448555083792 
1.41999999999986, -1.1695558459556914 
1.429999999999859, -1.166803874537812 
1.4399999999998578, -1.1624529863858766 
1.4499999999998567, -1.1558879020908406 
1.4599999999998556, -1.146662937559144 
1.4699999999998545, -1.134925668998028 
1.4799999999998534, -1.1218013207231963 
1.4899999999998523, -1.1093127588497507 
1.4999999999998512, -1.099563802220906 
1.5099999999998501, -1.0936177403035998 
1.519999999999849, -1.091061318048347 
1.529999999999848, -1.0906214281745117 
1.5399999999998468, -1.091076308478754 
1.5499999999998457, -1.0916847839103816 
1.5599999999998446, -1.0921304442585025 
1.5699999999998435, -1.09232149607853 
1.5799999999998424, -1.092240028934168 
1.5899999999998413, -1.0918615043957165 
1.5999999999998402, -1.0911100484044123 
1.6099999999998391, -1.0898179927949165 
1.619999999999838, -1.0876706354566517 
1.629999999999837, -1.084133660491331 
1.6399999999998358, -1.0784009897353832 
1.6499999999998347, -1.0694927134989194 
1.6599999999998336, -1.05673610987832 
1.6699999999998325, -1.040702330320014 
1.6799999999998314, -1.0239036585836647 
1.6899999999998303, -1.009956129027216 
1.6999999999998292, -1.0013250560955793 
1.709999999999828, -0.9979309567653933 
1.719999999999827, -0.9979344122694874 
1.729999999999826, -0.9993595176278672 
1.7399999999998248, -1.0009662523019052 
1.7499999999998237, -1.0022398856881645 
1.7599999999998226, -1.0030728251078749 
1.7699999999998215, -1.0035084086586148 
1.7799999999998204, -1.0036109488298517 
1.7899999999998193, -1.0034143440456986 
1.7999999999998182, -1.0029010168955206 
1.809999999999817, -1.001983336137436 
1.819999999999816, -1.0004729357443831 
1.8299999999998149, -0.9980310197455952 
1.8399999999998138, -0.9941064380883198 
1.8499999999998127, -0.9879075376780058 
1.8599999999998116, -0.9785335027169758 
1.8699999999998105, -0.9654494285498899 
1.8799999999998094, -0.9492826300989755 
1.8899999999998083, -0.9322863499722083 
1.8999999999998072, -0.9175525820443701 
1.909999999999806, -0.9072799915137647 
1.919999999999805, -0.9017384502163713 
1.9299999999998039, -0.8997297545535969 
1.9399999999998028, -0.8996921601002388 
1.9499999999998017, -0.9004336131508553 
1.9599999999998006, -0.9012878896705201 
1.9699999999997995, -0.9019724111139112 
1.9799999999997984, -0.9024063629465922 
1.9899999999997973, -0.9025865301276905 
1.9999999999997962, -0.902521457821406 
2.0099999999998173, -0.9021991073515224 
2.0199999999998384, -0.9015670309416658 
2.0299999999998595, -0.9005126961442299 
2.0399999999998806, -0.8988394635663047 
2.0499999999999017, -0.8962444741870279 
2.059999999999923, -0.8923239014865091 
2.069999999999944, -0.8866536592123199 
2.079999999999965, -0.8789828134699113 
2.089999999999986, -0.8694805790710856 
2.100000000000007, -0.8588485051477113 
2.1100000000000283, -0.8481478873802045 
2.1200000000000494, -0.8384347315364723 
2.1300000000000705, -0.8304455878761139 
2.1400000000000916, -0.8244765689689725 
2.1500000000001127, -0.820434563069773 
2.160000000000134, -0.8179763891688131 
2.170000000000155, -0.816662320999358 
2.180000000000176, -0.8160760608602372 
2.190000000000197, -0.8158896665339892 
2.2000000000002182, -0.8158773935334572 
2.2100000000002393, -0.8158980005937531 
2.2200000000002604, -0.8158661516114849 
2.2300000000002815, -0.8157259318152018 
2.2400000000003026, -0.8154316509257837 
2.2500000000003237, -0.8149371456641523 
2.260000000000345, -0.8141942634847135 
2.270000000000366, -0.8131612706444699 
2.280000000000387, -0.811819143681522 
2.290000000000408, -0.8101873714887841 
2.3000000000004293, -0.8083271588485405 
2.3100000000004504, -0.8063269977664917 
2.3200000000004715, -0.8042794663640205 
2.3300000000004926, -0.8022636958108518 
2.3400000000005137, -0.8003403391588652 
2.3500000000005348, -0.7985557237827576 
2.360000000000556, -0.7969482223821678 
2.370000000000577, -0.7955519277220636 
2.380000000000598, -0.7943961133012494 
2.390000000000619, -0.7935014095364314 
2.4000000000006403, -0.7928749082803177 
2.4100000000006614, -0.7925067445228307 
2.4200000000006825, -0.7923700809687152 
2.4300000000007036, -0.7924249393537846 
2.4400000000007247, -0.7926246240164485 
2.450000000000746, -0.7929225417071646 
2.460000000000767, -0.7932775382112529 
2.470000000000788, -0.7936569588019701 
2.480000000000809, -0.794037475589993 
2.49000000000083, -0.7944037727233361 
2.5000000000008513, -0.7947449733931811 
2.5100000000008724, -0.7950493390679472 
2.5200000000008935, -0.7952994905191921 
2.5300000000009146, -0.7954715418728628 
2.5400000000009357, -0.7955399269356981 
2.550000000000957, -0.7954856466606987 
2.560000000000978, -0.7953029026612868 
2.570000000000999, -0.7950008178104111 
2.58000000000102, -0.7946014085007183 
2.5900000000010412, -0.7941376011144777 
2.6000000000010624, -0.7936542308383443 
2.6100000000010835, -0.7932124170393428 
2.6200000000011046, -0.7928952953218917 
2.6300000000011257, -0.7928113885058856 
2.6400000000011468, -0.7930914370095647 
2.650000000001168, -0.7938762372818619 
2.660000000001189, -0.7952969557220918 
2.67000000000121, -0.7974530908310513 
2.680000000001231, -0.8003933334352457 
2.6900000000012523, -0.8041004385858319 
2.7000000000012734, -0.8084769347751024 
2.7100000000012945, -0.8133301863627336 
2.7200000000013156, -0.8183662182650707 
2.7300000000013367, -0.8232153715943188 
2.740000000001358, -0.8275082730371215 
2.750000000001379, -0.8309807426486628 
2.7600000000014, -0.8335429372011092 
2.770000000001421, -0.835265767248133 
2.780000000001442, -0.836307080963517 
2.7900000000014633, -0.8368361673298651 
2.8000000000014844, -0.8369907571005927 
2.8100000000015055, -0.8368651250951469 
2.8200000000015266, -0.8365150080286261 
2.8300000000015477, -0.8359692911889572 
2.840000000001569, -0.8352466027978753 
2.85000000000159, -0.8343820840004115 
2.860000000001611, -0.833475292868932 
2.870000000001632, -0.832771927449701 
2.8800000000016532, -0.8327797009163638 
2.8900000000016743, -0.8343741053354533 
2.9000000000016954, -0.8387659537889072 
2.9100000000017165, -0.8471387409749486 
2.9200000000017377, -0.859895106229185 
2.9300000000017588, -0.8759218046061795 
2.94000000000178, -0.8927046518807211 
2.950000000001801, -0.9075628881671365 
2.960000000001822, -0.9189664938316484 
2.970000000001843, -0.9268070595804249 
2.9800000000018643, -0.9317930694489329 
2.9900000000018854, -0.9347910097600621 
3.0000000000019065, -0.9365007495392753 
3.0100000000019276, -0.9373941483167979 
3.0200000000019487, -0.9377574146745566 
3.03000000000197, -0.9377471213472683 
3.040000000001991, -0.9374306247023231 
3.050000000002012, -0.9368076459492803 
3.060000000002033, -0.935817061443767 
3.070000000002054, -0.934335512563748 
3.0800000000020753, -0.9321804085280156 
3.0900000000020964, -0.9291445355523 
3.1000000000021175, -0.9251102255607064 
3.1100000000021386, -0.9202854267183593 
3.1200000000021597, -0.9154915587131691 
3.130000000002181, -0.912189429862741 
3.140000000002202, -0.9118688681083796 
3.150000000002223, -0.9150276537309461 
3.160000000002244, -0.9207165688195289 
3.1700000000022652, -0.9271967589345229 
3.1800000000022863, -0.9330036937177768 
3.1900000000023074, -0.9374621968798795 
3.2000000000023285, -0.9405440921856016 
3.2100000000023496, -0.9425141718526954 
3.2200000000023707, -0.9436787567200768 
3.230000000002392, -0.9442806313452692 
3.240000000002413, -0.9444783281619156 
3.250000000002434, -0.9443543255762817 
3.260000000002455, -0.9439241987486092 
3.2700000000024763, -0.9431355494068658 
3.2800000000024974, -0.9418517296684289 
3.2900000000025185, -0.9398173955411527 
3.3000000000025396, -0.9366083396658984 
3.3100000000025607, -0.9315888083341408 
3.3200000000025818, -0.9239513739322632 
3.330000000002603, -0.9129855333584287 
3.340000000002624, -0.8986820165889915 
3.350000000002645, -0.8823922325770136 
3.360000000002666, -0.8667297485630348 
3.3700000000026873, -0.854305246871581 
3.3800000000027084, -0.8463209085684635 
3.3900000000027295, -0.8423279842483493 
3.4000000000027506, -0.8410272468520287 
3.4100000000027717, -0.8411317701053397 
3.420000000002793, -0.8417603982710125 
3.430000000002814, -0.8424423831962384 
3.440000000002835, -0.8429783402605059 
3.450000000002856, -0.8433070822545428 
3.460000000002877, -0.8434199123903662 
3.4700000000028983, -0.843314448278042 
3.4800000000029194, -0.8429703585802992 
3.4900000000029405, -0.842333754816619 
3.5000000000029616, -0.8413036672662075 
3.5100000000029827, -0.8397213974132944 
3.520000000003004, -0.8373733577394402 
3.530000000003025, -0.8340282740750522 
3.540000000003046, -0.829525634854918 
3.550000000003067, -0.8238927902248833 
3.5600000000030882, -0.817411613935034 
3.5700000000031094, -0.8105635873961592 
3.5800000000031305, -0.8038813842276846 
3.5900000000031516, -0.7978087330741276 
3.6000000000031727, -0.7926337919511022 
3.6100000000031938, -0.7884874192253922 
3.620000000003215, -0.785370373166597 
3.630000000003236, -0.7831868418845209 
3.640000000003257, -0.7817787201057981 
3.650000000003278, -0.7809600240173828 
3.6600000000032993, -0.7805479339295025 
3.6700000000033204, -0.7803847978662273 
3.6800000000033415, -0.7803478112660431 
3.6900000000033626, -0.7803477972048263 
3.7000000000033837, -0.7803217453342377 
3.710000000003405, -0.7802241791705561 
3.720000000003426, -0.7800210893800295 
3.730000000003447, -0.7796883312645508 
3.740000000003468, -0.7792141715569253 
3.750000000003489, -0.7786029908585679 
3.7600000000035103, -0.7778754923644957 
3.7700000000035314, -0.7770627171154706 
3.7800000000035525, -0.7761963138771508 
3.7900000000035736, -0.7753009401401272 
3.8000000000035947, -0.7743928005704988 
3.810000000003616, -0.7734836246733083 
3.820000000003637, -0.7725865310404838 
3.830000000003658, -0.7717206939293441 
3.840000000003679, -0.7709136474733664 
3.8500000000037002, -0.7702012920564492 
3.8600000000037213, -0.7696257873338648 
3.8700000000037424, -0.7692314079406184 
3.8800000000037635, -0.7690588629519559 
3.8900000000037847, -0.7691394168267236 
3.9000000000038058, -0.7694906458081144 
3.910000000003827, -0.7701152174872046 
3.920000000003848, -0.7710028047444285 
3.930000000003869, -0.7721338200854876 
3.94000000000389, -0.7734827353362534 
3.9500000000039113, -0.775018615017981 
3.9600000000039324, -0.7767012800184196 
3.9700000000039535, -0.7784736283510576 
3.9800000000039746, -0.7802543600149637 
3.9900000000039957, -0.781939100095664 
4.000000000004016, -0.783416761634623 
4.010000000003993, -0.784597772878551 
4.02000000000397, -0.78543809391011 
4.030000000003946, -0.7859433766863579 
4.040000000003923, -0.7861534705628023 
4.0500000000039, -0.7861208337142644 
4.0600000000038765, -0.7858953315401789 
4.070000000003853, -0.7855196399511053 
4.08000000000383, -0.78503439569064 
4.090000000003807, -0.7844922560092866 
4.100000000003783, -0.783982063511217 
4.11000000000376, -0.7836650217839854 
4.120000000003737, -0.7838211655756857 
4.130000000003713, -0.7848936831288869 
4.14000000000369, -0.7875006905798763 
4.150000000003667, -0.7923659512725731 
4.1600000000036434, -0.8001194296895934 
4.17000000000362, -0.8109639456461231 
4.180000000003597, -0.8243242929788897 
4.1900000000035735, -0.8387546661161869 
4.20000000000355, -0.8523669013976825 
4.210000000003527, -0.8636297306715267 
4.220000000003504, -0.8719311896565888 
4.23000000000348, -0.8775099948455856 
4.240000000003457, -0.8810063434366551 
4.250000000003434, -0.8830733459631119 
4.26000000000341, -0.8842092061276252 
4.270000000003387, -0.884740886574378 
4.280000000003364, -0.8848614091350061 
4.2900000000033405, -0.8846694038699703 
4.300000000003317, -0.8841955586876002 
4.310000000003294, -0.8834155682376534 
4.320000000003271, -0.8822538027619412 
4.330000000003247, -0.880585106969923 
4.340000000003224, -0.878249028397458 
4.350000000003201, -0.8751025984087732 
4.360000000003177, -0.8711442678934567 
4.370000000003154, -0.8667073489676815 
4.380000000003131, -0.8626050260204087 
4.390000000003107, -0.8599847193820789 
4.400000000003084, -0.8597859306281714 
4.410000000003061, -0.8621465107761251 
4.4200000000030375, -0.8662959713044639 
4.430000000003014, -0.8710369516865336 
4.440000000002991, -0.8753706889097096 
4.450000000002968, -0.8787984982374573 
4.460000000002944, -0.8812495332176772 
4.470000000002921, -0.8828698219350766 
4.480000000002898, -0.8838565951603636 
4.490000000002874, -0.8843777064698631 
4.500000000002851, -0.8845471015409284 
4.510000000002828, -0.8844230611357758 
4.520000000002804, -0.8840093426220008 
4.530000000002781, -0.8832494339614618 
4.540000000002758, -0.8820085987651012 
4.5500000000027345, -0.8800408979794471 
4.560000000002711, -0.8769454810945556 
4.570000000002688, -0.8721389933295361 
4.580000000002665, -0.8649172729421695 
4.590000000002641, -0.8547165783545594 
4.600000000002618, -0.8415866619189082 
4.610000000002595, -0.8265728702009187 
4.620000000002571, -0.8115240629417023 
4.630000000002548, -0.7983088495011965 
4.640000000002525, -0.7880650808639904 
4.6500000000025015, -0.7809968853140475 
4.660000000002478, -0.7766427001999278 
4.670000000002455, -0.7742695218773604 
4.6800000000024315, -0.7731647394652366 
4.690000000002408, -0.7727741237065036 
4.700000000002385, -0.7727253331159846 
4.710000000002362, -0.7727939961092405 
4.720000000002338, -0.7728546031764265 
4.730000000002315, -0.7728375071037037 
4.740000000002292, -0.772698211119762 
4.750000000002268, -0.7723980726910408 
4.760000000002245, -0.7718943384066207 
4.770000000002222, -0.7711390314220213 
4.7800000000021985, -0.7700876893940098 
4.790000000002175, -0.7687170531393028 
4.800000000002152, -0.7670440845097994 
4.810000000002129, -0.7651326910730067 
4.820000000002105, -0.7630798102218044 
4.830000000002082, -0.7609884633013051 
4.840000000002059, -0.7589449802507172 
4.850000000002035, -0.7570108318601728 
4.860000000002012, -0.7552268844718133 
4.870000000001989, -0.753622081831367 
4.880000000001965, -0.7522202645320266 
4.890000000001942, -0.7510427529587101 
4.900000000001919, -0.7501071115867055 
4.9100000000018955, -0.7494237874956492 
4.920000000001872, -0.7489926523506976 
4.930000000001849, -0.7488012135757892 
