t, s[1].omega / s[0].omega 
0, -0.5299977508717874 
0.009999999999999995, -0.5298083388457854 
0.019999999999999934, -0.5296767702673543 
0.029999999999999874, -0.5295706656119801 
0.04000000000000012, -0.5294497153511131 
0.050000000000000405, -0.5292789332918224 
0.06000000000000069, -0.5290370572481697 
0.07000000000000098, -0.5287179405116651 
0.08000000000000126, -0.528327583711944 
0.09000000000000155, -0.5278812317787362 
0.10000000000000184, -0.5274039250097496 
0.11000000000000212, -0.5269366325121412 
0.12000000000000241, -0.5265502026124871 
0.130000000000002, -0.5263708973463402 
0.1400000000000009, -0.5266234940323545 
0.1499999999999998, -0.5276987191378474 
0.1599999999999987, -0.530244077259413 
0.1699999999999976, -0.5352408965622628 
0.1799999999999965, -0.5439281013947856 
0.1899999999999954, -0.5572726537404169 
0.1999999999999943, -0.5747925857855258 
0.2099999999999932, -0.5936213002853381 
0.2199999999999921, -0.6098025429245616 
0.229999999999991, -0.621243851622786 
0.2399999999999899, -0.6285182790592414 
0.2499999999999888, -0.6331449659884549 
0.2599999999999877, -0.6362493583389315 
0.2699999999999866, -0.6384172085110656 
0.2799999999999855, -0.6399392309437741 
0.2899999999999844, -0.6409829472181016 
0.2999999999999833, -0.6416605710000579 
0.3099999999999822, -0.642049565929277 
0.3199999999999811, -0.6421985501964508 
0.32999999999998, -0.6421292486133391 
0.3399999999999789, -0.6418369298350831 
0.3499999999999778, -0.641290457992102 
0.35999999999997667, -0.6404347030209293 
0.36999999999997557, -0.639200842359698 
0.37999999999997447, -0.6375309546146734 
0.38999999999997337, -0.6354159872315288 
0.39999999999997227, -0.6329284603663228 
0.40999999999997117, -0.6302202073824211 
0.41999999999997006, -0.6274765128790414 
0.42999999999996896, -0.624856924641729 
0.43999999999996786, -0.6224612307091897 
0.44999999999996676, -0.6203304397618886 
0.45999999999996566, -0.6184672008924527 
0.46999999999996456, -0.6168578916114354 
0.47999999999996346, -0.6154878436387303 
0.48999999999996235, -0.6143488409271656 
0.49999999999996125, -0.6134411287421826 
0.5099999999999602, -0.6127724325859056 
0.519999999999959, -0.612355794823799 
0.529999999999958, -0.6122073737304157 
0.5399999999999568, -0.6123449440775827 
0.5499999999999557, -0.6127875647851581 
0.5599999999999546, -0.6135565635112871 
0.5699999999999535, -0.6146775213755779 
0.5799999999999524, -0.6161822405172306 
0.5899999999999513, -0.6181086303398633 
0.5999999999999502, -0.6204950240353381 
0.6099999999999491, -0.6233641813380153 
0.619999999999948, -0.6266933016841328 
0.6299999999999469, -0.6303743169983397 
0.6399999999999458, -0.6341867385495052 
0.6499999999999447, -0.6378210821931071 
0.6599999999999436, -0.6409697617574288 
0.6699999999999425, -0.6434369295423549 
0.6799999999999414, -0.6451854961978272 
0.6899999999999403, -0.6462983776989174 
0.6999999999999392, -0.6469045397125274 
0.7099999999999381, -0.6471225691827612 
0.719999999999937, -0.6470350588247588 
0.7299999999999359, -0.6466823271154005 
0.7399999999999348, -0.6460615839543745 
0.7499999999999337, -0.645122512324188 
0.7599999999999326, -0.6437531195724446 
0.7699999999999315, -0.6417485702653896 
0.7799999999999304, -0.6387507937961614 
0.7899999999999293, -0.6341416196696893 
0.7999999999999282, -0.6268898057744644 
0.8099999999999271, -0.6154711898749868 
0.819999999999926, -0.5982887027706736 
0.8299999999999249, -0.5750959564028929 
0.8399999999999238, -0.5485282643441894 
0.8499999999999227, -0.5232161648029037 
0.8599999999999216, -0.5027376811956801 
0.8699999999999205, -0.4880433297123985 
0.8799999999999194, -0.47827835100552435 
0.8899999999999183, -0.4720800666596408 
0.8999999999999172, -0.46825757002896007 
0.9099999999999161, -0.46595416806386486 
0.919999999999915, -0.46460333041979285 
0.9299999999999139, -0.4638444985822541 
0.9399999999999128, -0.46345226647280313 
0.9499999999999117, -0.4632871576983333 
0.9599999999999106, -0.463263938206165 
0.9699999999999095, -0.4633321347616411 
0.9799999999999084, -0.4634647416954478 
0.9899999999999073, -0.46365241454569583 
0.9999999999999062, -0.46390109345811414 
1.0099999999999052, -0.46423089725307654 
1.019999999999904, -0.464673654315985 
1.029999999999903, -0.4652663870625635 
1.039999999999902, -0.46603915650552546 
1.0499999999999008, -0.46699811101219596 
1.0599999999998997, -0.4681086096247268 
1.0699999999998986, -0.4692884266399525 
1.0799999999998975, -0.47042195219389954 
1.0899999999998964, -0.4713946527357019 
1.0999999999998953, -0.47212830378917053 
1.1099999999998942, -0.472594469982189 
1.119999999999893, -0.47280284094170977 
1.129999999999892, -0.4727786113033014 
1.1399999999998909, -0.47254256145976276 
1.1499999999998898, -0.4720975633844976 
1.1599999999998887, -0.4714179866845048 
1.1699999999998876, -0.47043567060151903 
1.1799999999998865, -0.46901426457444345 
1.1899999999998854, -0.4669003804643183 
1.1999999999998843, -0.4636379624234982 
1.2099999999998832, -0.4584512891968312 
1.219999999999882, -0.45020014022109656 
1.229999999999881, -0.4377289200973652 
1.2399999999998799, -0.42091884532804036 
1.2499999999998788, -0.401691218177199 
1.2599999999998777, -0.3832499920411035 
1.2699999999998766, -0.367996673888258 
1.2799999999998755, -0.35658081749178777 
1.2899999999998744, -0.348491960723535 
1.2999999999998733, -0.342890972857452 
1.3099999999998722, -0.33903350381654274 
1.319999999999871, -0.33637369678177426 
1.32999999999987, -0.334542194260325 
1.3399999999998689, -0.3332988081244066 
1.3499999999998678, -0.3324922363286432 
1.3599999999998666, -0.3320323706415393 
1.3699999999998655, -0.3318734010179048 
1.3799999999998644, -0.33200511921255005 
1.3899999999998633, -0.33245067261389066 
1.3999999999998622, -0.33327004394846926 
1.4099999999998611, -0.3345692950041711 
1.41999999999986, -0.3365156878250446 
1.429999999999859, -0.3393569810465292 
1.4399999999998578, -0.34343626748277745 
1.4499999999998567, -0.34917530643507627 
1.4599999999998556, -0.35696559842971065 
1.4699999999998545, -0.3668897921836264 
1.4799999999998534, -0.3783230496059855 
1.4899999999998523, -0.3898161896066513 
1.4999999999998512, -0.39971990817660574 
1.5099999999998501, -0.4071205455597643 
1.519999999999849, -0.412089008423254 
1.529999999999848, -0.4152104112534822 
1.5399999999998468, -0.4170974150031591 
1.5499999999998457, -0.41819819546773374 
1.5599999999998446, -0.4187932890223566 
1.5699999999998435, -0.4190436598606556 
1.5799999999998424, -0.4190331963036737 
1.5899999999998413, -0.4187958741427911 
1.5999999999998402, -0.4183319988476689 
1.6099999999998391, -0.41762037276068414 
1.619999999999838, -0.41663315511942073 
1.629999999999837, -0.41535795057374136 
1.6399999999998358, -0.41382398232725875 
1.6499999999998347, -0.4121172452448401 
1.6599999999998336, -0.4103670115926549 
1.6699999999998325, -0.40870564848334545 
1.6799999999998314, -0.40722785351554974 
1.6899999999998303, -0.40597334809846625 
1.6999999999998292, -0.4049342556578643 
1.709999999999828, -0.40407396534073986 
1.719999999999827, -0.4033459367105965 
1.729999999999826, -0.4027073565990526 
1.7399999999998248, -0.40212670513859605 
1.7499999999998237, -0.40158642715966203 
1.7599999999998226, -0.4010831319003659 
1.7699999999998215, -0.40062805899039755 
1.7799999999998204, -0.4002502250810238 
1.7899999999998193, -0.4000045029408549 
1.7999999999998182, -0.3999875152389295 
1.809999999999817, -0.4003657566761615 
1.819999999999816, -0.4014219832891787 
1.8299999999998149, -0.403623754865166 
1.8399999999998138, -0.40769800507775616 
1.8499999999998127, -0.4146189448941975 
1.8599999999998116, -0.4252309198979278 
1.8699999999998105, -0.4390924226967333 
1.8799999999998094, -0.45299641034320287 
1.8899999999998083, -0.4619317471457099 
1.8999999999998072, -0.463634170804193 
1.909999999999806, -0.4605787752804872 
1.919999999999805, -0.45646578863164544 
1.9299999999998039, -0.4532500102675974 
1.9399999999998028, -0.45126298392755954 
1.9499999999998017, -0.4502098603422783 
1.9599999999998006, -0.4497314037742576 
1.9699999999997995, -0.44956485069627183 
1.9799999999997984, -0.44954744469426294 
1.9899999999997973, -0.44958550718706836 
1.9999999999997962, -0.44962664361566596 
2.0099999999998173, -0.4496414348739653 
2.0199999999998384, -0.44961316804862894 
2.0299999999998595, -0.4495334574957305 
2.0399999999998806, -0.4494021717935281 
2.0499999999999017, -0.44923004529182825 
2.059999999999923, -0.4490413590910752 
2.069999999999944, -0.44887311366355104 
2.079999999999965, -0.4487680840837944 
2.089999999999986, -0.4487625559282013 
2.100000000000007, -0.4488729821126312 
2.1100000000000283, -0.4490868801083031 
2.1200000000000494, -0.44936243951291 
2.1300000000000705, -0.44963890582443033 
2.1400000000000916, -0.44985452314892205 
2.1500000000001127, -0.449963072241108 
2.160000000000134, -0.44994056794629494 
2.170000000000155, -0.449781145164944 
2.180000000000176, -0.4494875693831717 
2.190000000000197, -0.4490619379836945 
2.2000000000002182, -0.4484985929314921 
2.2100000000002393, -0.4477780409288298 
2.2200000000002604, -0.44685844375394046 
2.2300000000002815, -0.4456579281738233 
2.2400000000003026, -0.4440128017293846 
2.2500000000003237, -0.4415789782908238 
2.260000000000345, -0.43762190120201694 
2.270000000000366, -0.43068780255286476 
2.280000000000387, -0.4185157455780898 
2.290000000000408, -0.39926666404530364 
2.3000000000004293, -0.3742707921017611 
2.3100000000004504, -0.3485998306315908 
2.3200000000004715, -0.3271616536079129 
2.3300000000004926, -0.311618055365555 
2.3400000000005137, -0.30117126608631095 
2.3500000000005348, -0.29435771905345975 
2.360000000000556, -0.28993581849562144 
2.370000000000577, -0.28705228822946216 
2.380000000000598, -0.2851658204028925 
2.390000000000619, -0.2839438699620173 
2.4000000000006403, -0.2831861985795864 
2.4100000000006614, -0.28277676309400324 
2.4200000000006825, -0.282655878179247 
2.4300000000007036, -0.28280581341306327 
2.4400000000007247, -0.2832457105242912 
2.450000000000746, -0.28403390496250924 
2.460000000000767, -0.2852771831909488 
2.470000000000788, -0.2871469946741491 
2.480000000000809, -0.2899009626825667 
2.49000000000083, -0.29390044083987293 
2.5000000000008513, -0.29959345870153553 
2.5100000000008724, -0.30739222049211734 
2.5200000000008935, -0.3173566359322675 
2.5300000000009146, -0.3287587695578443 
2.5400000000009357, -0.34001885289436273 
2.550000000000957, -0.3494745155747094 
2.560000000000978, -0.3563470697979666 
2.570000000000999, -0.360852102718772 
2.58000000000102, -0.36363389873804197 
2.5900000000010412, -0.3652971969166693 
2.6000000000010624, -0.36626056898021425 
2.6100000000010835, -0.36677741354396975 
2.6200000000011046, -0.3669903738338771 
2.6300000000011257, -0.3669737278940869 
2.6400000000011468, -0.3667597605066084 
2.650000000001168, -0.3663552879687838 
2.660000000001189, -0.3657549597234954 
2.67000000000121, -0.3649561168094997 
2.680000000001231, -0.3639759454844552 
2.6900000000012523, -0.362864955851803 
2.7000000000012734, -0.3617062152808475 
2.7100000000012945, -0.3605957503124578 
2.7200000000013156, -0.35961414979989764 
2.7300000000013367, -0.35880616525229037 
2.740000000001358, -0.35817633409634375 
2.750000000001379, -0.3576970284549009 
2.7600000000014, -0.3573220440630868 
2.770000000001421, -0.35700078466464585 
2.780000000001442, -0.3566895084450728 
2.7900000000014633, -0.35635711535800696 
2.8000000000014844, -0.3559852530802607 
2.8100000000015055, -0.35556490132006496 
2.8200000000015266, -0.3550921404985872 
2.8300000000015477, -0.3545646436144717 
2.840000000001569, -0.3539787069275614 
2.85000000000159, -0.3533244752927464 
2.860000000001611, -0.35257245683759636 
2.870000000001632, -0.3516322077710466 
2.8800000000016532, -0.35023459567416004 
2.8900000000016743, -0.3476428802964381 
2.9000000000016954, -0.3421435342136664 
2.9100000000017165, -0.33083637821541934 
2.9200000000017377, -0.31140669681525424 
2.9300000000017588, -0.2859025118054173 
2.94000000000178, -0.2606397728854374 
2.950000000001801, -0.24061582180746077 
2.960000000001822, -0.2267547667980648 
2.970000000001843, -0.21773096203582334 
2.9800000000018643, -0.21194618025369855 
2.9900000000018854, -0.20821224732561414 
3.0000000000019065, -0.20577008248784937 
3.0100000000019276, -0.20416094113995698 
3.0200000000019487, -0.20311452032080365 
3.03000000000197, -0.20247708253091642 
3.040000000001991, -0.20217045217203328 
3.050000000002012, -0.20217145713169496 
3.060000000002033, -0.20250558175424155 
3.070000000002054, -0.20325266967244732 
3.0800000000020753, -0.20456607087385978 
3.0900000000020964, -0.20671004340469432 
3.1000000000021175, -0.21012259326321253 
3.1100000000021386, -0.21550563181676163 
3.1200000000021597, -0.22390624507957346 
3.130000000002181, -0.2366199124717498 
3.140000000002202, -0.2544927881390666 
3.150000000002223, -0.27633471925978503 
3.160000000002244, -0.29795820498431447 
3.1700000000022652, -0.3146931362341091 
3.1800000000022863, -0.32510725240136873 
3.1900000000023074, -0.33075513457610306 
3.2000000000023285, -0.3336860654931415 
3.2100000000023496, -0.3352481868789028 
3.2200000000023707, -0.3361295283828381 
3.230000000002392, -0.3366503902093633 
3.240000000002413, -0.33695875218118726 
3.250000000002434, -0.3371252076538721 
3.260000000002455, -0.3371847319770282 
3.2700000000024763, -0.3371553120858847 
3.2800000000024974, -0.337047653987901 
3.2900000000025185, -0.3368721939969741 
3.3000000000025396, -0.3366456716803799 
3.3100000000025607, -0.3363967926167011 
3.3200000000025818, -0.33616844724817196 
3.330000000002603, -0.3360137809947758 
3.340000000002624, -0.33598592168961433 
3.350000000002645, -0.336124299753707 
3.360000000002666, -0.33644140946458484 
3.3700000000026873, -0.3369135093371963 
3.3800000000027084, -0.33747987828870263 
3.3900000000027295, -0.3380553485539108 
3.4000000000027506, -0.33855410402962133 
3.4100000000027717, -0.33891251740889883 
3.420000000002793, -0.33909803228978175 
3.430000000002814, -0.3391022346263528 
3.440000000002835, -0.33892600737701284 
3.450000000002856, -0.3385643969215475 
3.460000000002877, -0.33799303077896675 
3.4700000000028983, -0.33715301480207704 
3.4800000000029194, -0.3359287234667862 
3.4900000000029405, -0.33411273411965514 
3.5000000000029616, -0.331359122233956 
3.5100000000029827, -0.3271566106973113 
3.520000000003004, -0.3209242270517942 
3.530000000003025, -0.31237376851490695 
3.540000000003046, -0.302028964298521 
3.550000000003067, -0.2912759710742483 
3.5600000000030882, -0.28160220342702635 
3.5700000000031094, -0.27381175628073123 
3.5800000000031305, -0.2679548685855795 
3.5900000000031516, -0.2636943718825744 
3.6000000000031727, -0.2606212334836028 
3.6100000000031938, -0.2583923204823039 
3.620000000003215, -0.2567582045708573 
3.630000000003236, -0.2555509185100741 
3.640000000003257, -0.25466477993354164 
3.650000000003278, -0.2540411448794749 
3.6600000000032993, -0.2536595528735933 
3.6700000000033204, -0.25353571273154785 
3.6800000000033415, -0.25372722130752795 
3.6900000000033626, -0.2543495643099206 
3.7000000000033837, -0.255607719327907 
3.710000000003405, -0.2578524920859826 
3.720000000003426, -0.2616731665960546 
3.730000000003447, -0.26802599927440984 
3.740000000003468, -0.2783229554495835 
3.750000000003489, -0.29415370023675963 
3.7600000000035103, -0.3159131111826656 
3.7700000000035314, -0.34029776260667316 
3.7800000000035525, -0.3603248605622785 
3.7900000000035736, -0.3712580227947873 
3.8000000000035947, -0.3746200435192556 
3.810000000003616, -0.374482307092387 
3.820000000003637, -0.37353058358442376 
3.830000000003658, -0.37274124832266875 
3.840000000003679, -0.3722741497347379 
3.8500000000037002, -0.3720530297117753 
3.8600000000037213, -0.3719779291188935 
3.8700000000037424, -0.3719753763529762 
3.8800000000037635, -0.37199951124407477 
3.8900000000037847, -0.3720238822670904 
3.9000000000038058, -0.3720346313709819 
3.910000000003827, -0.3720270101642825 
3.920000000003848, -0.37200499765909445 
3.930000000003869, -0.3719830859603839 
3.94000000000389, -0.37198848817716934 
3.9500000000039113, -0.37206118611032885 
3.9600000000039324, -0.3722493489322164 
3.9700000000039535, -0.37259922845855137 
3.9800000000039746, -0.3731406989673647 
3.9900000000039957, -0.37387135916548664 
4.000000000004016, -0.37474484746924924 
4.010000000003993, -0.37567248567572553 
4.02000000000397, -0.37654468677071395 
4.030000000003946, -0.377264557559705 
4.040000000003923, -0.3777732319789314 
4.0500000000039, -0.37805272245227584 
4.0600000000038765, -0.3781106296379452 
4.070000000003853, -0.3779600252471651 
4.08000000000383, -0.3776027522490059 
4.090000000003807, -0.37701608827462246 
4.100000000003783, -0.3761380297900479 
4.11000000000376, -0.37484493445958794 
4.120000000003737, -0.37291607574083996 
4.130000000003713, -0.3699880900958706 
4.14000000000369, -0.36553490553033935 
4.150000000003667, -0.358979513059203 
4.1600000000036434, -0.3500714461310269 
4.17000000000362, -0.3393888695635675 
4.180000000003597, -0.32834308575661764 
4.1900000000035735, -0.31840896108683653 
4.20000000000355, -0.31037646087472004 
4.210000000003527, -0.3042976014042579 
4.220000000003504, -0.2998433919327668 
4.23000000000348, -0.2966100397810898 
4.240000000003457, -0.2942553021897396 
4.250000000003434, -0.2925281518098517 
4.26000000000341, -0.2912582586722027 
4.270000000003387, -0.29033768770737167 
4.280000000003364, -0.2897058925235802 
4.2900000000033405, -0.2893406715748549 
4.300000000003317, -0.28925549411920504 
4.310000000003294, -0.2895037472388251 
4.320000000003271, -0.29019167251253786 
4.330000000003247, -0.2915037740021403 
4.340000000003224, -0.29374713497413796 
4.350000000003201, -0.29742287377379667 
4.360000000003177, -0.30332643741720544 
4.370000000003154, -0.3126373168857811 
4.380000000003131, -0.3268202363566409 
4.390000000003107, -0.3468962701243576 
4.400000000003084, -0.371745092246065 
4.410000000003061, -0.39689252527579094 
4.4200000000030375, -0.41692871059247316 
4.430000000003014, -0.42978465648790953 
4.440000000002991, -0.43697637348837304 
4.450000000002968, -0.4408499433835389 
4.460000000002944, -0.443016511498972 
4.470000000002921, -0.44430958784997143 
4.480000000002898, -0.44512007921707114 
4.490000000002874, -0.44563205228783465 
4.500000000002851, -0.4459366005646198 
4.510000000002828, -0.4460803745500158 
4.520000000002804, -0.4460859217732754 
4.530000000002781, -0.44596109738991824 
4.540000000002758, -0.44570521551418174 
4.5500000000027345, -0.44531574135989976 
4.560000000002711, -0.44479709453381383 
4.570000000002688, -0.4441701731525547 
4.580000000002665, -0.4434776144317567 
4.590000000002641, -0.4427790611307739 
4.600000000002618, -0.4421360589960662 
4.610000000002595, -0.44159390544128135 
4.620000000002571, -0.44116965481539533 
4.630000000002548, -0.4408505432627249 
4.640000000002525, -0.4406016476023614 
4.6500000000025015, -0.44037884852765663 
4.660000000002478, -0.44014188390683107 
4.670000000002455, -0.43986264660153546 
4.6800000000024315, -0.4395269571267931 
4.690000000002408, -0.4391318622115272 
4.700000000002385, -0.4386820846259799 
4.710000000002362, -0.4381884202889766 
4.720000000002338, -0.43766954621660215 
4.730000000002315, -0.4371581115026064 
4.740000000002292, -0.43671183086480303 
4.750000000002268, -0.4364286062355136 
4.760000000002245, -0.43645577035081173 
4.770000000002222, -0.43695254544822404 
4.7800000000021985, -0.4378874676130927 
4.790000000002175, -0.4384644069530589 
4.800000000002152, -0.43626014996613804 
4.810000000002129, -0.4275480709592566 
4.820000000002105, -0.4108107192612553 
4.830000000002082, -0.38990614157005804 
4.840000000002059, -0.3707940115626231 
4.850000000002035, -0.3565640563478819 
4.860000000002012, -0.3471319542175772 
4.870000000001989, -0.3412225107394467 
