t, s[1].omega / s[0].omega 
0, -0.9400548031705297 
0.009999999999999995, -0.9451469919896395 
0.019999999999999934, -0.9492914868703843 
0.029999999999999874, -0.9523756687235476 
0.04000000000000012, -0.9544712197572605 
0.050000000000000405, -0.9557578129778328 
0.06000000000000069, -0.9564375696049927 
0.07000000000000098, -0.9566815113023008 
0.08000000000000126, -0.9566129091871061 
0.09000000000000155, -0.9563138422773809 
0.10000000000000184, -0.9558433960409454 
0.11000000000000212, -0.9552647556379329 
0.12000000000000241, -0.9546845096416868 
0.130000000000002, -0.9543052455640995 
0.1400000000000009, -0.9544759978310537 
0.1499999999999998, -0.9556960551935969 
0.1599999999999987, -0.9585152786555392 
0.1699999999999976, -0.9633250086116171 
0.1799999999999965, -0.9701348971262898 
0.1899999999999954, -0.9784760729246527 
0.1999999999999943, -0.9874968864745114 
0.2099999999999932, -0.9962063324190936 
0.2199999999999921, -1.003762113745495 
0.229999999999991, -1.0096861970123383 
0.2399999999999899, -1.0139149322631373 
0.2499999999999888, -1.0166828986162857 
0.2599999999999877, -1.0183416724021461 
0.2699999999999866, -1.019221659997317 
0.2799999999999855, -1.0195725457313969 
0.2899999999999844, -1.0195597747131149 
0.2999999999999833, -1.019285311850841 
0.3099999999999822, -1.018816063097384 
0.3199999999999811, -1.0182187593157 
0.32999999999998, -1.0176077890494963 
0.3399999999999789, -1.0172075938942065 
0.3499999999999778, -1.0174054817753748 
0.35999999999997667, -1.0187306301912264 
0.36999999999997557, -1.0216956462023605 
0.37999999999997447, -1.0265411712236812 
0.38999999999997337, -1.0330542150654571 
0.39999999999997227, -1.0406007604540188 
0.40999999999997117, -1.0483372340313886 
0.41999999999997006, -1.0554626477021596 
0.42999999999996896, -1.0614094353867507 
0.43999999999996786, -1.065930814208148 
0.44999999999996676, -1.069074362438643 
0.45999999999996566, -1.0710711144925238 
0.46999999999996456, -1.0722073607592493 
0.47999999999996346, -1.0727371025348746 
0.48999999999996235, -1.0728489409611415 
0.49999999999996125, -1.072670342252452 
0.5099999999999602, -1.0722899601549014 
0.519999999999959, -1.0717892765472736 
0.529999999999958, -1.0712819733001417 
0.5399999999999568, -1.0709539946587885 
0.5499999999999557, -1.07107733126065 
0.5599999999999546, -1.07195685574895 
0.5699999999999535, -1.073806596379154 
0.5799999999999524, -1.0766332624418842 
0.5899999999999513, -1.0802224465243313 
0.5999999999999502, -1.084228146557186 
0.6099999999999491, -1.0882837681576434 
0.619999999999948, -1.092073427416564 
0.6299999999999469, -1.0953621004128349 
0.6399999999999458, -1.0980071714142103 
0.6499999999999447, -1.0999617840456062 
0.6599999999999436, -1.1012644422974052 
0.6699999999999425, -1.1020109000787022 
0.6799999999999414, -1.10231814505497 
0.6899999999999403, -1.1022966058734254 
0.6999999999999392, -1.1020396682633105 
0.7099999999999381, -1.1016298122734793 
0.719999999999937, -1.10115554051696 
0.7299999999999359, -1.1007295479980488 
0.7399999999999348, -1.1004926556275503 
0.7499999999999337, -1.1005879010386586 
0.7599999999999326, -1.101109584184543 
0.7699999999999315, -1.102062219087847 
0.7799999999999304, -1.1033624744422534 
0.7899999999999293, -1.1048778134755308 
0.7999999999999282, -1.1064694032008062 
0.8099999999999271, -1.1080177115110268 
0.819999999999926, -1.1094299685450069 
0.8299999999999249, -1.110637825635726 
0.8399999999999238, -1.1115932169320528 
0.8499999999999227, -1.1122669182459355 
0.8599999999999216, -1.1126498997126495 
0.8699999999999205, -1.112754177096392 
0.8799999999999194, -1.1126102160315852 
0.8899999999999183, -1.1122618582713966 
0.8999999999999172, -1.111762819075792 
0.9099999999999161, -1.111177389966719 
0.919999999999915, -1.1105828924775032 
0.9299999999999139, -1.1100667270921762 
0.9399999999999128, -1.1097120985561362 
0.9499999999999117, -1.1095761186129725 
0.9599999999999106, -1.1096733411712485 
0.9699999999999095, -1.1099744387236372 
0.9799999999999084, -1.1104179694912029 
0.9899999999999073, -1.1109273782481273 
0.9999999999999062, -1.1114268085896426 
1.0099999999999052, -1.1118517591002726 
1.019999999999904, -1.112153373545444 
1.029999999999903, -1.112298095882851 
1.039999999999902, -1.1122653609206057 
1.0499999999999008, -1.1120450758209945 
1.0599999999998997, -1.111635835396877 
1.0699999999998986, -1.111044548802032 
1.0799999999998975, -1.1102876568304794 
1.0899999999998964, -1.1093934506587886 
1.0999999999998953, -1.1084046415220659 
1.1099999999998942, -1.1073797826179308 
1.119999999999893, -1.1063911332803387 
1.129999999999892, -1.1055165952409065 
1.1399999999998909, -1.1048256496255855 
1.1499999999998898, -1.1043622295914575 
1.1599999999998887, -1.104129978866822 
1.1699999999998876, -1.10408768729319 
1.1799999999998865, -1.1041603050221545 
1.1899999999998854, -1.1042602900847394 
1.1999999999998843, -1.1043059468975402 
1.2099999999998832, -1.1042286234730982 
1.219999999999882, -1.1039716184508457 
1.229999999999881, -1.1034883018184156 
1.2399999999998799, -1.1027439863881012 
1.2499999999998788, -1.1017206413558935 
1.2599999999998777, -1.100420420231401 
1.2699999999998766, -1.098865513169897 
1.2799999999998755, -1.097095998356703 
1.2899999999998744, -1.0951693520056582 
1.2999999999998733, -1.093163121137044 
1.3099999999998722, -1.0911782249730844 
1.319999999999871, -1.0893369513899709 
1.32999999999987, -1.087768184478317 
1.3399999999998689, -1.0865758095828197 
1.3499999999998678, -1.0857994344939605 
1.3599999999998666, -1.0853930795753883 
1.3699999999998655, -1.0852427666778857 
1.3799999999998644, -1.0852113964423322 
1.3899999999998633, -1.0851768421070775 
1.3999999999998622, -1.085043236820587 
1.4099999999998611, -1.0847310988138155 
1.41999999999986, -1.0841616318881862 
1.429999999999859, -1.0832470862286354 
1.4399999999998578, -1.0818939346298326 
1.4499999999998567, -1.08002067506047 
1.4599999999998556, -1.0775844058161292 
1.4699999999998545, -1.0746032144411308 
1.4799999999998534, -1.0711639908547537 
1.4899999999998523, -1.067417428722206 
1.4999999999998512, -1.0635694011032375 
1.5099999999998501, -1.0598707310532727 
1.519999999999849, -1.0565931933711177 
1.529999999999848, -1.0539760154216673 
1.5399999999998468, -1.0521494677745067 
1.5499999999998457, -1.0510808455589646 
1.5599999999998446, -1.0505932920560093 
1.5699999999998435, -1.0504499063096602 
1.5799999999998424, -1.0504386211969339 
1.5899999999998413, -1.050408269303984 
1.5999999999998402, -1.0502584574675995 
1.6099999999998391, -1.0499102185683724 
1.619999999999838, -1.0492770601526815 
1.629999999999837, -1.048244327488033 
1.6399999999998358, -1.0466620639266642 
1.6499999999998347, -1.0443596514356486 
1.6599999999998336, -1.0411890532414279 
1.6699999999998325, -1.0370884711301087 
1.6799999999998314, -1.0321374096049476 
1.6899999999998303, -1.026573209165694 
1.6999999999998292, -1.020764782914323 
1.709999999999828, -1.015159268688879 
1.719999999999827, -1.01020916656016 
1.729999999999826, -1.0062765716791078 
1.7399999999998248, -1.003532182721719 
1.7499999999998237, -1.001905358739843 
1.7599999999998226, -1.0011337008546284 
1.7699999999998215, -1.0008860393213954 
1.7799999999998204, -1.0008749387722131 
1.7899999999998193, -1.0009028740171868 
1.7999999999998182, -1.0008500041047896 
1.809999999999817, -1.0006385431343552 
1.819999999999816, -1.000197945020004 
1.8299999999998149, -0.9994386676556658 
1.8399999999998138, -0.9982362085236453 
1.8499999999998127, -0.9964302973895494 
1.8599999999998116, -0.9938490936137212 
1.8699999999998105, -0.9903638224913319 
1.8799999999998094, -0.9859581724081167 
1.8899999999998083, -0.9807742151197513 
1.8999999999998072, -0.9751048210477344 
1.909999999999806, -0.969340350028229 
1.919999999999805, -0.9638997869392985 
1.9299999999998039, -0.959163188240433 
1.9399999999998028, -0.9554049309973995 
1.9499999999998017, -0.9527354344428451 
1.9599999999998006, -0.95108007369197 
1.9699999999997995, -0.9502197866565825 
1.9799999999997984, -0.9498776919215854 
1.9899999999997973, -0.949802097814892 
1.9999999999997962, -0.9498077032429084 
2.0099999999998173, -0.9497740116117382 
2.0199999999998384, -0.949621923769644 
2.0299999999998595, -0.9492875001583784 
2.0399999999998806, -0.9487020463198276 
2.0499999999999017, -0.9477821939696156 
2.059999999999923, -0.9464334712980532 
2.069999999999944, -0.9445705591913323 
2.079999999999965, -0.942150571093129 
2.089999999999986, -0.9392031483962716 
2.100000000000007, -0.9358370327068292 
2.1100000000000283, -0.9322184877851459 
2.1200000000000494, -0.9285380234801531 
2.1300000000000705, -0.924984463362526 
2.1400000000000916, -0.9217307768035674 
2.1500000000001127, -0.9189235637259893 
2.160000000000134, -0.9166678542161872 
2.170000000000155, -0.9150079138918897 
2.180000000000176, -0.9139147779272812 
2.190000000000197, -0.9132928823157686 
2.2000000000002182, -0.9130072449160391 
2.2100000000002393, -0.9129180303542699 
2.2200000000002604, -0.9129056068727366 
2.2300000000002815, -0.9128786316776963 
2.2400000000003026, -0.9127690946653215 
2.2500000000003237, -0.9125228594012136 
2.260000000000345, -0.91209291073386 
2.270000000000366, -0.9114392943474439 
2.280000000000387, -0.9105359656799011 
2.290000000000408, -0.9093802056126703 
2.3000000000004293, -0.9079971769964322 
2.3100000000004504, -0.9064348988109744 
2.3200000000004715, -0.9047526186071417 
2.3300000000004926, -0.9030104453113538 
2.3400000000005137, -0.9012653883709657 
2.3500000000005348, -0.899572885706329 
2.360000000000556, -0.8979894914694931 
2.370000000000577, -0.896572746926255 
2.380000000000598, -0.8953764067079024 
2.390000000000619, -0.8944416501644863 
2.4000000000006403, -0.8937871778672379 
2.4100000000006614, -0.8934025639101867 
2.4200000000006825, -0.8932487094864747 
2.4300000000007036, -0.8932660554381597 
2.4400000000007247, -0.8933870151823795 
2.450000000000746, -0.8935472484542519 
2.460000000000767, -0.8936923723026846 
2.470000000000788, -0.8937803032919438 
2.480000000000809, -0.8937814694231729 
2.49000000000083, -0.8936785451330662 
2.5000000000008513, -0.8934654728520808 
2.5100000000008724, -0.8931446524070366 
2.5200000000008935, -0.8927225364403611 
2.5300000000009146, -0.892205976003973 
2.5400000000009357, -0.8916017374208958 
2.550000000000957, -0.8909192756257764 
2.560000000000978, -0.8901746885553594 
2.570000000000999, -0.8893937946790487 
2.58000000000102, -0.8886135447433287 
2.5900000000010412, -0.8878815057527392 
2.6000000000010624, -0.8872526586710732 
2.6100000000010835, -0.8867826837201157 
2.6200000000011046, -0.8865183761018208 
2.6300000000011257, -0.8864880548526928 
2.6400000000011468, -0.8866957387599393 
2.650000000001168, -0.8871213898223809 
2.660000000001189, -0.887726738985575 
2.67000000000121, -0.8884640018212222 
2.680000000001231, -0.8892841652261344 
2.6900000000012523, -0.890142320577854 
2.7000000000012734, -0.8909989879688668 
2.7100000000012945, -0.8918179125458175 
2.7200000000013156, -0.8925623493882873 
2.7300000000013367, -0.8931931781596845 
2.740000000001358, -0.8936719508622402 
2.750000000001379, -0.8939687882091851 
2.7600000000014, -0.8940706165743191 
2.770000000001421, -0.8939843245941652 
2.780000000001442, -0.8937337833952507 
2.7900000000014633, -0.8933547561013805 
2.8000000000014844, -0.8928926269564051 
2.8100000000015055, -0.892404953309007 
2.8200000000015266, -0.891966993684302 
2.8300000000015477, -0.8916752443369665 
2.840000000001569, -0.8916427595617318 
2.85000000000159, -0.8919827348962579 
2.860000000001611, -0.8927840939248348 
2.870000000001632, -0.8940898236878413 
2.8800000000016532, -0.8958882222265105 
2.8900000000016743, -0.898118504341044 
2.9000000000016954, -0.900683437954017 
2.9100000000017165, -0.9034600694062931 
2.9200000000017377, -0.9063050012727724 
2.9300000000017588, -0.9090585843419612 
2.94000000000178, -0.9115573670023946 
2.950000000001801, -0.9136603255157494 
2.960000000001822, -0.9152805421113372 
2.970000000001843, -0.9164023915494898 
2.9800000000018643, -0.9170716083559046 
2.9900000000018854, -0.9173665486575793 
3.0000000000019065, -0.917369938331321 
3.0100000000019276, -0.9171537415589006 
3.0200000000019487, -0.916778831501737 
3.03000000000197, -0.9163065090918551 
3.040000000001991, -0.915819320612077 
3.050000000002012, -0.9154481256908811 
3.060000000002033, -0.9153966193936265 
3.070000000002054, -0.9159447395140438 
3.0800000000020753, -0.9174094714274913 
3.0900000000020964, -0.9200600023906089 
3.1000000000021175, -0.9240186785374653 
3.1100000000021386, -0.9291960479609633 
3.1200000000021597, -0.9352862218948589 
3.130000000002181, -0.9418149067922126 
3.140000000002202, -0.9482236558525307 
3.150000000002223, -0.9539823023196933 
3.160000000002244, -0.9587102578098957 
3.1700000000022652, -0.9622560045240844 
3.1800000000022863, -0.9646870989806011 
3.1900000000023074, -0.9662031030244547 
3.2000000000023285, -0.9670346526435214 
3.2100000000023496, -0.9673788118334178 
3.2200000000023707, -0.9673778367196182 
3.230000000002392, -0.9671251150494337 
3.240000000002413, -0.9666836717772276 
3.250000000002434, -0.966112837049512 
3.260000000002455, -0.9655064519668276 
3.2700000000024763, -0.965045930875361 
3.2800000000024974, -0.9650571374699851 
3.2900000000025185, -0.9660294294808389 
3.3000000000025396, -0.9685333470898285 
3.3100000000025607, -0.9730141599561334 
3.3200000000025818, -0.979548023698538 
3.330000000002603, -0.9877165390670462 
3.340000000002624, -0.9966875770627672 
3.350000000002645, -1.0054598341194416 
3.360000000002666, -1.0131580872640906 
3.3700000000026873, -1.0192592999450176 
3.3800000000027084, -1.0236581460472092 
3.3900000000027295, -1.0265641189389294 
3.4000000000027506, -1.0283225766228896 
3.4100000000027717, -1.029269650657319 
3.420000000002793, -1.029664641201727 
3.430000000002814, -1.0296818692811276 
3.440000000002835, -1.0294299861273322 
3.450000000002856, -1.028980352584553 
3.460000000002877, -1.0284018458063073 
3.4700000000028983, -1.0278075220153746 
3.4800000000029194, -1.0274137375021324 
3.4900000000029405, -1.0275871814291997 
3.5000000000029616, -1.0288184456815466 
3.5100000000029827, -1.031567407098469 
3.520000000003004, -1.0360299559030683 
3.530000000003025, -1.041989356338654 
3.540000000003046, -1.048866693622137 
3.550000000003067, -1.0559166014128327 
3.5600000000030882, -1.0624389165399803 
3.5700000000031094, -1.0679297689953022 
3.5800000000031305, -1.0721525227035058 
3.5900000000031516, -1.0751240645717777 
3.6000000000031727, -1.0770310334729063 
3.6100000000031938, -1.0781225628055882 
3.620000000003215, -1.0786295302258861 
3.630000000003236, -1.0787291564040349 
3.640000000003257, -1.0785449755644922 
3.650000000003278, -1.0781660659810022 
3.6600000000032993, -1.0776766609299573 
3.6700000000033204, -1.0771926006217656 
3.6800000000033415, -1.0768949064970423 
3.6900000000033626, -1.0770333340543194 
3.7000000000033837, -1.0778674349772066 
3.710000000003405, -1.0795555348531454 
3.720000000003426, -1.0820687933564483 
3.730000000003447, -1.0852009132235652 
3.740000000003468, -1.0886542225056774 
3.750000000003489, -1.0921287071220915 
3.7600000000035103, -1.0953716788689063 
3.7700000000035314, -1.0981945100482096 
3.7800000000035525, -1.1004778087566665 
3.7900000000035736, -1.1021744682494699 
3.8000000000035947, -1.1033054562987683 
3.810000000003616, -1.1039420251853174 
3.820000000003637, -1.1041788769458432 
3.830000000003658, -1.104110897272175 
3.840000000003679, -1.103822993065149 
3.8500000000037002, -1.1033944011326207 
3.8600000000037213, -1.1029126166496606 
3.8700000000037424, -1.1024870793533752 
3.8800000000037635, -1.1022477898959282 
3.8900000000037847, -1.1023174689362338 
3.9000000000038058, -1.1027671325560646 
3.910000000003827, -1.1035872586820108 
3.920000000003848, -1.104696797066618 
3.930000000003869, -1.1059783347505154 
3.94000000000389, -1.1073126803475515 
3.9500000000039113, -1.1085984910222355 
3.9600000000039324, -1.1097577524104536 
3.9700000000039535, -1.1107334769698454 
3.9800000000039746, -1.1114856337089845 
3.9900000000039957, -1.1119891396643062 
4.000000000004016, -1.1122346485661758 
4.010000000003993, -1.112229938675768 
4.02000000000397, -1.1119992297813799 
4.030000000003946, -1.111580429913328 
4.040000000003923, -1.1110230635060947 
4.0500000000039, -1.1103888512176467 
4.0600000000038765, -1.1097526488433247 
4.070000000003853, -1.1091976586761239 
4.08000000000383, -1.1088008596125367 
4.090000000003807, -1.108613312861695 
4.100000000003783, -1.108646460290368 
4.11000000000376, -1.1088712476880134 
4.120000000003737, -1.1092281569572442 
4.130000000003713, -1.1096426468783034 
4.14000000000369, -1.110040510885685 
4.150000000003667, -1.1103584582457353 
4.1600000000036434, -1.1105483058975634 
4.17000000000362, -1.1105767942757478 
4.180000000003597, -1.1104238044654728 
4.1900000000035735, -1.110080327080547 
4.20000000000355, -1.1095466575465047 
4.210000000003527, -1.1088315311805317 
4.220000000003504, -1.107952902625731 
4.23000000000348, -1.1069402961131993 
4.240000000003457, -1.1058377637869352 
4.250000000003434, -1.104705669648896 
4.26000000000341, -1.1036187253467322 
4.270000000003387, -1.1026579150239446 
4.280000000003364, -1.1018958412217743 
4.2900000000033405, -1.1013778681609865 
4.300000000003317, -1.101105395855848 
4.310000000003294, -1.1010313926018094 
4.320000000003271, -1.10107412732537 
4.330000000003247, -1.1011412254738233 
4.340000000003224, -1.1011483630344454 
4.350000000003201, -1.1010249231895262 
4.360000000003177, -1.100711177514278 
4.370000000003154, -1.100155629770287 
4.380000000003131, -1.0993174965252213 
4.390000000003107, -1.0981733095349955 
4.400000000003084, -1.09672272108164 
4.410000000003061, -1.094989690246173 
4.4200000000030375, -1.0930201404603197 
4.430000000003014, -1.0908804543563204 
4.440000000002991, -1.0886593847153674 
4.450000000002968, -1.0864710789072578 
4.460000000002944, -1.0844523103401453 
4.470000000002921, -1.0827449488909022 
4.480000000002898, -1.08145946795443 
4.490000000002874, -1.080631764825525 
4.500000000002851, -1.0802033659366548 
4.510000000002828, -1.0800456926081634 
4.520000000002804, -1.080011064553387 
4.530000000002781, -1.07997226842235 
4.540000000002758, -1.079831840556637 
4.5500000000027345, -1.0795095129552283 
4.560000000002711, -1.078924342222319 
4.570000000002688, -1.0779833285927378 
4.580000000002665, -1.0765834530712646 
4.590000000002641, -1.0746300921061878 
4.600000000002618, -1.0720672016753523 
4.610000000002595, -1.0689055100984697 
4.620000000002571, -1.0652349610897425 
4.630000000002548, -1.0612202989921444 
4.640000000002525, -1.0570893756228192 
4.6500000000025015, -1.0531183700380606 
4.660000000002478, -1.0496028671820419 
4.670000000002455, -1.0467991744328553 
4.6800000000024315, -1.0448437133098971 
4.690000000002408, -1.0436984136292362 
4.700000000002385, -1.0431735841280436 
4.710000000002362, -1.0430181334715785 
4.720000000002338, -1.0430089546980423 
4.730000000002315, -1.0429884893063972 
4.740000000002292, -1.0428540603748522 
4.750000000002268, -1.0425273748823367 
4.760000000002245, -1.0419244816303688 
4.770000000002222, -1.0409339134551705 
4.7800000000021985, -1.039407591562553 
4.790000000002175, -1.037172583913477 
4.800000000002152, -1.0340718839478589 
4.810000000002129, -1.0300287647941389 
4.820000000002105, -1.0251066863642762 
4.830000000002082, -1.0195312583024128 
4.840000000002059, -1.0136655289196213 
4.850000000002035, -1.0079550804040438 
4.860000000002012, -1.002855499325023 
4.870000000001989, -0.9987409544285806 
4.880000000001965, -0.9958063291873926 
4.890000000001942, -0.9940113763674834 
4.900000000001919, -0.9931166261968188 
4.9100000000018955, -0.9927969688770059 
4.920000000001872, -0.9927568200963808 
4.930000000001849, -0.9927857859555521 
4.940000000001826, -0.992754048202747 
