t, s[1].omega / s[0].omega 
0, -1.399997295046622 
0.009999999999999995, -1.399552191198961 
0.019999999999999934, -1.3987643305401973 
0.029999999999999874, -1.3976444015615095 
0.04000000000000012, -1.3962170080377563 
0.050000000000000405, -1.39453256352741 
0.06000000000000069, -1.3926860878095806 
0.07000000000000098, -1.390841580350557 
0.08000000000000126, -1.3892381509449034 
0.09000000000000155, -1.388115509719287 
0.10000000000000184, -1.3875541889520642 
0.11000000000000212, -1.3873992214638744 
0.12000000000000241, -1.387380447061228 
0.130000000000002, -1.3872639016960717 
0.1400000000000009, -1.3868759387593848 
0.1499999999999998, -1.3860299904316098 
0.1599999999999987, -1.3844165171405807 
0.1699999999999976, -1.3814584890613433 
0.1799999999999965, -1.3761199927284786 
0.1899999999999954, -1.3667426091560952 
0.1999999999999943, -1.3512639640128299 
0.2099999999999932, -1.3286047857870247 
0.2199999999999921, -1.301536279309174 
0.229999999999991, -1.2778808116786695 
0.2399999999999899, -1.264951609931011 
0.2499999999999888, -1.2625440483681634 
0.2599999999999877, -1.2651794439660355 
0.2699999999999866, -1.2684659014129038 
0.2799999999999855, -1.2708281150801848 
0.2899999999999844, -1.272172656294318 
0.2999999999999833, -1.2727624753892008 
0.3099999999999822, -1.2728150917125118 
0.3199999999999811, -1.2724291813263806 
0.32999999999998, -1.2715936846027955 
0.3399999999999789, -1.2702197031441516 
0.3499999999999778, -1.2682494109288203 
0.35999999999997667, -1.26601277465797 
0.36999999999997557, -1.264987194553186 
0.37999999999997447, -1.2683234506215397 
0.38999999999997337, -1.279156440782255 
0.39999999999997227, -1.2969183445164116 
0.40999999999997117, -1.3168978898514658 
0.41999999999997006, -1.3342682240079022 
0.42999999999996896, -1.3469308057004803 
0.43999999999996786, -1.3551078845743962 
0.44999999999996676, -1.35993614604685 
0.45999999999996566, -1.3625637872801435 
0.46999999999996456, -1.3638377229961007 
0.47999999999996346, -1.3642954265199574 
0.48999999999996235, -1.3642539832837732 
0.49999999999996125, -1.3639081704342646 
0.5099999999999602, -1.3634165355428114 
0.519999999999959, -1.362964879442029 
0.529999999999958, -1.362768789300363 
0.5399999999999568, -1.3629851482950364 
0.5499999999999557, -1.3636128808685248 
0.5599999999999546, -1.3645094339325243 
0.5699999999999535, -1.3654929456189895 
0.5799999999999524, -1.3664123833284187 
0.5899999999999513, -1.3671608686808179 
0.5999999999999502, -1.367667799216152 
0.6099999999999491, -1.3678887006254763 
0.619999999999948, -1.3677961280677713 
0.6299999999999469, -1.3673732983413225 
0.6399999999999458, -1.366611079034897 
0.6499999999999447, -1.3655080746602757 
0.6599999999999436, -1.3640743680768648 
0.6699999999999425, -1.3623405248906872 
0.6799999999999414, -1.360373745861595 
0.6899999999999403, -1.358302096664429 
0.6999999999999392, -1.3563370883656454 
0.7099999999999381, -1.35475019209326 
0.719999999999937, -1.3537481771438602 
0.7299999999999359, -1.3533181982013283 
0.7399999999999348, -1.3532332633866295 
0.7499999999999337, -1.3532164458723948 
0.7599999999999326, -1.3530565680648117 
0.7699999999999315, -1.3525929752948582 
0.7799999999999304, -1.3516322695741823 
0.7899999999999293, -1.3498411684544214 
0.7999999999999282, -1.3466092778102934 
0.8099999999999271, -1.340881582569879 
0.819999999999926, -1.3310616394909782 
0.8299999999999249, -1.3153372526228009 
0.8399999999999238, -1.2930446974877892 
0.8499999999999227, -1.2670281637918062 
0.8599999999999216, -1.2442188545906974 
0.8699999999999205, -1.2309192331312626 
0.8799999999999194, -1.2272557642543416 
0.8899999999999183, -1.2287379616181302 
0.8999999999999172, -1.2313692132950869 
0.9099999999999161, -1.233454394514527 
0.919999999999915, -1.2347104835961553 
0.9299999999999139, -1.235288845911772 
0.9399999999999128, -1.235358085680089 
0.9499999999999117, -1.23499658134482 
0.9599999999999106, -1.234176619901189 
0.9699999999999095, -1.2327650528993463 
0.9799999999999084, -1.2305599565016754 
0.9899999999999073, -1.2274974017655356 
0.9999999999999062, -1.2243154530267548 
1.0099999999999052, -1.2237351972833017 
1.019999999999904, -1.2306166304146413 
1.029999999999903, -1.2482764710474066 
1.039999999999902, -1.2735698993729954 
1.0499999999999008, -1.2987635865659704 
1.0599999999998997, -1.3182225962790255 
1.0699999999998986, -1.3308893179068997 
1.0799999999998975, -1.3382689099934328 
1.0899999999998964, -1.342249222634408 
1.0999999999998953, -1.344234994891357 
1.1099999999998942, -1.3450833535116826 
1.119999999999893, -1.3452694462500456 
1.129999999999892, -1.3450511945830466 
1.1399999999998909, -1.3445939994042198 
1.1499999999998898, -1.344071033298717 
1.1599999999998887, -1.3437314792792248 
1.1699999999998876, -1.343869594447019 
1.1799999999998865, -1.3446601806985936 
1.1899999999998854, -1.3460209418525215 
1.1999999999998843, -1.3476833003920898 
1.2099999999998832, -1.3493689883289604 
1.219999999999882, -1.3508851866269989 
1.229999999999881, -1.352124373329716 
1.2399999999998799, -1.3530352496642861 
1.2499999999998788, -1.3535986291004831 
1.2599999999998777, -1.3538129188376415 
1.2699999999998766, -1.3536870021512752 
1.2799999999998755, -1.3532379418274347 
1.2899999999998744, -1.352491682925558 
1.2999999999998733, -1.351486421734226 
1.3099999999998722, -1.350278677511069 
1.319999999999871, -1.3489501259738497 
1.32999999999987, -1.3476122714657266 
1.3399999999998689, -1.3464057849370967 
1.3499999999998678, -1.3454789588420302 
1.3599999999998666, -1.3449232290962174 
1.3699999999998655, -1.3447015088437764 
1.3799999999998644, -1.3446577037751184 
1.3899999999998633, -1.3446025412423923 
1.3999999999998622, -1.344372694029834 
1.4099999999998611, -1.3438175520107118 
1.41999999999986, -1.3427441014241808 
1.429999999999859, -1.340851594318705 
1.4399999999998578, -1.3376729496612705 
1.4499999999998567, -1.3325522504039797 
1.4599999999998556, -1.3247220250939287 
1.4699999999998545, -1.3135782942397454 
1.4799999999998534, -1.2992439283883146 
1.4899999999998523, -1.2833072080872951 
1.4999999999998512, -1.268969571117973 
1.5099999999998501, -1.2594409838029443 
1.519999999999849, -1.2554554827374729 
1.529999999999848, -1.255113488226572 
1.5399999999998468, -1.2560974710255386 
1.5499999999998457, -1.2571053111201484 
1.5599999999998446, -1.257724333665227 
1.5699999999998435, -1.2579130420745956 
1.5799999999998424, -1.25769300262657 
1.5899999999998413, -1.2570257370182802 
1.5999999999998402, -1.2557532448875208 
1.6099999999998391, -1.253543488700109 
1.619999999999838, -1.2498683763587013 
1.629999999999837, -1.244226375991786 
1.6399999999998358, -1.237157215868068 
1.6499999999998347, -1.2323406459361164 
1.6599999999998336, -1.2371256211848678 
1.6699999999998325, -1.2563327114259946 
1.6799999999998314, -1.284578883123566 
1.6899999999998303, -1.3109591647382344 
1.6999999999998292, -1.3294579180623576 
1.709999999999828, -1.3403688424942408 
1.719999999999827, -1.346200651813111 
1.729999999999826, -1.3491164075599131 
1.7399999999998248, -1.3504429578012778 
1.7499999999998237, -1.3508905397377071 
1.7599999999998226, -1.3508178517074725 
1.7699999999998215, -1.3504141813962272 
1.7799999999998204, -1.3498303592809582 
1.7899999999998193, -1.3492970463209886 
1.7999999999998182, -1.3491933611675122 
1.809999999999817, -1.3499297436175985 
1.819999999999816, -1.3516437158354555 
1.8299999999998149, -1.3540592818671908 
1.8399999999998138, -1.356708494004088 
1.8499999999998127, -1.3592085586684273 
1.8599999999998116, -1.361346103062732 
1.8699999999998105, -1.363033630429344 
1.8799999999998094, -1.3642517790036417 
1.8899999999998083, -1.3650141198665195 
1.8999999999998072, -1.365351023966288 
1.909999999999806, -1.3653031926166004 
1.919999999999805, -1.3649188243805324 
1.9299999999998039, -1.3642532934476626 
1.9399999999998028, -1.3633727037414267 
1.9499999999998017, -1.3623595217365514 
1.9599999999998006, -1.3613136724455086 
1.9699999999997995, -1.360346061193115 
1.9799999999997984, -1.3595670652778655 
1.9899999999997973, -1.3590600874274386 
1.9999999999997962, -1.358832953179135 
2.0099999999998173, -1.3587919356566514 
2.0199999999998384, -1.3587820361535659 
2.0299999999998595, -1.3586475156682878 
2.0399999999998806, -1.3582469336475236 
2.0499999999999017, -1.3574219053694352 
2.059999999999923, -1.355951028615716 
2.069999999999944, -1.3535126346405366 
2.079999999999965, -1.3496761716297692 
2.089999999999986, -1.3439489677905205 
2.100000000000007, -1.335914372881811 
2.1100000000000283, -1.3255102444069118 
2.1200000000000494, -1.3134695888625298 
2.1300000000000705, -1.301678464919817 
2.1400000000000916, -1.2926727690031885 
2.1500000000001127, -1.2879215291199806 
2.160000000000134, -1.2867000901661645 
2.170000000000155, -1.2871750755539737 
2.180000000000176, -1.2879722375263833 
2.190000000000197, -1.288521081509403 
2.2000000000002182, -1.288690779920742 
2.2100000000002393, -1.2884654814535035 
2.2200000000002604, -1.2877884931243462 
2.2300000000002815, -1.2864816531506436 
2.2400000000003026, -1.2841711674089034 
2.2500000000003237, -1.2802370960776532 
2.260000000000345, -1.2740115955051872 
2.270000000000366, -1.2658728171674962 
2.280000000000387, -1.2596886306244464 
2.290000000000408, -1.2635612114806045 
2.3000000000004293, -1.2826615362988483 
2.3100000000004504, -1.3107600828321206 
2.3200000000004715, -1.3363348968788848 
2.3300000000004926, -1.3537505475400975 
2.3400000000005137, -1.3637705226196706 
2.3500000000005348, -1.369019810435616 
2.360000000000556, -1.371590359542333 
2.370000000000577, -1.3727156642747063 
2.380000000000598, -1.3730404278758996 
2.390000000000619, -1.3728870024626887 
2.4000000000006403, -1.3724329803048518 
2.4100000000006614, -1.3718434983631533 
2.4200000000006825, -1.3713862732632045 
2.4300000000007036, -1.3714599384501374 
2.4400000000007247, -1.3724051654732192 
2.450000000000746, -1.3742154089718357 
2.460000000000767, -1.3765291004358864 
2.470000000000788, -1.3789104508521595 
2.480000000000809, -1.3810581251005842 
2.49000000000083, -1.382823491642567 
2.5000000000008513, -1.3841538905595705 
2.5100000000008724, -1.3850445473091855 
2.5200000000008935, -1.385512861881034 
2.5300000000009146, -1.3855873766312885 
2.5400000000009357, -1.3853038374989766 
2.550000000000957, -1.3847045247353957 
2.560000000000978, -1.383840702661827 
2.570000000000999, -1.3827785254556637 
2.58000000000102, -1.3816050906151658 
2.5900000000010412, -1.3804302202477277 
2.6000000000010624, -1.3793834348884078 
2.6100000000010835, -1.3785955592956332 
2.6200000000011046, -1.3781420022915012 
2.6300000000011257, -1.3779778413773607 
2.6400000000011468, -1.3779492060454115 
2.650000000001168, -1.377874026719884 
2.660000000001189, -1.3775921006167806 
2.67000000000121, -1.3769447178548888 
2.680000000001231, -1.3757151875581417 
2.6900000000012523, -1.3735598855021112 
2.7000000000012734, -1.3699478219308627 
2.7100000000012945, -1.3641451161830962 
2.7200000000013156, -1.355324916805301 
2.7300000000013367, -1.3429357950159837 
2.740000000001358, -1.327448387614235 
2.750000000001379, -1.3112095503649082 
2.7600000000014, -1.298108839054576 
2.770000000001421, -1.2909411048503707 
2.780000000001442, -1.2890750735891667 
2.7900000000014633, -1.2898260045872811 
2.8000000000014844, -1.2910880754858651 
2.8100000000015055, -1.2920147195455187 
2.8200000000015266, -1.292455147189958 
2.8300000000015477, -1.2924495486538086 
2.840000000001569, -1.2920151035888738 
2.85000000000159, -1.2910719647365174 
2.860000000001611, -1.2894056965723757 
2.870000000001632, -1.2866688565312985 
2.8800000000016532, -1.2825926133105896 
2.8900000000016743, -1.277862627109785 
2.9000000000016954, -1.2758877251187897 
2.9100000000017165, -1.2830855522432905 
2.9200000000017377, -1.3031909627619764 
2.9300000000017588, -1.3308031857118114 
2.94000000000178, -1.3561651160201105 
2.950000000001801, -1.3740948740861674 
2.960000000001822, -1.3848787674286778 
2.970000000001843, -1.390762648843541 
2.9800000000018643, -1.3937521036680007 
2.9900000000018854, -1.3951279358090014 
3.0000000000019065, -1.3956021601551474 
3.0100000000019276, -1.3955491715034674 
3.0200000000019487, -1.3951784921642472 
3.03000000000197, -1.3946601653014306 
3.040000000001991, -1.3942170784564567 
3.050000000002012, -1.3941353214247207 
3.060000000002033, -1.394628980873994 
3.070000000002054, -1.3956744914648087 
3.0800000000020753, -1.3970383730168825 
3.0900000000020964, -1.3984522410263591 
3.1000000000021175, -1.3997234391584823 
3.1100000000021386, -1.4007410975377443 
3.1200000000021597, -1.4014483568543161 
3.130000000002181, -1.4018191169198149 
3.140000000002202, -1.4018435584833087 
3.150000000002223, -1.4015203831425862 
3.160000000002244, -1.400853986373582 
3.1700000000022652, -1.3998554596856454 
3.1800000000022863, -1.3985476139111628 
3.1900000000023074, -1.3969749868980759 
3.2000000000023285, -1.3952197100331891 
3.2100000000023496, -1.3934232748450008 
3.2200000000023707, -1.3918003426088725 
3.230000000002392, -1.3905923314097286 
3.240000000002413, -1.3899265230676823 
3.250000000002434, -1.3897042474989434 
3.260000000002455, -1.3896747359597983 
3.2700000000024763, -1.3895934884872247 
3.2800000000024974, -1.3892782264813988 
3.2900000000025185, -1.388553281254611 
3.3000000000025396, -1.3871476392000779 
3.3100000000025607, -1.3845623370448885 
3.3200000000025818, -1.3798940316304855 
3.330000000002603, -1.3716591067749864 
3.340000000002624, -1.3578813601228892 
3.350000000002645, -1.3371118491440097 
3.360000000002666, -1.310959611297942 
3.3700000000026873, -1.2861140888197629 
3.3800000000027084, -1.2705854630063436 
3.3900000000027295, -1.2660917974976094 
3.4000000000027506, -1.2678949906740664 
3.4100000000027717, -1.2711092649373408 
3.420000000002793, -1.2736217249652104 
3.430000000002814, -1.2751191600925809 
3.440000000002835, -1.2758226484042843 
3.450000000002856, -1.2759607029920579 
3.460000000002877, -1.2756509631117088 
3.4700000000028983, -1.274898631131261 
3.4800000000029194, -1.2736212663353634 
3.4900000000029405, -1.2717331715871016 
3.5000000000029616, -1.269441377003546 
3.5100000000029827, -1.2679519747242671 
3.520000000003004, -1.2701841157124105 
3.530000000003025, -1.2796065955405669 
3.540000000003046, -1.2965290369120857 
3.550000000003067, -1.3166711437589709 
3.5600000000030882, -1.334835343918487 
3.5700000000031094, -1.348386650630011 
3.5800000000031305, -1.3572700726728129 
3.5900000000031516, -1.3625745474620108 
3.6000000000031727, -1.3654962468310008 
3.6100000000031938, -1.3669448910378095 
3.620000000003215, -1.3675065653432443 
3.630000000003236, -1.3675283848848054 
3.640000000003257, -1.367219211758123 
3.650000000003278, -1.3667388675783487 
3.6600000000032993, -1.366267120711583 
3.6700000000033204, -1.3660185762219723 
3.6800000000033415, -1.3661657467984765 
3.6900000000033626, -1.3667322570736273 
3.7000000000033837, -1.3675903498414164 
3.710000000003405, -1.3685587765433498 
3.720000000003426, -1.3694812215323806 
3.730000000003447, -1.3702452525886448 
3.740000000003468, -1.3707756662437085 
3.750000000003489, -1.3710244752039074 
3.7600000000035103, -1.3709616354764989 
3.7700000000035314, -1.370568265559891 
3.7800000000035525, -1.3698332365990609 
3.7900000000035736, -1.3687528792683303 
3.8000000000035947, -1.3673342378521052 
3.810000000003616, -1.365603527316253 
3.820000000003637, -1.3636219601342356 
3.830000000003658, -1.3615105190739278 
3.840000000003679, -1.3594759859818808 
3.8500000000037002, -1.3577962106719874 
3.8600000000037213, -1.3567020601680022 
3.8700000000037424, -1.3562094941677763 
3.8800000000037635, -1.3561016437502205 
3.8900000000037847, -1.3560920575657023 
3.9000000000038058, -1.3559578524044367 
3.910000000003827, -1.3555355370063167 
3.920000000003848, -1.3546392704628687 
3.930000000003869, -1.3529531772949785 
3.94000000000389, -1.3498929098426542 
3.9500000000039113, -1.3444288031707559 
3.9600000000039324, -1.334955331635343 
3.9700000000039535, -1.319547381696571 
3.9800000000039746, -1.2972730330379734 
3.9900000000039957, -1.2707011993153894 
4.000000000004016, -1.2468844226584537 
4.010000000003993, -1.2327134526332064 
4.02000000000397, -1.2287259213168813 
4.030000000003946, -1.2303033714913505 
4.040000000003923, -1.2331512364663593 
4.0500000000039, -1.2354180551030827 
4.0600000000038765, -1.236793751342661 
4.070000000003853, -1.2374470977431749 
4.08000000000383, -1.2375682577455909 
4.090000000003807, -1.2372532607844513 
4.100000000003783, -1.236490627738874 
4.11000000000376, -1.2351664158240134 
4.120000000003737, -1.233102986695598 
4.130000000003713, -1.2302559360661867 
4.14000000000369, -1.2273346707996144 
4.150000000003667, -1.2269021822617536 
4.1600000000036434, -1.2335322782004288 
4.17000000000362, -1.2504078506246692 
4.180000000003597, -1.2747004472427592 
4.1900000000035735, -1.2991673115895845 
4.20000000000355, -1.3183419263940628 
4.210000000003527, -1.3310174125580794 
4.220000000003504, -1.3385077888351073 
4.23000000000348, -1.342597928021088 
4.240000000003457, -1.3446632416434565 
4.250000000003434, -1.3455632092803005 
4.26000000000341, -1.3457825546992357 
4.270000000003387, -1.3455870565311536 
4.280000000003364, -1.345145312789098 
4.2900000000033405, -1.3446267593353203 
4.300000000003317, -1.344268781075421 
4.310000000003294, -1.3443516439552115 
4.320000000003271, -1.3450476105505478 
4.330000000003247, -1.3462893891707668 
4.340000000003224, -1.3478301140177156 
4.350000000003201, -1.3494069533862612 
4.360000000003177, -1.350833125954653 
4.370000000003154, -1.3520008921970343 
4.380000000003131, -1.3528560794914124 
4.390000000003107, -1.3533760158225099 
4.400000000003084, -1.3535556610541006 
4.410000000003061, -1.3534004464197045 
4.4200000000030375, -1.3529238265009567 
4.430000000003014, -1.3521479843920852 
4.440000000002991, -1.3511073230830435 
4.450000000002968, -1.3498548007005347 
4.460000000002944, -1.3484695861123817 
4.470000000002921, -1.3470634959201555 
4.480000000002898, -1.3457824399457696 
4.490000000002874, -1.3447853921240494 
4.500000000002851, -1.3441761873153992 
4.510000000002828, -1.3439244377147401 
4.520000000002804, -1.3438714724974508 
4.530000000002781, -1.3438209906350023 
4.540000000002758, -1.343604720960985 
4.5500000000027345, -1.3430712117756305 
4.560000000002711, -1.342028881265928 
4.570000000002688, -1.3401763433036469 
4.580000000002665, -1.3370356403448147 
4.590000000002641, -1.3319166208266942 
4.600000000002618, -1.3239815333110772 
4.610000000002595, -1.3125250492299534 
4.620000000002571, -1.297583795347368 
4.630000000002548, -1.2807663177960964 
4.640000000002525, -1.265472958489057 
4.6500000000025015, -1.255208300065466 
4.660000000002478, -1.2508630691125338 
4.670000000002455, -1.2504574408425961 
4.6800000000024315, -1.2515063629945806 
4.690000000002408, -1.25259940417114 
4.700000000002385, -1.25328820502826 
4.710000000002362, -1.2535309289186631 
4.720000000002338, -1.2533598323545934 
4.730000000002315, -1.2527513453202357 
4.740000000002292, -1.2515685732419195 
4.750000000002268, -1.2495117806687794 
4.760000000002245, -1.2460958663723833 
4.770000000002222, -1.2408395980462181 
4.7800000000021985, -1.2341645184564347 
4.790000000002175, -1.2293607021464967 
4.800000000002152, -1.2334149399820793 
4.810000000002129, -1.2516222445067573 
4.820000000002105, -1.2796370302410693 
4.830000000002082, -1.3067254549450376 
4.840000000002059, -1.326211440260523 
4.850000000002035, -1.3379019385018656 
4.860000000002012, -1.344221167282257 
4.870000000001989, -1.347412678474329 
4.880000000001965, -1.348891809986006 
4.890000000001942, -1.349427187049778 
4.900000000001919, -1.3494097365289082 
4.9100000000018955, -1.3490428771622127 
4.920000000001872, -1.3484760953716644 
4.930000000001849, -1.3479229608945038 
