t, s[1].omega / s[0].omega 
0, -0.5999977285347412 
0.009999999999999995, -0.599787624266971 
0.019999999999999934, -0.5996014296001455 
0.029999999999999874, -0.5994141229939123 
0.04000000000000012, -0.5991960313600824 
0.050000000000000405, -0.5989237837990713 
0.06000000000000069, -0.5985866967513634 
0.07000000000000098, -0.5981877136923655 
0.08000000000000126, -0.597741848792673 
0.09000000000000155, -0.5972759775453598 
0.10000000000000184, -0.5968326713241441 
0.11000000000000212, -0.59647965885105 
0.12000000000000241, -0.5963262629064447 
0.130000000000002, -0.5965484248947748 
0.1400000000000009, -0.5974237930275703 
0.1499999999999998, -0.5993763088360583 
0.1599999999999987, -0.6030225021360762 
0.1699999999999976, -0.609192317534071 
0.1799999999999965, -0.6188559820913596 
0.1899999999999954, -0.6328324216138346 
0.1999999999999943, -0.6511762556884806 
0.2099999999999932, -0.6724638812193396 
0.2199999999999921, -0.6937897796018249 
0.229999999999991, -0.7120849395010784 
0.2399999999999899, -0.7257405368317934 
0.2499999999999888, -0.7349190180755067 
0.2599999999999877, -0.7406893422898522 
0.2699999999999866, -0.744177721711002 
0.2799999999999855, -0.746224744959125 
0.2899999999999844, -0.7473704117266549 
0.2999999999999833, -0.7479351487132179 
0.3099999999999822, -0.7480954717404223 
0.3199999999999811, -0.7479321961888687 
0.32999999999998, -0.7474535012385864 
0.3399999999999789, -0.7465975738439798 
0.3499999999999778, -0.7452169201360374 
0.35999999999997667, -0.7430457723096012 
0.36999999999997557, -0.7396604384141567 
0.37999999999997447, -0.7344714136665147 
0.38999999999997337, -0.7268364572418224 
0.39999999999997227, -0.7163884310704345 
0.40999999999997117, -0.7034795581014028 
0.41999999999997006, -0.6893241960702166 
0.42999999999996896, -0.6755379742426106 
0.43999999999996786, -0.6634306071828535 
0.44999999999996676, -0.6536413293811731 
0.45999999999996566, -0.6462191247345729 
0.46999999999996456, -0.6408775895345789 
0.47999999999996346, -0.6372093913899424 
0.48999999999996235, -0.6348080133283116 
0.49999999999996125, -0.633320733299871 
0.5099999999999602, -0.6324643248789006 
0.519999999999959, -0.6320232963627993 
0.529999999999958, -0.6318406381252946 
0.5399999999999568, -0.6318059737977052 
0.5499999999999557, -0.6318438304020033 
0.5599999999999546, -0.6319037321351765 
0.5699999999999535, -0.6319531656610831 
0.5799999999999524, -0.6319737955058878 
0.5899999999999513, -0.631960318745913 
0.5999999999999502, -0.631919972471249 
0.6099999999999491, -0.6318697398533077 
0.619999999999948, -0.6318292617019623 
0.6299999999999469, -0.6318107330064616 
0.6399999999999458, -0.6318104198207359 
0.6499999999999447, -0.6318068830050914 
0.6599999999999436, -0.6317676967456302 
0.6699999999999425, -0.6316612811655598 
0.6799999999999414, -0.6314672783964977 
0.6899999999999403, -0.6311807882130327 
0.6999999999999392, -0.6308110242059628 
0.7099999999999381, -0.6303785783144257 
0.719999999999937, -0.6299154258037107 
0.7299999999999359, -0.6294700736532581 
0.7399999999999348, -0.6291191015752293 
0.7499999999999337, -0.6289861454598571 
0.7599999999999326, -0.629269319883571 
0.7699999999999315, -0.6302770385830699 
0.7799999999999304, -0.6324685816530746 
0.7899999999999293, -0.6364865205804624 
0.7999999999999282, -0.6431476729460919 
0.8099999999999271, -0.6533230479192482 
0.819999999999926, -0.6676047497979545 
0.8299999999999249, -0.6857277011318333 
0.8399999999999238, -0.706047119491285 
0.8499999999999227, -0.7257838195684171 
0.8599999999999216, -0.7423187217989325 
0.8699999999999205, -0.7544684093065576 
0.8799999999999194, -0.762553696681851 
0.8899999999999183, -0.7675947465531581 
0.8999999999999172, -0.7706085179588256 
0.9099999999999161, -0.772341861289837 
0.919999999999915, -0.7732705250933651 
0.9299999999999139, -0.7736730327573036 
0.9399999999999128, -0.7736970462498479 
0.9499999999999117, -0.7734001032646708 
0.9599999999999106, -0.7727662635781846 
0.9699999999999095, -0.7717014857893714 
0.9799999999999084, -0.7700072448165246 
0.9899999999999073, -0.7673304313279031 
0.9999999999999062, -0.7630968722849862 
1.0099999999999052, -0.7564748984456084 
1.019999999999904, -0.746499740897262 
1.029999999999903, -0.7325410040866885 
1.039999999999902, -0.7150415894809928 
1.0499999999999008, -0.6958543952743141 
1.0599999999998997, -0.6775201865171596 
1.0699999999998986, -0.6620240373659498 
1.0799999999998975, -0.6501660987311648 
1.0899999999998964, -0.6417708622974009 
1.0999999999998953, -0.6361901632577507 
1.1099999999998942, -0.6326842403787983 
1.119999999999893, -0.6306063144700986 
1.129999999999892, -0.6294576430908579 
1.1399999999998909, -0.628881623890209 
1.1499999999998898, -0.6286364047675153 
1.1599999999998887, -0.6285641827322976 
1.1699999999998876, -0.6285644362095109 
1.1799999999998865, -0.6285733844425184 
1.1899999999998854, -0.6285499249358425 
1.1999999999998843, -0.6284676069746907 
1.2099999999998832, -0.6283118711752709 
1.219999999999882, -0.6280809831649488 
1.229999999999881, -0.6277875648934138 
1.2399999999998799, -0.6274566357936897 
1.2499999999998788, -0.6271178366864267 
1.2599999999998777, -0.6267940609251264 
1.2699999999998766, -0.6264923418182775 
1.2799999999998755, -0.626202083280241 
1.2899999999998744, -0.6259013413445191 
1.2999999999998733, -0.6255672791196105 
1.3099999999998722, -0.6251852274466531 
1.319999999999871, -0.6247530520886078 
1.32999999999987, -0.6242815986670223 
1.3399999999998689, -0.6237944339609109 
1.3499999999998678, -0.62332990096478 
1.3599999999998666, -0.6229471387864585 
1.3699999999998655, -0.6227366261672994 
1.3799999999998644, -0.6228352085441254 
1.3899999999998633, -0.6234449956321576 
1.3999999999998622, -0.6248543734207748 
1.4099999999998611, -0.6274567753193347 
1.41999999999986, -0.6317568992268969 
1.429999999999859, -0.6383414203799778 
1.4399999999998578, -0.6477704253052992 
1.4499999999998567, -0.6603321739559767 
1.4599999999998556, -0.6756594832068664 
1.4699999999998545, -0.6924183793687468 
1.4799999999998534, -0.7085193684146819 
1.4899999999998523, -0.7220177185579169 
1.4999999999998512, -0.732011336391056 
1.5099999999998501, -0.7387229413253233 
1.519999999999849, -0.7429349963703484 
1.529999999999848, -0.745454249224243 
1.5399999999998468, -0.7468868156826854 
1.5499999999998457, -0.747623736343369 
1.5599999999998446, -0.747893639867346 
1.5699999999998435, -0.747813532680271 
1.5799999999998424, -0.7474196743239416 
1.5899999999998413, -0.746677694021938 
1.5999999999998402, -0.7454727130030083 
1.6099999999998391, -0.7435776291084257 
1.619999999999838, -0.740597596236112 
1.629999999999837, -0.7359021183356336 
1.6399999999998358, -0.7286052509822021 
1.6499999999998347, -0.7177487403144817 
1.6599999999998336, -0.7028634953485764 
1.6699999999998325, -0.684720597522123 
1.6799999999998314, -0.6654636842364497 
1.6899999999998303, -0.6476345224911327 
1.6999999999998292, -0.6329522313638359 
1.709999999999828, -0.6219169955864431 
1.719999999999827, -0.6141760795235893 
1.729999999999826, -0.6090342585470218 
1.7399999999998248, -0.6057801112766509 
1.7499999999998237, -0.6038211738539958 
1.7599999999998226, -0.6027114335208184 
1.7699999999998215, -0.6021347860976397 
1.7799999999998204, -0.6018763183530963 
1.7899999999998193, -0.6017942839188177 
1.7999999999998182, -0.6017970487995432 
1.809999999999817, -0.6018259183190369 
1.819999999999816, -0.6018436125856552 
1.8299999999998149, -0.6018278217546866 
1.8399999999998138, -0.6017689423698347 
1.8499999999998127, -0.601670239049007 
1.8599999999998116, -0.6015474483846537 
1.8699999999998105, -0.6014245848530264 
1.8799999999998094, -0.6013249292170524 
1.8899999999998083, -0.6012601332939987 
1.8999999999998072, -0.6012229298599171 
1.909999999999806, -0.6011878524775919 
1.919999999999805, -0.6011201592258092 
1.9299999999998039, -0.6009882777234745 
1.9399999999998028, -0.6007731728294686 
1.9499999999998017, -0.6004711095485582 
1.9599999999998006, -0.6000914986070239 
1.9699999999997995, -0.5996542350819947 
1.9799999999997984, -0.5991903029536808 
1.9899999999997973, -0.5987478432095228 
1.9999999999997962, -0.5984052766018788 
2.0099999999998173, -0.5982935498001181 
2.0199999999998384, -0.5986303012986918 
2.0299999999998595, -0.5997683591479425 
2.0399999999998806, -0.6022566905891622 
2.0499999999999017, -0.6068972003793861 
2.059999999999923, -0.614743169658752 
2.069999999999944, -0.6269153998630856 
2.079999999999965, -0.6440609816709992 
2.089999999999986, -0.6654716554458793 
2.100000000000007, -0.6885488086052398 
2.1100000000000283, -0.7097012378487394 
2.1200000000000494, -0.7263408457463251 
2.1300000000000705, -0.7379423183115501 
2.1400000000000916, -0.7454126578710767 
2.1500000000001127, -0.7500096047120304 
2.160000000000134, -0.7527624431118277 
2.170000000000155, -0.7543626702838154 
2.180000000000176, -0.7552337297989505 
2.190000000000197, -0.7556198097818454 
2.2000000000002182, -0.7556489602020714 
2.2100000000002393, -0.7553683391437229 
2.2200000000002604, -0.7547572935221218 
2.2300000000002815, -0.753722122059227 
2.2400000000003026, -0.7520741568543744 
2.2500000000003237, -0.749495666150271 
2.260000000000345, -0.7455143357447918 
2.270000000000366, -0.7395445912754353 
2.280000000000387, -0.7310878359899945 
2.290000000000408, -0.7201071631609756 
2.3000000000004293, -0.7073315367759312 
2.3100000000004504, -0.694107928356389 
2.3200000000004715, -0.6818233619444236 
2.3300000000004926, -0.671393831435825 
2.3400000000005137, -0.663147567323625 
2.3500000000005348, -0.656989155312752 
2.360000000000556, -0.6526119799120385 
2.370000000000577, -0.6496471636384027 
2.380000000000598, -0.6477424219530991 
2.390000000000619, -0.6465958401870822 
2.4000000000006403, -0.6459657630648878 
2.4100000000006614, -0.6456687089439075 
2.4200000000006825, -0.6455713986198682 
2.4300000000007036, -0.6455804266528615 
2.4400000000007247, -0.6456320200889365 
2.450000000000746, -0.6456836415005385 
2.460000000000767, -0.6457085135362688 
2.470000000000788, -0.64569325356855 
2.480000000000809, -0.6456374901294794 
2.49000000000083, -0.6455528647558143 
2.5000000000008513, -0.6454585107076292 
2.5100000000008724, -0.6453722990637635 
2.5200000000008935, -0.6453009589046331 
2.5300000000009146, -0.6452344170182797 
2.5400000000009357, -0.6451481060503341 
2.550000000000957, -0.6450123641432502 
2.560000000000978, -0.6448036270479951 
2.570000000000999, -0.6445115991612876 
2.58000000000102, -0.6441405531812902 
2.5900000000010412, -0.6437074677244627 
2.6000000000010624, -0.643241190293275 
2.6100000000010835, -0.6427855804016176 
2.6200000000011046, -0.6424079689041671 
2.6300000000011257, -0.6422133909119795 
2.6400000000011468, -0.6423645451916032 
2.650000000001168, -0.6431064804288013 
2.660000000001189, -0.6447927946209525 
2.67000000000121, -0.6479054594650843 
2.680000000001231, -0.6530508252549518 
2.6900000000012523, -0.6608966960750011 
2.7000000000012734, -0.6719931035048065 
2.7100000000012945, -0.6864274009152445 
2.7200000000013156, -0.703392982748507 
2.7300000000013367, -0.7210374791818418 
2.740000000001358, -0.7370439261595123 
2.750000000001379, -0.7497319940025253 
2.7600000000014, -0.7586970295496757 
2.770000000001421, -0.7645151705405634 
2.780000000001442, -0.7680787684710043 
2.7900000000014633, -0.7701646059598628 
2.8000000000014844, -0.771312702238952 
2.8100000000015055, -0.7718561776676345 
2.8200000000015266, -0.7719816353830427 
2.8300000000015477, -0.771775328907795 
2.840000000001569, -0.7712471212630374 
2.85000000000159, -0.7703333922361252 
2.860000000001611, -0.768878755495209 
2.870000000001632, -0.7665931766234585 
2.8800000000016532, -0.7629822966886033 
2.8900000000016743, -0.7572688338998336 
2.9000000000016954, -0.7483904541029076 
2.9100000000017165, -0.7352778858524465 
2.9200000000017377, -0.7176025752771964 
2.9300000000017588, -0.696641689423753 
2.94000000000178, -0.6751929226405944 
2.950000000001801, -0.6561767170200864 
2.960000000001822, -0.6412528935790682 
2.970000000001843, -0.6306083907522767 
2.9800000000018643, -0.6235578305226392 
2.9900000000018854, -0.6191656241720798 
3.0000000000019065, -0.6165841467323998 
3.0100000000019276, -0.6151629198856333 
3.0200000000019487, -0.6144459560142463 
3.03000000000197, -0.6141316121443876 
3.040000000001991, -0.6140282240417798 
3.050000000002012, -0.6140170520253744 
3.060000000002033, -0.6140249336547468 
3.070000000002054, -0.6140058724281601 
3.0800000000020753, -0.6139301327322519 
3.0900000000020964, -0.6137795554343206 
3.1000000000021175, -0.6135476569852877 
3.1100000000021386, -0.6132419644064476 
3.1200000000021597, -0.6128845284103712 
3.130000000002181, -0.6125068560547242 
3.140000000002202, -0.6121392245319252 
3.150000000002223, -0.6117991827685597 
3.160000000002244, -0.6114855036836208 
3.1700000000022652, -0.6111806871322425 
3.1800000000022863, -0.6108601446265075 
3.1900000000023074, -0.6105028283911555 
3.2000000000023285, -0.6100983818768139 
3.2100000000023496, -0.6096494216119165 
3.2200000000023707, -0.6091711909996486 
3.230000000002392, -0.6086919954384903 
3.240000000002413, -0.6082569256792408 
3.250000000002434, -0.6079361508270483 
3.260000000002455, -0.6078384039205958 
3.2700000000024763, -0.6081299880470652 
3.2800000000024974, -0.6090590647590193 
3.2900000000025185, -0.6109832573587057 
3.3000000000025396, -0.6143939613408713 
3.3100000000025607, -0.6199195774358146 
3.3200000000025818, -0.6282671762794998 
3.330000000002603, -0.6400310536545938 
3.340000000002624, -0.655301448723037 
3.350000000002645, -0.6731669026167296 
3.360000000002666, -0.6915637706149348 
3.3700000000026873, -0.7079994228440702 
3.3800000000027084, -0.7207995258428204 
3.3900000000027295, -0.7297028630762898 
3.4000000000027506, -0.7354207799726258 
3.4100000000027717, -0.738908416846707 
3.420000000002793, -0.7409533155637616 
3.430000000002814, -0.7420872675535397 
3.440000000002835, -0.7426332894472603 
3.450000000002856, -0.7427708830832229 
3.460000000002877, -0.7425823295701457 
3.4700000000028983, -0.7420758082382213 
3.4800000000029194, -0.7411878734393142 
3.4900000000029405, -0.7397661241373041 
3.5000000000029616, -0.737531176481144 
3.5100000000029827, -0.7340228860334396 
3.520000000003004, -0.7285636322965747 
3.530000000003025, -0.7203357468212426 
3.540000000003046, -0.7087227928850643 
3.550000000003067, -0.6939045094863097 
3.5600000000030882, -0.6772274125226034 
3.5700000000031094, -0.660760744216155 
3.5800000000031305, -0.6463046871080349 
3.5900000000031516, -0.6347594993304353 
3.6000000000031727, -0.626181437049048 
3.6100000000031938, -0.6201554438281967 
3.620000000003215, -0.616118869265252 
3.630000000003236, -0.6135370161405179 
3.640000000003257, -0.6119692519258623 
3.650000000003278, -0.6110793765643602 
3.6600000000032993, -0.6106235118952164 
3.6700000000033204, -0.610431347984026 
3.6800000000033415, -0.6103874235836741 
3.6900000000033626, -0.610415121288865 
3.7000000000033837, -0.610464413402876 
3.710000000003405, -0.6105036810656086 
3.720000000003426, -0.6105154520036298 
3.730000000003447, -0.6104951683546411 
3.740000000003468, -0.6104509074470761 
3.750000000003489, -0.6104010101470476 
3.7600000000035103, -0.6103673387546256 
3.7700000000035314, -0.6103650036144462 
3.7800000000035525, -0.6103929270857633 
3.7900000000035736, -0.6104305991413296 
3.8000000000035947, -0.6104436784330323 
3.810000000003616, -0.610395983845064 
3.820000000003637, -0.6102613181879033 
3.830000000003658, -0.6100292977372324 
3.840000000003679, -0.609704529530446 
3.8500000000037002, -0.6093030478280731 
3.8600000000037213, -0.6088506192180138 
3.8700000000037424, -0.6083858696170097 
3.8800000000037635, -0.6079699132555814 
3.8900000000037847, -0.6077042014494811 
3.9000000000038058, -0.6077590635173991 
3.910000000003827, -0.6084157152505478 
3.920000000003848, -0.610122404109456 
3.930000000003869, -0.6135565097249298 
3.94000000000389, -0.6196595821951499 
3.9500000000039113, -0.6295586847653345 
3.9600000000039324, -0.6442160851408804 
3.9700000000039535, -0.6636868826204182 
3.9800000000039746, -0.6862962943308213 
3.9900000000039957, -0.7087488920587026 
4.000000000004016, -0.7277534051284301 
4.010000000003993, -0.7417608904973971 
4.02000000000397, -0.7510997285277833 
4.030000000003946, -0.7569531523638746 
4.040000000003923, -0.7604947461722638 
4.0500000000039, -0.7625801250668566 
4.0600000000038765, -0.7637544746622578 
4.070000000003853, -0.7643411959520765 
4.08000000000383, -0.7645191914129991 
4.090000000003807, -0.7643712673579248 
4.100000000003783, -0.7639072337875271 
4.11000000000376, -0.7630665886953973 
4.120000000003737, -0.761702761655199 
4.130000000003713, -0.7595500689800238 
4.14000000000369, -0.7561826015739681 
4.150000000003667, -0.7510027374932368 
4.1600000000036434, -0.7433480028661634 
4.17000000000362, -0.7328149244696708 
4.180000000003597, -0.7197151658185607 
4.1900000000035735, -0.7052511512010634 
4.20000000000355, -0.6910790815760712 
4.210000000003527, -0.6785835242789482 
4.220000000003504, -0.6684709737963777 
4.23000000000348, -0.6608244796044402 
4.240000000003457, -0.6553587098474767 
4.250000000003434, -0.6516469337935354 
4.26000000000341, -0.6492556059428056 
4.270000000003387, -0.6478061198955662 
4.280000000003364, -0.6469949835728181 
4.2900000000033405, -0.6465932440795676 
4.300000000003317, -0.6464363591630835 
4.310000000003294, -0.6464105361051202 
4.320000000003271, -0.646439095772078 
4.330000000003247, -0.646471055710773 
4.340000000003224, -0.6464731870170677 
4.350000000003201, -0.6464259811136607 
4.360000000003177, -0.6463228860339545 
4.370000000003154, -0.6461706399917515 
4.380000000003131, -0.6459873410555644 
4.390000000003107, -0.6457958199084073 
4.400000000003084, -0.6456134830906949 
4.410000000003061, -0.6454434755418514 
4.4200000000030375, -0.6452723220711587 
4.430000000003014, -0.6450756304356517 
4.440000000002991, -0.6448285693846852 
4.450000000002968, -0.6445152991043187 
4.460000000002944, -0.6441334206087231 
4.470000000002921, -0.6436939604910561 
4.480000000002898, -0.6432203749828711 
4.490000000002874, -0.6427499758164765 
4.500000000002851, -0.6423396217270441 
4.510000000002828, -0.6420762087585012 
4.520000000002804, -0.6420917272570664 
4.530000000002781, -0.6425819031022103 
4.540000000002758, -0.6438261278705228 
4.5500000000027345, -0.6462038789041222 
4.560000000002711, -0.6501978030195683 
4.570000000002688, -0.6563635617155545 
4.580000000002665, -0.6652301081859106 
4.590000000002641, -0.6770829728209209 
4.600000000002618, -0.6916258657531634 
4.610000000002595, -0.7076864455222751 
4.620000000002571, -0.7233491781182952 
4.630000000002548, -0.736719900854933 
4.640000000002525, -0.7467957693963642 
4.6500000000025015, -0.7536584890142456 
4.660000000002478, -0.7580044940477291 
4.670000000002455, -0.7606156855513061 
4.6800000000024315, -0.7621032760425434 
4.690000000002408, -0.7628703939000476 
4.700000000002385, -0.7631560904284393 
4.710000000002362, -0.7630848311217763 
4.720000000002338, -0.7626984136298907 
4.730000000002315, -0.761967579319075 
4.740000000002292, -0.7607836100924794 
4.750000000002268, -0.7589275591309382 
4.760000000002245, -0.7560127626414542 
4.770000000002222, -0.7514041437687405 
4.7800000000021985, -0.7441579678534358 
4.790000000002175, -0.7331274553720678 
4.800000000002152, -0.7174805148626667 
4.810000000002129, -0.6976330142795262 
4.820000000002105, -0.6757896998741311 
4.830000000002082, -0.6550899364661815 
4.840000000002059, -0.63794631581198 
4.850000000002035, -0.625204696425836 
4.860000000002012, -0.6164847509472209 
4.870000000001989, -0.6108897294202877 
4.880000000001965, -0.6074952335763183 
4.890000000001942, -0.6055501246166648 
4.900000000001919, -0.6045104527628049 
4.9100000000018955, -0.6040081169011776 
4.920000000001872, -0.6038050008210893 
