t, s[1].omega / s[0].omega 
0, -0.6600205287831193 
0.009999999999999995, -0.6620677923929387 
0.019999999999999934, -0.6640008792228598 
0.029999999999999874, -0.6656730963542892 
0.04000000000000012, -0.6669833317907734 
0.050000000000000405, -0.667899560916237 
0.06000000000000069, -0.6684485380325303 
0.07000000000000098, -0.6686862613821002 
0.08000000000000126, -0.6686705126466732 
0.09000000000000155, -0.6684451842645366 
0.10000000000000184, -0.668034950508579 
0.11000000000000212, -0.6674456501068847 
0.12000000000000241, -0.6666673962790649 
0.130000000000002, -0.6656800698607512 
0.1400000000000009, -0.6644628861629887 
0.1499999999999998, -0.6630100017794199 
0.1599999999999987, -0.661349330917595 
0.1699999999999976, -0.6595455612277396 
0.1799999999999965, -0.6576422678287339 
0.1899999999999954, -0.6555122986414457 
0.1999999999999943, -0.6527545530039232 
0.2099999999999932, -0.6489881369691071 
0.2199999999999921, -0.6444827173290512 
0.229999999999991, -0.6402201483109422 
0.2399999999999899, -0.6371071332287468 
0.2499999999999888, -0.6353817798478659 
0.2599999999999877, -0.6347476335082045 
0.2699999999999866, -0.6347620878218604 
0.2799999999999855, -0.6350677940494927 
0.2899999999999844, -0.6354431709880347 
0.2999999999999833, -0.6357727380227784 
0.3099999999999822, -0.636004408056302 
0.3199999999999811, -0.6361167720392197 
0.32999999999998, -0.63609860593898 
0.3399999999999789, -0.6359372531540777 
0.3499999999999778, -0.6356129036709286 
0.35999999999997667, -0.6350977928763815 
0.36999999999997557, -0.6343612333328814 
0.37999999999997447, -0.6333815721161925 
0.38999999999997337, -0.632162683248663 
0.39999999999997227, -0.6307461549174794 
0.40999999999997117, -0.6292080073203131 
0.41999999999997006, -0.6276379916910655 
0.42999999999996896, -0.6261137185675805 
0.43999999999996786, -0.6246849826374923 
0.44999999999996676, -0.6233734316516224 
0.45999999999996566, -0.6221821879098368 
0.46999999999996456, -0.6211075075235687 
0.47999999999996346, -0.6201476321870154 
0.48999999999996235, -0.6193077143666994 
0.49999999999996125, -0.6186017515789948 
0.5099999999999602, -0.6180528413378574 
0.519999999999959, -0.617692642966246 
0.529999999999958, -0.6175604818380085 
0.5399999999999568, -0.6177023573561577 
0.5499999999999557, -0.6181701328765344 
0.5599999999999546, -0.6190211446044114 
0.5699999999999535, -0.6203181062666461 
0.5799999999999524, -0.6221282920964468 
0.5899999999999513, -0.6245194204837874 
0.5999999999999502, -0.6275476023458878 
0.6099999999999491, -0.6312314061342679 
0.619999999999948, -0.6355093411481689 
0.6299999999999469, -0.6401923075396341 
0.6399999999999458, -0.6449478474681654 
0.6499999999999447, -0.6493625805155656 
0.6599999999999436, -0.653079026675484 
0.6699999999999425, -0.6559185109308812 
0.6799999999999414, -0.6578996986675784 
0.6899999999999403, -0.6591629150226758 
0.6999999999999392, -0.6598783642148702 
0.7099999999999381, -0.6601897854316758 
0.719999999999937, -0.660195084775045 
0.7299999999999359, -0.6599457208303173 
0.7399999999999348, -0.6594497470699539 
0.7499999999999337, -0.6586704150315968 
0.7599999999999326, -0.6575158193469173 
0.7699999999999315, -0.6558154081822348 
0.7799999999999304, -0.65327892500638 
0.7899999999999293, -0.6494389203124145 
0.7999999999999282, -0.6436061278900969 
0.8099999999999271, -0.6349420220941919 
0.819999999999926, -0.6228341205199285 
0.8299999999999249, -0.6075889074659684 
0.8399999999999238, -0.5908440646436315 
0.8499999999999227, -0.5749358480896889 
0.8599999999999216, -0.561658071730182 
0.8699999999999205, -0.5516414496874171 
0.8799999999999194, -0.544615540778147 
0.8899999999999183, -0.5399364617585944 
0.8999999999999172, -0.5369425196469886 
0.9099999999999161, -0.5350956547163319 
0.919999999999915, -0.5340027219164043 
0.9299999999999139, -0.5333922980998477 
0.9399999999999128, -0.5330831264573488 
0.9499999999999117, -0.5329567538777776 
0.9599999999999106, -0.5329370198638717 
0.9699999999999095, -0.5329758432765246 
0.9799999999999084, -0.5330441082437931 
0.9899999999999073, -0.5331265341534392 
0.9999999999999062, -0.5332194289123995 
1.0099999999999052, -0.5333298369931108 
1.019999999999904, -0.5334739592104701 
1.029999999999903, -0.5336726199727128 
1.039999999999902, -0.5339428846234071 
1.0499999999999008, -0.5342875901864078 
1.0599999999998997, -0.5346872021782042 
1.0699999999998986, -0.535099285593234 
1.0799999999998975, -0.5354682626458515 
1.0899999999998964, -0.5357418500972432 
1.0999999999998953, -0.5358851340532591 
1.1099999999998942, -0.5358849203288432 
1.119999999999893, -0.5357445970133105 
1.129999999999892, -0.5354752370512152 
1.1399999999998909, -0.5350882069467893 
1.1499999999998898, -0.5345913198991278 
1.1599999999998887, -0.5339883350698991 
1.1699999999998876, -0.5332810877458845 
1.1799999999998865, -0.5324736205111888 
1.1899999999998854, -0.5315766475436587 
1.1999999999998843, -0.5306055970057544 
1.2099999999998832, -0.5295512140313641 
1.219999999999882, -0.5282767116813887 
1.229999999999881, -0.5262968942482918 
1.2399999999998799, -0.5225648078344216 
1.2499999999998788, -0.5158040101379339 
1.2599999999998777, -0.505770799166279 
1.2699999999998766, -0.49415415803723306 
1.2799999999998755, -0.4834601437487752 
1.2899999999998744, -0.4752261935035582 
1.2999999999998733, -0.4696277335538846 
1.3099999999998722, -0.46612264997804775 
1.319999999999871, -0.46405066168773823 
1.32999999999987, -0.4628829600306756 
1.3399999999998689, -0.46225846360048484 
1.3499999999998678, -0.46194859075039674 
1.3599999999998666, -0.4618140969572074 
1.3699999999998655, -0.46177183440874553 
1.3799999999998644, -0.46177276614959933 
1.3899999999998633, -0.4617886486128648 
1.3999999999998622, -0.46180480743399493 
1.4099999999998611, -0.4618171253475489 
1.41999999999986, -0.4618316633056633 
1.429999999999859, -0.4618650116793389 
1.4399999999998578, -0.46194294565816196 
1.4499999999998567, -0.4620952273744544 
1.4599999999998556, -0.4623461317550889 
1.4699999999998545, -0.4627028936725416 
1.4799999999998534, -0.46314655211098765 
1.4899999999998523, -0.463630645216447 
1.4999999999998512, -0.4640912373888658 
1.5099999999998501, -0.4644653691510598 
1.519999999999849, -0.4647081132990773 
1.529999999999848, -0.46479897240076573 
1.5399999999998468, -0.4647367048604221 
1.5499999999998457, -0.46452863262080574 
1.5599999999998446, -0.4641804262275607 
1.5699999999998435, -0.46368839699978226 
1.5799999999998424, -0.4630329547550689 
1.5899999999998413, -0.4621700279924984 
1.5999999999998402, -0.46101541891546516 
1.6099999999998391, -0.4594135591049116 
1.619999999999838, -0.457076980981594 
1.629999999999837, -0.45348510186818114 
1.6399999999998358, -0.44777929619495627 
1.6499999999998347, -0.43885543372473174 
1.6599999999998336, -0.42602459099281587 
1.6699999999998325, -0.41010608890933076 
1.6799999999998314, -0.39357649956975993 
1.6899999999998303, -0.37903178506801244 
1.6999999999998292, -0.3677305146765274 
1.709999999999828, -0.3596051829958922 
1.719999999999827, -0.3539961161478662 
1.729999999999826, -0.3501914825478416 
1.7399999999998248, -0.34762750678742427 
1.7499999999998237, -0.34590865165733486 
1.7599999999998226, -0.34477240678552595 
1.7699999999998215, -0.34404992602595896 
1.7799999999998204, -0.3436361241171514 
1.7899999999998193, -0.3434699467879715 
1.7999999999998182, -0.343522597732987 
1.809999999999817, -0.3437915958131479 
1.819999999999816, -0.34429919484522636 
1.8299999999998149, -0.34509415138397237 
1.8399999999998138, -0.34625572050599424 
1.8499999999998127, -0.34789763093765036 
1.8599999999998116, -0.35016677245259165 
1.8699999999998105, -0.35322542045071953 
1.8799999999998094, -0.3571987143435909 
1.8899999999998083, -0.3620735376558452 
1.8999999999998072, -0.3675793532885264 
1.909999999999806, -0.37316498953868615 
1.919999999999805, -0.37818352625680285 
1.9299999999998039, -0.38218870844323216 
1.9399999999998028, -0.3850797635712096 
1.9499999999998017, -0.38701038233854024 
1.9599999999998006, -0.38821848994044006 
1.9699999999997995, -0.3889160890213116 
1.9799999999997984, -0.3892541179561563 
1.9899999999997973, -0.38932543187949753 
1.9999999999997962, -0.389177435472538 
2.0099999999998173, -0.38882320740825294 
2.0199999999998384, -0.3882498141830763 
2.0299999999998595, -0.3874268831195021 
2.0399999999998806, -0.38632038490891973 
2.0499999999999017, -0.3849152282102828 
2.059999999999923, -0.383242390642096 
2.069999999999944, -0.3813937996106522 
2.079999999999965, -0.3795063795339481 
2.089999999999986, -0.3777185756092508 
2.100000000000007, -0.3761279585091434 
2.1100000000000283, -0.37477473275184436 
2.1200000000000494, -0.3736509920763987 
2.1300000000000705, -0.3727208246019018 
2.1400000000000916, -0.3719390593815264 
2.1500000000001127, -0.37126399615914546 
2.160000000000134, -0.37066403668585746 
2.170000000000155, -0.3701199237831256 
2.180000000000176, -0.36962486431127206 
2.190000000000197, -0.369184728820038 
2.2000000000002182, -0.36882011945433496 
2.2100000000002393, -0.3685718405656289 
2.2200000000002604, -0.3685114606030523 
2.2300000000002815, -0.3687589868424924 
2.2400000000003026, -0.3695088999967709 
2.2500000000003237, -0.37105968070106143 
2.260000000000345, -0.373818947955617 
2.270000000000366, -0.37819550970793075 
2.280000000000387, -0.3842013692915264 
2.290000000000408, -0.39069926185806125 
2.3000000000004293, -0.3950685150868783 
2.3100000000004504, -0.39483544590534536 
2.3200000000004715, -0.39025129596198904 
2.3300000000004926, -0.3839502338738892 
2.3400000000005137, -0.3782905259704542 
2.3500000000005348, -0.37415415073949176 
2.360000000000556, -0.37144739351756606 
2.370000000000577, -0.3697826726173915 
2.380000000000598, -0.36879911506772 
2.390000000000619, -0.3682389045359737 
2.4000000000006403, -0.3679361319234498 
2.4100000000006614, -0.3677893214238733 
2.4200000000006825, -0.36773860497110655 
2.4300000000007036, -0.3677506289441255 
2.4400000000007247, -0.36780980188403267 
2.450000000000746, -0.36791405475694583 
2.460000000000767, -0.36807356214426995 
2.470000000000788, -0.3683108832224656 
2.480000000000809, -0.3686606321712778 
2.49000000000083, -0.3691664364013719 
2.5000000000008513, -0.3698730344424125 
2.5100000000008724, -0.3708121647127274 
2.5200000000008935, -0.3719830923630592 
2.5300000000009146, -0.3733338798041618 
2.5400000000009357, -0.3747568709478085 
2.550000000000957, -0.3761115239181549 
2.560000000000978, -0.37726920864705005 
2.570000000000999, -0.3781519056125869 
2.58000000000102, -0.37874048792125564 
2.5900000000010412, -0.37905563561079114 
2.6000000000010624, -0.37913112483989647 
2.6100000000010835, -0.3789934649435336 
2.6200000000011046, -0.3786497846533686 
2.6300000000011257, -0.3780797649429902 
2.6400000000011468, -0.3772271181721714 
2.650000000001168, -0.3759886417405439 
2.660000000001189, -0.3742044415754642 
2.67000000000121, -0.3716645628839349 
2.680000000001231, -0.3681631822941016 
2.6900000000012523, -0.3636257489717406 
2.7000000000012734, -0.35825888770470443 
2.7100000000012945, -0.3525674857316886 
2.7200000000013156, -0.34715114289488014 
2.7300000000013367, -0.34244160749360447 
2.740000000001358, -0.3385996991055215 
2.750000000001379, -0.33558113309268583 
2.7600000000014, -0.3332487505350361 
2.770000000001421, -0.33145149271335683 
2.780000000001442, -0.33006073070741754 
2.7900000000014633, -0.32898046639720296 
2.8000000000014844, -0.3281463606565191 
2.8100000000015055, -0.3275218859812995 
2.8200000000015266, -0.3270954420763125 
2.8300000000015477, -0.3268802233679361 
2.840000000001569, -0.32691803829610133 
2.85000000000159, -0.3272885415690188 
2.860000000001611, -0.3281261361452284 
2.870000000001632, -0.32964772100729006 
2.8800000000016532, -0.3321941022780474 
2.8900000000016743, -0.33628143459424165 
2.9000000000016954, -0.34263304177699366 
2.9100000000017165, -0.35209140662516314 
2.9200000000017377, -0.3652014220209498 
2.9300000000017588, -0.3813377591647398 
2.94000000000178, -0.39803819251098554 
2.950000000001801, -0.41203467240743696 
2.960000000001822, -0.4215878939311943 
2.970000000001843, -0.42720382402146784 
2.9800000000018643, -0.4303035820181661 
2.9900000000018854, -0.4320460026449126 
3.0000000000019065, -0.43308766867809056 
3.0100000000019276, -0.4337473742264858 
3.0200000000019487, -0.43417416850798346 
3.03000000000197, -0.43444001114422204 
3.040000000001991, -0.4345813896837031 
3.050000000002012, -0.43461670782811124 
3.060000000002033, -0.4345538367028737 
3.070000000002054, -0.43439442169495707 
3.0800000000020753, -0.43413805915204506 
3.0900000000020964, -0.4337877549945189 
3.1000000000021175, -0.43335635579125614 
3.1100000000021386, -0.43287137346362786 
3.1200000000021597, -0.4323742296094271 
3.130000000002181, -0.43191184727055926 
3.140000000002202, -0.43152339849140764 
3.150000000002223, -0.4312284781782747 
3.160000000002244, -0.4310219089453552 
3.1700000000022652, -0.4308767823343372 
3.1800000000022863, -0.43075407649138686 
3.1900000000023074, -0.4306147025487254 
3.2000000000023285, -0.43042880969053277 
3.2100000000023496, -0.4301791230442046 
3.2200000000023707, -0.42985890651640685 
3.230000000002392, -0.4294675693855057 
3.240000000002413, -0.4290066619759433 
3.250000000002434, -0.4284774252997757 
3.260000000002455, -0.4278796691190393 
3.2700000000024763, -0.4272106116495527 
3.2800000000024974, -0.42646010659386924 
3.2900000000025185, -0.4255925993648847 
3.3000000000025396, -0.42449171210758374 
3.3100000000025607, -0.42282113385930964 
3.3200000000025818, -0.4197693250271729 
3.330000000002603, -0.4138594454445612 
3.340000000002624, -0.40350482215511274 
3.350000000002645, -0.3887258501824812 
3.360000000002666, -0.3721498085618937 
3.3700000000026873, -0.3571855966172386 
3.3800000000027084, -0.3456597112008027 
3.3900000000027295, -0.3376024653909161 
3.4000000000027506, -0.33224519180236906 
3.4100000000027717, -0.3287594927084191 
3.420000000002793, -0.3265103120052148 
3.430000000002814, -0.3250687665641726 
3.440000000002835, -0.3241607217259285 
3.450000000002856, -0.32361593646976117 
3.460000000002877, -0.3233317864225456 
3.4700000000028983, -0.3232503671432766 
3.4800000000029194, -0.32334523763862477 
3.4900000000029405, -0.32361476351493473 
3.5000000000029616, -0.3240800411487163 
3.5100000000029827, -0.32478596728238673 
3.520000000003004, -0.3258039139228927 
3.530000000003025, -0.3272333696819295 
3.540000000003046, -0.3291972369481782 
3.550000000003067, -0.3318208678400254 
3.5600000000030882, -0.33518125869502324 
3.5700000000031094, -0.33922267457909483 
3.5800000000031305, -0.3436773672723154 
3.5900000000031516, -0.34808430772049903 
3.6000000000031727, -0.35195963928835783 
3.6100000000031938, -0.35500633759080336 
3.620000000003215, -0.3571841800446009 
3.630000000003236, -0.35862323072058105 
3.640000000003257, -0.35950226479989944 
3.650000000003278, -0.3599757103119424 
3.6600000000032993, -0.3601511403275296 
3.6700000000033204, -0.3600914003347023 
3.6800000000033415, -0.3598229439987162 
3.6900000000033626, -0.35934358264659283 
3.7000000000033837, -0.3586298268280429 
3.710000000003405, -0.3576475627384795 
3.720000000003426, -0.3563706632911347 
3.730000000003447, -0.3548076749377175 
3.740000000003468, -0.35302510958825234 
3.750000000003489, -0.3511464844016538 
3.7600000000035103, -0.3493178487387104 
3.7700000000035314, -0.3476597902554581 
3.7800000000035525, -0.3462375161397849 
3.7900000000035736, -0.34506044838248606 
3.8000000000035947, -0.34409990851005434 
3.810000000003616, -0.34330971414711864 
3.820000000003637, -0.3426419372129781 
3.830000000003658, -0.3420562793132821 
3.840000000003679, -0.3415240646928787 
3.8500000000037002, -0.3410287392362278 
3.8600000000037213, -0.34056502634337826 
3.8700000000037424, -0.3401386336756712 
3.8800000000037635, -0.33976790195944384 
3.8900000000037847, -0.33948839825475574 
3.9000000000038058, -0.33936109676491044 
3.910000000003827, -0.3394833735569369 
3.920000000003848, -0.3399961330904831 
3.930000000003869, -0.3410611815955957 
3.94000000000389, -0.34273578734635224 
3.9500000000039113, -0.34461090022710766 
3.9600000000039324, -0.3452094624456206 
3.9700000000039535, -0.3419294130585321 
3.9800000000039746, -0.33298283822288643 
3.9900000000039957, -0.31996543360747864 
4.000000000004016, -0.3067579179601641 
4.010000000003993, -0.2961042962761925 
4.02000000000397, -0.28857293420234476 
4.030000000003946, -0.28358667383339 
4.040000000003923, -0.28037324901468746 
4.0500000000039, -0.27832039601154 
4.0600000000038765, -0.27701605935063073 
4.070000000003853, -0.27620103702775245 
4.08000000000383, -0.2757180434380513 
4.090000000003807, -0.27547550094120976 
4.100000000003783, -0.2754252683463331 
4.11000000000376, -0.27555039333124803 
4.120000000003737, -0.27585976618626973 
4.130000000003713, -0.2763877135524301 
4.14000000000369, -0.27719723871157875 
4.150000000003667, -0.278385466247367 
4.1600000000036434, -0.2800882857582889 
4.17000000000362, -0.28247689995891756 
4.180000000003597, -0.2857306749168919 
4.1900000000035735, -0.28996265822067735 
4.20000000000355, -0.29508937977246974 
4.210000000003527, -0.30071188530729964 
4.220000000003504, -0.3061672609591234 
4.23000000000348, -0.3108163244802598 
4.240000000003457, -0.3143393368090666 
4.250000000003434, -0.3167735902638014 
4.26000000000341, -0.3183444403661787 
4.270000000003387, -0.3192985105395224 
4.280000000003364, -0.3198278829812654 
4.2900000000033405, -0.3200593983078212 
4.300000000003317, -0.32006744632882994 
4.310000000003294, -0.31988915017571545 
4.320000000003271, -0.31953655088573274 
4.330000000003247, -0.3190070050946473 
4.340000000003224, -0.31829474949125464 
4.350000000003201, -0.3174053350313541 
4.360000000003177, -0.3163702151353417 
4.370000000003154, -0.315253183962282 
4.380000000003131, -0.3141405587281602 
4.390000000003107, -0.31311747085742925 
4.400000000003084, -0.312244034537958 
4.410000000003061, -0.31154385979579585 
4.4200000000030375, -0.31100635534421206 
4.430000000003014, -0.3105970081858932 
4.440000000002991, -0.31027003675261006 
4.450000000002968, -0.3099799411814876 
4.460000000002944, -0.30968941998441774 
4.470000000002921, -0.30937222317055246 
4.480000000002898, -0.3090114846629806 
4.490000000002874, -0.308595461390589 
4.500000000002851, -0.3081123196711874 
4.510000000002828, -0.3075441015325045 
4.520000000002804, -0.3068579112044928 
4.530000000002781, -0.3059892731707782 
4.540000000002758, -0.304807098557644 
4.5500000000027345, -0.3030414813414464 
4.560000000002711, -0.3001561810360549 
4.570000000002688, -0.29521186860883875 
4.580000000002665, -0.2869940402481336 
4.590000000002641, -0.2748777645698804 
4.600000000002618, -0.26006446891941976 
4.610000000002595, -0.24532613388450009 
4.620000000002571, -0.2330081353074102 
4.630000000002548, -0.2238464281443202 
4.640000000002525, -0.21743805419800313 
4.6500000000025015, -0.2130548876378699 
4.660000000002478, -0.21005765298554918 
4.670000000002455, -0.2079898593725824 
4.6800000000024315, -0.2065525851394388 
4.690000000002408, -0.20555931830085958 
4.700000000002385, -0.20490011064425726 
4.710000000002362, -0.20451888515799221 
4.720000000002338, -0.2044018504328106 
4.730000000002315, -0.2045751387661313 
4.740000000002292, -0.2051114609369804 
4.750000000002268, -0.20614765813933822 
4.760000000002245, -0.20791715111139322 
4.770000000002222, -0.21080177087307775 
4.7800000000021985, -0.21539896085184168 
4.790000000002175, -0.22255922519269938 
4.800000000002152, -0.23322724949296267 
4.810000000002129, -0.24774202642229143 
4.820000000002105, -0.26453951735493375 
4.830000000002082, -0.27981886800908756 
4.840000000002059, -0.2901635503325801 
4.850000000002035, -0.2953149762516606 
4.860000000002012, -0.2972039927739897 
4.870000000001989, -0.29766295207319743 
4.880000000001965, -0.29766421871476234 
