t, s[1].omega / s[0].omega 
0, -0.9798725600065732 
0.009999999999999995, -0.9667384892041531 
0.019999999999999934, -0.9540038045076606 
0.029999999999999874, -0.9432764525431775 
0.04000000000000012, -0.9354995596114094 
0.050000000000000405, -0.9307231761560801 
0.06000000000000069, -0.9283279600991514 
0.07000000000000098, -0.9274582639449733 
0.08000000000000126, -0.9273705317877482 
0.09000000000000155, -0.9275702826560706 
0.10000000000000184, -0.9277880401084684 
0.11000000000000212, -0.927897165371159 
0.12000000000000241, -0.9278385010944412 
0.130000000000002, -0.9275693676696071 
0.1400000000000009, -0.9270314359601837 
0.1499999999999998, -0.9261284495024681 
0.1599999999999987, -0.924710173274527 
0.1699999999999976, -0.9225687691086849 
0.1799999999999965, -0.9194648951344726 
0.1899999999999954, -0.9152016031522932 
0.1999999999999943, -0.9097355187034186 
0.2099999999999932, -0.9032642013446435 
0.2199999999999921, -0.8962176419739153 
0.229999999999991, -0.8891497919644431 
0.2399999999999899, -0.8825994135657446 
0.2499999999999888, -0.8769852564409559 
0.2599999999999877, -0.8725511259746408 
0.2699999999999866, -0.8693511358810193 
0.2799999999999855, -0.867270317263273 
0.2899999999999844, -0.866078543211283 
0.2999999999999833, -0.865502979213668 
0.3099999999999822, -0.8652922551270088 
0.3199999999999811, -0.8652516618623066 
0.32999999999998, -0.8652474636940048 
0.3399999999999789, -0.8651922849435847 
0.3499999999999778, -0.8650251852588255 
0.35999999999997667, -0.864695017295235 
0.36999999999997557, -0.8641510991387344 
0.37999999999997447, -0.8633432821784757 
0.38999999999997337, -0.8622319604165748 
0.39999999999997227, -0.8608043206429448 
0.40999999999997117, -0.8590870514398166 
0.41999999999997006, -0.8571450550419393 
0.42999999999996896, -0.8550653740826993 
0.43999999999996786, -0.8529371059268458 
0.44999999999996676, -0.8508389244507348 
0.45999999999996566, -0.8488370613427598 
0.46999999999996456, -0.8469889393927914 
0.47999999999996346, -0.8453463094938998 
0.48999999999996235, -0.8439543945023089 
0.49999999999996125, -0.8428468078125434 
0.5099999999999602, -0.8420385000738347 
0.519999999999959, -0.8415203299163035 
0.529999999999958, -0.841258573719533 
0.5399999999999568, -0.8412005082672301 
0.5499999999999557, -0.8412840989410564 
0.5599999999999546, -0.8414479373592998 
0.5699999999999535, -0.8416382653884866 
0.5799999999999524, -0.8418123178667172 
0.5899999999999513, -0.8419391705767483 
0.5999999999999502, -0.8419994596597832 
0.6099999999999491, -0.8419841353186742 
0.619999999999948, -0.8418914750461124 
0.6299999999999469, -0.8417223901451232 
0.6399999999999458, -0.8414761013980318 
0.6499999999999447, -0.8411490431967753 
0.6599999999999436, -0.8407378750005657 
0.6699999999999425, -0.8402445089425832 
0.6799999999999414, -0.8396801863006692 
0.6899999999999403, -0.8390674164590102 
0.6999999999999392, -0.8384406033912766 
0.7099999999999381, -0.8378462844153394 
0.719999999999937, -0.8373424325903903 
0.7299999999999359, -0.8369950334565182 
0.7399999999999348, -0.836870612889386 
0.7499999999999337, -0.8370256842745876 
0.7599999999999326, -0.83749662913825 
0.7699999999999315, -0.8382940620886815 
0.7799999999999304, -0.8394034976525075 
0.7899999999999293, -0.8407907734448361 
0.7999999999999282, -0.8424084962626239 
0.8099999999999271, -0.8441997493062454 
0.819999999999926, -0.8460971494802273 
0.8299999999999249, -0.8480186193195097 
0.8399999999999238, -0.8498652237938055 
0.8499999999999227, -0.8515285211607688 
0.8599999999999216, -0.8529105737684132 
0.8699999999999205, -0.8539486282190373 
0.8799999999999194, -0.8546287491014419 
0.8899999999999183, -0.8549796700260851 
0.8999999999999172, -0.8550535568674326 
0.9099999999999161, -0.8549074320509087 
0.919999999999915, -0.8545940941929079 
0.9299999999999139, -0.8541641389064992 
0.9399999999999128, -0.8536776970770251 
0.9499999999999117, -0.8532244538772821 
0.9599999999999106, -0.8529493057563453 
0.9699999999999095, -0.8530758670349142 
0.9799999999999084, -0.8539121164705641 
0.9899999999999073, -0.8558190740807957 
0.9999999999999062, -0.8591340474157585 
1.0099999999999052, -0.864063572689199 
1.019999999999904, -0.8705805391902572 
1.029999999999903, -0.8783616129984401 
1.039999999999902, -0.8867947941569927 
1.0499999999999008, -0.8950841102017935 
1.0599999999998997, -0.9024540410488011 
1.0699999999998986, -0.908380745022075 
1.0799999999998975, -0.9127141073262296 
1.0899999999998964, -0.9156192150011926 
1.0999999999998953, -0.9174110768759896 
1.1099999999998942, -0.9184074698036255 
1.119999999999893, -0.918856662670367 
1.129999999999892, -0.9189249661090096 
1.1399999999998909, -0.9187110095774663 
1.1499999999998898, -0.9182663711776768 
1.1599999999998887, -0.9176176565177752 
1.1699999999998876, -0.9167958138033094 
1.1799999999998865, -0.9158859737206877 
1.1899999999998854, -0.9151137944124837 
1.1999999999998843, -0.9149695592720061 
1.2099999999998832, -0.9163170354838197 
1.219999999999882, -0.9203422812570963 
1.229999999999881, -0.9281616849075022 
1.2399999999998799, -0.9401022929544507 
1.2499999999998788, -0.9550973838494803 
1.2599999999998777, -0.9708590774906074 
1.2699999999998766, -0.98494012893603 
1.2799999999998755, -0.9958610987308344 
1.2899999999998744, -1.003417357481696 
1.2999999999998733, -1.0082122861612028 
1.3099999999998722, -1.0110573987927949 
1.319999999999871, -1.0126343904630395 
1.32999999999987, -1.0134106643002885 
1.3399999999998689, -1.0136710707094148 
1.3499999999998678, -1.0135728964249542 
1.3599999999998666, -1.01319081599155 
1.3699999999998655, -1.0125499283726032 
1.3799999999998644, -1.0116586465429076 
1.3899999999998633, -1.0105630457586245 
1.3999999999998622, -1.0094525679253896 
1.4099999999998611, -1.0088331713605774 
1.41999999999986, -1.0096987750124362 
1.429999999999859, -1.0134636141535145 
1.4399999999998578, -1.0213701386118574 
1.4499999999998567, -1.0335146867407001 
1.4599999999998556, -1.0483183025255776 
1.4699999999998545, -1.0631656306513242 
1.4799999999998534, -1.0757746647331943 
1.4899999999998523, -1.0851125093450538 
1.4999999999998512, -1.0913238692231269 
1.5099999999998501, -1.0951272614150835 
1.519999999999849, -1.097293803224634 
1.529999999999848, -1.0984166627515572 
1.5399999999998468, -1.0988829297930809 
1.5499999999998457, -1.0989209918460958 
1.5599999999998446, -1.098656394630286 
1.5699999999998435, -1.0981595666021327 
1.5799999999998424, -1.0974934595760688 
1.5899999999998413, -1.0967781411147026 
1.5999999999998402, -1.0962806880887774 
1.6099999999998391, -1.0964925526070346 
1.619999999999838, -1.098079896276168 
1.629999999999837, -1.101605881305584 
1.6399999999998358, -1.107154071813667 
1.6499999999998347, -1.1141885297600522 
1.6599999999998336, -1.1217852801596055 
1.6699999999998325, -1.1290105041767593 
1.6799999999998314, -1.1351881225887954 
1.6899999999998303, -1.1399916084734836 
1.6999999999998292, -1.1434072225173937 
1.709999999999828, -1.1456264276443624 
1.719999999999827, -1.1469219912653386 
1.729999999999826, -1.147554444402343 
1.7399999999998248, -1.1477280085060468 
1.7499999999998237, -1.1475870322836625 
1.7599999999998226, -1.1472354626110521 
1.7699999999998215, -1.1467676730456478 
1.7799999999998204, -1.1463033209115403 
1.7899999999998193, -1.1460113718692289 
1.7999999999998182, -1.1460949367087827 
1.809999999999817, -1.1467207953233527 
1.819999999999816, -1.14793405593529 
1.8299999999998149, -1.1496335173294416 
1.8399999999998138, -1.151626472595266 
1.8499999999998127, -1.153706699857789 
1.8599999999998116, -1.1557028464988914 
1.8699999999998105, -1.1574908653760603 
1.8799999999998094, -1.158988342298448 
1.8899999999998083, -1.1601463943618986 
1.8999999999998072, -1.160945366283094 
1.909999999999806, -1.16139293626472 
1.919999999999805, -1.16152036525017 
1.9299999999998039, -1.1613753543292034 
1.9399999999998028, -1.161014841017362 
1.9499999999998017, -1.1605024777688049 
1.9599999999998006, -1.1599116847544209 
1.9699999999997995, -1.159328715359173 
1.9799999999997984, -1.1588463284815118 
1.9899999999997973, -1.158544059627126 
1.9999999999997962, -1.158464843920758 
2.0099999999998173, -1.158603830916118 
2.0199999999998384, -1.1589142120870488 
2.0299999999998595, -1.1593228950335976 
2.0399999999998806, -1.1597482794004115 
2.0499999999999017, -1.1601150385996553 
2.059999999999923, -1.1603623664840348 
2.069999999999944, -1.160445724853237 
2.079999999999965, -1.160335326935081 
2.089999999999986, -1.1600141802933879 
2.100000000000007, -1.1594765053984735 
2.1100000000000283, -1.1587266615282243 
2.1200000000000494, -1.1577792057739016 
2.1300000000000705, -1.1566607710391863 
2.1400000000000916, -1.155413595020908 
2.1500000000001127, -1.1540992067397002 
2.160000000000134, -1.1527994077842858 
2.170000000000155, -1.1516109146494122 
2.180000000000176, -1.1506302755850037 
2.190000000000197, -1.1499280227361237 
2.2000000000002182, -1.1495196897476314 
2.2100000000002393, -1.1493533580864095 
2.2200000000002604, -1.1493280760068278 
2.2300000000002815, -1.1493299672077444 
2.2400000000003026, -1.1492579721527765 
2.2500000000003237, -1.1490271909923253 
2.260000000000345, -1.1485586116296989 
2.270000000000366, -1.147769302776309 
2.280000000000387, -1.1465724253389928 
2.290000000000408, -1.144889750243773 
2.3000000000004293, -1.1426722061864718 
2.3100000000004504, -1.1399190913154156 
2.3200000000004715, -1.1366894436581996 
2.3300000000004926, -1.1331078410378643 
2.3400000000005137, -1.1293702250240343 
2.3500000000005348, -1.125745298612108 
2.360000000000556, -1.1225492553338625 
2.370000000000577, -1.1200681158556476 
2.380000000000598, -1.1184427837564646 
2.390000000000619, -1.1175991693419793 
2.4000000000006403, -1.1172975784584784 
2.4100000000006614, -1.1172607675789175 
2.4200000000006825, -1.117271177166883 
2.4300000000007036, -1.1171891563197043 
2.4400000000007247, -1.1169209638679567 
2.450000000000746, -1.1163754804566055 
2.460000000000767, -1.115425741513067 
2.470000000000788, -1.1138778749005778 
2.480000000000809, -1.111453799677143 
2.49000000000083, -1.1078079862668522 
2.5000000000008513, -1.102607517930636 
2.5100000000008724, -1.0956848375943533 
2.5200000000008935, -1.0872168970589282 
2.5300000000009146, -1.0778334497307018 
2.5400000000009357, -1.068558642260448 
2.550000000000957, -1.060542142469881 
2.560000000000978, -1.0546420432430508 
2.570000000000999, -1.0510820991983298 
2.58000000000102, -1.0494464441830993 
2.5900000000010412, -1.0490127598311336 
2.6000000000010624, -1.0491253691444338 
2.6100000000010835, -1.0493633517355474 
2.6200000000011046, -1.0495158301880858 
2.6300000000011257, -1.0494902818313223 
2.6400000000011468, -1.049233034238438 
2.650000000001168, -1.0486760845753795 
2.660000000001189, -1.0476976978244996 
2.67000000000121, -1.046083572972333 
2.680000000001231, -1.0434864141868536 
2.6900000000012523, -1.039404797054862 
2.7000000000012734, -1.0332387738359352 
2.7100000000012945, -1.0245007877268495 
2.7200000000013156, -1.0131871948616487 
2.7300000000013367, -1.0001134069515463 
2.740000000001358, -0.9868742219572345 
2.750000000001379, -0.9752921276509532 
2.7600000000014, -0.9666579486037616 
2.770000000001421, -0.9612791378377123 
2.780000000001442, -0.9585948708859007 
2.7900000000014633, -0.9576634251551109 
2.8000000000014844, -0.957622903316562 
2.8100000000015055, -0.9578963416607247 
2.8200000000015266, -0.9581767831457636 
2.8300000000015477, -0.9583283366823258 
2.840000000001569, -0.9582941264321476 
2.85000000000159, -0.9580356166722698 
2.860000000001611, -0.9574954209441884 
2.870000000001632, -0.9565704047217833 
2.8800000000016532, -0.95508763352701 
2.8900000000016743, -0.9527867729643156 
2.9000000000016954, -0.9493292049293297 
2.9100000000017165, -0.9443691541647501 
2.9200000000017377, -0.9377071178820765 
2.9300000000017588, -0.9294736985610165 
2.94000000000178, -0.9202137933409746 
2.950000000001801, -0.9107776120867432 
2.960000000001822, -0.9020711596614074 
2.970000000001843, -0.8948060477771345 
2.9800000000018643, -0.8893483368994792 
2.9900000000018854, -0.8856935116195777 
3.0000000000019065, -0.8835513506952528 
3.0100000000019276, -0.8824935441952846 
3.0200000000019487, -0.882096828873979 
3.03000000000197, -0.8820292740472897 
3.040000000001991, -0.8820702559612611 
3.050000000002012, -0.8820882165020649 
3.060000000002033, -0.8820053081004271 
3.070000000002054, -0.8817660150470875 
3.0800000000020753, -0.8813150522200799 
3.0900000000020964, -0.8805850804640384 
3.1000000000021175, -0.8794955994252586 
3.1100000000021386, -0.8779662298220259 
3.1200000000021597, -0.8759446125246413 
3.130000000002181, -0.8734382850295705 
3.140000000002202, -0.8705297598234571 
3.150000000002223, -0.867361325218786 
3.160000000002244, -0.8640994251066212 
3.1700000000022652, -0.8609020030326846 
3.1800000000022863, -0.8579025797229415 
3.1900000000023074, -0.8552079658146429 
3.2000000000023285, -0.8528994331891717 
3.2100000000023496, -0.8510303718677832 
3.2200000000023707, -0.8496200749525062 
3.230000000002392, -0.8486484215888666 
3.240000000002413, -0.8480574092015832 
3.250000000002434, -0.847761982493387 
3.260000000002455, -0.8476667279817365 
3.2700000000024763, -0.8476814897392939 
3.2800000000024974, -0.8477305540064064 
3.2900000000025185, -0.8477547061212469 
3.3000000000025396, -0.8477091929728875 
3.3100000000025607, -0.8475614761027055 
3.3200000000025818, -0.847291074621672 
3.330000000002603, -0.846891007961079 
3.340000000002624, -0.8463680290164955 
3.350000000002645, -0.845739101684838 
3.360000000002666, -0.8450248470467031 
3.3700000000026873, -0.8442438419980874 
3.3800000000027084, -0.8434111925422316 
3.3900000000027295, -0.8425414142072721 
3.4000000000027506, -0.8416530116611656 
3.4100000000027717, -0.8407721573395186 
3.420000000002793, -0.8399342460260188 
3.430000000002814, -0.8391829543320928 
3.440000000002835, -0.8385665230909879 
3.450000000002856, -0.8381313209407228 
3.460000000002877, -0.837913895441545 
3.4700000000028983, -0.8379339654246449 
3.4800000000029194, -0.8381909454233938 
3.4900000000029405, -0.8386652422250563 
3.5000000000029616, -0.8393235488047963 
3.5100000000029827, -0.8401258634150759 
3.520000000003004, -0.8410315977104348 
3.530000000003025, -0.8420027591239106 
3.540000000003046, -0.8430033273011919 
3.550000000003067, -0.8439954186735182 
3.5600000000030882, -0.8449347658873567 
3.5700000000031094, -0.845769764652234 
3.5800000000031305, -0.8464476541656838 
3.5900000000031516, -0.8469266608863368 
3.6000000000031727, -0.8471871673154837 
3.6100000000031938, -0.8472347365537601 
3.620000000003215, -0.8470944618059775 
3.630000000003236, -0.8468025889930034 
3.640000000003257, -0.8464019189990598 
3.650000000003278, -0.8459439713839396 
3.6600000000032993, -0.845497365376384 
3.6700000000033204, -0.8451593019736661 
3.6800000000033415, -0.8450644281330744 
3.6900000000033626, -0.845383225774154 
3.7000000000033837, -0.8463034736186786 
3.710000000003405, -0.8479956945338689 
3.720000000003426, -0.8505731931816962 
3.730000000003447, -0.8540604566311162 
3.740000000003468, -0.8583765175408475 
3.750000000003489, -0.8633303943899884 
3.7600000000035103, -0.8686258792215545 
3.7700000000035314, -0.8738846987799038 
3.7800000000035525, -0.8787055346897639 
3.7900000000035736, -0.8827583951019943 
3.8000000000035947, -0.8858717410152597 
3.810000000003616, -0.8880545416419865 
3.820000000003637, -0.8894427495548293 
3.830000000003658, -0.8902171395108459 
3.840000000003679, -0.8905422131305961 
3.8500000000037002, -0.8905407000419574 
3.8600000000037213, -0.8902932141177464 
3.8700000000037424, -0.8898501811439246 
3.8800000000037635, -0.889250905888567 
3.8900000000037847, -0.8885527345457633 
3.9000000000038058, -0.8878782629312901 
3.910000000003827, -0.8874865789268366 
3.920000000003848, -0.8878569423068562 
3.930000000003869, -0.8897330813946775 
3.94000000000389, -0.8940314974577059 
3.9500000000039113, -0.9015303506056755 
3.9600000000039324, -0.9123913091485184 
3.9700000000039535, -0.9257833402708643 
3.9800000000039746, -0.939972369627438 
3.9900000000039957, -0.9529853454837696 
4.000000000004016, -0.9634425163851355 
4.010000000003993, -0.9709472382943577 
4.02000000000397, -0.9758672243632487 
4.030000000003946, -0.97886891973458 
4.040000000003923, -0.98057835291135 
4.0500000000039, -0.9814544533018902 
4.0600000000038765, -0.981790273221659 
4.070000000003853, -0.9817545470933607 
4.08000000000383, -0.9814323155700698 
4.090000000003807, -0.9808559109090309 
4.100000000003783, -0.9800330685483626 
4.11000000000376, -0.9789884021669734 
4.120000000003737, -0.9778434856117058 
4.130000000003713, -0.9769597929185029 
4.14000000000369, -0.9771228147308515 
4.150000000003667, -0.9796158310036054 
4.1600000000036434, -0.985894340060609 
4.17000000000362, -0.9967277562195065 
4.180000000003597, -1.011301242075479 
4.1900000000035735, -1.027229607888156 
4.20000000000355, -1.0417564820526752 
4.210000000003527, -1.0531259728747517 
4.220000000003504, -1.0610046939589277 
4.23000000000348, -1.0659855280926118 
4.240000000003457, -1.068917781393987 
4.250000000003434, -1.0705238101947323 
4.26000000000341, -1.0712994796195896 
4.270000000003387, -1.0715464960230852 
4.280000000003364, -1.0714326384250006 
4.2900000000033405, -1.0710430835253362 
4.300000000003317, -1.0704222205419383 
4.310000000003294, -1.0696212008157895 
4.320000000003271, -1.0687737890563782 
4.330000000003247, -1.0682137992678649 
4.340000000003224, -1.0685899551865077 
4.350000000003201, -1.0708240248699252 
4.360000000003177, -1.0757427535357253 
4.370000000003154, -1.0835071140841062 
4.380000000003131, -1.093324875763859 
4.390000000003107, -1.103757474091831 
4.400000000003084, -1.1133604038150235 
4.410000000003061, -1.1211857962832887 
4.4200000000030375, -1.1269268484915729 
4.430000000003014, -1.1307685743945373 
4.440000000002991, -1.1331275126314726 
4.450000000002968, -1.1344381299108526 
4.460000000002944, -1.1350464483453557 
4.470000000002921, -1.1351897948173357 
4.480000000002898, -1.1350188545283366 
4.490000000002874, -1.1346336203509257 
4.500000000002851, -1.13412498188469 
4.510000000002828, -1.1336219025132963 
4.520000000002804, -1.133333144990379 
4.530000000002781, -1.133545235672887 
4.540000000002758, -1.1345339878774832 
4.5500000000027345, -1.1364200611652486 
4.560000000002711, -1.13908917162621 
4.570000000002688, -1.142250102629982 
4.580000000002665, -1.1455631253400254 
4.590000000002641, -1.1487357398501397 
4.600000000002618, -1.151556294911853 
4.610000000002595, -1.153892271939526 
4.620000000002571, -1.1556811939364557 
4.630000000002548, -1.1569222980851663 
4.640000000002525, -1.1576643054931837 
4.6500000000025015, -1.1579861876936628 
4.660000000002478, -1.1579763583307867 
4.670000000002455, -1.1577193915289854 
4.6800000000024315, -1.1572951422189275 
4.690000000002408, -1.1567880693738268 
4.700000000002385, -1.1562978015932246 
4.710000000002362, -1.1559370016128647 
4.720000000002338, -1.1558071308067341 
4.730000000002315, -1.1559628900428496 
4.740000000002292, -1.1563928753294868 
4.750000000002268, -1.157030507061971 
4.760000000002245, -1.1577819528648245 
4.770000000002222, -1.1585517229011422 
4.7800000000021985, -1.1592581257575607 
4.790000000002175, -1.159839222937608 
4.800000000002152, -1.160252315869276 
4.810000000002129, -1.160470469009928 
4.820000000002105, -1.1604789384653607 
4.830000000002082, -1.1602730659093623 
4.840000000002059, -1.159857979433387 
4.850000000002035, -1.1592496139079866 
4.860000000002012, -1.1584764384586934 
4.870000000001989, -1.1575816061293973 
4.880000000001965, -1.156624667570605 
4.890000000001942, -1.1556801949274949 
4.900000000001919, -1.1548301436396478 
4.9100000000018955, -1.1541495422227481 
4.920000000001872, -1.1536885070148775 
4.930000000001849, -1.1534555756134681 
