t, s[1].omega / s[0].omega 
0, -0.680029636509008 
0.009999999999999995, -0.6829698937961928 
0.019999999999999934, -0.6857113784400515 
0.029999999999999874, -0.6880499628998454 
0.04000000000000012, -0.6898630023280959 
0.050000000000000405, -0.6911327695027617 
0.06000000000000069, -0.6919197027562258 
0.07000000000000098, -0.6923152023351105 
0.08000000000000126, -0.6924046253443851 
0.09000000000000155, -0.6922494585446036 
0.10000000000000184, -0.6918828933817948 
0.11000000000000212, -0.6913109537588903 
0.12000000000000241, -0.690514581008615 
0.130000000000002, -0.6894513876397061 
0.1400000000000009, -0.6880578729984539 
0.1499999999999998, -0.6862534398691981 
0.1599999999999987, -0.683944738531848 
0.1699999999999976, -0.6810193360795819 
0.1799999999999965, -0.6773068157667888 
0.1899999999999954, -0.6725178327619057 
0.1999999999999943, -0.6663147185613536 
0.2099999999999932, -0.6587372498814937 
0.2199999999999921, -0.650682759249659 
0.229999999999991, -0.6435928669578409 
0.2399999999999899, -0.6384783658010247 
0.2499999999999888, -0.6354435063865065 
0.2599999999999877, -0.6339965443423689 
0.2699999999999866, -0.6335265133555419 
0.2799999999999855, -0.6335543034392684 
0.2899999999999844, -0.6337774385517595 
0.2999999999999833, -0.6340295656894628 
0.3099999999999822, -0.6342280334552673 
0.3199999999999811, -0.6343339708880029 
0.32999999999998, -0.6343269859046549 
0.3399999999999789, -0.6341906025288047 
0.3499999999999778, -0.6339048605774626 
0.35999999999997667, -0.6334445070469491 
0.36999999999997557, -0.632783051071226 
0.37999999999997447, -0.6319031356282455 
0.38999999999997337, -0.6308106239198323 
0.39999999999997227, -0.6295444308253529 
0.40999999999997117, -0.6281726787528027 
0.41999999999997006, -0.6267740786660795 
0.42999999999996896, -0.6254154195608963 
0.43999999999996786, -0.6241383180257345 
0.44999999999996676, -0.6229594961580021 
0.45999999999996566, -0.6218798136888162 
0.46999999999996456, -0.6208950422091467 
0.47999999999996346, -0.6200040219874848 
0.48999999999996235, -0.6192132202482097 
0.49999999999996125, -0.6185386383667402 
0.5099999999999602, -0.6180063425452799 
0.519999999999959, -0.617652411921748 
0.529999999999958, -0.6175225950658657 
0.5399999999999568, -0.6176717738217989 
0.5499999999999557, -0.6181633836513126 
0.5599999999999546, -0.619068967041424 
0.5699999999999535, -0.6204677233850362 
0.5799999999999524, -0.6224449627669632 
0.5899999999999513, -0.6250865579359639 
0.5999999999999502, -0.6284639838106127 
0.6099999999999491, -0.6326028622002434 
0.619999999999948, -0.6374318790992675 
0.6299999999999469, -0.6427266053368205 
0.6399999999999458, -0.6480937926880487 
0.6499999999999447, -0.6530514600756778 
0.6599999999999436, -0.6571947325485 
0.6699999999999425, -0.6603358092264633 
0.6799999999999414, -0.6625144892896728 
0.6899999999999403, -0.6639023960744678 
0.6999999999999392, -0.6646969088283223 
0.7099999999999381, -0.6650605568680664 
0.719999999999937, -0.6651028527142054 
0.7299999999999359, -0.6648820597380033 
0.7399999999999348, -0.6644100754328269 
0.7499999999999337, -0.6636520660877685 
0.7599999999999326, -0.6625164984024438 
0.7699999999999315, -0.6608316880243288 
0.7799999999999304, -0.6583051246164431 
0.7899999999999293, -0.6544685798433881 
0.7999999999999282, -0.648641873147546 
0.8099999999999271, -0.6400209611802452 
0.819999999999926, -0.6280601891383276 
0.8299999999999249, -0.6131258894201033 
0.8399999999999238, -0.5968302695604513 
0.8499999999999227, -0.5813881620963028 
0.8599999999999216, -0.5684723056687829 
0.8699999999999205, -0.5586707939354947 
0.8799999999999194, -0.5517378714828489 
0.8899999999999183, -0.5470760925807117 
0.8999999999999172, -0.54406321549156 
0.9099999999999161, -0.5421861327781318 
0.919999999999915, -0.5410645336837531 
0.9299999999999139, -0.5404321360713829 
0.9399999999999128, -0.540108716972925 
0.9499999999999117, -0.5399750286049674 
0.9599999999999106, -0.5399535333806915 
0.9699999999999095, -0.5399947717366589 
0.9799999999999084, -0.5400684468480914 
0.9899999999999073, -0.5401582946480634 
0.9999999999999062, -0.5402597520263721 
1.0099999999999052, -0.5403790101770813 
1.019999999999904, -0.5405313819790889 
1.029999999999903, -0.5407367823029936 
1.039999999999902, -0.5410114159614438 
1.0499999999999008, -0.5413574226250799 
1.0599999999998997, -0.5417548913404543 
1.0699999999998986, -0.5421615034477176 
1.0799999999998975, -0.5425223610976826 
1.0899999999998964, -0.5427862689144384 
1.0999999999998953, -0.5429194712241159 
1.1099999999998942, -0.5429097074732849 
1.119999999999893, -0.5427610070320765 
1.129999999999892, -0.5424849565071834 
1.1399999999998909, -0.5420936255088256 
1.1499999999998898, -0.5415961710918893 
1.1599999999998887, -0.5409990316902049 
1.1699999999998876, -0.540309257571814 
1.1799999999998865, -0.5395408308649564 
1.1899999999998854, -0.5387231535682014 
1.1999999999998843, -0.5379063101069284 
1.2099999999998832, -0.5371436298962 
1.219999999999882, -0.5364043117025686 
1.229999999999881, -0.5353565545015514 
1.2399999999998799, -0.5331000847301194 
1.2499999999998788, -0.5283408681795357 
1.2599999999998777, -0.5205174595396665 
1.2699999999998766, -0.5108674382624525 
1.2799999999998755, -0.5016552086754846 
1.2899999999998744, -0.4944512740561972 
1.2999999999998733, -0.489563058125126 
1.3099999999998722, -0.48655730296458877 
1.319999999999871, -0.48484083574041986 
1.32999999999987, -0.4839251862292578 
1.3399999999998689, -0.48347554460064635 
1.3499999999998678, -0.4832817450407111 
1.3599999999998666, -0.4832177327127118 
1.3699999999998655, -0.48320951871312945 
1.3799999999998644, -0.48321387095053125 
1.3899999999998633, -0.48320548541589414 
1.3999999999998622, -0.4831702206021838 
1.4099999999998611, -0.4831026591723428 
1.41999999999986, -0.4830065450780186 
1.429999999999859, -0.4828961791737236 
1.4399999999998578, -0.4827960928813087 
1.4499999999998567, -0.48273652560782104 
1.4599999999998556, -0.482744351491026 
1.4699999999998545, -0.48283219431503843 
1.4799999999998534, -0.4829904127158383 
1.4899999999998523, -0.48318635023652057 
1.4999999999998512, -0.4833725974092463 
1.5099999999998501, -0.48350120553500775 
1.519999999999849, -0.4835365878945634 
1.529999999999848, -0.48346077225902456 
1.5399999999998468, -0.4832704398874469 
1.5499999999998457, -0.4829699474059602 
1.5599999999998446, -0.4825647237595435 
1.5699999999998435, -0.48205697889484744 
1.5799999999998424, -0.4814435243525309 
1.5899999999998413, -0.48071444351886905 
1.5999999999998402, -0.4798503161319368 
1.6099999999998391, -0.47881268768594704 
1.619999999999838, -0.47751429009507246 
1.629999999999837, -0.47573943258615686 
1.6399999999998358, -0.4729747471288728 
1.6499999999998347, -0.46818890283358006 
1.6599999999998336, -0.4599220554975855 
1.6699999999998325, -0.447319866449051 
1.6799999999998314, -0.43163083420038423 
1.6899999999998303, -0.4159220770868564 
1.6999999999998292, -0.402834378592555 
1.709999999999828, -0.39324718811484655 
1.719999999999827, -0.38674931541608754 
1.729999999999826, -0.3825264536237462 
1.7399999999998248, -0.3798414849499175 
1.7499999999998237, -0.37815843342321687 
1.7599999999998226, -0.3771216305081427 
1.7699999999998215, -0.3765047259986155 
1.7799999999998204, -0.37616694314599985 
1.7899999999998193, -0.3760228387861425 
1.7999999999998182, -0.3760232638203094 
1.809999999999817, -0.3761442040202193 
1.819999999999816, -0.37638093094010094 
1.8299999999998149, -0.3767456250501678 
1.8399999999998138, -0.37726688261744357 
1.8499999999998127, -0.3779892195724975 
1.8599999999998116, -0.37896994293129066 
1.8699999999998105, -0.38026980632152674 
1.8799999999998094, -0.3819334149109067 
1.8899999999998083, -0.3839578874327259 
1.8999999999998072, -0.38625846734256875 
1.909999999999806, -0.38865676717136677 
1.919999999999805, -0.3909201946715398 
1.9299999999998039, -0.3928439701518183 
1.9399999999998028, -0.3943190809737817 
1.9499999999998017, -0.39533990863028157 
1.9599999999998006, -0.3959639567547483 
1.9699999999997995, -0.3962650296260136 
1.9799999999997984, -0.3963035348696458 
1.9899999999997973, -0.3961137241257691 
1.9999999999997962, -0.39569922849373806 
2.0099999999998173, -0.3950300601783815 
2.0199999999998384, -0.3940386428090402 
2.0299999999998595, -0.39261772112109916 
2.0399999999998806, -0.39063054971176997 
2.0499999999999017, -0.3879512841594322 
2.059999999999923, -0.3845457348287657 
2.069999999999944, -0.3805583364871688 
2.079999999999965, -0.3763191721215834 
2.089999999999986, -0.37222542164403183 
2.100000000000007, -0.3685824990613462 
2.1100000000000283, -0.3655281629406506 
2.1200000000000494, -0.36305890440768596 
2.1300000000000705, -0.3610960984597023 
2.1400000000000916, -0.359540413126163 
2.1500000000001127, -0.35830154805308845 
2.160000000000134, -0.3573098040754986 
2.170000000000155, -0.3565183379033652 
2.180000000000176, -0.3559021209588847 
2.190000000000197, -0.3554569982591078 
2.2000000000002182, -0.35520077035440856 
2.2100000000002393, -0.3551776890224198 
2.2200000000002604, -0.3554679212320419 
2.2300000000002815, -0.35620420367733724 
2.2400000000003026, -0.3575987080161115 
2.2500000000003237, -0.3599827682356046 
2.260000000000345, -0.36385626263740056 
2.270000000000366, -0.36992020749276194 
2.280000000000387, -0.37900344112153367 
2.290000000000408, -0.39169478208517644 
2.3000000000004293, -0.4075430913910152 
2.3100000000004504, -0.42435221171868875 
2.3200000000004715, -0.4389442409428138 
2.3300000000004926, -0.4493382365835087 
2.3400000000005137, -0.4557283995968609 
2.3500000000005348, -0.45940247260200895 
2.360000000000556, -0.4615316483982947 
2.370000000000577, -0.462825335743881 
2.380000000000598, -0.46364764800326475 
2.390000000000619, -0.46417801693095895 
2.4000000000006403, -0.46450743059261523 
2.4100000000006614, -0.4646839500295168 
2.4200000000006825, -0.46473254095225514 
2.4300000000007036, -0.46466388681240733 
2.4400000000007247, -0.46447921959651567 
2.450000000000746, -0.4641747171100528 
2.460000000000767, -0.463747456248975 
2.470000000000788, -0.46320331922776753 
2.480000000000809, -0.4625645845726484 
2.49000000000083, -0.4618723114597268 
2.5000000000008513, -0.4611794505558161 
2.5100000000008724, -0.4605363346377838 
2.5200000000008935, -0.4599759969276823 
2.5300000000009146, -0.4595066171384408 
2.5400000000009357, -0.45911334302143 
2.550000000000957, -0.4587670529419916 
2.560000000000978, -0.4584355157884 
2.570000000000999, -0.4580924302555925 
2.58000000000102, -0.4577217800920711 
2.5900000000010412, -0.45731792157935425 
2.6000000000010624, -0.4568838372181069 
2.6100000000010835, -0.45643013876933763 
2.6200000000011046, -0.4559765920299241 
2.6300000000011257, -0.45555737812561004 
2.6400000000011468, -0.4552313827204669 
2.650000000001168, -0.4550990014932025 
2.660000000001189, -0.45532557814222835 
2.67000000000121, -0.4561640638536808 
2.680000000001231, -0.4579452882263689 
2.6900000000012523, -0.4609510785517589 
2.7000000000012734, -0.4650405685042417 
2.7100000000012945, -0.4690920333985759 
2.7200000000013156, -0.4710231388036402 
2.7300000000013367, -0.46931043676341344 
2.740000000001358, -0.4646427173432654 
2.750000000001379, -0.4591886956292658 
2.7600000000014, -0.4546302811814238 
2.770000000001421, -0.45148188803243217 
2.780000000001442, -0.4495535863402873 
2.7900000000014633, -0.44847145832065805 
2.8000000000014844, -0.44791222979045164 
2.8100000000015055, -0.44765249192277884 
2.8200000000015266, -0.4475523496179944 
2.8300000000015477, -0.44752833956701316 
2.840000000001569, -0.4475317772879512 
2.85000000000159, -0.4475345977451348 
2.860000000001611, -0.44752127744828263 
2.870000000001632, -0.44748523401137613 
2.8800000000016532, -0.4474283970159478 
2.8900000000016743, -0.44736247584651767 
2.9000000000016954, -0.44730975975351184 
2.9100000000017165, -0.4473008632352385 
2.9200000000017377, -0.4473678167562296 
2.9300000000017588, -0.44753338904160334 
2.94000000000178, -0.4478000867120385 
2.950000000001801, -0.4481436262086853 
2.960000000001822, -0.44851533093975354 
2.970000000001843, -0.44885466882634895 
2.9800000000018643, -0.4491068289653944 
2.9900000000018854, -0.4492358504393209 
3.0000000000019065, -0.44922705897755977 
3.0100000000019276, -0.4490804146751629 
3.0200000000019487, -0.44880066017636083 
3.03000000000197, -0.4483885993237468 
3.040000000001991, -0.44783421290248127 
3.050000000002012, -0.44710966403342994 
3.060000000002033, -0.446158454021177 
3.070000000002054, -0.44487443754852657 
3.0800000000020753, -0.4430597218794173 
3.0900000000020964, -0.44034592120544475 
3.1000000000021175, -0.43607747649685724 
3.1100000000021386, -0.4292477586867019 
3.1200000000021597, -0.4187929369882478 
3.130000000002181, -0.404542169320392 
3.140000000002202, -0.3881313177003966 
3.150000000002223, -0.37234190578568305 
3.160000000002244, -0.35927788549860684 
3.1700000000022652, -0.34952969499000686 
3.1800000000022863, -0.3426709397321698 
3.1900000000023074, -0.33797564346421305 
3.2000000000023285, -0.3347924797143351 
3.2100000000023496, -0.3326411785313922 
3.2200000000023707, -0.331196112684759 
3.230000000002392, -0.3302455059641506 
3.240000000002413, -0.3296558891461527 
3.250000000002434, -0.32934732456931737 
3.260000000002455, -0.3292780090488569 
3.2700000000024763, -0.3294359141173774 
3.2800000000024974, -0.3298357010025461 
3.2900000000025185, -0.3305198257147338 
3.3000000000025396, -0.3315630393277901 
3.3100000000025607, -0.3330789649296546 
3.3200000000025818, -0.3352252332718344 
3.330000000002603, -0.3381981760770322 
3.340000000002624, -0.342198085408299 
3.350000000002645, -0.34733758129557096 
3.360000000002666, -0.3534871130509726 
3.3700000000026873, -0.3601444610101602 
3.3800000000027084, -0.3665174515988569 
3.3900000000027295, -0.37187727776311386 
3.4000000000027506, -0.37589197974704314 
3.4100000000027717, -0.37864206092176805 
3.420000000002793, -0.38040887611923363 
3.430000000002814, -0.3814836737830617 
3.440000000002835, -0.3820876114563166 
3.450000000002856, -0.3823646392569867 
3.460000000002877, -0.38239823929717615 
3.4700000000028983, -0.3822288602110343 
3.4800000000029194, -0.3818665995329572 
3.4900000000029405, -0.3813007922818822 
3.5000000000029616, -0.3805104760283253 
3.5100000000029827, -0.3794796526581712 
3.520000000003004, -0.3782176285822521 
3.530000000003025, -0.3767765208186916 
3.540000000003046, -0.375251502166538 
3.550000000003067, -0.37375673367864415 
3.5600000000030882, -0.37238974423809995 
3.5700000000031094, -0.37120666393079593 
3.5800000000031305, -0.370218728870063 
3.5900000000031516, -0.36940404783343644 
3.6000000000031727, -0.3687239096652736 
3.6100000000031938, -0.36813678842183467 
3.620000000003215, -0.36760749413632277 
3.630000000003236, -0.36711137364076557 
3.640000000003257, -0.366634936867997 
3.650000000003278, -0.3661750096091531 
3.6600000000032993, -0.3657384047041105 
3.6700000000033204, -0.3653435744673102 
3.6800000000033415, -0.3650252945609848 
3.6900000000033626, -0.3648431589240151 
3.7000000000033837, -0.36489359900321755 
3.710000000003405, -0.36532027225195407 
3.720000000003426, -0.3663011954441647 
3.730000000003447, -0.3679489933605032 
3.740000000003468, -0.36999948541533756 
3.750000000003489, -0.3712429863862617 
3.7600000000035103, -0.36930212575368615 
3.7700000000035314, -0.3621441824265469 
3.7800000000035525, -0.35065167834723077 
3.7900000000035736, -0.33827915372702305 
3.8000000000035947, -0.3279225815374904 
3.810000000003616, -0.3204571603154338 
3.820000000003637, -0.3154856799864235 
3.830000000003658, -0.3122955021377988 
3.840000000003679, -0.3102808526043962 
3.8500000000037002, -0.309021419970194 
3.8600000000037213, -0.3082485066291183 
3.8700000000037424, -0.30779698090232643 
3.8800000000037635, -0.30756862246331346 
3.8900000000037847, -0.30750861518057404 
3.9000000000038058, -0.3075919096833383 
3.910000000003827, -0.30781632798625547 
3.920000000003848, -0.30820023358542226 
3.930000000003869, -0.30878318924990555 
3.94000000000389, -0.30962798799179925 
3.9500000000039113, -0.3108215830680181 
3.9600000000039324, -0.3124703864964878 
3.9700000000039535, -0.31468192308569026 
3.9800000000039746, -0.3175222508563881 
3.9900000000039957, -0.3209467973135861 
4.000000000004016, -0.3247357873088378 
4.010000000003993, -0.32850767228983424 
4.02000000000397, -0.331854259592054 
4.030000000003946, -0.3345124631499051 
4.040000000003923, -0.33642995260940284 
4.0500000000039, -0.33770243350222645 
4.0600000000038765, -0.33847464130977556 
4.070000000003853, -0.3388760924584103 
4.08000000000383, -0.33899827561048324 
4.090000000003807, -0.33889388993669994 
4.100000000003783, -0.33858269505164434 
4.11000000000376, -0.3380578952749401 
4.120000000003737, -0.3372933216236057 
4.130000000003713, -0.33625515481574453 
4.14000000000369, -0.33492231678064666 
4.150000000003667, -0.33331390828921414 
4.1600000000036434, -0.3315096083947657 
4.17000000000362, -0.32964208356722535 
4.180000000003597, -0.32785707435866274 
4.1900000000035735, -0.3262661998834727 
4.20000000000355, -0.32492260649248417 
4.210000000003527, -0.32382553713074796 
4.220000000003504, -0.3229397694363958 
4.23000000000348, -0.322215687007285 
4.240000000003457, -0.32160387502041243 
4.250000000003434, -0.32106348517744693 
4.26000000000341, -0.3205654662571352 
4.270000000003387, -0.32009242792136827 
4.280000000003364, -0.3196371425245919 
4.2900000000033405, -0.3192013850302316 
4.300000000003317, -0.3187961605589191 
4.310000000003294, -0.3184436369914122 
4.320000000003271, -0.3181799340331074 
4.330000000003247, -0.3180546000172718 
4.340000000003224, -0.31811254412735035 
4.350000000003201, -0.31831834107138496 
4.360000000003177, -0.31833839398218683 
4.370000000003154, -0.31711195290905525 
4.380000000003131, -0.3125376072492074 
4.390000000003107, -0.3024726372197919 
4.400000000003084, -0.28736623016876106 
4.410000000003061, -0.27092179849170234 
4.4200000000030375, -0.25687218627024533 
4.430000000003014, -0.24657315846230615 
4.440000000002991, -0.2395985657729452 
4.450000000002968, -0.23502027681690008 
4.460000000002944, -0.23203228965415112 
4.470000000002921, -0.23007576691848092 
4.480000000002898, -0.22879553557340024 
4.490000000002874, -0.22797504403682683 
4.500000000002851, -0.2274874303284063 
4.510000000002828, -0.22726500480567208 
4.520000000002804, -0.2272825237499651 
4.530000000002781, -0.22755026107213738 
4.540000000002758, -0.22811472720817688 
4.5500000000027345, -0.22906646047686738 
4.560000000002711, -0.2305552087078934 
4.570000000002688, -0.2328120465981936 
4.580000000002665, -0.23617228887228622 
4.590000000002641, -0.24107463833532713 
4.600000000002618, -0.24797151367832365 
4.610000000002595, -0.25704744920907874 
4.620000000002571, -0.26775472458438615 
4.630000000002548, -0.27860601049083605 
4.640000000002525, -0.28784333366796144 
4.6500000000025015, -0.29453478381989007 
4.660000000002478, -0.2988435386700606 
4.670000000002455, -0.30144325306626607 
4.6800000000024315, -0.30297333069738763 
4.690000000002408, -0.3038660202676391 
4.700000000002385, -0.3043749673031352 
4.710000000002362, -0.30464077567929926 
4.720000000002338, -0.30473968613789915 
4.730000000002315, -0.30471236203689434 
4.740000000002292, -0.30458033781833715 
4.750000000002268, -0.30435656800237787 
4.760000000002245, -0.30405385189416123 
4.770000000002222, -0.3036923429553701 
4.7800000000021985, -0.3033048384833909 
4.790000000002175, -0.3029369977037468 
4.800000000002152, -0.3026407446542839 
4.810000000002129, -0.302462631888036 
4.820000000002105, -0.30243154760526486 
4.830000000002082, -0.3025496270931977 
4.840000000002059, -0.302788777960834 
4.850000000002035, -0.3030950600746721 
4.860000000002012, -0.30340179845739396 
4.870000000001989, -0.30364716584010687 
4.880000000001965, -0.30378744095915955 
