t, s[1].omega / s[0].omega 
0, -0.639997713586171 
0.009999999999999995, -0.6397653674871207 
0.019999999999999934, -0.639521260882699 
0.029999999999999874, -0.6392544567804789 
0.04000000000000012, -0.6389529008976182 
0.050000000000000405, -0.6386087551936994 
0.06000000000000069, -0.6382213321748028 
0.07000000000000098, -0.6377975736461106 
0.08000000000000126, -0.6373516852860516 
0.09000000000000155, -0.6369056977211288 
0.10000000000000184, -0.636492002533357 
0.11000000000000212, -0.6361581714826322 
0.12000000000000241, -0.6359738706457542 
0.130000000000002, -0.6360392184185027 
0.1400000000000009, -0.6364931747319573 
0.1499999999999998, -0.637519132524428 
0.1599999999999987, -0.6393423624820526 
0.1699999999999976, -0.6422099881863093 
0.1799999999999965, -0.6463398919488693 
0.1899999999999954, -0.6518268072638925 
0.1999999999999943, -0.6585171760015333 
0.2099999999999932, -0.6659206236948129 
0.2199999999999921, -0.6732738807778452 
0.229999999999991, -0.679800904218969 
0.2399999999999899, -0.6850131083168758 
0.2499999999999888, -0.6888193667106098 
0.2599999999999877, -0.6914112140785986 
0.2699999999999866, -0.693079593735567 
0.2799999999999855, -0.6940924372585425 
0.2899999999999844, -0.6946504783001313 
0.2999999999999833, -0.6948868939047744 
0.3099999999999822, -0.6948804146163854 
0.3199999999999811, -0.6946674865351572 
0.32999999999998, -0.6942489436155823 
0.3399999999999789, -0.69359045323145 
0.3499999999999778, -0.6926172321236366 
0.35999999999997667, -0.6912050745522984 
0.36999999999997557, -0.6891741847526462 
0.37999999999997447, -0.6863014778544524 
0.38999999999997337, -0.6823763331948575 
0.39999999999997227, -0.6773134006228244 
0.40999999999997117, -0.6712789752286684 
0.41999999999997006, -0.6647216706306462 
0.42999999999996896, -0.6582388501480078 
0.43999999999996786, -0.6523619754254263 
0.44999999999996676, -0.64741350824317 
0.45999999999996566, -0.6434931178009327 
0.46999999999996456, -0.6405425785194228 
0.47999999999996346, -0.6384222556114134 
0.48999999999996235, -0.6369669522164768 
0.49999999999996125, -0.6360178119329667 
0.5099999999999602, -0.6354371855469978 
0.519999999999959, -0.6351134472320888 
0.529999999999958, -0.6349603887557167 
0.5399999999999568, -0.6349139385250898 
0.5499999999999557, -0.6349278945085828 
0.5599999999999546, -0.6349697948742979 
0.5699999999999535, -0.6350176717316495 
0.5799999999999524, -0.6350580432312496 
0.5899999999999513, -0.6350849536932219 
0.5999999999999502, -0.6350991734615461 
0.6099999999999491, -0.6351062022869907 
0.619999999999948, -0.6351121856415892 
0.6299999999999469, -0.6351185046584568 
0.6399999999999458, -0.6351176215587195 
0.6499999999999447, -0.6350929954937513 
0.6599999999999436, -0.6350237547449064 
0.6699999999999425, -0.6348916820570065 
0.6799999999999414, -0.6346866362379951 
0.6899999999999403, -0.6344081620060151 
0.6999999999999392, -0.6340640527644971 
0.7099999999999381, -0.6336683401896671 
0.719999999999937, -0.633240917889143 
0.7299999999999359, -0.6328099782606711 
0.7399999999999348, -0.6324177521121265 
0.7499999999999337, -0.6321298129142625 
0.7599999999999326, -0.6320479637151091 
0.7699999999999315, -0.6323257911312963 
0.7799999999999304, -0.6331834913241289 
0.7899999999999293, -0.6349134169917401 
0.7999999999999282, -0.6378591636430679 
0.8099999999999271, -0.6423416999640617 
0.819999999999926, -0.6485106326239881 
0.8299999999999249, -0.656148622487982 
0.8399999999999238, -0.6645626019111501 
0.8499999999999227, -0.6727445906753053 
0.8599999999999216, -0.679788430660076 
0.8699999999999205, -0.685243427415007 
0.8799999999999194, -0.6891370527191442 
0.8899999999999183, -0.6917596733393453 
0.8999999999999172, -0.6934510556716857 
0.9099999999999161, -0.6944937241857099 
0.919999999999915, -0.6950891145890851 
0.9299999999999139, -0.6953682466201548 
0.9399999999999128, -0.6954087140163683 
0.9499999999999117, -0.6952477523187285 
0.9599999999999106, -0.694889249260336 
0.9699999999999095, -0.6943050975685289 
0.9799999999999084, -0.6934321919132054 
0.9899999999999073, -0.6921680332761069 
0.9999999999999062, -0.6903719502262523 
1.0099999999999052, -0.6878850638711106 
1.019999999999904, -0.6845834722764341 
1.029999999999903, -0.6804605177004446 
1.039999999999902, -0.6756925323774315 
1.0499999999999008, -0.6706228030490448 
1.0599999999998997, -0.6656540688522825 
1.0699999999998986, -0.6611223742934873 
1.0799999999998975, -0.6572296601546765 
1.0899999999998964, -0.6540468964099777 
1.0999999999998953, -0.651552866475787 
1.1099999999998942, -0.6496752052748456 
1.119999999999893, -0.648319936407143 
1.129999999999892, -0.6473891764198368 
1.1399999999998909, -0.6467908093642292 
1.1499999999998898, -0.6464434663994718 
1.1599999999998887, -0.6462787288088488 
1.1699999999998876, -0.6462415144957531 
1.1799999999998865, -0.646289251102604 
1.1899999999998854, -0.646390403965726 
1.1999999999998843, -0.6465229154504141 
1.2099999999998832, -0.6466729241978149 
1.219999999999882, -0.6468336855906182 
1.229999999999881, -0.6470040243255039 
1.2399999999998799, -0.6471853615718853 
1.2499999999998788, -0.647376986120486 
1.2599999999998777, -0.647570861859037 
1.2699999999998766, -0.6477488049685514 
1.2799999999998755, -0.6478846021963607 
1.2899999999998744, -0.6479508967234501 
1.2999999999998733, -0.6479272408050328 
1.3099999999998722, -0.6478048667831633 
1.319999999999871, -0.6475864886497251 
1.32999999999987, -0.6472830158174302 
1.3399999999998689, -0.6469103803821822 
1.3499999999998678, -0.646488769602467 
1.3599999999998666, -0.6460452537858313 
1.3699999999998655, -0.6456202148281999 
1.3799999999998644, -0.645277977627788 
1.3899999999998633, -0.645121929253633 
1.3999999999998622, -0.6453133041212851 
1.4099999999998611, -0.6460895627626899 
1.41999999999986, -0.6477714135577777 
1.429999999999859, -0.6507363677463899 
1.4399999999998578, -0.6553264113591765 
1.4499999999998567, -0.6616693098057695 
1.4599999999998556, -0.6694649770491916 
1.4699999999998545, -0.6779108660956127 
1.4799999999998534, -0.6859463913387611 
1.4899999999998523, -0.6927156840757589 
1.4999999999998512, -0.6978700034526277 
1.5099999999998501, -0.7015116141745553 
1.519999999999849, -0.7039537104100175 
1.529999999999848, -0.7055266537756282 
1.5399999999998468, -0.7064945867375286 
1.5499999999998457, -0.7070427973816684 
1.5599999999998446, -0.7072908267197552 
1.5699999999998435, -0.7073085534071166 
1.5799999999998424, -0.7071277563934081 
1.5899999999998413, -0.7067478454378778 
1.5999999999998402, -0.7061362817934995 
1.6099999999998391, -0.7052250568238975 
1.619999999999838, -0.7039065199000387 
1.629999999999837, -0.7020362570456887 
1.6399999999998358, -0.6994566996870192 
1.6499999999998347, -0.6960546574834514 
1.6599999999998336, -0.6918439772165182 
1.6699999999998325, -0.6870232226965973 
1.6799999999998314, -0.6819472639399543 
1.6899999999998303, -0.6770146539676858 
1.6999999999998292, -0.6725476286986308 
1.709999999999828, -0.6687340569078751 
1.719999999999827, -0.6656353322532172 
1.729999999999826, -0.6632249290765245 
1.7399999999998248, -0.661427393423635 
1.7499999999998237, -0.660146283278317 
1.7599999999998226, -0.6592812959674704 
1.7699999999998215, -0.6587380685165158 
1.7799999999998204, -0.6584334941685481 
1.7899999999998193, -0.6582981319501842 
1.7999999999998182, -0.6582765538923344 
1.809999999999817, -0.6583262936265178 
1.819999999999816, -0.6584161039719001 
1.8299999999998149, -0.6585242091637741 
1.8399999999998138, -0.6586369822794828 
1.8499999999998127, -0.6587479421985103 
1.8599999999998116, -0.6588563115481063 
1.8699999999998105, -0.6589641202918997 
1.8799999999998094, -0.6590716006734378 
1.8899999999998083, -0.6591723218116983 
1.8999999999998072, -0.6592508645443103 
1.909999999999806, -0.6592851979245379 
1.919999999999805, -0.6592530930924071 
1.9299999999998039, -0.6591390313484644 
1.9399999999998028, -0.658937912084775 
1.9499999999998017, -0.6586546401455278 
1.9599999999998006, -0.6583015880842866 
1.9699999999997995, -0.6578967160469363 
1.9799999999997984, -0.6574642075519843 
1.9899999999997973, -0.657038388724312 
1.9999999999997962, -0.6566711670734765 
2.0099999999998173, -0.6564429899173719 
2.0199999999998384, -0.6564767485952838 
2.0299999999998595, -0.6569524663676469 
2.0399999999998806, -0.6581172844619729 
2.0499999999999017, -0.6602795462030244 
2.059999999999923, -0.663768218691884 
2.069999999999944, -0.6688351943908228 
2.079999999999965, -0.6754957788206828 
2.089999999999986, -0.6833662148621323 
2.100000000000007, -0.6916446109635319 
2.1100000000000283, -0.6993580735814869 
2.1200000000000494, -0.705762389450299 
2.1300000000000705, -0.7105820817432169 
2.1400000000000916, -0.7139446341387958 
2.1500000000001127, -0.7161621571675405 
2.160000000000134, -0.7175557516182967 
2.170000000000155, -0.7183791563984249 
2.180000000000176, -0.718807679790815 
2.190000000000197, -0.7189513501129132 
2.2000000000002182, -0.7188705458077679 
2.2100000000002393, -0.7185866207028372 
2.2200000000002604, -0.7180860424587256 
2.2300000000002815, -0.7173183263828943 
2.2400000000003026, -0.71618892494631 
2.2500000000003237, -0.7145507082557913 
2.260000000000345, -0.7122040282839425 
2.270000000000366, -0.7089253776309138 
2.280000000000387, -0.7045475073834595 
2.290000000000408, -0.6990839981658615 
2.3000000000004293, -0.6928235652436296 
2.3100000000004504, -0.6862908419266687 
2.3200000000004715, -0.6800682576783439 
2.3300000000004926, -0.6746047894845982 
2.3400000000005137, -0.6701292223294317 
2.3500000000005348, -0.6666729106937866 
2.360000000000556, -0.6641402131644898 
2.370000000000577, -0.6623757707297896 
2.380000000000598, -0.6612105455871996 
2.390000000000619, -0.6604877507566135 
2.4000000000006403, -0.6600748160358864 
2.4100000000006614, -0.6598667073358956 
2.4200000000006825, -0.6597842398935702 
2.4300000000007036, -0.6597698733451312 
2.4400000000007247, -0.6597827745850776 
2.450000000000746, -0.6597944224962733 
2.460000000000767, -0.6597855605026977 
2.470000000000788, -0.6597447582633553 
2.480000000000809, -0.6596681020859293 
2.49000000000083, -0.6595587130940659 
2.5000000000008513, -0.6594245244683259 
2.5100000000008724, -0.6592737919313415 
2.5200000000008935, -0.6591098842113542 
2.5300000000009146, -0.6589282833094645 
2.5400000000009357, -0.6587178441811155 
2.550000000000957, -0.658465660177628 
2.560000000000978, -0.6581626185008909 
2.570000000000999, -0.6578068556371848 
2.58000000000102, -0.6574044814538358 
2.5900000000010412, -0.6569689976957623 
2.6000000000010624, -0.6565213531064138 
2.6100000000010835, -0.6560919041347756 
2.6200000000011046, -0.6557246754728658 
2.6300000000011257, -0.6554836864033738 
2.6400000000011468, -0.6554605932079957 
2.650000000001168, -0.6557822026346473 
2.660000000001189, -0.6566152969034987 
2.67000000000121, -0.6581644367658563 
2.680000000001231, -0.660655737143081 
2.6900000000012523, -0.664296543597161 
2.7000000000012734, -0.6692011736403092 
2.7100000000012945, -0.6752866545975222 
2.7200000000013156, -0.6821815834731978 
2.7300000000013367, -0.6892387672913115 
2.740000000001358, -0.6957194703808038 
2.750000000001379, -0.7010701730210617 
2.7600000000014, -0.7050897546989271 
2.770000000001421, -0.7078849956626045 
2.780000000001442, -0.7097103756759493 
2.7900000000014633, -0.7108310712512139 
2.8000000000014844, -0.7114586301620085 
2.8100000000015055, -0.7117389559180016 
2.8200000000015266, -0.7117613984839176 
2.8300000000015477, -0.7115706086916563 
2.840000000001569, -0.7111740873522241 
2.85000000000159, -0.710543535704057 
2.860000000001611, -0.7096097534306886 
2.870000000001632, -0.7082518406587028 
2.8800000000016532, -0.7062846061351433 
2.8900000000016743, -0.7034565903400389 
2.9000000000016954, -0.699485612654718 
2.9100000000017165, -0.6941651548129675 
2.9200000000017377, -0.6875346359829669 
2.9300000000017588, -0.6800062109098056 
2.94000000000178, -0.6722956443584946 
2.950000000001801, -0.665156531847569 
2.960000000001822, -0.6591160663197317 
2.970000000001843, -0.6543812186005947 
2.9800000000018643, -0.6509018797276088 
2.9900000000018854, -0.6484868152757535 
3.0000000000019065, -0.646899516457723 
3.0100000000019276, -0.645914915793464 
3.0200000000019487, -0.6453446442990396 
3.03000000000197, -0.645043185235487 
3.040000000001991, -0.6449042819952011 
3.050000000002012, -0.6448533742930652 
3.060000000002033, -0.6448393428934859 
3.070000000002054, -0.6448273266619033 
3.0800000000020753, -0.644793495359637 
3.0900000000020964, -0.6447221207225777 
3.1000000000021175, -0.6446047736329976 
3.1100000000021386, -0.644440733026429 
3.1200000000021597, -0.6442368803747938 
3.130000000002181, -0.6440052860069317 
3.140000000002202, -0.6437581569273456 
3.150000000002223, -0.643502175952399 
3.160000000002244, -0.6432354489490576 
3.1700000000022652, -0.6429489388006479 
3.1800000000022863, -0.6426313963028474 
3.1900000000023074, -0.6422748045376379 
3.2000000000023285, -0.6418777757506376 
3.2100000000023496, -0.6414464677420356 
3.2200000000023707, -0.6409944012098184 
3.230000000002392, -0.6405429296394798 
3.240000000002413, -0.6401234743959019 
3.250000000002434, -0.6397818630495771 
3.260000000002455, -0.6395845567271722 
3.2700000000024763, -0.6396260867938024 
3.2800000000024974, -0.6400363623970335 
3.2900000000025185, -0.6409853705250816 
3.3000000000025396, -0.642680806867225 
3.3100000000025607, -0.6453509981569965 
3.3200000000025818, -0.6492017730673941 
3.330000000002603, -0.6543363688699965 
3.340000000002624, -0.6606442714253989 
3.350000000002645, -0.6677105155286672 
3.360000000002666, -0.6748462764807674 
3.3700000000026873, -0.6813018636111989 
3.3800000000027084, -0.6865538030722619 
3.3900000000027295, -0.6904495744989076 
3.4000000000027506, -0.6931332089591506 
3.4100000000027717, -0.694874506903075 
3.420000000002793, -0.6959384403509576 
3.430000000002814, -0.6965301974733332 
3.440000000002835, -0.6967887182366332 
3.450000000002856, -0.6967976980413934 
3.460000000002877, -0.6965975497264991 
3.4700000000028983, -0.6961924923732188 
3.4800000000029194, -0.6955514575799919 
3.4900000000029405, -0.6946029532300715 
3.5000000000029616, -0.6932253349331932 
3.5100000000029827, -0.6912378266066216 
3.520000000003004, -0.6884066363104295 
3.530000000003025, -0.6844923696902114 
3.540000000003046, -0.6793611068821422 
3.550000000003067, -0.6731297235886741 
3.5600000000030882, -0.6662335256352533 
3.5700000000031094, -0.6593134824770495 
3.5800000000031305, -0.6529796305509349 
3.5900000000031516, -0.6476252910383442 
3.6000000000031727, -0.6433878537267181 
3.6100000000031938, -0.6402143756320889 
3.620000000003215, -0.6379510812797597 
3.630000000003236, -0.6364117486538603 
3.640000000003257, -0.6354172789120626 
3.650000000003278, -0.6348138667357978 
3.6600000000032993, -0.6344784465354031 
3.6700000000033204, -0.6343174320091733 
3.6800000000033415, -0.6342623511680843 
3.6900000000033626, -0.6342645099744224 
3.7000000000033837, -0.6342899952418227 
3.710000000003405, -0.6343158173732739 
3.720000000003426, -0.6343275670834819 
3.730000000003447, -0.6343184294909163 
3.740000000003468, -0.6342886908374311 
3.750000000003489, -0.6342442906976136 
3.7600000000035103, -0.634193240460399 
3.7700000000035314, -0.6341402768621095 
3.7800000000035525, -0.6340821025334615 
3.7900000000035736, -0.6340061798261405 
3.8000000000035947, -0.6338942863004282 
3.810000000003616, -0.6337289912038415 
3.820000000003637, -0.6334994060685474 
3.830000000003658, -0.633203626355501 
3.840000000003679, -0.632848065443308 
3.8500000000037002, -0.6324458250932576 
3.8600000000037213, -0.6320163049371598 
3.8700000000037424, -0.631587343139642 
3.8800000000037635, -0.6312004244460595 
3.8900000000037847, -0.6309191594052921 
3.9000000000038058, -0.6308409590492994 
3.910000000003827, -0.6311110188109885 
3.920000000003848, -0.6319356711847441 
3.930000000003869, -0.6335879358176547 
3.94000000000389, -0.6363908903774546 
3.9500000000039113, -0.640655985261178 
3.9600000000039324, -0.646554369976992 
3.9700000000039535, -0.6539360028790843 
3.9800000000039746, -0.6622020436246062 
3.9900000000039957, -0.6704046197315594 
4.000000000004016, -0.6776142089447474 
4.010000000003993, -0.6832971921920453 
4.02000000000397, -0.6874045809066197 
4.030000000003946, -0.6901915362020622 
4.040000000003923, -0.6919958662841286 
4.0500000000039, -0.6931117614862801 
4.0600000000038765, -0.6937536894318347 
4.070000000003853, -0.6940629032098817 
4.08000000000383, -0.694124190170178 
4.090000000003807, -0.6939798383148011 
4.100000000003783, -0.6936375857913074 
4.11000000000376, -0.6930726219061155 
4.120000000003737, -0.6922247397859795 
4.130000000003713, -0.6909931906666882 
4.14000000000369, -0.6892355592099055 
4.150000000003667, -0.6867834925919889 
4.1600000000036434, -0.6834919012781112 
4.17000000000362, -0.6793237444548575 
4.180000000003597, -0.6744301092743581 
4.1900000000035735, -0.6691528851396052 
4.20000000000355, -0.6639221027990144 
4.210000000003527, -0.6591150042820755 
4.220000000003504, -0.6549690073265159 
4.23000000000348, -0.6515750008633836 
4.240000000003457, -0.6489170235635842 
4.250000000003434, -0.6469187207687426 
4.26000000000341, -0.6454780450753048 
4.270000000003387, -0.6444883038597384 
4.280000000003364, -0.64384952213191 
4.2900000000033405, -0.6434740394224917 
4.300000000003317, -0.6432887482837266 
4.310000000003294, -0.6432352459260562 
4.320000000003271, -0.6432686780293857 
4.330000000003247, -0.6433559359840328 
4.340000000003224, -0.6434738173950711 
4.350000000003201, -0.6436075670480632 
4.360000000003177, -0.6437497807515085 
4.370000000003154, -0.6438990481357364 
4.380000000003131, -0.6440573226962957 
4.390000000003107, -0.6442254648928362 
4.400000000003084, -0.6443979278383161 
4.410000000003061, -0.6445592409384372 
4.4200000000030375, -0.6446850853051782 
4.430000000003014, -0.6447483959749938 
4.440000000002991, -0.6447274362982488 
4.450000000002968, -0.6446113383430885 
4.460000000002944, -0.6444008026554409 
4.470000000002921, -0.6441052760126691 
4.480000000002898, -0.6437397027804886 
4.490000000002874, -0.6433233369708191 
4.500000000002851, -0.6428817898992721 
4.510000000002828, -0.6424527754032343 
4.520000000002804, -0.6420959466765341 
4.530000000002781, -0.6419071696973369 
4.540000000002758, -0.6420367145256135 
4.5500000000027345, -0.6427080768186343 
4.560000000002711, -0.6442279977465097 
4.570000000002688, -0.6469676925254306 
4.580000000002665, -0.651283830471195 
4.590000000002641, -0.6573534387626605 
4.600000000002618, -0.6649569489364128 
4.610000000002595, -0.6733652213041955 
4.620000000002571, -0.6815292405610449 
4.630000000002548, -0.6885316704364477 
4.640000000002525, -0.6939393715218067 
4.6500000000025015, -0.6977990774870859 
4.660000000002478, -0.7004069665536902 
4.670000000002455, -0.7020986617062619 
4.6800000000024315, -0.7031502815192757 
4.690000000002408, -0.7037585125270284 
4.700000000002385, -0.7040518831666771 
4.710000000002362, -0.704107170902687 
4.720000000002338, -0.7039618544313904 
4.730000000002315, -0.7036207952994501 
4.740000000002292, -0.7030575566132125 
4.750000000002268, -0.7022116086163711 
4.760000000002245, -0.7009842992444109 
4.770000000002222, -0.6992403462706681 
4.7800000000021985, -0.6968273202481696 
4.790000000002175, -0.6936265624191066 
4.800000000002152, -0.6896311493903632 
4.810000000002129, -0.6850078781194353 
4.820000000002105, -0.6800825979715358 
4.830000000002082, -0.6752399837459375 
4.840000000002059, -0.6708049566417292 
4.850000000002035, -0.6669776731119089 
4.860000000002012, -0.6638341274732396 
4.870000000001989, -0.6613609135935665 
4.880000000001965, -0.6594931929409028 
4.890000000001942, -0.6581426810270194 
4.900000000001919, -0.657214965708162 
4.9100000000018955, -0.6566194640859941 
4.920000000001872, -0.6562749658882321 
