t, s[1].omega / s[0].omega 
0, -0.9499983008007651 
0.009999999999999995, -0.9497644988077067 
0.019999999999999934, -0.9493930650482609 
0.029999999999999874, -0.9488837350403746 
0.04000000000000012, -0.9482969527636649 
0.050000000000000405, -0.9477639318881333 
0.06000000000000069, -0.9474419591051882 
0.07000000000000098, -0.9474288665908144 
0.08000000000000126, -0.9477120471528323 
0.09000000000000155, -0.9481886794722899 
0.10000000000000184, -0.948725408410519 
0.11000000000000212, -0.9492213075992707 
0.12000000000000241, -0.9496293456955076 
0.130000000000002, -0.9499213920981836 
0.1400000000000009, -0.9500452085500474 
0.1499999999999998, -0.9499474272789366 
0.1599999999999987, -0.9496383966311225 
0.1699999999999976, -0.9492164380863589 
0.1799999999999965, -0.9488600192163278 
0.1899999999999954, -0.9487820960479793 
0.1999999999999943, -0.9491104251274471 
0.2099999999999932, -0.9498108225201074 
0.2199999999999921, -0.9507470531369727 
0.229999999999991, -0.9517766022936528 
0.2399999999999899, -0.9527988754024376 
0.2499999999999888, -0.9537394150302889 
0.2599999999999877, -0.9544965635447198 
0.2699999999999866, -0.9549459543592445 
0.2799999999999855, -0.9550354052271034 
0.2899999999999844, -0.9548325318293079 
0.2999999999999833, -0.9544912158422387 
0.3099999999999822, -0.9542513101109394 
0.3199999999999811, -0.9544187713065796 
0.32999999999998, -0.9551914689746948 
0.3399999999999789, -0.9565115161902036 
0.3499999999999778, -0.9581691117085865 
0.35999999999997667, -0.959966987483894 
0.36999999999997557, -0.9617567650629996 
0.37999999999997447, -0.963374222069009 
0.38999999999997337, -0.964600935682584 
0.39999999999997227, -0.9652805914595186 
0.40999999999997117, -0.9654481593104038 
0.41999999999997006, -0.9652676697416515 
0.42999999999996896, -0.9649507865053627 
0.43999999999996786, -0.9648141386586617 
0.44999999999996676, -0.9652949617086238 
0.45999999999996566, -0.9666781617931611 
0.46999999999996456, -0.9688464939897762 
0.47999999999996346, -0.9714627634605166 
0.48999999999996235, -0.9742247354783595 
0.49999999999996125, -0.9768726666697279 
0.5099999999999602, -0.9790907531552558 
0.519999999999959, -0.9805771192423566 
0.529999999999958, -0.9812783657760826 
0.5399999999999568, -0.9813919215355865 
0.5499999999999557, -0.9811643817897242 
0.5599999999999546, -0.9808569399290314 
0.5699999999999535, -0.9808938183672402 
0.5799999999999524, -0.981845643466718 
0.5899999999999513, -0.9839799464861478 
0.5999999999999502, -0.9870079611760618 
0.6099999999999491, -0.9904435563869708 
0.619999999999948, -0.9938857878212382 
0.6299999999999469, -0.996954878534058 
0.6399999999999458, -0.9992435115343471 
0.6499999999999447, -1.0005472644971687 
0.6599999999999436, -1.0010237266325666 
0.6699999999999425, -1.0009771177970959 
0.6799999999999414, -1.0006756987605894 
0.6899999999999403, -1.0004492769874487 
0.6999999999999392, -1.0008522547172405 
0.7099999999999381, -1.0024179666374533 
0.719999999999937, -1.0051147127833224 
0.7299999999999359, -1.008439572572629 
0.7399999999999348, -1.0119003202481733 
0.7499999999999337, -1.0151208464247998 
0.7599999999999326, -1.0177236889653862 
0.7699999999999315, -1.0194077014982905 
0.7799999999999304, -1.0201827438211362 
0.7899999999999293, -1.020314236519198 
0.7999999999999282, -1.0200855946124507 
0.8099999999999271, -1.0197784416235636 
0.819999999999926, -1.019830031743127 
0.8299999999999249, -1.0207599844090842 
0.8399999999999238, -1.022693523318494 
0.8499999999999227, -1.0252548530957797 
0.8599999999999216, -1.027997547792668 
0.8699999999999205, -1.0306152979449044 
0.8799999999999194, -1.0328541794339996 
0.8899999999999183, -1.0344587840568065 
0.8999999999999172, -1.035312851670462 
0.9099999999999161, -1.03553806261651 
0.919999999999915, -1.035365118259469 
0.9299999999999139, -1.035042581375659 
0.9399999999999128, -1.0349120857703058 
0.9499999999999117, -1.0353764692085408 
0.9599999999999106, -1.0365709970732175 
0.9699999999999095, -1.0382491219909082 
0.9799999999999084, -1.040081383282277 
0.9899999999999073, -1.0418453588853416 
0.9999999999999062, -1.0433933445951609 
1.0099999999999052, -1.0445764840628997 
1.019999999999904, -1.0452662573584215 
1.029999999999903, -1.04545894962061 
1.039999999999902, -1.0452834473417738 
1.0499999999999008, -1.044936437322812 
1.0599999999998997, -1.0446868375990859 
1.0699999999998986, -1.0448285625082334 
1.0799999999998975, -1.0454656448755664 
1.0899999999998964, -1.0464463735489558 
1.0999999999998953, -1.0475465302937632 
1.1099999999998942, -1.048598329957298 
1.119999999999893, -1.0495027234353176 
1.129999999999892, -1.0501877477954633 
1.1399999999998909, -1.0505755307474958 
1.1499999999998898, -1.0506209621010982 
1.1599999999998887, -1.0503683857290191 
1.1699999999998876, -1.0499514510815164 
1.1799999999998865, -1.0495771535108689 
1.1899999999998854, -1.04946331052667 
1.1999999999998843, -1.0496970464809032 
1.2099999999998832, -1.0501972867884193 
1.219999999999882, -1.0508072381597178 
1.229999999999881, -1.051376287052376 
1.2399999999998799, -1.051808054495962 
1.2499999999998788, -1.0520608584661844 
1.2599999999998777, -1.0521084790364275 
1.2699999999998766, -1.0519229672393162 
1.2799999999998755, -1.051511640776473 
1.2899999999998744, -1.0509557396355516 
1.2999999999998733, -1.0504106259978574 
1.3099999999998722, -1.0500496040993714 
1.319999999999871, -1.0499675039006577 
1.32999999999987, -1.0501402290104114 
1.3399999999998689, -1.0504440767578866 
1.3499999999998678, -1.0507155090248894 
1.3599999999998666, -1.0508314958337241 
1.3699999999998655, -1.0507426158746547 
1.3799999999998644, -1.0504513822068964 
1.3899999999998633, -1.049968753846593 
1.3999999999998622, -1.0493072671805201 
1.4099999999998611, -1.0485198549578159 
1.41999999999986, -1.0477254136045806 
1.429999999999859, -1.0470796004873382 
1.4399999999998578, -1.0467077428114706 
1.4499999999998567, -1.046637203118495 
1.4599999999998556, -1.04675207359213 
1.4699999999998545, -1.0468539390777578 
1.4799999999998534, -1.0467759921596016 
1.4899999999998523, -1.0464308419565447 
1.4999999999998512, -1.0458152122552702 
1.5099999999998501, -1.044976580084531 
1.519999999999849, -1.0439633827543107 
1.529999999999848, -1.0428303982423308 
1.5399999999998468, -1.0416801621313607 
1.5499999999998457, -1.0406730142635823 
1.5599999999998446, -1.0399846895553513 
1.5699999999998435, -1.039697125291453 
1.5799999999998424, -1.0396873575926813 
1.5899999999998413, -1.0397059002478877 
1.5999999999998402, -1.039534739003372 
1.6099999999998391, -1.0390305431641826 
1.619999999999838, -1.0381413868956109 
1.629999999999837, -1.0369222076127 
1.6399999999998358, -1.0354740010067554 
1.6499999999998347, -1.0338877709806549 
1.6599999999998336, -1.0322736506766481 
1.6699999999998325, -1.030811081457891 
1.6799999999998314, -1.0297381557056902 
1.6899999999998303, -1.0292051529102342 
1.6999999999998292, -1.0290875386391032 
1.709999999999828, -1.0290759011885067 
1.719999999999827, -1.0288979481232976 
1.729999999999826, -1.0283575873279214 
1.7399999999998248, -1.0273263606077994 
1.7499999999998237, -1.025810643608776 
1.7599999999998226, -1.0239468150757793 
1.7699999999998215, -1.0218900216981575 
1.7799999999998204, -1.0197823451708856 
1.7899999999998193, -1.0178208446668942 
1.7999999999998182, -1.0162933075615161 
1.809999999999817, -1.015436245338932 
1.819999999999816, -1.0151705870732408 
1.8299999999998149, -1.0151430335039233 
1.8399999999998138, -1.0150204354066115 
1.8499999999998127, -1.0145692880080814 
1.8599999999998116, -1.013601721286354 
1.8699999999998105, -1.0120351338942055 
1.8799999999998094, -1.0099784192438 
1.8899999999998083, -1.0076396879704117 
1.8999999999998072, -1.0052052479666032 
1.909999999999806, -1.002871111240668 
1.919999999999805, -1.0009216141097481 
1.9299999999998039, -0.9996631056737632 
1.9399999999998028, -0.9991464322256092 
1.9499999999998017, -0.9990582022449651 
1.9599999999998006, -0.9990088733875125 
1.9699999999997995, -0.9987263437633083 
1.9799999999997984, -0.9980045420932897 
1.9899999999997973, -0.9966966713221366 
1.9999999999997962, -0.9948281770217081 
2.0099999999998173, -0.9925948612382672 
2.0199999999998384, -0.9902079162686986 
2.0299999999998595, -0.9878438146951459 
2.0399999999998806, -0.9857205846275546 
2.0499999999999017, -0.984126941305067 
2.059999999999923, -0.9832613079757104 
2.069999999999944, -0.9829979239853883 
2.079999999999965, -0.9829734120735075 
2.089999999999986, -0.9828654409550966 
2.100000000000007, -0.9824563839355026 
2.1100000000000283, -0.9815867762320831 
2.1200000000000494, -0.9802086545503356 
2.1300000000000705, -0.9784431831529125 
2.1400000000000916, -0.9764787236620519 
2.1500000000001127, -0.9744645068290582 
2.160000000000134, -0.9725403476748816 
2.170000000000155, -0.9708996876914706 
2.180000000000176, -0.9697645954919722 
2.190000000000197, -0.9692256309962488 
2.2000000000002182, -0.9691099693309715 
2.2100000000002393, -0.9691104542626224 
2.2200000000002604, -0.9689763418464504 
2.2300000000002815, -0.9685425899231631 
2.2400000000003026, -0.9677267789670462 
2.2500000000003237, -0.966569589461354 
2.260000000000345, -0.9651988723816685 
2.270000000000366, -0.9637290091514401 
2.280000000000387, -0.9622454777743987 
2.290000000000408, -0.9608581208609551 
2.3000000000004293, -0.9597226205140504 
2.3100000000004504, -0.9589907283975599 
2.3200000000004715, -0.9586972014595984 
2.3300000000004926, -0.958692847766157 
2.3400000000005137, -0.9587427024643573 
2.3500000000005348, -0.9586562766239495 
2.360000000000556, -0.9583252866122806 
2.370000000000577, -0.9577336711676725 
2.380000000000598, -0.9569441168476138 
2.390000000000619, -0.9560292856967532 
2.4000000000006403, -0.9550347506435446 
2.4100000000006614, -0.9540166005786312 
2.4200000000006825, -0.9530790886149846 
2.4300000000007036, -0.952357249250808 
2.4400000000007247, -0.9519562917426325 
2.450000000000746, -0.9518825576752741 
2.460000000000767, -0.9520171157372254 
2.470000000000788, -0.9521832185993503 
2.480000000000809, -0.9522410862397099 
2.49000000000083, -0.9521286130293632 
2.5000000000008513, -0.9518542617589 
2.5100000000008724, -0.9514488469845414 
2.5200000000008935, -0.9509220089956094 
2.5300000000009146, -0.9502837726479421 
2.5400000000009357, -0.9495946221690273 
2.550000000000957, -0.9489783330943825 
2.560000000000978, -0.9485770183121365 
2.570000000000999, -0.948475382190423 
2.58000000000102, -0.9486565390000937 
2.5900000000010412, -0.9490127440246429 
2.6000000000010624, -0.9494039113044188 
2.6100000000010835, -0.9497270267565215 
2.6200000000011046, -0.9499413675822395 
2.6300000000011257, -0.9500372033738271 
2.6400000000011468, -0.9499878828838267 
2.650000000001168, -0.9497565932673819 
2.660000000001189, -0.9493535536946376 
2.67000000000121, -0.948869576280527 
2.680000000001231, -0.9484691463006725 
2.6900000000012523, -0.9483332334169848 
2.7000000000012734, -0.9485541827613819 
2.7100000000012945, -0.9490896517981899 
2.7200000000013156, -0.949815239928174 
2.7300000000013367, -0.9505999376383447 
2.740000000001358, -0.9513543130536501 
2.750000000001379, -0.9520243528970839 
2.7600000000014, -0.952542136764366 
2.770000000001421, -0.9528138498431775 
2.780000000001442, -0.9527905384141321 
2.7900000000014633, -0.9525229846329907 
2.8000000000014844, -0.9521511484777976 
2.8100000000015055, -0.9518975632227361 
2.8200000000015266, -0.9520188509874509 
2.8300000000015477, -0.9526488144070494 
2.840000000001569, -0.9537139746306881 
2.85000000000159, -0.9550371375633628 
2.860000000001611, -0.9564584757720522 
2.870000000001632, -0.9578633167583902 
2.8800000000016532, -0.9591322640246649 
2.8900000000016743, -0.9600977291498738 
2.9000000000016954, -0.9606209833269695 
2.9100000000017165, -0.9607091560394698 
2.9200000000017377, -0.9604931482624789 
2.9300000000017588, -0.9601695542938362 
2.94000000000178, -0.9600357024461831 
2.950000000001801, -0.960464074024836 
2.960000000001822, -0.9616562291329738 
2.970000000001843, -0.9634847928924246 
2.9800000000018643, -0.96567147438522 
2.9900000000018854, -0.9679783569302681 
3.0000000000019065, -0.9702051545681196 
3.0100000000019276, -0.9721006046535742 
3.0200000000019487, -0.9733986498465078 
3.03000000000197, -0.9740169766020488 
3.040000000001991, -0.9741002023464687 
3.050000000002012, -0.973865243336331 
3.060000000002033, -0.9735617837352571 
3.070000000002054, -0.9735881478952189 
3.0800000000020753, -0.9744525938257048 
3.0900000000020964, -0.9763773139948954 
3.1000000000021175, -0.9791057718491506 
3.1100000000021386, -0.9822185066555564 
3.1200000000021597, -0.9853702080510851 
3.130000000002181, -0.9882292468135335 
3.140000000002202, -0.9904162533623867 
3.150000000002223, -0.9917013564974206 
3.160000000002244, -0.9921903160747019 
3.1700000000022652, -0.9921586214129776 
3.1800000000022863, -0.9918648191243211 
3.1900000000023074, -0.9916227215341212 
3.2000000000023285, -0.9919617746013643 
3.2100000000023496, -0.9934266132849721 
3.2200000000023707, -0.9960460752328858 
3.230000000002392, -0.9993576605002642 
3.240000000002413, -1.0028699646317538 
3.250000000002434, -1.0061979124582874 
3.260000000002455, -1.0089482659828044 
3.2700000000024763, -1.0107812581604445 
3.2800000000024974, -1.0116671991604071 
3.2900000000025185, -1.011865364988602 
3.3000000000025396, -1.0116684719932283 
3.3100000000025607, -1.011350449243698 
3.3200000000025818, -1.0113319528798572 
3.330000000002603, -1.0121842591504835 
3.340000000002624, -1.0141579260305655 
3.350000000002645, -1.016923948578127 
3.360000000002666, -1.0199827699985116 
3.3700000000026873, -1.0229656154714009 
3.3800000000027084, -1.0255699603121755 
3.3900000000027295, -1.0274888387892922 
3.4000000000027506, -1.0285650385429412 
3.4100000000027717, -1.028922148336086 
3.420000000002793, -1.0288166610081941 
3.430000000002814, -1.028503772194039 
3.440000000002835, -1.028316534770849 
3.450000000002856, -1.0287150575755237 
3.460000000002877, -1.0299703657769943 
3.4700000000028983, -1.0318871812307213 
3.4800000000029194, -1.034074005399743 
3.4900000000029405, -1.0362383664335861 
3.5000000000029616, -1.0381857398503591 
3.5100000000029827, -1.0397253620354974 
3.520000000003004, -1.0406890290365243 
3.530000000003025, -1.041060930396672 
3.540000000003046, -1.0409875808636466 
3.550000000003067, -1.040677726829468 
3.5600000000030882, -1.0404015358059024 
3.5700000000031094, -1.0405044941291755 
3.5800000000031305, -1.041196448532311 
3.5900000000031516, -1.0423630704284421 
3.6000000000031727, -1.0437364413498211 
3.6100000000031938, -1.0451020088307243 
3.620000000003215, -1.0463300588224327 
3.630000000003236, -1.0473222231345756 
3.640000000003257, -1.0479720902895724 
3.650000000003278, -1.0482139489813704 
3.6600000000032993, -1.048091106057403 
3.6700000000033204, -1.0477423868504687 
3.6800000000033415, -1.0473800373263937 
3.6900000000033626, -1.0472622497361186 
3.7000000000033837, -1.0475440866172423 
3.710000000003405, -1.0481665782254457 
3.720000000003426, -1.048955001060085 
3.730000000003447, -1.049740998655853 
3.740000000003468, -1.0504126811439674 
3.750000000003489, -1.0509113648575117 
3.7600000000035103, -1.0511913949106806 
3.7700000000035314, -1.0512054954479988 
3.7800000000035525, -1.050948848892394 
3.7900000000035736, -1.0504978345349576 
3.8000000000035947, -1.0500097879944241 
3.810000000003616, -1.0496823643373467 
3.820000000003637, -1.049645121550135 
3.830000000003658, -1.0498878738959747 
3.840000000003679, -1.0502953754408269 
3.8500000000037002, -1.050711447141534 
3.8600000000037213, -1.0510088822551682 
3.8700000000037424, -1.0511271380063276 
3.8800000000037635, -1.0510533391886152 
3.8900000000037847, -1.0507808390746085 
3.9000000000038058, -1.0503063126498873 
3.910000000003827, -1.0496708065479474 
3.920000000003848, -1.0489874570688067 
3.930000000003869, -1.0484167515197707 
3.94000000000389, -1.048091053912502 
3.9500000000039113, -1.0480501053620666 
3.9600000000039324, -1.0482129400223403 
3.9700000000039535, -1.0484086442656846 
3.9800000000039746, -1.048473759518972 
3.9900000000039957, -1.0483164235382223 
4.000000000004016, -1.047922287287903 
4.010000000003993, -1.0473201090139357 
4.02000000000397, -1.0465389821897944 
4.030000000003946, -1.0456168224019728 
4.040000000003923, -1.0446410548382852 
4.0500000000039, -1.0437561513618625 
4.0600000000038765, -1.043120984033457 
4.070000000003853, -1.0428317658568171 
4.08000000000383, -1.0428267463079952 
4.090000000003807, -1.0429001561339466 
4.100000000003783, -1.0428402063099373 
4.11000000000376, -1.0425056113893176 
4.120000000003737, -1.041842687806542 
4.130000000003713, -1.040888246822598 
4.14000000000369, -1.0397176875101453 
4.150000000003667, -1.0383990924202715 
4.1600000000036434, -1.0370189858818284 
4.17000000000362, -1.0357240517701995 
4.180000000003597, -1.0347165668860805 
4.1900000000035735, -1.0341608894004113 
4.20000000000355, -1.0340142774768832 
4.210000000003527, -1.0340242748587947 
4.220000000003504, -1.03392350340378 
4.23000000000348, -1.0335185486914011 
4.240000000003457, -1.0326888144476023 
4.250000000003434, -1.031429590744748 
4.26000000000341, -1.0298477386344305 
4.270000000003387, -1.0280696747948954 
4.280000000003364, -1.0262105118747165 
4.2900000000033405, -1.0244304375993092 
4.300000000003317, -1.0229751544550227 
4.310000000003294, -1.0220877868678313 
4.320000000003271, -1.0217717794916774 
4.330000000003247, -1.0217380326975112 
4.340000000003224, -1.0216569724794904 
4.350000000003201, -1.0212908110311103 
4.360000000003177, -1.0204581774793315 
4.370000000003154, -1.019071294678161 
4.380000000003131, -1.017213118238165 
4.390000000003107, -1.015065308742108 
4.400000000003084, -1.012795012779322 
4.410000000003061, -1.0105760170798914 
4.4200000000030375, -1.0086664765033455 
4.430000000003014, -1.0073731587318562 
4.440000000002991, -1.0068010837172576 
4.450000000002968, -1.0066891006942604 
4.460000000002944, -1.0066512127819591 
4.470000000002921, -1.0064040968554648 
4.480000000002898, -1.005737441407239 
4.490000000002874, -1.004494251522971 
4.500000000002851, -1.0026771787086428 
4.510000000002828, -1.0004661773066839 
4.520000000002804, -0.9980718520810115 
4.530000000002781, -0.9956729865217994 
4.540000000002758, -0.9934894818831758 
4.5500000000027345, -0.9918219690144637 
4.560000000002711, -0.9908957825894779 
4.570000000002688, -0.9906034072694164 
4.580000000002665, -0.9905731558843966 
4.590000000002641, -0.9904673065777342 
4.600000000002618, -0.9900572685221144 
4.610000000002595, -0.9891670026293671 
4.620000000002571, -0.9877239745893991 
4.630000000002548, -0.9858391624051627 
4.640000000002525, -0.9837160220470567 
4.6500000000025015, -0.9815251841050956 
4.660000000002478, -0.979424265591535 
4.670000000002455, -0.9776294382038978 
4.6800000000024315, -0.9763912084021508 
4.690000000002408, -0.9758077667092628 
4.700000000002385, -0.9756788319864035 
4.710000000002362, -0.9756667165243358 
4.720000000002338, -0.975505561519051 
4.730000000002315, -0.9750160026095277 
4.740000000002292, -0.974093677740161 
4.750000000002268, -0.9727678013116807 
4.760000000002245, -0.9711828839595164 
4.770000000002222, -0.9694822694370622 
4.7800000000021985, -0.9677731663917336 
4.790000000002175, -0.966182195229105 
4.800000000002152, -0.9648871999378971 
4.810000000002129, -0.9640609337598275 
4.820000000002105, -0.9637287765193384 
4.830000000002082, -0.9637020523559144 
4.840000000002059, -0.963714982740171 
4.850000000002035, -0.9635631365598717 
4.860000000002012, -0.9631246968899757 
4.870000000001989, -0.962373174269805 
4.880000000001965, -0.9613811462291426 
4.890000000001942, -0.9602479554578988 
4.900000000001919, -0.9590424825270907 
4.9100000000018955, -0.9578330714650057 
4.920000000001872, -0.9567306630414922 
4.930000000001849, -0.9558788615710079 
