t, s[1].omega / s[0].omega 
0, -0.659981570703464 
0.009999999999999995, -0.658163975742824 
0.019999999999999934, -0.6564388950441165 
0.029999999999999874, -0.6548456308027689 
0.04000000000000012, -0.65339957124148 
0.050000000000000405, -0.6521044024428351 
0.06000000000000069, -0.6509621151330227 
0.07000000000000098, -0.6499787004023554 
0.08000000000000126, -0.649166085773298 
0.09000000000000155, -0.6485416288430985 
0.10000000000000184, -0.6481263194997797 
0.11000000000000212, -0.647942544819594 
0.12000000000000241, -0.6480121092664675 
0.130000000000002, -0.6483550772244201 
0.1400000000000009, -0.648989742662157 
0.1499999999999998, -0.649933551975316 
0.1599999999999987, -0.6512041231183721 
0.1699999999999976, -0.6528186611685814 
0.1799999999999965, -0.6547892056294758 
0.1899999999999954, -0.657110833239221 
0.1999999999999943, -0.6597417285226889 
0.2099999999999932, -0.6625802635066578 
0.2199999999999921, -0.6654547653400135 
0.229999999999991, -0.6681468917426213 
0.2399999999999899, -0.6704522273542852 
0.2499999999999888, -0.6722455300171386 
0.2599999999999877, -0.6735055421643887 
0.2699999999999866, -0.6742893425338423 
0.2799999999999855, -0.6746856415227852 
0.2899999999999844, -0.6747777722140583 
0.2999999999999833, -0.6746255381606063 
0.3099999999999822, -0.674260203095341 
0.3199999999999811, -0.673684625568556 
0.32999999999998, -0.6728734896699029 
0.3399999999999789, -0.6717713882518506 
0.3499999999999778, -0.6702877626174546 
0.35999999999997667, -0.6682871230161108 
0.36999999999997557, -0.6655698066367352 
0.37999999999997447, -0.6618339683775465 
0.38999999999997337, -0.6566204973342222 
0.39999999999997227, -0.6493218283300415 
0.40999999999997117, -0.6394870429365351 
0.41999999999997006, -0.6275195519038729 
0.42999999999996896, -0.615060695907597 
0.43999999999996786, -0.6041807091641066 
0.44999999999996676, -0.5961102630602773 
0.45999999999996566, -0.5908907524552273 
0.46999999999996456, -0.5878848741469554 
0.47999999999996346, -0.5863393388680993 
0.48999999999996235, -0.5856529983498002 
0.49999999999996125, -0.5854235152353752 
0.5099999999999602, -0.5854071084970951 
0.519999999999959, -0.5854648564345196 
0.529999999999958, -0.5855200095114199 
0.5399999999999568, -0.5855294585832665 
0.5499999999999557, -0.585466418090314 
0.5599999999999546, -0.5853110808173488 
0.5699999999999535, -0.5850472347680877 
0.5799999999999524, -0.5846638348442571 
0.5899999999999513, -0.5841602625662266 
0.5999999999999502, -0.5835521352968656 
0.6099999999999491, -0.5828726005960514 
0.619999999999948, -0.5821654335530493 
0.6299999999999469, -0.5814719127145752 
0.6399999999999458, -0.5808185867933575 
0.6499999999999447, -0.580212384014532 
0.6599999999999436, -0.5796442905201644 
0.6699999999999425, -0.5790981071092425 
0.6799999999999414, -0.5785593948939123 
0.6899999999999403, -0.5780213719994673 
0.6999999999999392, -0.5774874394999567 
0.7099999999999381, -0.5769721263883986 
0.719999999999937, -0.5765026500666768 
0.7299999999999359, -0.5761226180596485 
0.7399999999999348, -0.5758986444617242 
0.7499999999999337, -0.5759302373735514 
0.7599999999999326, -0.5763630792062813 
0.7699999999999315, -0.5774053240276592 
0.7799999999999304, -0.579344966065969 
0.7899999999999293, -0.5825620477455514 
0.7999999999999282, -0.587519588458445 
0.8099999999999271, -0.5946992494770038 
0.819999999999926, -0.6044302037754327 
0.8299999999999249, -0.6165861509706618 
0.8399999999999238, -0.630276361497937 
0.8499999999999227, -0.643886448184055 
0.8599999999999216, -0.6557174224182921 
0.8699999999999205, -0.6647941860058978 
0.8799999999999194, -0.6710993349860028 
0.8899999999999183, -0.6751883394395499 
0.8999999999999172, -0.6777218711332669 
0.9099999999999161, -0.6792301655130941 
0.919999999999915, -0.6800714919439518 
0.9299999999999139, -0.6804656273102299 
0.9399999999999128, -0.68053529996178 
0.9499999999999117, -0.6803349963949585 
0.9599999999999106, -0.6798650698232586 
0.9699999999999095, -0.6790731961369059 
0.9799999999999084, -0.6778455309491982 
0.9899999999999073, -0.6759921816231247 
0.9999999999999062, -0.6732405383184124 
1.0099999999999052, -0.6692676729679918 
1.019999999999904, -0.6638140136364519 
1.029999999999903, -0.6568762285020379 
1.039999999999902, -0.6488557598808641 
1.0499999999999008, -0.6404847224294927 
1.0599999999998997, -0.6325375763285648 
1.0699999999998986, -0.6255612344852377 
1.0799999999998975, -0.6197947159427905 
1.0899999999998964, -0.6152404273485917 
1.0999999999998953, -0.6117728778592678 
1.1099999999998942, -0.609219867187156 
1.119999999999893, -0.6074067150919067 
1.129999999999892, -0.6061753676588241 
1.1399999999998909, -0.6053906331062191 
1.1499999999998898, -0.6049409214622715 
1.1599999999998887, -0.6047368810249261 
1.1699999999998876, -0.604709222298421 
1.1799999999998865, -0.6048062429899701 
1.1899999999998854, -0.6049914206586405 
1.1999999999998843, -0.6052414129087957 
1.2099999999998832, -0.6055445760597449 
1.219999999999882, -0.6058995366678726 
1.229999999999881, -0.606312588516338 
1.2399999999998799, -0.6067923752201747 
1.2499999999998788, -0.6073413109864595 
1.2599999999998777, -0.6079457196593737 
1.2699999999998766, -0.6085695806041467 
1.2799999999998755, -0.6091574984856388 
1.2899999999998744, -0.6096483941548476 
1.2999999999998733, -0.6099935570895461 
1.3099999999998722, -0.6101684032946346 
1.319999999999871, -0.6101722846937447 
1.32999999999987, -0.6100197985940716 
1.3399999999998689, -0.6097309789698794 
1.3499999999998678, -0.6093253706733106 
1.3599999999998666, -0.6088214233645648 
1.3699999999998655, -0.6082412770700982 
1.3799999999998644, -0.6076217728039557 
1.3899999999998633, -0.6070341575294675 
1.3999999999998622, -0.6066160304163108 
1.4099999999998611, -0.6066167721165209 
1.41999999999986, -0.6074451318061015 
1.429999999999859, -0.6096728383221511 
1.4399999999998578, -0.6138900654573232 
1.4499999999998567, -0.6203045102054625 
1.4599999999998556, -0.6282390119430541 
1.4699999999998545, -0.6361767498376029 
1.4799999999998534, -0.6427263875542699 
1.4899999999998523, -0.6474993643583385 
1.4999999999998512, -0.6508873369044728 
1.5099999999998501, -0.6533782854599332 
1.519999999999849, -0.6552627696325545 
1.529999999999848, -0.6566807678859872 
1.5399999999998468, -0.6577143256341214 
1.5499999999998457, -0.6584288937679086 
1.5599999999998446, -0.6588801951317493 
1.5699999999998435, -0.659110964092606 
1.5799999999998424, -0.6591473417068682 
1.5899999999998413, -0.6589964684901848 
1.5999999999998402, -0.6586447699961022 
1.6099999999998391, -0.6580572159063479 
1.619999999999838, -0.6571799168014351 
1.629999999999837, -0.6559507709764405 
1.6399999999998358, -0.6543226301002717 
1.6499999999998347, -0.6522958017402678 
1.6599999999998336, -0.6499422992337707 
1.6699999999998325, -0.6473990057274845 
1.6799999999998314, -0.6448272791860115 
1.6899999999998303, -0.6423654059446755 
1.6999999999998292, -0.6401026398663141 
1.709999999999828, -0.6380805297572475 
1.719999999999827, -0.6363089536288625 
1.729999999999826, -0.6347832412935748 
1.7399999999998248, -0.6334958660143046 
1.7499999999998237, -0.6324420505002892 
1.7599999999998226, -0.6316210540570653 
1.7699999999998215, -0.631035161237677 
1.7799999999998204, -0.630687911221121 
1.7899999999998193, -0.6305825878774294 
1.7999999999998182, -0.6307215735143437 
1.809999999999817, -0.6311067938602491 
1.819999999999816, -0.6317410943751278 
1.8299999999998149, -0.6326299686816935 
1.8399999999998138, -0.6337825690585587 
1.8499999999998127, -0.6352103203577913 
1.8599999999998116, -0.6369208807415486 
1.8699999999998105, -0.6389053791929711 
1.8799999999998094, -0.6411194144270284 
1.8899999999998083, -0.6434648361544906 
1.8999999999998072, -0.6457876715797314 
1.909999999999806, -0.647907014207764 
1.919999999999805, -0.6496690269023293 
1.9299999999998039, -0.6509931884026702 
1.9399999999998028, -0.6518801034252036 
1.9499999999998017, -0.6523837258760772 
1.9599999999998006, -0.6525744448591935 
1.9699999999997995, -0.6525130809582838 
1.9799999999997984, -0.6522390233798974 
1.9899999999997973, -0.6517669960212232 
1.9999999999997962, -0.6510866373194334 
2.0099999999998173, -0.6501614273209648 
2.0199999999998384, -0.6489251830133131 
2.0299999999998595, -0.6472743594811786 
2.0399999999998806, -0.645051905945725 
2.0499999999999017, -0.6420128043780846 
2.059999999999923, -0.6377599985647086 
2.069999999999944, -0.631680779658995 
2.079999999999965, -0.6230609256852249 
2.089999999999986, -0.6116599529823474 
2.100000000000007, -0.598498563655915 
2.1100000000000283, -0.5857242482095814 
2.1200000000000494, -0.5752825515595228 
2.1300000000000705, -0.567901269155894 
2.1400000000000916, -0.5632468865013209 
2.1500000000001127, -0.5605726383682761 
2.160000000000134, -0.559166463150579 
2.170000000000155, -0.5585036773763009 
2.180000000000176, -0.558243564432045 
2.190000000000197, -0.5581801804372551 
2.2000000000002182, -0.5581941068851533 
2.2100000000002393, -0.5582171276993885 
2.2200000000002604, -0.5582093633466365 
2.2300000000002815, -0.5581457302389604 
2.2400000000003026, -0.5580091027145432 
2.2500000000003237, -0.557788566599045 
2.260000000000345, -0.5574815077198415 
2.270000000000366, -0.5570974333173776 
2.280000000000387, -0.5566599086518065 
2.290000000000408, -0.556202907462436 
2.3000000000004293, -0.5557610689589118 
2.3100000000004504, -0.5553580824875729 
2.3200000000004715, -0.5549993076537401 
2.3300000000004926, -0.5546721837495097 
2.3400000000005137, -0.554353525808996 
2.3500000000005348, -0.5540194824781198 
2.360000000000556, -0.5536534092660049 
2.370000000000577, -0.5532492977136559 
2.380000000000598, -0.5528117365867514 
2.390000000000619, -0.5523551940446745 
2.4000000000006403, -0.551905230254987 
2.4100000000006614, -0.5515033820220004 
2.4200000000006825, -0.5512170580559637 
2.4300000000007036, -0.5511560361553579 
2.4400000000007247, -0.5514975862789491 
2.450000000000746, -0.552521809057506 
2.460000000000767, -0.5546550478416843 
2.470000000000788, -0.5585065754851091 
2.480000000000809, -0.5648523418530674 
2.49000000000083, -0.5744660359319194 
2.5000000000008513, -0.5876761788688649 
2.5100000000008724, -0.6037249743681796 
2.5200000000008935, -0.6205255963756874 
2.5300000000009146, -0.6355247863092177 
2.5400000000009357, -0.6471285912618383 
2.550000000000957, -0.6552111284351527 
2.560000000000978, -0.6605054848879435 
2.570000000000999, -0.6638732919381033 
2.58000000000102, -0.6659827851405656 
2.5900000000010412, -0.6672774914890035 
2.6000000000010624, -0.6680333859155696 
2.6100000000010835, -0.6684156976197186 
2.6200000000011046, -0.6685169063909412 
2.6300000000011257, -0.6683783026058812 
2.6400000000011468, -0.6679999893003442 
2.650000000001168, -0.6673432188992802 
2.660000000001189, -0.6663290568641882 
2.67000000000121, -0.664840167995528 
2.680000000001231, -0.6627377970845821 
2.6900000000012523, -0.6599078251982936 
2.7000000000012734, -0.6563339196708295 
2.7100000000012945, -0.6521577696690131 
2.7200000000013156, -0.6476665505691396 
2.7300000000013367, -0.64319838125215 
2.740000000001358, -0.6390332952016899 
2.750000000001379, -0.6353393963737229 
2.7600000000014, -0.6321811815278356 
2.770000000001421, -0.6295557864786004 
2.780000000001442, -0.6274273170335583 
2.7900000000014633, -0.625748527080467 
2.8000000000014844, -0.6244710680844141 
2.8100000000015055, -0.6235488904557983 
2.8200000000015266, -0.6229387212517861 
2.8300000000015477, -0.6225999795449889 
2.840000000001569, -0.622495163330357 
2.85000000000159, -0.6225908837548463 
2.860000000001611, -0.6228592950085552 
2.870000000001632, -0.6232795446309454 
2.8800000000016532, -0.6238388493798614 
2.8900000000016743, -0.6245326525499794 
2.9000000000016954, -0.6253629204689432 
2.9100000000017165, -0.6263332237044962 
2.9200000000017377, -0.6274395620174739 
2.9300000000017588, -0.628657913655817 
2.94000000000178, -0.6299334775961101 
2.950000000001801, -0.631180314424811 
2.960000000001822, -0.6322980158081584 
2.970000000001843, -0.6332005645173112 
2.9800000000018643, -0.6338402953370413 
2.9900000000018854, -0.6342123643445635 
3.0000000000019065, -0.6343412128372776 
3.0100000000019276, -0.6342616452786551 
3.0200000000019487, -0.6340047678327597 
3.03000000000197, -0.6335914562167189 
3.040000000001991, -0.6330317162529776 
3.050000000002012, -0.6323281723743611 
3.060000000002033, -0.631483646033085 
3.070000000002054, -0.6305145557835985 
3.0800000000020753, -0.6294721086443134 
3.0900000000020964, -0.6284683955137844 
3.1000000000021175, -0.6276871404260366 
3.1100000000021386, -0.6273245688410936 
3.1200000000021597, -0.6273922242633632 
3.130000000002181, -0.627456783498754 
3.140000000002202, -0.6267313695429133 
3.150000000002223, -0.62480822767313 
3.160000000002244, -0.6222279251836286 
3.1700000000022652, -0.6199675811592857 
3.1800000000022863, -0.6185923517968256 
3.1900000000023074, -0.6180820132672139 
3.2000000000023285, -0.6181400818653584 
3.2100000000023496, -0.6184677493476773 
3.2200000000023707, -0.6188622010318221 
3.230000000002392, -0.6192125746888324 
3.240000000002413, -0.6194676215068233 
3.250000000002434, -0.6196065284389471 
3.260000000002455, -0.6196194756744464 
3.2700000000024763, -0.6194962780722075 
3.2800000000024974, -0.6192206141712012 
3.2900000000025185, -0.6187688089728731 
3.3000000000025396, -0.6181138244830603 
3.3100000000025607, -0.6172355043388478 
3.3200000000025818, -0.6161354074289294 
3.330000000002603, -0.6148488648351591 
3.340000000002624, -0.6134438741414363 
3.350000000002645, -0.6120034607073573 
3.360000000002666, -0.6106013329152911 
3.3700000000026873, -0.6092854980763249 
3.3800000000027084, -0.6080763085599068 
3.3900000000027295, -0.6069749866727998 
3.4000000000027506, -0.6059751166853773 
3.4100000000027717, -0.6050719052921983 
3.420000000002793, -0.6042676625987073 
3.430000000002814, -0.6035743010907771 
3.440000000002835, -0.6030142727382469 
3.450000000002856, -0.602620962024072 
3.460000000002877, -0.602438963926942 
3.4700000000028983, -0.602524346753263 
3.4800000000029194, -0.6029449521831582 
3.4900000000029405, -0.6037808029520322 
3.5000000000029616, -0.6051244555167072 
3.5100000000029827, -0.6070802817694319 
3.520000000003004, -0.6097598134043561 
3.530000000003025, -0.613267307675993 
3.540000000003046, -0.6176667307722707 
3.550000000003067, -0.6229232400030792 
3.5600000000030882, -0.6288293896351755 
3.5700000000031094, -0.6349646050536408 
3.5800000000031305, -0.640763369118949 
3.5900000000031516, -0.6457070057602328 
3.6000000000031727, -0.6495171682257956 
3.6100000000031938, -0.6522006096104304 
3.620000000003215, -0.6539452219219265 
3.630000000003236, -0.6549858468666547 
3.640000000003257, -0.6555225192692472 
3.650000000003278, -0.6556944101576574 
3.6600000000032993, -0.6555816980412877 
3.6700000000033204, -0.655213323301066 
3.6800000000033415, -0.6545699695916248 
3.6900000000033626, -0.6535776042325148 
3.7000000000033837, -0.6520883730538036 
3.710000000003405, -0.6498463902856896 
3.720000000003426, -0.6464426406910697 
3.730000000003447, -0.641289243678341 
3.740000000003468, -0.6337012587139863 
3.750000000003489, -0.6232160789898642 
3.7600000000035103, -0.6101175942513002 
3.7700000000035314, -0.5957031302718563 
3.7800000000035525, -0.581796329348115 
3.7900000000035736, -0.5698507838749443 
3.8000000000035947, -0.5604772568103727 
3.810000000003616, -0.5535864127285998 
3.820000000003637, -0.5487511073613256 
3.830000000003658, -0.5454776209420241 
3.840000000003679, -0.5433322909487196 
3.8500000000037002, -0.5419763042352708 
3.8600000000037213, -0.541160390333093 
3.8700000000037424, -0.540707468555907 
3.8800000000037635, -0.5404947284307571 
3.8900000000037847, -0.5404387482179606 
3.9000000000038058, -0.5404842643478508 
3.910000000003827, -0.5405963109060801 
3.920000000003848, -0.54075525377209 
3.930000000003869, -0.5409540918065722 
3.94000000000389, -0.541196978576435 
3.9500000000039113, -0.5414972675228109 
3.9600000000039324, -0.5418730387345876 
3.9700000000039535, -0.5423388558139532 
3.9800000000039746, -0.5428947741561065 
3.9900000000039957, -0.5435166781328339 
4.000000000004016, -0.544154116575143 
4.010000000003993, -0.5447401413896797 
4.02000000000397, -0.5452105257107491 
4.030000000003946, -0.5455217779871392 
4.040000000003923, -0.5456576856164801 
4.0500000000039, -0.5456233753934953 
4.0600000000038765, -0.5454338010906318 
4.070000000003853, -0.5451036243443588 
4.08000000000383, -0.544641185508643 
4.090000000003807, -0.5440459912134067 
4.100000000003783, -0.5433081683164915 
4.11000000000376, -0.5424083110607836 
4.120000000003737, -0.5413152492607116 
4.130000000003713, -0.5399751370784126 
4.14000000000369, -0.5382745099646087 
4.150000000003667, -0.5359435098391451 
4.1600000000036434, -0.5323772187469035 
4.17000000000362, -0.526508674247147 
4.180000000003597, -0.5172082082362677 
4.1900000000035735, -0.5044981197080676 
4.20000000000355, -0.4903416344492998 
4.210000000003527, -0.47745808572292836 
4.220000000003504, -0.4674912889424466 
4.23000000000348, -0.46060843433998633 
4.240000000003457, -0.45619159609620186 
4.250000000003434, -0.45348962440762214 
4.26000000000341, -0.4518950111290826 
4.270000000003387, -0.4509870143719078 
4.280000000003364, -0.45049461157044 
4.2900000000033405, -0.45024943574841875 
4.300000000003317, -0.4501489439063193 
4.310000000003294, -0.45013167107397106 
4.320000000003271, -0.4501618865385185 
4.330000000003247, -0.4502208376270137 
4.340000000003224, -0.4503024926477712 
4.350000000003201, -0.45041213242519895 
4.360000000003177, -0.45056601070213353 
4.370000000003154, -0.4507898681747692 
4.380000000003131, -0.45111408188981306 
4.390000000003107, -0.45156435843195303 
4.400000000003084, -0.45214911740182 
4.410000000003061, -0.4528475594157742 
4.4200000000030375, -0.4536050809181341 
4.430000000003014, -0.4543424370761612 
4.440000000002991, -0.4549779535552811 
4.450000000002968, -0.4554512256804631 
4.460000000002944, -0.4557342444008382 
4.470000000002921, -0.45582623391220983 
4.480000000002898, -0.45573966364052215 
4.490000000002874, -0.45548628883405584 
4.500000000002851, -0.4550667259332267 
4.510000000002828, -0.454462115832706 
4.520000000002804, -0.45362402728863255 
4.530000000002781, -0.45245736789248037 
4.540000000002758, -0.45078926977553974 
4.5500000000027345, -0.4483163555680628 
4.560000000002711, -0.4445343721489651 
4.570000000002688, -0.43870778729064464 
4.580000000002665, -0.43005353641404553 
4.590000000002641, -0.4183297052612175 
4.600000000002618, -0.4045148538780447 
4.610000000002595, -0.3906181641718762 
4.620000000002571, -0.378496415610081 
4.630000000002548, -0.36897899303904114 
4.640000000002525, -0.36197626503462527 
4.6500000000025015, -0.3569936419291763 
4.660000000002478, -0.35349732500617176 
4.670000000002455, -0.3510555407862699 
4.6800000000024315, -0.3493578046660229 
4.690000000002408, -0.3481934566684445 
4.700000000002385, -0.34742502987492746 
4.710000000002362, -0.34696715732626443 
4.720000000002338, -0.3467724672182626 
4.730000000002315, -0.346823459760985 
4.740000000002292, -0.34712920047236195 
4.750000000002268, -0.3477260626334216 
4.760000000002245, -0.348682054799181 
4.770000000002222, -0.3501040438961162 
4.7800000000021985, -0.3521456909754504 
4.790000000002175, -0.3550096440672112 
4.800000000002152, -0.3589283321672977 
4.810000000002129, -0.36409467222512765 
4.820000000002105, -0.37051540693789675 
4.830000000002082, -0.37782470452438277 
4.840000000002059, -0.3852365550763092 
4.850000000002035, -0.39182724789005846 
4.860000000002012, -0.39699206331435977 
4.870000000001989, -0.40064366216621405 
4.880000000001965, -0.4030430384850957 
4.890000000001942, -0.40453937099309645 
4.900000000001919, -0.4054237460279335 
4.9100000000018955, -0.40589535370854496 
4.920000000001872, -0.40607568305560166 
