t, s[1].omega / s[0].omega 
0, -1.1201223403939289 
0.009999999999999995, -1.1311499566084346 
0.019999999999999934, -1.1393988667557382 
0.029999999999999874, -1.144954906795585 
0.04000000000000012, -1.1483889220755201 
0.050000000000000405, -1.1503451820013217 
0.06000000000000069, -1.151339470613513 
0.07000000000000098, -1.1517198086939762 
0.08000000000000126, -1.15169892123681 
0.09000000000000155, -1.151402934564693 
0.10000000000000184, -1.1509199669959378 
0.11000000000000212, -1.1503525936908556 
0.12000000000000241, -1.1498773466240837 
0.130000000000002, -1.1497871094613026 
0.1400000000000009, -1.1504522610664152 
0.1499999999999998, -1.1521604568034554 
0.1599999999999987, -1.1549328738658395 
0.1699999999999976, -1.1584927800852978 
0.1799999999999965, -1.162408522577673 
0.1899999999999954, -1.1662638320042704 
0.1999999999999943, -1.1697466839676276 
0.2099999999999932, -1.1726635945792792 
0.2199999999999921, -1.174925419629163 
0.229999999999991, -1.1765291327173477 
0.2399999999999899, -1.1775363832844052 
0.2499999999999888, -1.178046086822078 
0.2599999999999877, -1.178166704861066 
0.2699999999999866, -1.1779981702456097 
0.2799999999999855, -1.1776288108745747 
0.2899999999999844, -1.1771452330769425 
0.2999999999999833, -1.1766466779932914 
0.3099999999999822, -1.1762493456938028 
0.3199999999999811, -1.1760667875038253 
0.32999999999998, -1.1761712013998156 
0.3399999999999789, -1.176565091807411 
0.3499999999999778, -1.1771867267793479 
0.35999999999997667, -1.1779397431142133 
0.36999999999997557, -1.178722924674957 
0.37999999999997447, -1.179448518037984 
0.38999999999997337, -1.1800495347906061 
0.39999999999997227, -1.1804796857575433 
0.40999999999997117, -1.1807097935070832 
0.41999999999997006, -1.1807238427696354 
0.42999999999996896, -1.1805164134718928 
0.43999999999996786, -1.180091944486227 
0.44999999999996676, -1.1794654936997087 
0.45999999999996566, -1.1786645036553227 
0.46999999999996456, -1.1777312760017828 
0.47999999999996346, -1.1767252337931888 
0.48999999999996235, -1.1757222823750746 
0.49999999999996125, -1.174807956252922 
0.5099999999999602, -1.1740633339516484 
0.519999999999959, -1.173545525830718 
0.529999999999958, -1.17326741207164 
0.5399999999999568, -1.1731875094244608 
0.5499999999999557, -1.1732212833809275 
0.5599999999999546, -1.1732685168555337 
0.5699999999999535, -1.1732362347259113 
0.5799999999999524, -1.1730447959118004 
0.5899999999999513, -1.1726222862693012 
0.5999999999999502, -1.1718989550350123 
0.6099999999999491, -1.1708093040965621 
0.619999999999948, -1.1693022085106957 
0.6299999999999469, -1.1673537210617395 
0.6399999999999458, -1.164976610101203 
0.6499999999999447, -1.1622259740683654 
0.6599999999999436, -1.1592056618355921 
0.6699999999999425, -1.1560783515423725 
0.6799999999999414, -1.153071143065595 
0.6899999999999403, -1.1504536266165242 
0.6999999999999392, -1.1484649744670525 
0.7099999999999381, -1.1472086931123047 
0.719999999999937, -1.146596474693796 
0.7299999999999359, -1.1464039841785871 
0.7399999999999348, -1.1463879389690599 
0.7499999999999337, -1.1463634777595348 
0.7599999999999326, -1.1462091600417321 
0.7699999999999315, -1.1458317969512342 
0.7799999999999304, -1.1451242665388348 
0.7899999999999293, -1.1439282010172849 
0.7999999999999282, -1.1420053880600989 
0.8099999999999271, -1.1390302058181503 
0.819999999999926, -1.1346302155484715 
0.8299999999999249, -1.1285030393900402 
0.8399999999999238, -1.1206026161791334 
0.8499999999999227, -1.1113248302269105 
0.8599999999999216, -1.1015759051264944 
0.8699999999999205, -1.092608830671288 
0.8799999999999194, -1.0855943263305678 
0.8899999999999183, -1.0811079960131054 
0.8999999999999172, -1.0789181687780078 
0.9099999999999161, -1.0782681381664327 
0.919999999999915, -1.078363651463233 
0.9299999999999139, -1.0786627841098626 
0.9399999999999128, -1.0788910934261071 
0.9499999999999117, -1.0789360535299188 
0.9599999999999106, -1.078745695311315 
0.9699999999999095, -1.0782622965770383 
0.9799999999999084, -1.0773769211343431 
0.9899999999999073, -1.0758850500456805 
0.9999999999999062, -1.073432556672308 
1.0099999999999052, -1.0694622938834488 
1.019999999999904, -1.0632168822720383 
1.029999999999903, -1.053918395316932 
1.039999999999902, -1.0412417664646845 
1.0499999999999008, -1.0259496326983708 
1.0599999999998997, -1.0101180049831944 
1.0699999999998986, -0.9963985971361197 
1.0799999999998975, -0.9866698960053972 
1.0899999999998964, -0.9812142210208876 
1.0999999999998953, -0.9790236823485243 
1.1099999999998942, -0.9787040678223349 
1.119999999999893, -0.9791537890440976 
1.129999999999892, -0.9797439180092209 
1.1399999999998909, -0.9802010233635583 
1.1499999999998898, -0.9804378271951959 
1.1599999999998887, -0.9804345945705458 
1.1699999999998876, -0.9801744528803724 
1.1799999999998865, -0.9796077758984125 
1.1899999999998854, -0.9786240324668436 
1.1999999999998843, -0.9770184827652851 
1.2099999999998832, -0.9744520243900665 
1.219999999999882, -0.9704230542707689 
1.229999999999881, -0.9643076288880369 
1.2399999999998799, -0.9555560149604163 
1.2499999999998788, -0.9440733763070052 
1.2599999999998777, -0.9305917205556723 
1.2699999999998766, -0.9166571360038207 
1.2799999999998755, -0.904081471554159 
1.2899999999998744, -0.8942076830031054 
1.2999999999998733, -0.8874936301530287 
1.3099999999998722, -0.8835906918036599 
1.319999999999871, -0.8817247563514204 
1.32999999999987, -0.881085149853187 
1.3399999999998689, -0.8810469247549353 
1.3499999999998678, -0.8812176177696527 
1.3599999999998666, -0.8813865484168962 
1.3699999999998655, -0.8814516249969351 
1.3799999999998644, -0.8813600620047038 
1.3899999999998633, -0.8810692872174701 
1.3999999999998622, -0.8805225084519156 
1.4099999999998611, -0.8796334627030676 
1.41999999999986, -0.8782803194078037 
1.429999999999859, -0.8763158551281711 
1.4399999999998578, -0.8736041192561386 
1.4499999999998567, -0.8700825138392521 
1.4599999999998556, -0.8658207099026338 
1.4699999999998545, -0.8610320307524025 
1.4799999999998534, -0.8560223072184581 
1.4899999999998523, -0.8511112831611726 
1.4999999999998512, -0.8465727288878047 
1.5099999999998501, -0.8426082933225232 
1.519999999999849, -0.8393423452675168 
1.529999999999848, -0.8368227021054176 
1.5399999999998468, -0.8350234556084819 
1.5499999999998457, -0.8338547209623162 
1.5599999999998446, -0.8331832645267436 
1.5699999999998435, -0.832860433197833 
1.5799999999998424, -0.8327478185792362 
1.5899999999998413, -0.8327323811696228 
1.5999999999998402, -0.8327293248283869 
1.6099999999998391, -0.8326768033398737 
1.619999999999838, -0.8325283581179125 
1.629999999999837, -0.832247800893479 
1.6399999999998358, -0.831808920508365 
1.6499999999998347, -0.8311994491113586 
1.6599999999998336, -0.8304254964799131 
1.6699999999998325, -0.829511322382058 
1.6799999999998314, -0.8284924258782178 
1.6899999999998303, -0.8274056442703716 
1.6999999999998292, -0.8262824102211613 
1.709999999999828, -0.8251482017437786 
1.719999999999827, -0.8240265249331522 
1.729999999999826, -0.8229437856324854 
1.7399999999998248, -0.8219322991311365 
1.7499999999998237, -0.8210302928313279 
1.7599999999998226, -0.8202787843253485 
1.7699999999998215, -0.8197159091327755 
1.7799999999998204, -0.819370113796676 
1.7899999999998193, -0.8192543679583932 
1.7999999999998182, -0.8193634988167874 
1.809999999999817, -0.8196756573699631 
1.819999999999816, -0.8201572974843915 
1.8299999999998149, -0.8207697611035597 
1.8399999999998138, -0.8214752117398261 
1.8499999999998127, -0.822240171064896 
1.8599999999998116, -0.8230357580142643 
1.8699999999998105, -0.823834630412698 
1.8799999999998094, -0.8246059222688883 
1.8899999999998083, -0.8253112804456478 
1.8999999999998072, -0.8259060548745628 
1.909999999999806, -0.8263474407640834 
1.919999999999805, -0.8266060137997491 
1.9299999999998039, -0.8266734876359095 
1.9399999999998028, -0.826562377849719 
1.9499999999998017, -0.8262999598423194 
1.9599999999998006, -0.8259225585347135 
1.9699999999997995, -0.8254747235899706 
1.9799999999997984, -0.8250144244383062 
1.9899999999997973, -0.824622584199647 
1.9999999999997962, -0.8244129460886208 
2.0099999999998173, -0.8245360730804494 
2.0199999999998384, -0.8251707714907532 
2.0299999999998595, -0.8264999544618208 
2.0399999999998806, -0.8286755711731907 
2.0499999999999017, -0.8317831439539652 
2.059999999999923, -0.8358147554833829 
2.069999999999944, -0.8406518926727816 
2.079999999999965, -0.846056130740563 
2.089999999999986, -0.8516738816649723 
2.100000000000007, -0.8570752808212955 
2.1100000000000283, -0.8618431688435463 
2.1200000000000494, -0.8656874600441405 
2.1300000000000705, -0.8685163878548143 
2.1400000000000916, -0.8704167004529444 
2.1500000000001127, -0.8715694762175415 
2.160000000000134, -0.8721661163649544 
2.170000000000155, -0.8723614979644558 
2.180000000000176, -0.8722619920113616 
2.190000000000197, -0.8719321544053859 
2.2000000000002182, -0.871409000694119 
2.2100000000002393, -0.8707220725529055 
2.2200000000002604, -0.8699252213350196 
2.2300000000002815, -0.8691510798389348 
2.2400000000003026, -0.8686973836500005 
2.2500000000003237, -0.8691339441816988 
2.260000000000345, -0.8713671014323644 
2.270000000000366, -0.8765296495437612 
2.280000000000387, -0.8855616563773279 
2.290000000000408, -0.8985386512464452 
2.3000000000004293, -0.9141779418631145 
2.3100000000004504, -0.9301206411409705 
2.3200000000004715, -0.9440256574691819 
2.3300000000004926, -0.9546151115593726 
2.3400000000005137, -0.9618535117777182 
2.3500000000005348, -0.9664193251574487 
2.360000000000556, -0.9691266766550848 
2.370000000000577, -0.97063187468801 
2.380000000000598, -0.9713760133400658 
2.390000000000619, -0.9716246925020787 
2.4000000000006403, -0.9715217081697192 
2.4100000000006614, -0.9711294105035604 
2.4200000000006825, -0.9704546226639683 
2.4300000000007036, -0.9694691089311819 
2.4400000000007247, -0.9681415827164648 
2.450000000000746, -0.9665108025924811 
2.460000000000767, -0.9648397925137386 
2.470000000000788, -0.9638611112072468 
2.480000000000809, -0.9649779717626947 
2.49000000000083, -0.9700382616205518 
2.5000000000008513, -0.9803195482679398 
2.5100000000008724, -0.9951841296889613 
2.5200000000008935, -1.0118593811784766 
2.5300000000009146, -1.0270222560021574 
2.5400000000009357, -1.0386700305761538 
2.550000000000957, -1.0465591519570991 
2.560000000000978, -1.0514505810210049 
2.570000000000999, -1.0542931618399833 
2.58000000000102, -1.0558391108071767 
2.5900000000010412, -1.056581429114824 
2.6000000000010624, -1.0568094785261912 
2.6100000000010835, -1.056676216428818 
2.6200000000011046, -1.056247463281589 
2.6300000000011257, -1.0555362059515436 
2.6400000000011468, -1.0545383423477108 
2.650000000001168, -1.053298574377563 
2.660000000001189, -1.0520464809802648 
2.67000000000121, -1.0514181070022384 
2.680000000001231, -1.0526412059969052 
2.6900000000012523, -1.057328331397938 
2.7000000000012734, -1.0665795357372325 
2.7100000000012945, -1.0798741587143952 
2.7200000000013156, -1.0949394706506732 
2.7300000000013367, -1.1089808974113529 
2.740000000001358, -1.1201327469905558 
2.750000000001379, -1.1279379021332114 
2.7600000000014, -1.132896478460512 
2.770000000001421, -1.1358117152801142 
2.780000000001442, -1.1373930877073826 
2.7900000000014633, -1.1381379174379158 
2.8000000000014844, -1.138353434866449 
2.8100000000015055, -1.1382153432934665 
2.8200000000015266, -1.1378233289268653 
2.8300000000015477, -1.1372521109980067 
2.840000000001569, -1.1366111317335528 
2.85000000000159, -1.1361197865462533 
2.860000000001611, -1.13616592050459 
2.870000000001632, -1.1372552333333226 
2.8800000000016532, -1.139785375211504 
2.8900000000016743, -1.1437758162901333 
2.9000000000016954, -1.1488124350301363 
2.9100000000017165, -1.1542529392610714 
2.9200000000017377, -1.15948339828333 
2.9300000000017588, -1.1640609518943068 
2.94000000000178, -1.1677442778070164 
2.950000000001801, -1.1704706165681729 
2.960000000001822, -1.1723110494277553 
2.970000000001843, -1.1734138525858657 
2.9800000000018643, -1.1739487897084988 
2.9900000000018854, -1.174068579145596 
3.0000000000019065, -1.1738949552637652 
3.0100000000019276, -1.1735258447606562 
3.0200000000019487, -1.173055567515631 
3.03000000000197, -1.1725972444887576 
3.040000000001991, -1.172290051169019 
3.050000000002012, -1.172272866351684 
3.060000000002033, -1.1726302963295265 
3.070000000002054, -1.1733533341554658 
3.0800000000020753, -1.1743498049469 
3.0900000000020964, -1.175489595409966 
3.1000000000021175, -1.1766465468257148 
3.1100000000021386, -1.1777194064998233 
3.1200000000021597, -1.1786358515433948 
3.130000000002181, -1.1793483684092823 
3.140000000002202, -1.1798283124269755 
3.150000000002223, -1.180061625358713 
3.160000000002244, -1.1800471617221004 
3.1700000000022652, -1.1797965924014397 
3.1800000000022863, -1.179334419286397 
3.1900000000023074, -1.178697966924079 
3.2000000000023285, -1.177938314276696 
3.2100000000023496, -1.1771215746181596 
3.2200000000023707, -1.1763266444174854 
3.230000000002392, -1.1756352789222024 
3.240000000002413, -1.175115656066772 
3.250000000002434, -1.1748056175539954 
3.260000000002455, -1.1747011276473789 
3.2700000000024763, -1.1747545864539866 
3.2800000000024974, -1.174887014517885 
3.2900000000025185, -1.175009447212066 
3.3000000000025396, -1.17504027207954 
3.3100000000025607, -1.1749107636943878 
3.3200000000025818, -1.1745629118307368 
3.330000000002603, -1.173947686594594 
3.340000000002624, -1.1730276881036712 
3.350000000002645, -1.1717824589421177 
3.360000000002666, -1.1702126908733503 
3.3700000000026873, -1.168342162923568 
3.3800000000027084, -1.1662200390357822 
3.3900000000027295, -1.1639266540535909 
3.4000000000027506, -1.1615820612424508 
3.4100000000027717, -1.1593497462714277 
3.420000000002793, -1.1574201882360622 
3.430000000002814, -1.1559598489422025 
3.440000000002835, -1.1550384276523324 
3.450000000002856, -1.1545887109905533 
3.460000000002877, -1.1544429422820714 
3.4700000000028983, -1.15441401931299 
3.4800000000029194, -1.1543516080944012 
3.4900000000029405, -1.154146705781413 
3.5000000000029616, -1.1537050946070522 
3.5100000000029827, -1.1529146562082526 
3.520000000003004, -1.1516191289116742 
3.530000000003025, -1.1496067814651139 
3.540000000003046, -1.1466270286758709 
3.550000000003067, -1.1424484896468146 
3.5600000000030882, -1.1369561632164253 
3.5700000000031094, -1.1302591807689992 
3.5800000000031305, -1.122766827948048 
3.5900000000031516, -1.1151902867382026 
3.6000000000031727, -1.1084186732365837 
3.6100000000031938, -1.103236782435501 
3.620000000003215, -1.0999873882150955 
3.630000000003236, -1.0984401618848623 
3.640000000003257, -1.0980062513006303 
3.650000000003278, -1.0980897080129195 
3.6600000000032993, -1.0982881124246862 
3.6700000000033204, -1.0983941922890919 
3.6800000000033415, -1.0983128087838545 
3.6900000000033626, -1.0979815924057292 
3.7000000000033837, -1.0973146226189914 
3.710000000003405, -1.0961568717985013 
3.720000000003426, -1.0942353701471734 
3.730000000003447, -1.091106689835374 
3.740000000003468, -1.0861323167152817 
3.750000000003489, -1.0785672078122492 
3.7600000000035103, -1.0678783043198947 
3.7700000000035314, -1.0542902576031203 
3.7800000000035525, -1.0392175759932663 
3.7900000000035736, -1.0250157298865896 
3.8000000000035947, -1.0139237388798623 
3.810000000003616, -1.0069500340498536 
3.820000000003637, -1.003630140123531 
3.830000000003658, -1.0026976809046173 
3.840000000003679, -1.0029133225942208 
3.8500000000037002, -1.0034672309610657 
3.8600000000037213, -1.0039652358012998 
3.8700000000037424, -1.0042634309396745 
3.8800000000037635, -1.0043241368667206 
3.8900000000037847, -1.0041309704756123 
3.9000000000038058, -1.0036433637994375 
3.910000000003827, -1.0027651171781902 
3.920000000003848, -1.001309828931596 
3.930000000003869, -0.99895631003787 
3.94000000000389, -0.9952049346853556 
3.9500000000039113, -0.9893832021650001 
3.9600000000039324, -0.9807993282290157 
3.9700000000039535, -0.9691305830078223 
3.9800000000039746, -0.9549276178227617 
3.9900000000039957, -0.9397989091612589 
4.000000000004016, -0.925897953542387 
4.010000000003993, -0.9149691908702537 
4.02000000000397, -0.9076763241718737 
4.030000000003946, -0.9036235975413278 
4.040000000003923, -0.9018587909788206 
4.0500000000039, -0.9014026018865365 
4.0600000000038765, -0.9015326362450828 
4.070000000003853, -0.9018228236121517 
4.08000000000383, -0.9020630498040683 
4.090000000003807, -0.902162710465435 
4.100000000003783, -0.9020798592747472 
4.11000000000376, -0.9017777321341267 
4.120000000003737, -0.9011980269189259 
4.130000000003713, -0.9002420021703333 
4.14000000000369, -0.8987574565618578 
4.150000000003667, -0.8965396571832999 
4.1600000000036434, -0.8933641378236947 
4.17000000000362, -0.8890660045870915 
4.180000000003597, -0.8836467569650643 
4.1900000000035735, -0.8773421174145509 
4.20000000000355, -0.8705886969426665 
4.210000000003527, -0.863904951230072 
4.220000000003504, -0.8577636387595085 
4.23000000000348, -0.852511606647633 
4.240000000003457, -0.8483392626526272 
4.250000000003434, -0.8452810432553596 
4.26000000000341, -0.843237145916962 
4.270000000003387, -0.842014897478699 
4.280000000003364, -0.8413825976674415 
4.2900000000033405, -0.8411195741083345 
4.300000000003317, -0.8410471752367012 
4.310000000003294, -0.841036622827307 
4.320000000003271, -0.8410004534928432 
4.330000000003247, -0.8408776471851196 
4.340000000003224, -0.8406201635065104 
4.350000000003201, -0.8401852013112693 
4.360000000003177, -0.8395352055452273 
4.370000000003154, -0.8386453668688022 
4.380000000003131, -0.8375144500275221 
4.390000000003107, -0.8361709525129933 
4.400000000003084, -0.8346681724379972 
4.410000000003061, -0.8330701189457603 
4.4200000000030375, -0.8314373865230589 
4.430000000003014, -0.8298205623411452 
4.440000000002991, -0.8282616147833564 
4.450000000002968, -0.8267988042712366 
4.460000000002944, -0.8254704883903317 
4.470000000002921, -0.8243153959795834 
4.480000000002898, -0.8233691326915731 
4.490000000002874, -0.8226582165022578 
4.500000000002851, -0.8221939244160066 
4.510000000002828, -0.821968509693171 
4.520000000002804, -0.8219555972786171 
4.530000000002781, -0.8221148720159371 
4.540000000002758, -0.8223993545335849 
4.5500000000027345, -0.822762722029581 
4.560000000002711, -0.8231647013059028 
4.570000000002688, -0.8235738157559729 
4.580000000002665, -0.8239675833147636 
4.590000000002641, -0.8243303282366451 
4.600000000002618, -0.8246489235090909 
4.610000000002595, -0.8249079140083861 
4.620000000002571, -0.8250869345047869 
4.630000000002548, -0.8251630090811257 
4.640000000002525, -0.8251172016813042 
4.6500000000025015, -0.8249416071167458 
4.660000000002478, -0.8246426462986506 
4.670000000002455, -0.824240280524385 
4.6800000000024315, -0.823766131013358 
4.690000000002408, -0.8232636133931706 
4.700000000002385, -0.8227908533882966 
4.710000000002362, -0.8224244326061072 
4.720000000002338, -0.8222601952155182 
4.730000000002315, -0.8224073346049507 
4.740000000002292, -0.8229745981105505 
4.750000000002268, -0.8240519634821082 
4.760000000002245, -0.825694322940018 
4.770000000002222, -0.827912336560904 
4.7800000000021985, -0.8306703347332588 
4.790000000002175, -0.8338864064697475 
4.800000000002152, -0.8374298920179299 
4.810000000002129, -0.8411176743841283 
4.820000000002105, -0.844720166955136 
4.830000000002082, -0.8479918620825744 
4.840000000002059, -0.8507275617341241 
4.850000000002035, -0.8528174160161374 
4.860000000002012, -0.8542635791235528 
4.870000000001989, -0.8551498530476153 
4.880000000001965, -0.8555914766228195 
4.890000000001942, -0.8556959296971927 
4.900000000001919, -0.8555455945450221 
4.9100000000018955, -0.8551976989430929 
4.920000000001872, -0.8546949177632884 
4.930000000001849, -0.8540848221165925 
