t, s[1].omega / s[0].omega 
0, -0.6299977171955188 
0.009999999999999995, -0.6297688934122516 
0.019999999999999934, -0.6295337771748185 
0.029999999999999874, -0.6292793762562457 
0.04000000000000012, -0.6289910650787773 
0.050000000000000405, -0.6286587038061409 
0.06000000000000069, -0.6282800326107928 
0.07000000000000098, -0.6278611970620781 
0.08000000000000126, -0.6274162075711331 
0.09000000000000155, -0.6269673808735481 
0.10000000000000184, -0.626548036026369 
0.11000000000000212, -0.6262079306142416 
0.12000000000000241, -0.6260214443838945 
0.130000000000002, -0.6260980947641247 
0.1400000000000009, -0.6265941663840251 
0.1499999999999998, -0.6277225309889605 
0.1599999999999987, -0.6297543822924265 
0.1699999999999976, -0.6330008015389741 
0.1799999999999965, -0.6377546779087744 
0.1899999999999954, -0.644172649794592 
0.1999999999999943, -0.6521050384246138 
0.2099999999999932, -0.6609617857327649 
0.2199999999999921, -0.6697816528667694 
0.229999999999991, -0.6775788369685973 
0.2399999999999899, -0.683748305355653 
0.2499999999999888, -0.6882026365971068 
0.2599999999999877, -0.6912049572134841 
0.2699999999999866, -0.693126072931473 
0.2799999999999855, -0.6942945846955918 
0.2899999999999844, -0.6949501560355098 
0.2999999999999833, -0.6952490289403748 
0.3099999999999822, -0.6952830221339988 
0.3199999999999811, -0.6950955736459743 
0.32999999999998, -0.6946904987214098 
0.3399999999999789, -0.6940332531743656 
0.3499999999999778, -0.6930455948936298 
0.35999999999997667, -0.6915960873638471 
0.36999999999997557, -0.68949378269233 
0.37999999999997447, -0.6865025258454487 
0.38999999999997337, -0.6824029712473269 
0.39999999999997227, -0.6771147499286954 
0.40999999999997117, -0.670826849746987 
0.41999999999997006, -0.6640180608813974 
0.42999999999996896, -0.6573058212696286 
0.43999999999996786, -0.6512245829724116 
0.44999999999996676, -0.6460903632399468 
0.45999999999996566, -0.641997364902904 
0.46999999999996456, -0.6388871886221266 
0.47999999999996346, -0.6366240697060934 
0.48999999999996235, -0.6350476970105566 
0.49999999999996125, -0.6340027518128312 
0.5099999999999602, -0.6333527558833292 
0.519999999999959, -0.6329849877298945 
0.529999999999958, -0.6328106013553519 
0.5399999999999568, -0.6327622375280251 
0.5499999999999557, -0.6327905171828238 
0.5599999999999546, -0.6328604132611828 
0.5699999999999535, -0.6329482408953698 
0.5799999999999524, -0.6330396646050573 
0.5899999999999513, -0.6331285652782963 
0.5999999999999502, -0.6332158810533115 
0.6099999999999491, -0.6333070645960153 
0.619999999999948, -0.6334073205501597 
0.6299999999999469, -0.6335155528518495 
0.6399999999999458, -0.6336199090556536 
0.6499999999999447, -0.6336980855103869 
0.6599999999999436, -0.6337231730588362 
0.6699999999999425, -0.6336721263544884 
0.6799999999999414, -0.6335321332817762 
0.6899999999999403, -0.6333021342313501 
0.6999999999999392, -0.6329905037216418 
0.7099999999999381, -0.6326120062738003 
0.719999999999937, -0.6321867215457683 
0.7299999999999359, -0.6317423243879828 
0.7399999999999348, -0.6313203374744603 
0.7499999999999337, -0.6309868937451408 
0.7599999999999326, -0.6308485425656567 
0.7699999999999315, -0.6310728322302547 
0.7799999999999304, -0.6319105770034249 
0.7899999999999293, -0.6337100117090475 
0.7999999999999282, -0.6369005490076285 
0.8099999999999271, -0.6419080801640216 
0.819999999999926, -0.6489645003148271 
0.8299999999999249, -0.6578401797970846 
0.8399999999999238, -0.6676838091091548 
0.8499999999999227, -0.6772343900825175 
0.8599999999999216, -0.6853816907336888 
0.8699999999999205, -0.6916151674456404 
0.8799999999999194, -0.696015148225074 
0.8899999999999183, -0.6989568603460536 
0.8999999999999172, -0.7008497015528655 
0.9099999999999161, -0.7020218130062539 
0.919999999999915, -0.7027021595523817 
0.9299999999999139, -0.7030380434602034 
0.9399999999999128, -0.7031166037363562 
0.9499999999999117, -0.7029803972778412 
0.9599999999999106, -0.7026356478844414 
0.9699999999999095, -0.7020540120541192 
0.9799999999999084, -0.7011694103950432 
0.9899999999999073, -0.6998731634315178 
0.9999999999999062, -0.6980150833207694 
1.0099999999999052, -0.6954249413384385 
1.019999999999904, -0.6919701641124398 
1.029999999999903, -0.6876447240827104 
1.039999999999902, -0.6826384810350198 
1.0499999999999008, -0.6773166480749774 
1.0599999999998997, -0.6721026355085251 
1.0699999999998986, -0.6673455756330414 
1.0799999999998975, -0.663253198831477 
1.0899999999998964, -0.6598983101740201 
1.0999999999998953, -0.6572601391850539 
1.1099999999998942, -0.6552662258703608 
1.119999999999893, -0.6538218050981672 
1.129999999999892, -0.6528271839202098 
1.1399999999998909, -0.6521873456935933 
1.1499999999998898, -0.6518171910676209 
1.1599999999998887, -0.6516442075962563 
1.1699999999998876, -0.6516093424080668 
1.1799999999998865, -0.6516665406729978 
1.1899999999998854, -0.6517814702936999 
1.1999999999998843, -0.6519300238640592 
1.2099999999998832, -0.6520970350459069 
1.219999999999882, -0.6522751732332314 
1.229999999999881, -0.6524633196290448 
1.2399999999998799, -0.6526633789708299 
1.2499999999998788, -0.6528751355538822 
1.2599999999998777, -0.6530905291574056 
1.2699999999998766, -0.6532904409046071 
1.2799999999998755, -0.6534468545649517 
1.2899999999998744, -0.6535302965173873 
1.2999999999998733, -0.653518656093206 
1.3099999999998722, -0.6534024666808309 
1.319999999999871, -0.6531847418333838 
1.32999999999987, -0.6528774379716373 
1.3399999999998689, -0.6524980960972744 
1.3499999999998678, -0.6520692022586921 
1.3599999999998666, -0.6516213681125864 
1.3699999999998655, -0.6512008013021545 
1.3799999999998644, -0.6508815368581311 
1.3899999999998633, -0.6507827461921013 
1.3999999999998622, -0.651090165902209 
1.4099999999998611, -0.65207704453477 
1.41999999999986, -0.6541123520626073 
1.429999999999859, -0.6576314104039302 
1.4399999999998578, -0.663031654466534 
1.4499999999998567, -0.670467308071113 
1.4599999999998556, -0.679596584394223 
1.4699999999998545, -0.6894818504251824 
1.4799999999998534, -0.6988671381363194 
1.4899999999998523, -0.7067323213892744 
1.4999999999998512, -0.7126675481439395 
1.5099999999998501, -0.7168096680302869 
1.519999999999849, -0.7195474871633011 
1.529999999999848, -0.7212836868750281 
1.5399999999998468, -0.7223347685525504 
1.5499999999998457, -0.7229186864716455 
1.5599999999998446, -0.7231732547994087 
1.5699999999998435, -0.7231770442332195 
1.5799999999998424, -0.7229638502170767 
1.5899999999998413, -0.7225293996273008 
1.5999999999998402, -0.7218309313538412 
1.6099999999998391, -0.720780959126673 
1.619999999999838, -0.7192386323808384 
1.629999999999837, -0.7170080404835013 
1.6399999999998358, -0.7138628078192659 
1.6499999999998347, -0.7096207634118489 
1.6599999999998336, -0.7042662550045392 
1.6699999999998325, -0.6980515325992158 
1.6799999999998314, -0.6914730258284291 
1.6899999999998303, -0.6851060877141151 
1.6999999999998292, -0.6794149140588364 
1.709999999999828, -0.674657647553225 
1.719999999999827, -0.6708991643869691 
1.729999999999826, -0.6680740918758477 
1.7399999999998248, -0.6660498872459912 
1.7499999999998237, -0.664671289485445 
1.7599999999998226, -0.6637866471422986 
1.7699999999998215, -0.6632616755067817 
1.7799999999998204, -0.6629852668360406 
1.7899999999998193, -0.6628702769629835 
1.7999999999998182, -0.6628512406242818 
1.809999999999817, -0.662880574998593 
1.819999999999816, -0.6629245972541566 
1.8299999999998149, -0.6629603696647498 
1.8399999999998138, -0.6629738876121993 
1.8499999999998127, -0.66295936887525 
1.8599999999998116, -0.6629185061224747 
1.8699999999998105, -0.6628581082549935 
1.8799999999998094, -0.6627854093441999 
1.8899999999998083, -0.6627024067137806 
1.8999999999998072, -0.6626022904255784 
1.909999999999806, -0.6624704853689976 
1.919999999999805, -0.6622900216715758 
1.9299999999998039, -0.6620480999393108 
1.9399999999998028, -0.661740366642415 
1.9499999999998017, -0.6613717576732813 
1.9599999999998006, -0.6609554267054633 
1.9699999999997995, -0.6605121716705613 
1.9799999999997984, -0.6600720693054833 
1.9899999999997973, -0.6596789770881889 
1.9999999999997962, -0.6593978351683998 
2.0099999999998173, -0.6593241597291206 
2.0199999999998384, -0.6595943570087908 
2.0299999999998595, -0.660394165073216 
2.0399999999998806, -0.6619603484017376 
2.0499999999999017, -0.6645673792602677 
2.059999999999923, -0.668486439714906 
2.069999999999944, -0.6739021147498911 
2.079999999999965, -0.6807843798360069 
2.089999999999986, -0.6887583477726197 
2.100000000000007, -0.6970827601593267 
2.1100000000000283, -0.7048469004247442 
2.1200000000000494, -0.711322024360217 
2.1300000000000705, -0.7162086354696079 
2.1400000000000916, -0.7196095992978715 
2.1500000000001127, -0.7218312490703346 
2.160000000000134, -0.7232020523364475 
2.170000000000155, -0.7239854381337781 
2.180000000000176, -0.7243631200365096 
2.190000000000197, -0.7244471085402429 
2.2000000000002182, -0.7242956736176245 
2.2100000000002393, -0.7239239732948191 
2.2200000000002604, -0.7233070504956882 
2.2300000000002815, -0.7223748710711795 
2.2400000000003026, -0.7209997602655613 
2.2500000000003237, -0.7189792101805681 
2.260000000000345, -0.7160256664541821 
2.270000000000366, -0.7117927175178547 
2.280000000000387, -0.7059832548702201 
2.290000000000408, -0.6985541367757716 
2.3000000000004293, -0.6899107390104204 
2.3100000000004504, -0.6808824831685257 
2.3200000000004715, -0.6724156002556099 
2.3300000000004926, -0.6652117037441887 
2.3400000000005137, -0.659569345618206 
2.3500000000005348, -0.6554472181223086 
2.360000000000556, -0.6526136723350515 
2.370000000000577, -0.6507752557605029 
2.380000000000598, -0.6496529716543604 
2.390000000000619, -0.6490155504141919 
2.4000000000006403, -0.6486868508867168 
2.4100000000006614, -0.6485404458865223 
2.4200000000006825, -0.6484893077306203 
2.4300000000007036, -0.6484749217586356 
2.4400000000007247, -0.6484580026422956 
2.450000000000746, -0.648411792107613 
2.460000000000767, -0.6483182741827755 
2.470000000000788, -0.6481671369646571 
2.480000000000809, -0.6479565424180312 
2.49000000000083, -0.6476937606492588 
2.5000000000008513, -0.6473933520110791 
2.5100000000008724, -0.6470719712851863 
2.5200000000008935, -0.6467416552450158 
2.5300000000009146, -0.6464052802545613 
2.5400000000009357, -0.6460568310718767 
2.550000000000957, -0.645686023139219 
2.560000000000978, -0.6452843034815252 
2.570000000000999, -0.6448492203059825 
2.58000000000102, -0.6443861931614161 
2.5900000000010412, -0.6439088006952205 
2.6000000000010624, -0.6434393737781845 
2.6100000000010835, -0.6430111324709504 
2.6200000000011046, -0.6426722450524586 
2.6300000000011257, -0.6424915221249747 
2.6400000000011468, -0.6425649632761007 
2.650000000001168, -0.6430218383660258 
2.660000000001189, -0.6440281833559507 
2.67000000000121, -0.645784185930982 
2.680000000001231, -0.6485094502088954 
2.6900000000012523, -0.652406626160192 
2.7000000000012734, -0.6575923856035983 
2.7100000000012945, -0.6639951323527518 
2.7200000000013156, -0.6712556718236729 
2.7300000000013367, -0.6787210698323882 
2.740000000001358, -0.685616391471232 
2.750000000001379, -0.6913357834840814 
2.7600000000014, -0.6956409057976634 
2.770000000001421, -0.6986322486596469 
2.780000000001442, -0.700580137465711 
2.7900000000014633, -0.7017716169955462 
2.8000000000014844, -0.7024364252565983 
2.8100000000015055, -0.7027324639102023 
2.8200000000015266, -0.7027556629058451 
2.8300000000015477, -0.7025531144811318 
2.840000000001569, -0.7021313054897564 
2.85000000000159, -0.701457221094865 
2.860000000001611, -0.7004518661352728 
2.870000000001632, -0.6989767385281576 
2.8800000000016532, -0.6968173325066898 
2.8900000000016743, -0.6936781138226329 
2.9000000000016954, -0.6892222658886993 
2.9100000000017165, -0.6831997682167462 
2.9200000000017377, -0.6756575285559192 
2.9300000000017588, -0.6670940392921804 
2.94000000000178, -0.6583636613828843 
2.950000000001801, -0.6503411688884501 
2.960000000001822, -0.6436092529671988 
2.970000000001843, -0.638369180054133 
2.9800000000018643, -0.6345350654674493 
2.9900000000018854, -0.6318757651273769 
3.0000000000019065, -0.6301223459885675 
3.0100000000019276, -0.6290266957139053 
3.0200000000019487, -0.6283848728582868 
3.03000000000197, -0.6280408476669164 
3.040000000001991, -0.6278811210734856 
3.050000000002012, -0.6278260924002922 
3.060000000002033, -0.6278212381448547 
3.070000000002054, -0.6278296437401156 
3.0800000000020753, -0.6278266219538163 
3.0900000000020964, -0.6277966566605556 
3.1000000000021175, -0.6277323942882529 
3.1100000000021386, -0.6276346500331059 
3.1200000000021597, -0.627511632727204 
3.130000000002181, -0.6273756743067823 
3.140000000002202, -0.6272373870098158 
3.150000000002223, -0.627099599533407 
3.160000000002244, -0.6269545469940256 
3.1700000000022652, -0.62678627167647 
3.1800000000022863, -0.626576969024161 
3.1900000000023074, -0.6263136361029041 
3.2000000000023285, -0.6259918329785684 
3.2100000000023496, -0.6256160458926279 
3.2200000000023707, -0.6251985086105266 
3.230000000002392, -0.6247588384318254 
3.240000000002413, -0.6243260570097249 
3.250000000002434, -0.6239437112934426 
3.260000000002455, -0.6236783668315047 
3.2700000000024763, -0.6236314549358939 
3.2800000000024974, -0.623953771137192 
3.2900000000025185, -0.6248601571147435 
3.3000000000025396, -0.6266380722042768 
3.3100000000025607, -0.6296366671109861 
3.3200000000025818, -0.6342129058563659 
3.330000000002603, -0.6406063899251021 
3.340000000002624, -0.6487412662282905 
3.350000000002645, -0.658045508087759 
3.360000000002666, -0.6674875289345984 
3.3700000000026873, -0.6759492700292643 
3.3800000000027084, -0.6827064845167353 
3.3900000000027295, -0.6876173152471605 
3.4000000000027506, -0.6909483465394668 
3.4100000000027717, -0.6930989784420267 
3.420000000002793, -0.6944282173415737 
3.430000000002814, -0.6951997547713443 
3.440000000002835, -0.6955871974039533 
3.450000000002856, -0.6956950667686912 
3.460000000002877, -0.695577025445863 
3.4700000000028983, -0.6952466392805571 
3.4800000000029194, -0.6946806496870652 
3.4900000000029405, -0.6938158828704922 
3.5000000000029616, -0.692542153650002 
3.5100000000029827, -0.6906973919414282 
3.520000000003004, -0.6880792337586144 
3.530000000003025, -0.6844950853558801 
3.540000000003046, -0.6798618148899973 
3.550000000003067, -0.6743163274199744 
3.5600000000030882, -0.6682432629942779 
3.5700000000031094, -0.6621627779066501 
3.5800000000031305, -0.6565490174881939 
3.5900000000031516, -0.651706647240655 
3.6000000000031727, -0.6477540876578637 
3.6100000000031938, -0.6446728741276362 
3.620000000003215, -0.6423683700051019 
3.630000000003236, -0.6407150923981905 
3.640000000003257, -0.639583587792644 
3.650000000003278, -0.6388542931747334 
3.6600000000032993, -0.6384238319230007 
3.6700000000033204, -0.6382071044532183 
3.6800000000033415, -0.6381369312643815 
3.6900000000033626, -0.6381622648431757 
3.7000000000033837, -0.6382457622776937 
3.710000000003405, -0.6383614191697168 
3.720000000003426, -0.6384927577754073 
3.730000000003447, -0.6386316057453014 
3.740000000003468, -0.6387768252464292 
3.750000000003489, -0.6389318210228649 
3.7600000000035103, -0.6390999639551709 
3.7700000000035314, -0.6392786060731479 
3.7800000000035525, -0.6394543584816457 
3.7900000000035736, -0.6396029439438191 
3.8000000000035947, -0.6396948766014476 
3.810000000003616, -0.6397043592815328 
3.820000000003637, -0.639616399732534 
3.830000000003658, -0.6394287782017887 
3.840000000003679, -0.6391495451640885 
3.8500000000037002, -0.6387933198000141 
3.8600000000037213, -0.6383794145839625 
3.8700000000037424, -0.6379333618815303 
3.8800000000037635, -0.6374924874430994 
3.8900000000037847, -0.6371160703709821 
3.9000000000038058, -0.6369007438272043 
3.910000000003827, -0.6370012248229285 
3.920000000003848, -0.6376539933966431 
3.930000000003869, -0.6391953147259453 
3.94000000000389, -0.6420528967023641 
3.9500000000039113, -0.6466738813269333 
3.9600000000039324, -0.6533476229691173 
3.9700000000039535, -0.6619364513603119 
3.9800000000039746, -0.6716779830088376 
3.9900000000039957, -0.6813348072775871 
4.000000000004016, -0.6897317212045416 
4.010000000003993, -0.6962558970229453 
4.02000000000397, -0.7009137412841022 
4.030000000003946, -0.7040535382495354 
4.040000000003923, -0.7060876369115705 
4.0500000000039, -0.7073574672570132 
4.0600000000038765, -0.7081055631502824 
4.070000000003853, -0.7084900710107165 
4.08000000000383, -0.7086062522930423 
4.090000000003807, -0.7085029334043186 
4.100000000003783, -0.7081917108582167 
4.11000000000376, -0.707649515847679 
4.120000000003737, -0.7068158802289519 
4.130000000003713, -0.7055876441400092 
4.14000000000369, -0.7038177883742913 
4.150000000003667, -0.7013319069293326 
4.1600000000036434, -0.6979795955986379 
4.17000000000362, -0.69372227146418 
4.180000000003597, -0.6887145501321592 
4.1900000000035735, -0.683304645124281 
4.20000000000355, -0.6779283753952704 
4.210000000003527, -0.6729676805163094 
4.220000000003504, -0.6686653644921303 
4.23000000000348, -0.6651194411494931 
4.240000000003457, -0.6623219564125066 
4.250000000003434, -0.6602036481794489 
4.26000000000341, -0.6586671136937845 
4.270000000003387, -0.6576071591452954 
4.280000000003364, -0.6569223323600505 
4.2900000000033405, -0.6565213034200007 
4.300000000003317, -0.656326137162563 
4.310000000003294, -0.656273392318217 
4.320000000003271, -0.6563136191322786 
4.330000000003247, -0.6564098755526919 
4.340000000003224, -0.6565359614223434 
4.350000000003201, -0.6566749321670659 
4.360000000003177, -0.656817990204434 
4.370000000003154, -0.6569631509857194 
4.380000000003131, -0.6571125841643419 
4.390000000003107, -0.6572679589505539 
4.400000000003084, -0.6574247538632402 
4.410000000003061, -0.6575683407679795 
4.4200000000030375, -0.6576748506427839 
4.430000000003014, -0.6577173553692838 
4.440000000002991, -0.6576742157407641 
4.450000000002968, -0.6575348968067206 
4.460000000002944, -0.6573008437528103 
4.470000000002921, -0.6569828113326494 
4.480000000002898, -0.656597903390215 
4.490000000002874, -0.6561689443007888 
4.500000000002851, -0.6557274304327121 
4.510000000002828, -0.6553205288676094 
4.520000000002804, -0.6550224009950878 
4.530000000002781, -0.6549498443043064 
4.540000000002758, -0.6552810361326348 
4.5500000000027345, -0.6562730797175013 
4.560000000002711, -0.6582679513429182 
4.570000000002688, -0.6616666661065533 
4.580000000002665, -0.6668414024307651 
4.590000000002641, -0.6739614798109688 
4.600000000002618, -0.6827669667195073 
4.610000000002595, -0.6924450640113882 
4.620000000002571, -0.7018207224748407 
4.630000000002548, -0.709844744393061 
4.640000000002525, -0.7160060219503485 
4.6500000000025015, -0.7203538914433805 
4.660000000002478, -0.723241227858676 
4.670000000002455, -0.7250720965827807 
4.6800000000024315, -0.7261776131321704 
4.690000000002408, -0.726790208053676 
4.700000000002385, -0.7270581716918963 
4.710000000002362, -0.7270667718881862 
4.720000000002338, -0.7268538689667641 
4.730000000002315, -0.7264175424023058 
4.740000000002292, -0.7257159867057412 
4.750000000002268, -0.7246606014105634 
4.760000000002245, -0.7231048863346196 
4.770000000002222, -0.7208373519663897 
4.7800000000021985, -0.7175980447702861 
4.790000000002175, -0.713148715575167 
4.800000000002152, -0.7074091149673944 
4.810000000002129, -0.7005994236457729 
4.820000000002105, -0.693257920834547 
4.830000000002082, -0.6860699339283508 
4.840000000002059, -0.6796227612988176 
4.850000000002035, -0.6742573528477076 
4.860000000002012, -0.6700650593793599 
4.870000000001989, -0.6669645747698885 
4.880000000001965, -0.6647868883470952 
4.890000000001942, -0.6633366535982407 
4.900000000001919, -0.6624278234325769 
4.9100000000018955, -0.6619007944278138 
4.920000000001872, -0.6616280386894944 
