t, s[1].omega / s[0].omega 
0, -1.0799681178891327 
0.009999999999999995, -1.0765284761674627 
0.019999999999999934, -1.0726938766920349 
0.029999999999999874, -1.0686661628745606 
0.04000000000000012, -1.0647028067119582 
0.050000000000000405, -1.0610960883370177 
0.06000000000000069, -1.0581237070434617 
0.07000000000000098, -1.055968241049066 
0.08000000000000126, -1.054644751982393 
0.09000000000000155, -1.0539979339157302 
0.10000000000000184, -1.0537813316672386 
0.11000000000000212, -1.053756976674923 
0.12000000000000241, -1.053749472957263 
0.130000000000002, -1.053644643862325 
0.1400000000000009, -1.0533603025436846 
0.1499999999999998, -1.0528138084875864 
0.1599999999999987, -1.0518965941034681 
0.1699999999999976, -1.0504600436253222 
0.1799999999999965, -1.0483203502640157 
0.1899999999999954, -1.0452930281746675 
0.1999999999999943, -1.0412583209016941 
0.2099999999999932, -1.0362346878091566 
0.2199999999999921, -1.0304216559471964 
0.229999999999991, -1.0241900481372457 
0.2399999999999899, -1.0180281640612392 
0.2499999999999888, -1.0124582519901875 
0.2599999999999877, -1.0079259330756023 
0.2699999999999866, -1.004678996696129 
0.2799999999999855, -1.0026937842044312 
0.2899999999999844, -1.001711325527983 
0.2999999999999833, -1.0013691473367725 
0.3099999999999822, -1.0013372386989479 
0.3199999999999811, -1.0013836969641063 
0.32999999999998, -1.0013692706304074 
0.3399999999999789, -1.0012097245204525 
0.3499999999999778, -1.0008365794879635 
0.35999999999997667, -1.0001666596168273 
0.36999999999997557, -0.9990813164213186 
0.37999999999997447, -0.9974181218144752 
0.38999999999997337, -0.9949848017250023 
0.39999999999997227, -0.9916069138118333 
0.40999999999997117, -0.9872047926095977 
0.41999999999997006, -0.9818649311856934 
0.42999999999996896, -0.9758600705505642 
0.43999999999996786, -0.9696050174844819 
0.44999999999996676, -0.9635761010293526 
0.45999999999996566, -0.958224782214914 
0.46999999999996456, -0.9538950408080286 
0.47999999999996346, -0.9507524198341363 
0.48999999999996235, -0.9487521756331215 
0.49999999999996125, -0.9476751874522936 
0.5099999999999602, -0.9472208888965659 
0.519999999999959, -0.9471046607926908 
0.529999999999958, -0.9471123157510547 
0.5399999999999568, -0.9471047376797859 
0.5499999999999557, -0.946994416035371 
0.5599999999999546, -0.9467163310177907 
0.5699999999999535, -0.9462044819620099 
0.5799999999999524, -0.9453778252704794 
0.5899999999999513, -0.9441385639842043 
0.5999999999999502, -0.9423870796913203 
0.6099999999999491, -0.9400540669984556 
0.619999999999948, -0.9371380204079276 
0.6299999999999469, -0.9337251471923569 
0.6399999999999458, -0.929977015506924 
0.6499999999999447, -0.9260957784351482 
0.6599999999999436, -0.922289968071286 
0.6699999999999425, -0.9187532853559892 
0.6799999999999414, -0.9156518916467814 
0.6899999999999403, -0.9131101794388552 
0.6999999999999392, -0.9111920341986076 
0.7099999999999381, -0.909885864524227 
0.719999999999937, -0.909106639934833 
0.7299999999999359, -0.9087200631569173 
0.7399999999999348, -0.9085785192069477 
0.7499999999999337, -0.908550899931894 
0.7599999999999326, -0.9085354678695354 
0.7699999999999315, -0.9084573257252625 
0.7799999999999304, -0.9082587891369152 
0.7899999999999293, -0.9078907023715314 
0.7999999999999282, -0.9073097176213754 
0.8099999999999271, -0.9064831181634025 
0.819999999999926, -0.90539848663728 
0.8299999999999249, -0.9040712909854877 
0.8399999999999238, -0.9025435845762473 
0.8499999999999227, -0.9008736837169586 
0.8599999999999216, -0.8991239091288674 
0.8699999999999205, -0.8973536229023585 
0.8799999999999194, -0.8956189741798928 
0.8899999999999183, -0.8939757537161469 
0.8999999999999172, -0.8924808191524727 
0.9099999999999161, -0.8911893206482355 
0.919999999999915, -0.8901474314076087 
0.9299999999999139, -0.8893826601118373 
0.9399999999999128, -0.8888956575199778 
0.9499999999999117, -0.8886577658165462 
0.9599999999999106, -0.8886163799067933 
0.9699999999999095, -0.8887061451756006 
0.9799999999999084, -0.888861021941185 
0.9899999999999073, -0.8890228083754297 
0.9999999999999062, -0.8891449687215722 
1.0099999999999052, -0.8891934388647075 
1.019999999999904, -0.8891464626328199 
1.029999999999903, -0.8889939322529106 
1.039999999999902, -0.8887352545955236 
1.0499999999999008, -0.8883753071101932 
1.0599999999998997, -0.8879201719262312 
1.0699999999998986, -0.887375379329898 
1.0799999999998975, -0.8867477402778533 
1.0899999999998964, -0.8860492430854252 
1.0999999999998953, -0.8853006566093242 
1.1099999999998942, -0.8845336105206592 
1.119999999999893, -0.8837909726547233 
1.129999999999892, -0.8831251005297857 
1.1399999999998909, -0.8825929551074898 
1.1499999999998898, -0.8822477288120048 
1.1599999999998887, -0.8821287520330996 
1.1699999999998876, -0.8822533068672227 
1.1799999999998865, -0.8826136939944073 
1.1899999999998854, -0.8831804848938132 
1.1999999999998843, -0.8839101492875813 
1.2099999999998832, -0.8847538020114281 
1.219999999999882, -0.8856640042977306 
1.229999999999881, -0.8865978022907719 
1.2399999999998799, -0.8875157788387803 
1.2499999999998788, -0.8883785627409158 
1.2599999999998777, -0.8891438911897426 
1.2699999999998766, -0.8897679541884729 
1.2799999999998755, -0.8902125472489717 
1.2899999999998744, -0.8904547582481832 
1.2999999999998733, -0.8904928934097356 
1.3099999999998722, -0.8903451928106044 
1.319999999999871, -0.8900439902137036 
1.32999999999987, -0.8896310177042184 
1.3399999999998689, -0.8891577022324482 
1.3499999999998678, -0.8886904176078098 
1.3599999999998666, -0.8883170937266586 
1.3699999999998655, -0.8881490115358304 
1.3799999999998644, -0.8883114987983902 
1.3899999999998633, -0.8889220127713797 
1.3999999999998622, -0.8900627753437691 
1.4099999999998611, -0.8917606118008979 
1.41999999999986, -0.8939823936122757 
1.429999999999859, -0.8966437843942531 
1.4399999999998578, -0.8996218494733705 
1.4499999999998567, -0.9027639178397674 
1.4599999999998556, -0.9058932450426319 
1.4699999999998545, -0.9088201417573046 
1.4799999999998534, -0.9113677214452606 
1.4899999999998523, -0.9134091381980157 
1.4999999999998512, -0.9148962267154065 
1.5099999999998501, -0.915859038128985 
1.519999999999849, -0.9163774981600383 
1.529999999999848, -0.9165459058485377 
1.5399999999998468, -0.9164490218650186 
1.5499999999998457, -0.9161550798607392 
1.5599999999998446, -0.9157227222471997 
1.5699999999998435, -0.9152185178016369 
1.5799999999998424, -0.9147434960329395 
1.5899999999998413, -0.9144649545460506 
1.5999999999998402, -0.9146406414111288 
1.6099999999998391, -0.9156107057383954 
1.619999999999838, -0.9177344081446102 
1.629999999999837, -0.921277856094652 
1.6399999999998358, -0.9262995719415528 
1.6499999999998347, -0.932590009966648 
1.6599999999998336, -0.9396884636739049 
1.6699999999998325, -0.9469669890254053 
1.6799999999998314, -0.9537638792338639 
1.6899999999998303, -0.9595421625150433 
1.6999999999998292, -0.9640169726636028 
1.709999999999828, -0.9671832472431336 
1.719999999999827, -0.9692336483868343 
1.729999999999826, -0.9704336080878131 
1.7399999999998248, -0.9710273312165313 
1.7499999999998237, -0.9711981729650289 
1.7599999999998226, -0.9710676276517711 
1.7699999999998215, -0.9707118956510721 
1.7799999999998204, -0.970186036839537 
1.7899999999998193, -0.9695568790498298 
1.7999999999998182, -0.9689511818857861 
1.809999999999817, -0.9686199044453998 
1.819999999999816, -0.96899472440096 
1.8299999999998149, -0.9706741812657826 
1.8399999999998138, -0.9742700124073236 
1.8499999999998127, -0.980129732139156 
1.8599999999998116, -0.9880866750338766 
1.8699999999998105, -0.9974152949085905 
1.8799999999998094, -1.007036010015016 
1.8899999999998083, -1.0158625473993885 
1.8999999999998072, -1.023126285247661 
1.909999999999806, -1.0285345879022387 
1.919999999999805, -1.0322129608087214 
1.9299999999998039, -1.0345121117623826 
1.9399999999998028, -1.0358187305580742 
1.9499999999998017, -1.0364498117136218 
1.9599999999998006, -1.0366259218705154 
1.9699999999997995, -1.036485824268635 
1.9799999999997984, -1.0361146778832648 
1.9899999999997973, -1.035577152144478 
1.9999999999997962, -1.0349595141459074 
2.0099999999998173, -1.0344265692545669 
2.0199999999998384, -1.0342830566771268 
2.0299999999998595, -1.0349910208467645 
2.0399999999998806, -1.0370694554503366 
2.0499999999999017, -1.0408670306690433 
2.059999999999923, -1.046342627977836 
2.069999999999944, -1.0530275911534124 
2.079999999999965, -1.0601889310704948 
2.089999999999986, -1.0670637650174535 
2.100000000000007, -1.0730476793268677 
2.1100000000000283, -1.0777978313715721 
2.1200000000000494, -1.0812466967250143 
2.1300000000000705, -1.0835358173424399 
2.1400000000000916, -1.0849077308374813 
2.1500000000001127, -1.0856101493968746 
2.160000000000134, -1.0858439066853411 
2.170000000000155, -1.085752299467366 
2.180000000000176, -1.085435231431206 
2.190000000000197, -1.0849759983792833 
2.2000000000002182, -1.0844759726971582 
2.2100000000002393, -1.0840907557409811 
2.2200000000002604, -1.0840465773563905 
2.2300000000002815, -1.084602834976672 
2.2400000000003026, -1.0859530683987881 
2.2500000000003237, -1.0881245490634845 
2.260000000000345, -1.0909595089631243 
2.270000000000366, -1.094186018522366 
2.280000000000387, -1.0975110938931134 
2.290000000000408, -1.1006800281491638 
2.3000000000004293, -1.103497567231022 
2.3100000000004504, -1.1058320340291696 
2.3200000000004715, -1.1076172883252224 
2.3300000000004926, -1.1088518378915255 
2.3400000000005137, -1.1095876368944892 
2.3500000000005348, -1.1099079572726622 
2.360000000000556, -1.1099038712140814 
2.370000000000577, -1.109660261210732 
2.380000000000598, -1.1092556610765638 
2.390000000000619, -1.1087731181220344 
2.4000000000006403, -1.1083137185921257 
2.4100000000006614, -1.1079991950556791 
2.4200000000006825, -1.1079508846636146 
2.4300000000007036, -1.1082493437994176 
2.4400000000007247, -1.1089022181376358 
2.450000000000746, -1.1098455912270433 
2.460000000000767, -1.1109737678515936 
2.470000000000788, -1.112173162504743 
2.480000000000809, -1.1133440133417611 
2.49000000000083, -1.114408362747667 
2.5000000000008513, -1.1153093011284074 
2.5100000000008724, -1.116006968156928 
2.5200000000008935, -1.1164754092817983 
2.5300000000009146, -1.116702097572518 
2.5400000000009357, -1.1166892016352907 
2.550000000000957, -1.116454185247528 
2.560000000000978, -1.1160286005931408 
2.570000000000999, -1.1154565794471045 
2.58000000000102, -1.1147949992599115 
2.5900000000010412, -1.1141142011439835 
2.6000000000010624, -1.1134942981775335 
2.6100000000010835, -1.1130127642233993 
2.6200000000011046, -1.112726095304348 
2.6300000000011257, -1.1126549501227947 
2.6400000000011468, -1.1127799715968396 
2.650000000001168, -1.1130484250268236 
2.660000000001189, -1.1133880624040877 
2.67000000000121, -1.1137231327367085 
2.680000000001231, -1.1139866681644333 
2.6900000000012523, -1.1141260375629023 
2.7000000000012734, -1.1141034772498692 
2.7100000000012945, -1.11389489225966 
2.7200000000013156, -1.1134884919080004 
2.7300000000013367, -1.1128832658977896 
2.740000000001358, -1.1120876130598603 
2.750000000001379, -1.1111191956492916 
2.7600000000014, -1.1100067144426535 
2.770000000001421, -1.1087930523735288 
2.780000000001442, -1.1075379838594062 
2.7900000000014633, -1.1063177098169477 
2.8000000000014844, -1.1052183474351867 
2.8100000000015055, -1.104321702359367 
2.8200000000015266, -1.1036843815526463 
2.8300000000015477, -1.1033167849494296 
2.840000000001569, -1.1031747711908644 
2.85000000000159, -1.1031730476051531 
2.860000000001611, -1.1032123594084142 
2.870000000001632, -1.103201576012909 
2.8800000000016532, -1.103064363962349 
2.8900000000016743, -1.102734970064616 
2.9000000000016954, -1.1021533107078796 
2.9100000000017165, -1.1012663079458929 
2.9200000000017377, -1.1000360551983945 
2.9300000000017588, -1.0984497809102363 
2.94000000000178, -1.0965253084603779 
2.950000000001801, -1.0943103507890963 
2.960000000001822, -1.0918798596819668 
2.970000000001843, -1.0893362359326964 
2.9800000000018643, -1.0868119155862277 
2.9900000000018854, -1.0844668953566168 
3.0000000000019065, -1.0824695759241731 
3.0100000000019276, -1.080954234187863 
3.0200000000019487, -1.0799688900276125 
3.03000000000197, -1.079450333818665 
3.040000000001991, -1.0792524981167315 
3.050000000002012, -1.079207612024899 
3.060000000002033, -1.0791736871418123 
3.070000000002054, -1.0790456075914698 
3.0800000000020753, -1.0787400711802269 
3.0900000000020964, -1.0781734803747633 
3.1000000000021175, -1.0772454809886964 
3.1100000000021386, -1.0758356391532646 
3.1200000000021597, -1.0738188813537326 
3.130000000002181, -1.0710998838325991 
3.140000000002202, -1.0676545976903105 
3.150000000002223, -1.063558916041282 
3.160000000002244, -1.0589931568465714 
3.1700000000022652, -1.0542282011488782 
3.1800000000022863, -1.049601692935589 
3.1900000000023074, -1.0454772995859296 
3.2000000000023285, -1.0421713272841056 
3.2100000000023496, -1.0398556379445374 
3.2200000000023707, -1.0384927702898419 
3.230000000002392, -1.0378639218379981 
3.240000000002413, -1.0376773140114455 
3.250000000002434, -1.037675280261728 
3.260000000002455, -1.0376794289670852 
3.2700000000024763, -1.0375787461032793 
3.2800000000024974, -1.0372947214811208 
3.2900000000025185, -1.0367470472662967 
3.3000000000025396, -1.0358274538239067 
3.3100000000025607, -1.0343844975361527 
3.3200000000025818, -1.0322267494785486 
3.330000000002603, -1.0291566354713784 
3.340000000002624, -1.025039058396176 
3.350000000002645, -1.0198827109547763 
3.360000000002666, -1.0138901040949153 
3.3700000000026873, -1.007446909106081 
3.3800000000027084, -1.001059060546259 
3.3900000000027295, -0.9952605239338872 
3.4000000000027506, -0.9905027443958435 
3.4100000000027717, -0.9870414106556119 
3.420000000002793, -0.984868286233173 
3.430000000002814, -0.983741757246988 
3.440000000002835, -0.9833077415579508 
3.450000000002856, -0.9832318765148191 
3.460000000002877, -0.983270809340792 
3.4700000000028983, -0.9832745385093592 
3.4800000000029194, -0.9831533805524308 
3.4900000000029405, -0.98284023156997 
3.5000000000029616, -0.982260626188652 
3.5100000000029827, -0.9813125744123686 
3.520000000003004, -0.9798583106278906 
3.530000000003025, -0.977735411595203 
3.540000000003046, -0.974796116619632 
3.550000000003067, -0.9709706025410595 
3.5600000000030882, -0.9663250425443625 
3.5700000000031094, -0.9610765381049349 
3.5800000000031305, -0.9555553857010339 
3.5900000000031516, -0.9501411687644991 
3.6000000000031727, -0.9452012223045644 
3.6100000000031938, -0.9410372594287256 
3.620000000003215, -0.9378357553940571 
3.630000000003236, -0.9356313485222021 
3.640000000003257, -0.9343070854234508 
3.650000000003278, -0.9336432123633192 
3.6600000000032993, -0.9333924713233298 
3.6700000000033204, -0.9333418474331101 
3.6800000000033415, -0.9333374662960733 
3.6900000000033626, -0.933277615411486 
3.7000000000033837, -0.9330915858871032 
3.710000000003405, -0.9327184655260241 
3.720000000003426, -0.9320928636651434 
3.730000000003447, -0.9311411281309496 
3.740000000003468, -0.9297907960422347 
3.750000000003489, -0.9279926734365331 
3.7600000000035103, -0.925746357292437 
3.7700000000035314, -0.9231129658794881 
3.7800000000035525, -0.9202052122674097 
3.7900000000035736, -0.9171623283104398 
3.8000000000035947, -0.9141267138203949 
3.810000000003616, -0.9112317732967463 
3.820000000003637, -0.9085978750278875 
3.830000000003658, -0.9063280247307466 
3.840000000003679, -0.9044977885030716 
3.8500000000037002, -0.9031409368077238 
3.8600000000037213, -0.9022387336472886 
3.8700000000037424, -0.9017219847073381 
3.8800000000037635, -0.9014881939372923 
3.8900000000037847, -0.9014260610362992 
3.9000000000038058, -0.9014354419905832 
3.910000000003827, -0.9014360150041455 
3.920000000003848, -0.9013660810509435 
3.930000000003869, -0.9011774186606063 
3.94000000000389, -0.9008318701708304 
3.9500000000039113, -0.9003024893059448 
3.9600000000039324, -0.8995782020196261 
3.9700000000039535, -0.8986675375151492 
3.9800000000039746, -0.8975968763322968 
3.9900000000039957, -0.896403062823914 
4.000000000004016, -0.8951251639438735 
4.010000000003993, -0.8938003876794326 
4.02000000000397, -0.8924651426324479 
4.030000000003946, -0.891158571316427 
4.040000000003923, -0.8899251252530114 
4.0500000000039, -0.8888138845228969 
4.0600000000038765, -0.8878738536784058 
4.070000000003853, -0.8871460092894348 
4.08000000000383, -0.8866544008099542 
4.090000000003807, -0.8863995846165782 
4.100000000003783, -0.8863573226987432 
4.11000000000376, -0.8864834933007385 
4.120000000003737, -0.8867233344885858 
4.130000000003713, -0.8870213159440912 
4.14000000000369, -0.8873284666455105 
4.150000000003667, -0.8876061422177596 
4.1600000000036434, -0.887826923892414 
4.17000000000362, -0.8879734913173486 
4.180000000003597, -0.8880357583372975 
4.1900000000035735, -0.8880068723230142 
4.20000000000355, -0.8878799645414788 
4.210000000003527, -0.8876479420463669 
4.220000000003504, -0.8873067534792094 
4.23000000000348, -0.886859965774442 
4.240000000003457, -0.88632200367873 
4.250000000003434, -0.8857193624377313 
4.26000000000341, -0.8850908965421909 
4.270000000003387, -0.8844878867341197 
4.280000000003364, -0.8839727047524285 
4.2900000000033405, -0.8836137405179321 
4.300000000003317, -0.883475502741614 
4.310000000003294, -0.8836061390953749 
4.320000000003271, -0.8840273989657069 
4.330000000003247, -0.8847314727223232 
4.340000000003224, -0.8856854218068723 
4.350000000003201, -0.8868401335303758 
4.360000000003177, -0.8881393274699496 
4.370000000003154, -0.889525105412404 
4.380000000003131, -0.890938731317388 
4.390000000003107, -0.8923179908944281 
4.400000000003084, -0.8935951066419909 
4.410000000003061, -0.8947002795292096 
4.4200000000030375, -0.8955729985281116 
4.430000000003014, -0.8961764037362439 
4.440000000002991, -0.8965053617130385 
4.450000000002968, -0.8965829672835935 
4.460000000002944, -0.8964494183564969 
4.470000000002921, -0.8961518996007047 
4.480000000002898, -0.8957415457069171 
4.490000000002874, -0.8952787013418437 
4.500000000002851, -0.8948441390440868 
4.510000000002828, -0.894550950078281 
4.520000000002804, -0.8945485703177928 
4.530000000002781, -0.8950095838951414 
4.540000000002758, -0.8960965886232847 
4.5500000000027345, -0.8979198312844059 
4.560000000002711, -0.9005051007717807 
4.570000000002688, -0.903784674237523 
4.580000000002665, -0.9076078242646926 
4.590000000002641, -0.9117583998595238 
4.600000000002618, -0.9159730142391973 
4.610000000002595, -0.9199663601825436 
4.620000000002571, -0.9234743638266976 
4.630000000002548, -0.9263103781136455 
4.640000000002525, -0.9284057189727253 
4.6500000000025015, -0.9298058814188753 
4.660000000002478, -0.9306263789195685 
4.670000000002455, -0.9309999858639134 
4.6800000000024315, -0.9310420305620569 
4.690000000002408, -0.9308392760263189 
4.700000000002385, -0.9304559148547196 
4.710000000002362, -0.9299507713794 
4.720000000002338, -0.9294045929738074 
4.730000000002315, -0.9289578328946865 
4.740000000002292, -0.928852306169342 
4.750000000002268, -0.9294530274685826 
4.760000000002245, -0.9312112122775538 
4.770000000002222, -0.9345440589809243 
4.7800000000021985, -0.9396637248280436 
4.790000000002175, -0.9464415512580915 
4.800000000002152, -0.9543827492490587 
4.810000000002129, -0.9627253994426894 
4.820000000002105, -0.9706300801706911 
4.830000000002082, -0.9774029542989405 
4.840000000002059, -0.9826675390065832 
4.850000000002035, -0.9864008777792783 
4.860000000002012, -0.9888287783756949 
4.870000000001989, -0.9902685535773836 
4.880000000001965, -0.991012264038391 
4.890000000001942, -0.9912783482327729 
4.900000000001919, -0.9912105579544587 
4.9100000000018955, -0.9908971098810578 
4.920000000001872, -0.9903967917413439 
4.930000000001849, -0.9897723062370917 
