t, s[1].omega / s[0].omega 
0, -0.7699976640920095 
0.009999999999999995, -0.7697400759718854 
0.019999999999999934, -0.7694317675607175 
0.029999999999999874, -0.7690656345367983 
0.04000000000000012, -0.7686364009502125 
0.050000000000000405, -0.7681460450201936 
0.06000000000000069, -0.7676067196429402 
0.07000000000000098, -0.7670416325703813 
0.08000000000000126, -0.7664855994701288 
0.09000000000000155, -0.7659861980488243 
0.10000000000000184, -0.765604845041311 
0.11000000000000212, -0.7654160173903071 
0.12000000000000241, -0.7655029558975448 
0.130000000000002, -0.7659496086201869 
0.1400000000000009, -0.7668305625079895 
0.1499999999999998, -0.7682018261603762 
0.1599999999999987, -0.770094413276501 
0.1699999999999976, -0.7725100465968632 
0.1799999999999965, -0.7754157312847951 
0.1899999999999954, -0.7787337327927316 
0.1999999999999943, -0.7823277049446149 
0.2099999999999932, -0.7859948245956815 
0.2199999999999921, -0.7894823312374192 
0.229999999999991, -0.79254039677843 
0.2399999999999899, -0.794993388444177 
0.2499999999999888, -0.7967843824824599 
0.2599999999999877, -0.7979639076869345 
0.2699999999999866, -0.7986400835865746 
0.2799999999999855, -0.7989284145668144 
0.2899999999999844, -0.7989228637893452 
0.2999999999999833, -0.7986874891807557 
0.3099999999999822, -0.7982599993564456 
0.3199999999999811, -0.7976614780894739 
0.32999999999998, -0.7969122747846968 
0.3399999999999789, -0.7960594303436499 
0.3499999999999778, -0.7952250597765331 
0.35999999999997667, -0.7946844799425989 
0.36999999999997557, -0.7949678525274025 
0.37999999999997447, -0.7969346724739645 
0.38999999999997337, -0.8016954502720564 
0.39999999999997227, -0.8102147918302695 
0.40999999999997117, -0.8225977951774308 
0.41999999999997006, -0.8375310762186301 
0.42999999999996896, -0.8526214794481239 
0.43999999999996786, -0.8656228943922178 
0.44999999999996676, -0.8754481793838245 
0.45999999999996566, -0.8821832524020168 
0.46999999999996456, -0.8864974594477119 
0.47999999999996346, -0.8891276364905021 
0.48999999999996235, -0.8906530874767651 
0.49999999999996125, -0.8914637664683113 
0.5099999999999602, -0.8917978318426754 
0.519999999999959, -0.8917854548114301 
0.529999999999958, -0.8914789405680986 
0.5399999999999568, -0.8908662887366778 
0.5499999999999557, -0.8898691009635227 
0.5599999999999546, -0.8883253751071504 
0.5699999999999535, -0.8859584570747954 
0.5799999999999524, -0.8823409091094376 
0.5899999999999513, -0.8768853134638542 
0.5999999999999502, -0.8689393618317739 
0.6099999999999491, -0.8580980561304965 
0.619999999999948, -0.8447399073603199 
0.6299999999999469, -0.8304156148694816 
0.6399999999999458, -0.8174423256863349 
0.6499999999999447, -0.8077111949354038 
0.6599999999999436, -0.8017717076971481 
0.6699999999999425, -0.7989621072144868 
0.6799999999999414, -0.7981524804531779 
0.6899999999999403, -0.7983470221395238 
0.6999999999999392, -0.7988970189725209 
0.7099999999999381, -0.7994617716221565 
0.719999999999937, -0.7998956901167047 
0.7299999999999359, -0.8001513155379503 
0.7399999999999348, -0.8002180209308797 
0.7499999999999337, -0.8000882516440744 
0.7599999999999326, -0.7997390423331314 
0.7699999999999315, -0.7991203189090751 
0.7799999999999304, -0.7981468468014244 
0.7899999999999293, -0.7966968246233134 
0.7999999999999282, -0.7946267044345242 
0.8099999999999271, -0.7918135868539309 
0.819999999999926, -0.7882220823190181 
0.8299999999999249, -0.7839609760047048 
0.8399999999999238, -0.7792805849521082 
0.8499999999999227, -0.7745014815893116 
0.8599999999999216, -0.76992350290488 
0.8699999999999205, -0.7657691822372182 
0.8799999999999194, -0.7621731299673618 
0.8899999999999183, -0.7591967573749661 
0.8999999999999172, -0.7568469127551085 
0.9099999999999161, -0.7550896546025183 
0.919999999999915, -0.7538599963287806 
0.9299999999999139, -0.7530712476441964 
0.9399999999999128, -0.7526258664662742 
0.9499999999999117, -0.7524268221666625 
0.9599999999999106, -0.7523868847810755 
0.9699999999999095, -0.7524338492553257 
0.9799999999999084, -0.7525115915389629 
0.9899999999999073, -0.7525785252920133 
0.9999999999999062, -0.7526055658797703 
1.0099999999999052, -0.7525750153918086 
1.019999999999904, -0.75248023505091 
1.029999999999903, -0.7523244308030578 
1.039999999999902, -0.7521167581780761 
1.0499999999999008, -0.7518660457906955 
1.0599999999998997, -0.7515752048485685 
1.0699999999998986, -0.7512398850364518 
1.0799999999998975, -0.7508522336929093 
1.0899999999998964, -0.7504071602825328 
1.0999999999998953, -0.7499074988860133 
1.1099999999998942, -0.7493664511239114 
1.119999999999893, -0.7488082759424142 
1.129999999999892, -0.748269012705103 
1.1399999999998909, -0.7477979968711781 
1.1499999999998898, -0.747459375062858 
1.1599999999998887, -0.7473318606591363 
1.1699999999998876, -0.7475051035961695 
1.1799999999998865, -0.7480723040332464 
1.1899999999998854, -0.7491204392917794 
1.1999999999998843, -0.75072042442021 
1.2099999999998832, -0.7529186272314232 
1.219999999999882, -0.7557286361955696 
1.229999999999881, -0.759119811268248 
1.2399999999998799, -0.7629997468107518 
1.2499999999998788, -0.767194329859725 
1.2599999999998777, -0.7714416855369137 
1.2699999999998766, -0.775424784564246 
1.2799999999998755, -0.7788506103675876 
1.2899999999998744, -0.7815391538087378 
1.2999999999998733, -0.783461636047454 
1.3099999999998722, -0.7847070733602475 
1.319999999999871, -0.7854144719464877 
1.32999999999987, -0.7857172671406613 
1.3399999999998689, -0.7857167483172764 
1.3499999999998678, -0.785477152457926 
1.3599999999998666, -0.7850307506406696 
1.3699999999998655, -0.7843865219009033 
1.3799999999998644, -0.7835422282395524 
1.3899999999998633, -0.7825049593886718 
1.3999999999998622, -0.7813298639487799 
1.4099999999998611, -0.7801886681912097 
1.41999999999986, -0.7794692982634536 
1.429999999999859, -0.7798668139241773 
1.4399999999998578, -0.7823447017687084 
1.4499999999998567, -0.7877927427306617 
1.4599999999998556, -0.796385815352099 
1.4699999999998545, -0.8071264688825807 
1.4799999999998534, -0.8182027144137853 
1.4899999999998523, -0.8279654642321942 
1.4999999999998512, -0.8355949722236158 
1.5099999999998501, -0.8410594566643859 
1.519999999999849, -0.8447371219574942 
1.529999999999848, -0.8470961392321084 
1.5399999999998468, -0.8485374522864385 
1.5499999999998457, -0.849352259718772 
1.5599999999998446, -0.8497304431373106 
1.5699999999998435, -0.8497814764674961 
1.5799999999998424, -0.8495511334296543 
1.5899999999998413, -0.8490282265847598 
1.5999999999998402, -0.8481391653570013 
1.6099999999998391, -0.8467286063800012 
1.619999999999838, -0.8445260019277944 
1.629999999999837, -0.8411068593092942 
1.6399999999998358, -0.8358842078743921 
1.6499999999998347, -0.8282116711328108 
1.6599999999998336, -0.817691487374353 
1.6699999999998325, -0.8046273234326959 
1.6799999999998314, -0.7902523729175126 
1.6899999999998303, -0.7763539542523351 
1.6999999999998292, -0.7644962196841232 
1.709999999999828, -0.7554720982411084 
1.719999999999827, -0.7492825617348681 
1.729999999999826, -0.7454390839572497 
1.7399999999998248, -0.743291023102725 
1.7499999999998237, -0.7422374248994441 
1.7599999999998226, -0.7418164461375865 
1.7699999999998215, -0.7417142313686299 
1.7799999999998204, -0.741735966576858 
1.7899999999998193, -0.741767668946214 
1.7999999999998182, -0.7417427931614643 
1.809999999999817, -0.7416180037160842 
1.819999999999816, -0.7413579392059907 
1.8299999999998149, -0.740927949545901 
1.8399999999998138, -0.7402945387906905 
1.8499999999998127, -0.7394333004185365 
1.8599999999998116, -0.7383414649625698 
1.8699999999998105, -0.7370474824593851 
1.8799999999998094, -0.7356089076532183 
1.8899999999998083, -0.7340972351556161 
1.8999999999998072, -0.7325787772466417 
1.909999999999806, -0.7311028096906423 
1.919999999999805, -0.7297008138755294 
1.9299999999998039, -0.7283929229721711 
1.9399999999998028, -0.7271956749114218 
1.9499999999998017, -0.7261273540203541 
1.9599999999998006, -0.725209909243854 
1.9699999999997995, -0.7244679407553771 
1.9799999999997984, -0.7239257359839748 
1.9899999999997973, -0.7236034906752463 
1.9999999999997962, -0.7235139411940058 
2.0099999999998173, -0.7236605116059088 
2.0199999999998384, -0.7240375800561897 
2.0299999999998595, -0.7246326918941184 
2.0399999999998806, -0.7254297885944767 
2.0499999999999017, -0.7264120240414307 
2.059999999999923, -0.7275625501435935 
2.069999999999944, -0.7288617953795047 
2.079999999999965, -0.7302805943669199 
2.089999999999986, -0.7317707715722945 
2.100000000000007, -0.7332584970913739 
2.1100000000000283, -0.7346483808137656 
2.1200000000000494, -0.7358426226978081 
2.1300000000000705, -0.736768022616587 
2.1400000000000916, -0.7373943104444785 
2.1500000000001127, -0.7377328455608357 
2.160000000000134, -0.7378203448785785 
2.170000000000155, -0.7377006066421539 
2.180000000000176, -0.7374132649119038 
2.190000000000197, -0.7369915562952338 
2.2000000000002182, -0.7364680604999524 
2.2100000000002393, -0.7358883581109325 
2.2200000000002604, -0.7353349237311171 
2.2300000000002815, -0.7349650535238326 
2.2400000000003026, -0.7350646144377035 
2.2500000000003237, -0.7361096376784528 
2.260000000000345, -0.7388047737574719 
2.270000000000366, -0.7440303147843965 
2.280000000000387, -0.7525988778795477 
2.290000000000408, -0.7647730605345431 
2.3000000000004293, -0.7797352324506556 
2.3100000000004504, -0.7955329967152779 
2.3200000000004715, -0.8098727288624094 
2.3300000000004926, -0.8212313231605197 
2.3400000000005137, -0.8292998606401074 
2.3500000000005348, -0.834600480470644 
2.360000000000556, -0.8379002632938901 
2.370000000000577, -0.8398660255902703 
2.380000000000598, -0.8409696237389687 
2.390000000000619, -0.8415099933481374 
2.4000000000006403, -0.8416604619906906 
2.4100000000006614, -0.8415066639219837 
2.4200000000006825, -0.8410678290149098 
2.4300000000007036, -0.8403019793382024 
2.4400000000007247, -0.8390956468365195 
2.450000000000746, -0.8372373659806909 
2.460000000000767, -0.8343757992123877 
2.470000000000788, -0.8299755125622946 
2.480000000000809, -0.8233193767622031 
2.49000000000083, -0.8136688746580463 
2.5000000000008513, -0.8007059815641661 
2.5100000000008724, -0.7851400848471728 
2.5200000000008935, -0.7688893840172769 
2.5300000000009146, -0.7543200158812404 
2.5400000000009357, -0.7430674378619758 
2.550000000000957, -0.7354993657743368 
2.560000000000978, -0.731035047461454 
2.570000000000999, -0.7287473836069573 
2.58000000000102, -0.7277828732621717 
2.5900000000010412, -0.7275204988238444 
2.6000000000010624, -0.7275698216902245 
2.6100000000010835, -0.7277100778341002 
2.6200000000011046, -0.727825678701181 
2.6300000000011257, -0.727857320943226 
2.6400000000011468, -0.7277701230959461 
2.650000000001168, -0.7275346319189379 
2.660000000001189, -0.7271168105907486 
2.67000000000121, -0.7264755006441787 
2.680000000001231, -0.7255681463584104 
2.6900000000012523, -0.7243654231341653 
2.7000000000012734, -0.7228705632545231 
2.7100000000012945, -0.7211318201265584 
2.7200000000013156, -0.7192361900829389 
2.7300000000013367, -0.7172853075448979 
2.740000000001358, -0.7153688077558444 
2.750000000001379, -0.7135500997065902 
2.7600000000014, -0.7118671842516571 
2.770000000001421, -0.7103416513187419 
2.780000000001442, -0.7089881825872908 
2.7900000000014633, -0.7078205650777477 
2.8000000000014844, -0.7068536098944634 
2.8100000000015055, -0.706102015333801 
2.8200000000015266, -0.7055776496359759 
2.8300000000015477, -0.7052866853787165 
2.840000000001569, -0.7052277684343699 
2.85000000000159, -0.7053919363690105 
2.860000000001611, -0.7057643476889246 
2.870000000001632, -0.7063272324776586 
2.8800000000016532, -0.7070630288420433 
2.8900000000016743, -0.7079564656354977 
2.9000000000016954, -0.708994286296987 
2.9100000000017165, -0.7101614317536599 
2.9200000000017377, -0.7114333319806475 
2.9300000000017588, -0.7127662700103585 
2.94000000000178, -0.7140913843152036 
2.950000000001801, -0.7153198595300868 
2.960000000001822, -0.7163622871321382 
2.970000000001843, -0.7171538829141423 
2.9800000000018643, -0.7176699042319235 
2.9900000000018854, -0.7179226841308213 
3.0000000000019065, -0.7179460750092762 
3.0100000000019276, -0.7177792360489552 
3.0200000000019487, -0.7174572881610268 
3.03000000000197, -0.7170102153707565 
3.040000000001991, -0.7164691792966618 
3.050000000002012, -0.7158806254567105 
3.060000000002033, -0.7153308781810881 
3.070000000002054, -0.7149853449115442 
3.0800000000020753, -0.7151443824755711 
3.0900000000020964, -0.716307534336398 
3.1000000000021175, -0.7192122572726897 
3.1100000000021386, -0.7247697151022773 
3.1200000000021597, -0.733784518338797 
3.130000000002181, -0.7464149179011793 
3.140000000002202, -0.7616343783738773 
3.150000000002223, -0.7773085716638185 
3.160000000002244, -0.7911693598455957 
3.1700000000022652, -0.8019109296693546 
3.1800000000022863, -0.8094372534533244 
3.1900000000023074, -0.8143579922454066 
3.2000000000023285, -0.8174283315126596 
3.2100000000023496, -0.8192696559610331 
3.2200000000023707, -0.8203122993573257 
3.230000000002392, -0.8208270586536154 
3.240000000002413, -0.8209704304862386 
3.250000000002434, -0.8208183181614113 
3.260000000002455, -0.8203838519913388 
3.2700000000024763, -0.8196200323130656 
3.2800000000024974, -0.8184073685580806 
3.2900000000025185, -0.8165257205921769 
3.3000000000025396, -0.8136128924303565 
3.3100000000025607, -0.8091290264728179 
3.3200000000025818, -0.8023870006728882 
3.330000000002603, -0.7927600610921977 
3.340000000002624, -0.7801306913015021 
3.350000000002645, -0.7653518422112837 
3.360000000002666, -0.7501898593349505 
3.3700000000026873, -0.736571963301858 
3.3800000000027084, -0.7257499408423979 
3.3900000000027295, -0.718028296158048 
3.4000000000027506, -0.7130248298210768 
3.4100000000027717, -0.7100706800840947 
3.420000000002793, -0.7084966147409634 
3.430000000002814, -0.7077650481752766 
3.440000000002835, -0.7074970629092356 
3.450000000002856, -0.7074489888374467 
3.460000000002877, -0.7074740357271126 
3.4700000000028983, -0.7074864792629294 
3.4800000000029194, -0.7074344581504737 
3.4900000000029405, -0.7072818706103516 
3.5000000000029616, -0.7069982056607275 
3.5100000000029827, -0.7065554576608157 
3.520000000003004, -0.7059317044003572 
3.530000000003025, -0.7051197177916942 
3.540000000003046, -0.7041356621324142 
3.550000000003067, -0.7030205467294587 
3.5600000000030882, -0.7018305682202575 
3.5700000000031094, -0.7006210221084839 
3.5800000000031305, -0.6994335138992626 
3.5900000000031516, -0.6982925520465895 
3.6000000000031727, -0.6972103197722479 
3.6100000000031938, -0.6961945621822816 
3.620000000003215, -0.6952553092663457 
3.630000000003236, -0.6944087561541101 
3.640000000003257, -0.6936785003366507 
3.650000000003278, -0.6930948582525494 
3.6600000000032993, -0.6926928034346221 
3.6700000000033204, -0.6925089491689678 
3.6800000000033415, -0.6925781770464657 
3.6900000000033626, -0.6929307488753307 
3.7000000000033837, -0.6935906722695206 
3.710000000003405, -0.6945755467418724 
3.720000000003426, -0.6958971975338655 
3.730000000003447, -0.6975613686429016 
3.740000000003468, -0.6995639350213395 
3.750000000003489, -0.7018811366384969 
3.7600000000035103, -0.7044535393531621 
3.7700000000035314, -0.7071693560281601 
3.7800000000035525, -0.7098611601758898 
3.7900000000035736, -0.7123318517254593 
3.8000000000035947, -0.7144085450772952 
3.810000000003616, -0.7159944577431959 
3.820000000003637, -0.7170837318237362 
3.830000000003658, -0.7177353416182012 
3.840000000003679, -0.7180322230372977 
3.8500000000037002, -0.7180503353535255 
3.8600000000037213, -0.7178443249496763 
3.8700000000037424, -0.7174449161345888 
3.8800000000037635, -0.7168620134817496 
3.8900000000037847, -0.7160908411208561 
3.9000000000038058, -0.7151222137953583 
3.910000000003827, -0.7139612511911784 
3.920000000003848, -0.7126606647254653 
3.930000000003869, -0.7113711176484042 
3.94000000000389, -0.7103923286350048 
3.9500000000039113, -0.7101660153251463 
3.9600000000039324, -0.7111168927407487 
3.9700000000039535, -0.713343752162589 
3.9800000000039746, -0.7164471420036727 
3.9900000000039957, -0.7198117170849789 
4.000000000004016, -0.7230427540924507 
4.010000000003993, -0.7260094014537603 
4.02000000000397, -0.728639285062413 
4.030000000003946, -0.7308478657109195 
4.040000000003923, -0.7325869036904927 
4.0500000000039, -0.7338703708277141 
4.0600000000038765, -0.7347551799617551 
4.070000000003853, -0.7353105703272288 
4.08000000000383, -0.7355964649783717 
4.090000000003807, -0.7356525306256452 
4.100000000003783, -0.7354931662455481 
4.11000000000376, -0.7351039857247105 
4.120000000003737, -0.7344376481408609 
4.130000000003713, -0.7334099965336894 
4.14000000000369, -0.7319020566341192 
4.150000000003667, -0.7297789121715454 
4.1600000000036434, -0.726936412123455 
4.17000000000362, -0.7233689677227179 
4.180000000003597, -0.7192184358616414 
4.1900000000035735, -0.7147553921146058 
4.20000000000355, -0.710294101383762 
4.210000000003527, -0.7061009030525814 
4.220000000003504, -0.7023491353998021 
4.23000000000348, -0.699123170401218 
4.240000000003457, -0.6964444783200692 
4.250000000003434, -0.6942969129870505 
4.26000000000341, -0.6926430197272259 
4.270000000003387, -0.6914324951968944 
4.280000000003364, -0.6906066422453463 
4.2900000000033405, -0.6901019084319705 
4.300000000003317, -0.6898538377724491 
4.310000000003294, -0.6898012782783242 
4.320000000003271, -0.6898900175716862 
4.330000000003247, -0.6900751762067261 
4.340000000003224, -0.6903222716858634 
4.350000000003201, -0.6906073196764255 
4.360000000003177, -0.6909162572072556 
4.370000000003154, -0.6912433475740951 
4.380000000003131, -0.6915876237833067 
4.390000000003107, -0.6919468239112712 
4.400000000003084, -0.6923101632487362 
4.410000000003061, -0.6926536113818866 
4.4200000000030375, -0.6929416899269082 
4.430000000003014, -0.693136487805526 
4.440000000002991, -0.693209310844207 
4.450000000002968, -0.6931481520789193 
4.460000000002944, -0.6929578091746759 
4.470000000002921, -0.6926552400560109 
4.480000000002898, -0.6922651965772406 
4.490000000002874, -0.6918198108304157 
4.500000000002851, -0.6913636430388713 
4.510000000002828, -0.690964607880466 
4.520000000002804, -0.6907308445153889 
4.530000000002781, -0.6908328016554719 
4.540000000002758, -0.6915275234237687 
4.5500000000027345, -0.6931776322409894 
4.560000000002711, -0.696250335054472 
4.570000000002688, -0.7012719341953145 
4.580000000002665, -0.7087043100110195 
4.590000000002641, -0.7187187679980254 
4.600000000002618, -0.7309102764141131 
4.610000000002595, -0.7441433867088885 
4.620000000002571, -0.7568062810307309 
4.630000000002548, -0.7674738668195422 
4.640000000002525, -0.7754849548317553 
4.6500000000025015, -0.78097262985108 
4.660000000002478, -0.7844856819938381 
4.670000000002455, -0.786618906280549 
4.6800000000024315, -0.7878395988465222 
4.690000000002408, -0.7884613397663035 
4.700000000002385, -0.7886736946663035 
4.710000000002362, -0.788576940662299 
4.720000000002338, -0.7882051573524879 
4.730000000002315, -0.7875350116413268 
4.740000000002292, -0.7864803396395611 
4.750000000002268, -0.7848716902870647 
4.760000000002245, -0.7824198557067013 
4.770000000002222, -0.7786689948810245 
4.7800000000021985, -0.7729702413764884 
4.790000000002175, -0.7645631499676508 
4.800000000002152, -0.7529030100009569 
4.810000000002129, -0.7382424826819715 
4.820000000002105, -0.7220318470441469 
4.830000000002082, -0.7064946655098815 
4.840000000002059, -0.6935360688862577 
4.850000000002035, -0.6839812847180475 
4.860000000002012, -0.6776418456589816 
4.870000000001989, -0.6738129239477993 
4.880000000001965, -0.6717078525971066 
4.890000000001942, -0.6706745539697265 
4.900000000001919, -0.6702489409365627 
4.9100000000018955, -0.6701313248400026 
4.920000000001872, -0.6701408632316286 
