t, s[1].omega / s[0].omega 
0, -1.3399796975893694 
0.009999999999999995, -1.3376530109325346 
0.019999999999999934, -1.3347357684685235 
0.029999999999999874, -1.3312853525877695 
0.04000000000000012, -1.3274920449445275 
0.050000000000000405, -1.3237387187157696 
0.06000000000000069, -1.3205694971815571 
0.07000000000000098, -1.318454057187028 
0.08000000000000126, -1.3174671234753152 
0.09000000000000155, -1.3172579579976227 
0.10000000000000184, -1.3173581567466106 
0.11000000000000212, -1.3174393927158412 
0.12000000000000241, -1.3173343198583691 
0.130000000000002, -1.316943452433872 
0.1400000000000009, -1.3161403971238064 
0.1499999999999998, -1.3146868456824754 
0.1599999999999987, -1.3121320671941517 
0.1699999999999976, -1.3076970425184657 
0.1799999999999965, -1.3002627890502039 
0.1899999999999954, -1.2888679163823904 
0.1999999999999943, -1.274265466378476 
0.2099999999999932, -1.2606526013311687 
0.2199999999999921, -1.2538307642125126 
0.229999999999991, -1.2554877431586464 
0.2399999999999899, -1.26178719662357 
0.2499999999999888, -1.2682266758044138 
0.2599999999999877, -1.2728562092921423 
0.2699999999999866, -1.2756454595745061 
0.2799999999999855, -1.2771304331976492 
0.2899999999999844, -1.2777885357231964 
0.2999999999999833, -1.277917713654068 
0.3099999999999822, -1.27767116684818 
0.3199999999999811, -1.2771125120479507 
0.32999999999998, -1.2762768759980516 
0.3399999999999789, -1.2752732439839376 
0.3499999999999778, -1.2744672838987738 
0.35999999999997667, -1.2746626523802644 
0.36999999999997557, -1.2769259897841974 
0.37999999999997447, -1.281815500732208 
0.38999999999997337, -1.2887306915855674 
0.39999999999997227, -1.2962856748570164 
0.40999999999997117, -1.3032065219264355 
0.41999999999997006, -1.3087970693899675 
0.42999999999996896, -1.3128897162165614 
0.43999999999996786, -1.3156294791570446 
0.44999999999996676, -1.317289074866693 
0.45999999999996566, -1.3181521688449247 
0.46999999999996456, -1.3184555893597953 
0.47999999999996346, -1.3183753337211457 
0.48999999999996235, -1.3180405805299005 
0.49999999999996125, -1.3175618191271756 
0.5099999999999602, -1.3170584486450476 
0.519999999999959, -1.316664232711981 
0.529999999999958, -1.316494119621887 
0.5399999999999568, -1.3165948329614203 
0.5499999999999557, -1.3169300331987555 
0.5599999999999546, -1.3174099482814943 
0.5699999999999535, -1.3179289024381382 
0.5799999999999524, -1.3183883907948806 
0.5899999999999513, -1.3187078301061843 
0.5999999999999502, -1.3188266557663246 
0.6099999999999491, -1.318700712386206 
0.619999999999948, -1.3182978396376162 
0.6299999999999469, -1.3175957754022956 
0.6399999999999458, -1.3165824627207237 
0.6499999999999447, -1.3152584453398553 
0.6599999999999436, -1.3136425503893487 
0.6699999999999425, -1.3117829197680975 
0.6799999999999414, -1.3097740497404713 
0.6899999999999403, -1.3077744867050427 
0.6999999999999392, -1.3060039584281546 
0.7099999999999381, -1.3046826351824916 
0.719999999999937, -1.3039130289568879 
0.7299999999999359, -1.303605862147992 
0.7399999999999348, -1.3035440519801833 
0.7499999999999337, -1.3035102084795807 
0.7599999999999326, -1.3033472440081233 
0.7699999999999315, -1.302935200476759 
0.7799999999999304, -1.3021333430287947 
0.7899999999999293, -1.3007146264261213 
0.7999999999999282, -1.2982944469147857 
0.8099999999999271, -1.2942653787537546 
0.819999999999926, -1.2878020360186604 
0.8299999999999249, -1.2780900112359206 
0.8399999999999238, -1.2649674529137285 
0.8499999999999227, -1.249857114538264 
0.8599999999999216, -1.236003452932683 
0.8699999999999205, -1.2267579051758601 
0.8799999999999194, -1.223015500377641 
0.8899999999999183, -1.222995431007882 
0.8999999999999172, -1.2243670002450304 
0.9099999999999161, -1.2257474679398839 
0.919999999999915, -1.2266827081336729 
0.9299999999999139, -1.2271472080138701 
0.9399999999999128, -1.227215897167426 
0.9499999999999117, -1.2269363431021127 
0.9599999999999106, -1.2262903042464752 
0.9699999999999095, -1.2251802639020637 
0.9799999999999084, -1.2234327897159036 
0.9899999999999073, -1.2208728452306332 
0.9999999999999062, -1.2176166580087375 
1.0099999999999052, -1.2147395172278161 
1.019999999999904, -1.2149104948717382 
1.029999999999903, -1.2213936003845114 
1.039999999999902, -1.2348074567398257 
1.0499999999999008, -1.2515204620336196 
1.0599999999998997, -1.2666867635820085 
1.0699999999998986, -1.2777681615413796 
1.0799999999998975, -1.2847789753004986 
1.0899999999998964, -1.288807643554096 
1.0999999999998953, -1.2909461909474609 
1.1099999999998942, -1.2919570194587486 
1.119999999999893, -1.2922956593565342 
1.129999999999892, -1.2922143985224366 
1.1399999999998909, -1.2918554027388285 
1.1499999999998898, -1.29132824100678 
1.1599999999998887, -1.2907858482851036 
1.1699999999998876, -1.2904856069052526 
1.1799999999998865, -1.290762934330378 
1.1899999999998854, -1.2918594102016838 
1.1999999999998843, -1.293735677267725 
1.2099999999998832, -1.2960905401449643 
1.219999999999882, -1.2985539743955976 
1.229999999999881, -1.3008405739723907 
1.2399999999998799, -1.3027838382947436 
1.2499999999998788, -1.304307960784367 
1.2599999999998777, -1.3053936749804456 
1.2699999999998766, -1.3060560059646913 
1.2799999999998755, -1.3063317670330137 
1.2899999999998744, -1.3062712328909178 
1.2999999999998733, -1.3059319465701684 
1.3099999999998722, -1.3053764894867892 
1.319999999999871, -1.3046756235368666 
1.32999999999987, -1.3039128490620508 
1.3399999999998689, -1.3031815009384637 
1.3499999999998678, -1.302570021782591 
1.3599999999998666, -1.3021426450115645 
1.3699999999998655, -1.3019233832159556 
1.3799999999998644, -1.3018847463886778 
1.3899999999998633, -1.3019497838671696 
1.3999999999998622, -1.302015030764976 
1.4099999999998611, -1.3019779645622604 
1.41999999999986, -1.3017468946301824 
1.429999999999859, -1.301233143511913 
1.4399999999998578, -1.3003400933852869 
1.4499999999998567, -1.2989610286602635 
1.4599999999998556, -1.29698965915056 
1.4699999999998545, -1.2943411641341924 
1.4799999999998534, -1.2909810455957955 
1.4899999999998523, -1.286965225032899 
1.4999999999998512, -1.282498286588178 
1.5099999999998501, -1.2779936275768127 
1.519999999999849, -1.2740526237388927 
1.529999999999848, -1.2712452244142831 
1.5399999999998468, -1.269763213625518 
1.5499999999998457, -1.269306577753761 
1.5599999999998446, -1.2693582903189813 
1.5699999999998435, -1.269505365842845 
1.5799999999998424, -1.269525259028319 
1.5899999999998413, -1.2693099851520833 
1.5999999999998402, -1.2687684171035998 
1.6099999999998391, -1.267747332877883 
1.619999999999838, -1.265952495168866 
1.629999999999837, -1.262848547482252 
1.6399999999998358, -1.2575606647305029 
1.6499999999998347, -1.2489380754643706 
1.6599999999998336, -1.236185537647724 
1.6699999999998325, -1.2203819401912468 
1.6799999999998314, -1.2056700654678527 
1.6899999999998303, -1.1971490057994942 
1.6999999999998292, -1.1962814517908356 
1.709999999999828, -1.2000753712139907 
1.719999999999827, -1.2047859064556832 
1.729999999999826, -1.2084940050155044 
1.7399999999998248, -1.2108718499116278 
1.7499999999998237, -1.2121992054024564 
1.7599999999998226, -1.2128105477103932 
1.7699999999998215, -1.2129359636848933 
1.7799999999998204, -1.2126946011338364 
1.7899999999998193, -1.2121204964454058 
1.7999999999998182, -1.2111936076811092 
1.809999999999817, -1.209898271151354 
1.819999999999816, -1.2083713595067436 
1.8299999999998149, -1.2072046410226527 
1.8399999999998138, -1.2077638824366785 
1.8499999999998127, -1.2119079677954678 
1.8599999999998116, -1.2206180882594204 
1.8699999999998105, -1.23271779791798 
1.8799999999998094, -1.245493584427532 
1.8899999999998083, -1.2565323528410903 
1.8999999999998072, -1.264755605235834 
1.909999999999806, -1.2702338629225003 
1.919999999999805, -1.2735685754215362 
1.9299999999998039, -1.2754244559490657 
1.9399999999998028, -1.27632524684446 
1.9499999999998017, -1.2766217293152933 
1.9599999999998006, -1.2765305497296957 
1.9699999999997995, -1.2761896031701159 
1.9799999999997984, -1.2757139165279379 
1.9899999999997973, -1.275246947058861 
1.9999999999997962, -1.2749850247015637 
2.0099999999998173, -1.2751337883359548 
2.0199999999998384, -1.2758010039805943 
2.0299999999998595, -1.2769257370589309 
2.0399999999998806, -1.2783229857434182 
2.0499999999999017, -1.2797855333818906 
2.059999999999923, -1.2811500502148376 
2.069999999999944, -1.282310616887358 
2.079999999999965, -1.2832073965221449 
2.089999999999986, -1.2838117854046305 
2.100000000000007, -1.2841156022472267 
2.1100000000000283, -1.2841251460917136 
2.1200000000000494, -1.2838585148462334 
2.1300000000000705, -1.2833445815472448 
2.1400000000000916, -1.282623538733836 
2.1500000000001127, -1.2817496211111075 
2.160000000000134, -1.2807943979731171 
2.170000000000155, -1.2798458343185735 
2.180000000000176, -1.2789993058396973 
2.190000000000197, -1.2783407171925956 
2.2000000000002182, -1.2779220267611104 
2.2100000000002393, -1.2777348830523612 
2.2200000000002604, -1.2777044351084235 
2.2300000000002815, -1.2777170707101153 
2.2400000000003026, -1.2776578776075669 
2.2500000000003237, -1.2774255848280243 
2.260000000000345, -1.2769223984643046 
2.270000000000366, -1.2760360623786418 
2.280000000000387, -1.2746298967385186 
2.290000000000408, -1.2725496232169373 
2.3000000000004293, -1.269649743533907 
2.3100000000004504, -1.2658369030880536 
2.3200000000004715, -1.2611274480301686 
2.3300000000004926, -1.2557206964724497 
2.3400000000005137, -1.2500748583206898 
2.3500000000005348, -1.244907777104175 
2.360000000000556, -1.2409828676810348 
2.370000000000577, -1.2386931627829663 
2.380000000000598, -1.2378182710572265 
2.390000000000619, -1.2377607344013486 
2.4000000000006403, -1.2379677419077686 
2.4100000000006614, -1.2381180928846423 
2.4200000000006825, -1.2380695643888315 
2.4300000000007036, -1.237746703793068 
2.4400000000007247, -1.237053436751658 
2.450000000000746, -1.2358040626731397 
2.460000000000767, -1.2336450017610343 
2.470000000000788, -1.2299565418293066 
2.480000000000809, -1.22378842576884 
2.49000000000083, -1.2140476105687656 
2.5000000000008513, -1.2003516199104318 
2.5100000000008724, -1.1845531580625388 
2.5200000000008935, -1.171178494594281 
2.5300000000009146, -1.164496438883801 
2.5400000000009357, -1.1647409192971685 
2.550000000000957, -1.1686660579968005 
2.560000000000978, -1.173040965420067 
2.570000000000999, -1.176385939335698 
2.58000000000102, -1.178514839008033 
2.5900000000010412, -1.179698338782172 
2.6000000000010624, -1.1802311499596125 
2.6100000000010835, -1.1803115748107544 
2.6200000000011046, -1.1800377598678145 
2.6300000000011257, -1.179427318427626 
2.6400000000011468, -1.1784392613019599 
2.650000000001168, -1.1770176793216411 
2.660000000001189, -1.175217115498798 
2.67000000000121, -1.1734978712706872 
2.680000000001231, -1.1731515167888669 
2.6900000000012523, -1.17632465205543 
2.7000000000012734, -1.184795959526881 
2.7100000000012945, -1.1980624675347553 
2.7200000000013156, -1.2131481332611886 
2.7300000000013367, -1.2267121510787962 
2.740000000001358, -1.2369565456508693 
2.750000000001379, -1.2437695772011323 
2.7600000000014, -1.247893032299443 
2.770000000001421, -1.2501942042063159 
2.780000000001442, -1.2513490639451632 
2.7900000000014633, -1.2517981265963078 
2.8000000000014844, -1.2518026528767405 
2.8100000000015055, -1.251515328337125 
2.8200000000015266, -1.251044807739531 
2.8300000000015477, -1.250518402445569 
2.840000000001569, -1.2501370927165607 
2.85000000000159, -1.2501784632356416 
2.860000000001611, -1.2508925715318315 
2.870000000001632, -1.2523416349902219 
2.8800000000016532, -1.2543493051945438 
2.8900000000016743, -1.2566136755997501 
2.9000000000016954, -1.258851898814909 
2.9100000000017165, -1.2608671141196668 
2.9200000000017377, -1.2625465839263728 
2.9300000000017588, -1.2638376842042143 
2.94000000000178, -1.2647275177370818 
2.950000000001801, -1.2652308187040249 
2.960000000001822, -1.2653824175606836 
2.970000000001843, -1.2652306218508578 
2.9800000000018643, -1.2648317774480284 
2.9900000000018854, -1.264248904148348 
3.0000000000019065, -1.263555072516641 
3.0100000000019276, -1.2628361280333924 
3.0200000000019487, -1.2621839770766434 
3.03000000000197, -1.2616785990018449 
3.040000000001991, -1.2613686064662226 
3.050000000002012, -1.2612593457328534 
3.060000000002033, -1.2613096237094472 
3.070000000002054, -1.2614403485480388 
3.0800000000020753, -1.2615559864476769 
3.0900000000020964, -1.2615656077520625 
3.1000000000021175, -1.2613901594128296 
3.1100000000021386, -1.2609582147310858 
3.1200000000021597, -1.2602011118304852 
3.130000000002181, -1.2590546746356315 
3.140000000002202, -1.2574674641495913 
3.150000000002223, -1.2554116081300726 
3.160000000002244, -1.252894166898486 
3.1700000000022652, -1.2499722777504554 
3.1800000000022863, -1.2467770895070762 
3.1900000000023074, -1.2435417464712593 
3.2000000000023285, -1.240602207407492 
3.2100000000023496, -1.238315216939992 
3.2200000000023707, -1.2368863616247916 
3.230000000002392, -1.2362412355368706 
3.240000000002413, -1.236090941186022 
3.250000000002434, -1.2361207068468127 
3.260000000002455, -1.236109012942994 
3.2700000000024763, -1.2359240833185643 
3.2800000000024974, -1.2354641609097026 
3.2900000000025185, -1.2345926943472323 
3.3000000000025396, -1.2330743200359764 
3.3100000000025607, -1.2305032168836347 
3.3200000000025818, -1.2262352379424608 
3.330000000002603, -1.2193955147955615 
3.340000000002624, -1.2091290024700703 
3.350000000002645, -1.1952756329147927 
3.360000000002666, -1.1792815872352682 
3.3700000000026873, -1.164349488811655 
3.3800000000027084, -1.1538078319548233 
3.3900000000027295, -1.1487990574497047 
3.4000000000027506, -1.1479162527761502 
3.4100000000027717, -1.1489325792641067 
3.420000000002793, -1.1502990417206753 
3.430000000002814, -1.1513660313341847 
3.440000000002835, -1.1519985773256518 
3.450000000002856, -1.152237163755004 
3.460000000002877, -1.1521351219435645 
3.4700000000028983, -1.1516994563229774 
3.4800000000029194, -1.150865690412798 
3.4900000000029405, -1.1494745292464421 
3.5000000000029616, -1.147248314523249 
3.5100000000029827, -1.1438078876078506 
3.520000000003004, -1.1388547417787271 
3.530000000003025, -1.1327213382679218 
3.540000000003046, -1.1272269031631064 
3.550000000003067, -1.12575129440664 
3.5600000000030882, -1.1310145891590015 
3.5700000000031094, -1.142088666021172 
3.5800000000031305, -1.1548751846972125 
3.5900000000031516, -1.1656684988182984 
3.6000000000031727, -1.1731570437724794 
3.6100000000031938, -1.1777501586077952 
3.620000000003215, -1.1803408430690108 
3.630000000003236, -1.181681280623878 
3.640000000003257, -1.1822587505796363 
3.650000000003278, -1.182349178404245 
3.6600000000032993, -1.1820911893422554 
3.6700000000033204, -1.1815438689712936 
3.6800000000033415, -1.180739638652217 
3.6900000000033626, -1.179764350379886 
3.7000000000033837, -1.1789002049939556 
3.710000000003405, -1.1788042421720548 
3.720000000003426, -1.180509542926077 
3.730000000003447, -1.1849440602454109 
3.740000000003468, -1.1921573974906656 
3.750000000003489, -1.2010860670302128 
3.7600000000035103, -1.21017229255595 
3.7700000000035314, -1.218148625644053 
3.7800000000035525, -1.224381010344651 
3.7900000000035736, -1.2287976254074535 
3.8000000000035947, -1.231659502520934 
3.810000000003616, -1.2333429302816143 
3.820000000003637, -1.2341996491875524 
3.830000000003658, -1.2344990037727892 
3.840000000003679, -1.2344262380567774 
3.8500000000037002, -1.2341086869346685 
3.8600000000037213, -1.2336530535658823 
3.8700000000037424, -1.233183682663546 
3.8800000000037635, -1.232863356004663 
3.8900000000037847, -1.232867200764358 
3.9000000000038058, -1.233307284097971 
3.910000000003827, -1.2341696447964499 
3.920000000003848, -1.2353282347563048 
3.930000000003869, -1.2366145271958635 
3.94000000000389, -1.2378771267107547 
3.9500000000039113, -1.2390049696476364 
3.9600000000039324, -1.2399262708518801 
3.9700000000039535, -1.2405993279353946 
3.9800000000039746, -1.2410035826817554 
3.9900000000039957, -1.2411338823727351 
4.000000000004016, -1.240997871503653 
4.010000000003993, -1.2406150938791076 
4.02000000000397, -1.240016878265347 
4.030000000003946, -1.2392474429657274 
4.040000000003923, -1.2383663969377252 
4.0500000000039, -1.2374499173309916 
4.0600000000038765, -1.2365857657999297 
4.070000000003853, -1.2358602376062646 
4.08000000000383, -1.2353396146730578 
4.090000000003807, -1.2350493675454248 
4.100000000003783, -1.2349589198101734 
4.11000000000376, -1.2349869171447054 
4.120000000003737, -1.2350286335543474 
4.130000000003713, -1.2349834642481559 
4.14000000000369, -1.2347633928336967 
4.150000000003667, -1.2342854978732432 
4.1600000000036434, -1.233462630399933 
4.17000000000362, -1.232202886869209 
4.180000000003597, -1.2304207773708011 
4.1900000000035735, -1.2280562627301528 
4.20000000000355, -1.2250955251443356 
4.210000000003527, -1.2215919917868872 
4.220000000003504, -1.2176922980651335 
4.23000000000348, -1.213666206985302 
4.240000000003457, -1.209911912782807 
4.250000000003434, -1.2068757049649712 
4.26000000000341, -1.2048613655832745 
4.270000000003387, -1.2038542564988144 
4.280000000003364, -1.2035514985507958 
4.2900000000033405, -1.2035728782825468 
4.300000000003317, -1.2036325616316155 
4.310000000003294, -1.2035662971704937 
4.320000000003271, -1.2032750872817612 
4.330000000003247, -1.2026573703286547 
4.340000000003224, -1.2015483723964824 
4.350000000003201, -1.199657024911779 
4.360000000003177, -1.1964952739079338 
4.370000000003154, -1.1913296724746405 
4.380000000003131, -1.1832599119400289 
4.390000000003107, -1.1716080144381638 
4.400000000003084, -1.1566994549075245 
4.410000000003061, -1.1405773259181209 
4.4200000000030375, -1.1265748264843607 
4.430000000003014, -1.1173849392477526 
4.440000000002991, -1.113345465971818 
4.450000000002968, -1.1128005801510021 
4.460000000002944, -1.1137602549637964 
4.470000000002921, -1.1149559464707601 
4.480000000002898, -1.115872988891057 
4.490000000002874, -1.1164044234657198 
4.500000000002851, -1.1165795706089203 
4.510000000002828, -1.116434247523418 
4.520000000002804, -1.1159596887214744 
4.530000000002781, -1.1150753258775585 
4.540000000002758, -1.1135976750646321 
4.5500000000027345, -1.1111983876927827 
4.560000000002711, -1.107375039569146 
4.570000000002688, -1.1015278753851288 
4.580000000002665, -1.0933389280445798 
4.590000000002641, -1.0835819203140422 
4.600000000002618, -1.0748013965092107 
4.610000000002595, -1.0704045689380195 
4.620000000002571, -1.0720003917777896 
4.630000000002548, -1.0779484990553416 
4.640000000002525, -1.0850750951001837 
4.6500000000025015, -1.0911113883104846 
4.660000000002478, -1.0953488893719263 
4.670000000002455, -1.0979963781781665 
4.6800000000024315, -1.0995040100336237 
4.690000000002408, -1.1002554069880348 
4.700000000002385, -1.1005011253747206 
4.710000000002362, -1.1003758572171505 
4.720000000002338, -1.0999262035927262 
4.730000000002315, -1.0991299799019743 
4.740000000002292, -1.0979130675139177 
4.750000000002268, -1.0961909443035875 
4.760000000002245, -1.093995133777415 
4.770000000002222, -1.0917690578537096 
4.7800000000021985, -1.0908063344884127 
4.790000000002175, -1.0933695149063407 
4.800000000002152, -1.1016354193580582 
4.810000000002129, -1.1156257383605068 
4.820000000002105, -1.13238891432183 
4.830000000002082, -1.147946765852321 
4.840000000002059, -1.1598478188216754 
4.850000000002035, -1.167766895471113 
4.860000000002012, -1.1725500843476129 
4.870000000001989, -1.1752353374975495 
4.880000000001965, -1.176623574833111 
4.890000000001942, -1.1772253694868886 
4.900000000001919, -1.177333854310889 
4.9100000000018955, -1.17710620467455 
4.920000000001872, -1.1766282105180559 
4.930000000001849, -1.175973843916481 
4.940000000001826, -1.1752814701675702 
