t, s[1].omega / s[0].omega 
0, -1.4001220903274696 
0.009999999999999995, -1.4105087505407488 
0.019999999999999934, -1.4173508372686843 
0.029999999999999874, -1.4214099078781626 
0.04000000000000012, -1.423608766638258 
0.050000000000000405, -1.4246533952139793 
0.06000000000000069, -1.4249962531704503 
0.07000000000000098, -1.4249060992771465 
0.08000000000000126, -1.4245501168538202 
0.09000000000000155, -1.4240659075391775 
0.10000000000000184, -1.423611314749898 
0.11000000000000212, -1.4233595227265188 
0.12000000000000241, -1.4234249552914828 
0.130000000000002, -1.423795891354614 
0.1400000000000009, -1.424359365907514 
0.1499999999999998, -1.4249758245246242 
0.1599999999999987, -1.4255240606795412 
0.1699999999999976, -1.4259112756261199 
0.1799999999999965, -1.4260700287411125 
0.1899999999999954, -1.4259503361462986 
0.1999999999999943, -1.4255113708121416 
0.2099999999999932, -1.4247168969859356 
0.2199999999999921, -1.4235353614154542 
0.229999999999991, -1.4219445470873673 
0.2399999999999899, -1.419943449535872 
0.2499999999999888, -1.4175779571761074 
0.2599999999999877, -1.4149866522455785 
0.2699999999999866, -1.4124514627194764 
0.2799999999999855, -1.4103740583588285 
0.2899999999999844, -1.4090778075836061 
0.2999999999999833, -1.4085565692801079 
0.3099999999999822, -1.4084961591772909 
0.3199999999999811, -1.408541275734058 
0.32999999999998, -1.4084606170608394 
0.3399999999999789, -1.4081185940228091 
0.3499999999999778, -1.4073770205353764 
0.35999999999997667, -1.4059920889440343 
0.36999999999997557, -1.4034942517017184 
0.37999999999997447, -1.3990477836930812 
0.38999999999997337, -1.3914405030981354 
0.39999999999997227, -1.3797776885775432 
0.40999999999997117, -1.3656622944727201 
0.41999999999997006, -1.3550837310840247 
0.42999999999996896, -1.3541335548796734 
0.43999999999996786, -1.3614839374349914 
0.44999999999996676, -1.3707222437118252 
0.45999999999996566, -1.3777431598201306 
0.46999999999996456, -1.3819873091282702 
0.47999999999996346, -1.384238865162783 
0.48999999999996235, -1.385283173818142 
0.49999999999996125, -1.3856159208214458 
0.5099999999999602, -1.3855014938809103 
0.519999999999959, -1.3850739170926725 
0.529999999999958, -1.3844315865960195 
0.5399999999999568, -1.3837502238984063 
0.5499999999999557, -1.3834027624838687 
0.5599999999999546, -1.3839321413067491 
0.5699999999999535, -1.385705388475754 
0.5799999999999524, -1.3885425703585892 
0.5899999999999513, -1.3918420379713679 
0.5999999999999502, -1.3950142064019768 
0.6099999999999491, -1.39771162210016 
0.619999999999948, -1.399804079188568 
0.6299999999999469, -1.4012853631353892 
0.6399999999999458, -1.4022067447416584 
0.6499999999999447, -1.402642607639559 
0.6599999999999436, -1.402673290198711 
0.6699999999999425, -1.40237658311674 
0.6799999999999414, -1.4018268117153352 
0.6899999999999403, -1.4011013617963528 
0.6999999999999392, -1.400288917757511 
0.7099999999999381, -1.3994888900885596 
0.719999999999937, -1.3987986547030384 
0.7299999999999359, -1.3982960467868077 
0.7399999999999348, -1.398016964451991 
0.7499999999999337, -1.397929274668941 
0.7599999999999326, -1.3979330970738206 
0.7699999999999315, -1.397899780281806 
0.7799999999999304, -1.3977072763668275 
0.7899999999999293, -1.3972382385047182 
0.7999999999999282, -1.396351397584244 
0.8099999999999271, -1.3948494528554112 
0.819999999999926, -1.3924602247559688 
0.8299999999999249, -1.3888479352002394 
0.8399999999999238, -1.3836806933241008 
0.8499999999999227, -1.3767954701105527 
0.8599999999999216, -1.3685003393350208 
0.8699999999999205, -1.3599177176004038 
0.8799999999999194, -1.3528759181016086 
0.8899999999999183, -1.3488144197224354 
0.8999999999999172, -1.3476008450453114 
0.9099999999999161, -1.3479309269812862 
0.919999999999915, -1.3486209773254465 
0.9299999999999139, -1.3491192204336877 
0.9399999999999128, -1.3492858257632252 
0.9499999999999117, -1.3491097251205963 
0.9599999999999106, -1.3485638712451153 
0.9699999999999095, -1.3475449413087834 
0.9799999999999084, -1.3458508446983968 
0.9899999999999073, -1.3432392026058606 
0.9999999999999062, -1.3397687512148182 
1.0099999999999052, -1.3367030375013906 
1.019999999999904, -1.3373623356030129 
1.029999999999903, -1.3453157714003818 
1.039999999999902, -1.3598886961976453 
1.0499999999999008, -1.3759364148129398 
1.0599999999998997, -1.3889260368211143 
1.0699999999998986, -1.3975868321778766 
1.0799999999998975, -1.4026969248861012 
1.0899999999998964, -1.4054558533301635 
1.0999999999998953, -1.4067981024542875 
1.1099999999998942, -1.4073084267010096 
1.119999999999893, -1.4073193861585052 
1.129999999999892, -1.4070214289676226 
1.1399999999998909, -1.406553447528927 
1.1499999999998898, -1.4060746196166272 
1.1599999999998887, -1.4057920930087435 
1.1699999999998876, -1.4058960139274077 
1.1799999999998865, -1.4064375423141866 
1.1899999999998854, -1.4072967171284136 
1.1999999999998843, -1.4082782181409699 
1.2099999999998832, -1.4092101462781677 
1.219999999999882, -1.4099751725199283 
1.229999999999881, -1.4105022476257498 
1.2399999999998799, -1.4107510393371196 
1.2499999999998788, -1.4106991264687834 
1.2599999999998777, -1.4103339760481002 
1.2699999999998766, -1.4096495870674866 
1.2799999999998755, -1.408647064356423 
1.2899999999998744, -1.4073394624825433 
1.2999999999998733, -1.4057625782951777 
1.3099999999998722, -1.4039934044284215 
1.319999999999871, -1.4021744475692974 
1.32999999999987, -1.4005250731374443 
1.3399999999998689, -1.3992887656178143 
1.3499999999998678, -1.3985929287172454 
1.3599999999998666, -1.3983446639401698 
1.3699999999998655, -1.3983053096784406 
1.3799999999998644, -1.3982451205234212 
1.3899999999998633, -1.398002913509655 
1.3999999999998622, -1.3974425974340654 
1.4099999999998611, -1.3963716818694127 
1.41999999999986, -1.394442845569145 
1.429999999999859, -1.391030065061766 
1.4399999999998578, -1.3851124897679399 
1.4499999999998567, -1.3753728048297762 
1.4599999999998556, -1.361037802148996 
1.4699999999998545, -1.343825337593401 
1.4799999999998534, -1.3290729701477448 
1.4899999999998523, -1.3220686913554869 
1.4999999999998512, -1.3226094999612072 
1.5099999999998501, -1.32638753545682 
1.519999999999849, -1.33002346701776 
1.529999999999848, -1.3324590735172004 
1.5399999999998468, -1.3338032736558958 
1.5499999999998457, -1.3343906219935344 
1.5599999999998446, -1.3344706022886887 
1.5699999999998435, -1.3341739017011296 
1.5799999999998424, -1.3335474835228533 
1.5899999999998413, -1.3326163121213022 
1.5999999999998402, -1.3315104122171315 
1.6099999999998391, -1.330701897792571 
1.619999999999838, -1.331198400025996 
1.629999999999837, -1.3341658857033685 
1.6399999999998358, -1.3398689024167425 
1.6499999999998347, -1.3472004489485272 
1.6599999999998336, -1.354550384766998 
1.6699999999998325, -1.3607973855770372 
1.6799999999998314, -1.3655255806079771 
1.6899999999998303, -1.3687852983417885 
1.6999999999998292, -1.370831838179321 
1.709999999999828, -1.3719637116181036 
1.719999999999827, -1.372443465705503 
1.729999999999826, -1.3724718198153807 
1.7399999999998248, -1.3721947042277738 
1.7499999999998237, -1.3717283240632112 
1.7599999999998226, -1.3711879230229465 
1.7699999999998215, -1.3706997941968635 
1.7799999999998204, -1.3703781044610095 
1.7899999999998193, -1.3702819475396302 
1.7999999999998182, -1.3703981275218646 
1.809999999999817, -1.3706607784301825 
1.819999999999816, -1.3709778966767017 
1.8299999999998149, -1.3712509081177835 
1.8399999999998138, -1.3713896183093026 
1.8499999999998127, -1.3713181153144245 
1.8599999999998116, -1.3709706137975015 
1.8699999999998105, -1.3702852266617522 
1.8799999999998094, -1.3692025478098162 
1.8899999999998083, -1.367669963567531 
1.8999999999998072, -1.3656505417976372 
1.909999999999806, -1.363138887233719 
1.919999999999805, -1.3601917737226008 
1.9299999999998039, -1.3569800121986337 
1.9399999999998028, -1.353840840650334 
1.9499999999998017, -1.351243709825802 
1.9599999999998006, -1.3495708066010363 
1.9699999999997995, -1.348841770308234 
1.9799999999997984, -1.348720729634034 
1.9899999999997973, -1.3488013679451436 
1.9999999999997962, -1.348810859110889 
2.0099999999998173, -1.3486042130846938 
2.0199999999998384, -1.3480716098309915 
2.0299999999998595, -1.347045113562138 
2.0399999999998806, -1.3452033624681925 
2.0499999999999017, -1.3419522612034274 
2.059999999999923, -1.3363161411958295 
2.069999999999944, -1.3270789737289788 
2.079999999999965, -1.313781684145084 
2.089999999999986, -1.2988439134974212 
2.100000000000007, -1.2882031086888885 
2.1100000000000283, -1.2864928628423955 
2.1200000000000494, -1.2918922018098742 
2.1300000000000705, -1.2991159229635518 
2.1400000000000916, -1.3048338018243728 
2.1500000000001127, -1.308429096867388 
2.160000000000134, -1.3104040231482577 
2.170000000000155, -1.3113446549412107 
2.180000000000176, -1.3116450379971967 
2.190000000000197, -1.311520156571486 
2.2000000000002182, -1.3110706447210674 
2.2100000000002393, -1.3103504592752042 
2.2200000000002604, -1.309462349156663 
2.2300000000002815, -1.3087157858574558 
2.2400000000003026, -1.3087786139576933 
2.2500000000003237, -1.310523115108785 
2.260000000000345, -1.314382440364159 
2.270000000000366, -1.3198486006418189 
2.280000000000387, -1.3258217477747387 
2.290000000000408, -1.3313241867792724 
2.3000000000004293, -1.3358266064719015 
2.3100000000004504, -1.3391851553430112 
2.3200000000004715, -1.341479579317437 
2.3300000000004926, -1.3428885441263625 
2.3400000000005137, -1.3436128188042926 
2.3500000000005348, -1.343832870736645 
2.360000000000556, -1.34369329143969 
2.370000000000577, -1.343308598676351 
2.380000000000598, -1.3427823586245173 
2.390000000000619, -1.3422258720963545 
2.4000000000006403, -1.341756843810879 
2.4100000000006614, -1.341469607600278 
2.4200000000006825, -1.341401603286913 
2.4300000000007036, -1.341528386786414 
2.4400000000007247, -1.3417820118789647 
2.450000000000746, -1.3420714637152653 
2.460000000000767, -1.3423011269405243 
2.470000000000788, -1.3423852651313388 
2.480000000000809, -1.342251884364735 
2.49000000000083, -1.3418380441794284 
2.5000000000008513, -1.3410853197359143 
2.5100000000008724, -1.3399404881293804 
2.5200000000008935, -1.3383609258030427 
2.5300000000009146, -1.3363233660102218 
2.5400000000009357, -1.3338385176756926 
2.550000000000957, -1.3309781319521663 
2.560000000000978, -1.3279176862419648 
2.570000000000999, -1.324972875360698 
2.58000000000102, -1.322557194774278 
2.5900000000010412, -1.3209916801811397 
2.6000000000010624, -1.320283362561061 
2.6100000000010835, -1.3201364694293674 
2.6200000000011046, -1.3201879745698193 
2.6300000000011257, -1.3201831166380176 
2.6400000000011468, -1.3199781174644343 
2.650000000001168, -1.3194622399510862 
2.660000000001189, -1.318473491265048 
2.67000000000121, -1.3167108563168035 
2.680000000001231, -1.3136241012146652 
2.6900000000012523, -1.3082994278581521 
2.7000000000012734, -1.2995003242580274 
2.7100000000012945, -1.2863001041627298 
2.7200000000013156, -1.2697178437231205 
2.7300000000013367, -1.2541292413398133 
2.740000000001358, -1.245033849855028 
2.750000000001379, -1.2439114923614882 
2.7600000000014, -1.2474501429967477 
2.770000000001421, -1.2517799190879821 
2.780000000001442, -1.2550826474701873 
2.7900000000014633, -1.2571254562974332 
2.8000000000014844, -1.2582076852839132 
2.8100000000015055, -1.2586428724658216 
2.8200000000015266, -1.2586318368585747 
2.8300000000015477, -1.258268610283077 
2.840000000001569, -1.2575725760556367 
2.85000000000159, -1.2565366134673241 
2.860000000001611, -1.2552345771367777 
2.870000000001632, -1.254055421728449 
2.8800000000016532, -1.2540116432043242 
2.8900000000016743, -1.2566618709475854 
2.9000000000016954, -1.2630815356933742 
2.9100000000017165, -1.2726343972145244 
2.9200000000017377, -1.2832350061743183 
2.9300000000017588, -1.292819171053168 
2.94000000000178, -1.3002964203013696 
2.950000000001801, -1.3055158029937757 
2.960000000001822, -1.3088368249873865 
2.970000000001843, -1.3107610812707882 
2.9800000000018643, -1.3117348053183318 
2.9900000000018854, -1.312085173611718 
3.0000000000019065, -1.3120291770380477 
3.0100000000019276, -1.3117114512206796 
3.0200000000019487, -1.311250114354603 
3.03000000000197, -1.3107781884530798 
3.040000000001991, -1.3104575064761481 
3.050000000002012, -1.310437868810386 
3.060000000002033, -1.3107817153347656 
3.070000000002054, -1.3114321887472131 
3.0800000000020753, -1.3122574400793234 
3.0900000000020964, -1.3131156306112106 
3.1000000000021175, -1.313890699344935 
3.1100000000021386, -1.3145001243701282 
3.1200000000021597, -1.3148905480129405 
3.130000000002181, -1.3150301092643937 
3.140000000002202, -1.314901671188646 
3.150000000002223, -1.314498722648631 
3.160000000002244, -1.3138240033480852 
3.1700000000022652, -1.3128906087697503 
3.1800000000022863, -1.3117258690925304 
3.1900000000023074, -1.3103782297657989 
3.2000000000023285, -1.3089259059538354 
3.2100000000023496, -1.3074835383358037 
3.2200000000023707, -1.3061979362815088 
3.230000000002392, -1.3052155939882273 
3.240000000002413, -1.304615458727713 
3.250000000002434, -1.3043530292343177 
3.260000000002455, -1.3042817519878116 
3.2700000000024763, -1.30423187726457 
3.2800000000024974, -1.3040628808061359 
3.2900000000025185, -1.3036569818374593 
3.3000000000025396, -1.302879252708444 
3.3100000000025607, -1.3015304940733725 
3.3200000000025818, -1.2993053262393117 
3.330000000002603, -1.2957729670834268 
3.340000000002624, -1.2904205786722682 
3.350000000002645, -1.282820632901267 
3.360000000002666, -1.2729697441783936 
3.3700000000026873, -1.2617286529339624 
3.3800000000027084, -1.2509915471946829 
3.3900000000027295, -1.2429777357460705 
3.4000000000027506, -1.2387749314917893 
3.4100000000027717, -1.2376732312484264 
3.420000000002793, -1.2381198292538496 
3.430000000002814, -1.2389182877628628 
3.440000000002835, -1.2395296638045612 
3.450000000002856, -1.239815248808942 
3.460000000002877, -1.2397711088678116 
3.4700000000028983, -1.239392087671077 
3.4800000000029194, -1.2386124396458922 
3.4900000000029405, -1.237268492766368 
3.5000000000029616, -1.235069282635833 
3.5100000000029827, -1.2316259077361142 
3.520000000003004, -1.2267180572527476 
3.530000000003025, -1.2210815815093974 
3.540000000003046, -1.2174748637271398 
3.550000000003067, -1.220089542575991 
3.5600000000030882, -1.2307088520572806 
3.5700000000031094, -1.2459091704045284 
3.5800000000031305, -1.2602316153374333 
3.5900000000031516, -1.270679875326187 
3.6000000000031727, -1.2771822920423574 
3.6100000000031938, -1.2808450236692894 
3.620000000003215, -1.2827474455047523 
3.630000000003236, -1.2836145432101291 
3.640000000003257, -1.2838635828454508 
3.650000000003278, -1.2837161670821182 
3.6600000000032993, -1.2832908182545562 
3.6700000000033204, -1.2826814317950126 
3.6800000000033415, -1.2820461127915541 
3.6900000000033626, -1.2816999643464868 
3.7000000000033837, -1.2821145894647634 
3.710000000003405, -1.2836941258804084 
3.720000000003426, -1.286451409982803 
3.730000000003447, -1.2899615440162053 
3.740000000003468, -1.2936464371345318 
3.750000000003489, -1.2970493655961395 
3.7600000000035103, -1.2999130327343544 
3.7700000000035314, -1.3021376102532085 
3.7800000000035525, -1.303721727081178 
3.7900000000035736, -1.304721062069001 
3.8000000000035947, -1.3052211745198627 
3.810000000003616, -1.3053173998288383 
3.820000000003637, -1.3051016192959608 
3.830000000003658, -1.304659131715138 
3.840000000003679, -1.304075517194715 
3.8500000000037002, -1.3034458353299265 
3.8600000000037213, -1.3028724725605028 
3.8700000000037424, -1.3024446736619926 
3.8800000000037635, -1.3022131943833735 
3.8900000000037847, -1.3021793871067109 
3.9000000000038058, -1.3022989531062994 
3.910000000003827, -1.3024931444262413 
3.920000000003848, -1.302667437436193 
3.930000000003869, -1.3027311047862526 
3.94000000000389, -1.3026056119247786 
3.9500000000039113, -1.3022213866470131 
3.9600000000039324, -1.301512639755957 
3.9700000000039535, -1.30041765499674 
3.9800000000039746, -1.298885102485982 
3.9900000000039957, -1.2968835447888085 
4.000000000004016, -1.2944136321578916 
4.010000000003993, -1.2915275282486591 
4.02000000000397, -1.2883610078691896 
4.030000000003946, -1.2851705137221223 
4.040000000003923, -1.2823313208346403 
4.0500000000039, -1.2802239717785295 
4.0600000000038765, -1.2790208208499767 
4.070000000003853, -1.2785700953841628 
4.08000000000383, -1.2785277831082715 
4.090000000003807, -1.2785769423157636 
4.100000000003783, -1.2785190109454005 
4.11000000000376, -1.2782363295798616 
4.120000000003737, -1.27761657038275 
4.130000000003713, -1.276478571802722 
4.14000000000369, -1.274491572539796 
4.150000000003667, -1.2710766045032231 
4.1600000000036434, -1.2653241074503963 
4.17000000000362, -1.2560876287203606 
4.180000000003597, -1.2425957870081403 
4.1900000000035735, -1.2257761521242343 
4.20000000000355, -1.209254768947846 
4.210000000003527, -1.1977336832601597 
4.220000000003504, -1.1932054939159236 
4.23000000000348, -1.1937582812703715 
4.240000000003457, -1.1962367416745592 
4.250000000003434, -1.19864073765938 
4.26000000000341, -1.200320903929405 
4.270000000003387, -1.2012854865302576 
4.280000000003364, -1.2017022529172456 
4.2900000000033405, -1.2017081442149 
4.300000000003317, -1.2013660421852712 
4.310000000003294, -1.200663620487361 
4.320000000003271, -1.1995220910150226 
4.330000000003247, -1.1978318687591494 
4.340000000003224, -1.1955879165408096 
4.350000000003201, -1.193250013213629 
4.360000000003177, -1.1923111271955933 
4.370000000003154, -1.1953836999632714 
4.380000000003131, -1.2046089075286803 
4.390000000003107, -1.219166392702461 
4.400000000003084, -1.235274682061028 
4.410000000003061, -1.2491341091662225 
4.4200000000030375, -1.2590976333589246 
4.430000000003014, -1.2654189986965076 
4.440000000002991, -1.2690861741333415 
4.450000000002968, -1.2710482162696508 
4.460000000002944, -1.271973634047711 
4.470000000002921, -1.2722699173819962 
4.480000000002898, -1.2721684052931301 
4.490000000002874, -1.2718045319349822 
4.500000000002851, -1.2712878492817683 
4.510000000002828, -1.270770512131585 
4.520000000002804, -1.2704975329168673 
4.530000000002781, -1.2707745017281964 
4.540000000002758, -1.2718128923495429 
4.5500000000027345, -1.2735735150587508 
4.560000000002711, -1.2757880105317727 
4.570000000002688, -1.2781238975740483 
4.580000000002665, -1.280317248162634 
4.590000000002641, -1.2822063201545366 
4.600000000002618, -1.2837105894563057 
4.610000000002595, -1.284802419298381 
4.620000000002571, -1.2854879161891752 
4.630000000002548, -1.2857960783330133 
4.640000000002525, -1.2857713756467477 
4.6500000000025015, -1.2854675965981244 
4.660000000002478, -1.2849446959611401 
4.670000000002455, -1.2842707048896533 
4.6800000000024315, -1.2835260607148673 
4.690000000002408, -1.2828021400408685 
4.700000000002385, -1.28218799898672 
4.710000000002362, -1.281750698682243 
4.720000000002338, -1.2815191272099784 
4.730000000002315, -1.2814740459710254 
4.740000000002292, -1.2815485901781538 
4.750000000002268, -1.2816464103079912 
4.760000000002245, -1.2816678402044575 
4.770000000002222, -1.2815239044281364 
4.7800000000021985, -1.2811333753893128 
4.790000000002175, -1.2804141794982398 
4.800000000002152, -1.2792807618412367 
4.810000000002129, -1.2776514568848705 
4.820000000002105, -1.2754633412916299 
4.830000000002082, -1.272690667920683 
4.840000000002059, -1.2693678894720803 
4.850000000002035, -1.265623665163489 
4.860000000002012, -1.261724543379794 
4.870000000001989, -1.2580917973866612 
4.880000000001965, -1.2552095095318947 
4.890000000001942, -1.2533910475594574 
4.900000000001919, -1.252577911354708 
4.9100000000018955, -1.252409707865239 
4.920000000001872, -1.2524853702369436 
4.930000000001849, -1.25253274138634 
4.940000000001826, -1.2524058132508897 
