t, s[1].omega / s[0].omega 
0, -0.6199977207926343 
0.009999999999999995, -0.6197728104603161 
0.019999999999999934, -0.6195477705109118 
0.029999999999999874, -0.6193073330255705 
0.04000000000000012, -0.6190340109312127 
0.050000000000000405, -0.6187150906522177 
0.06000000000000069, -0.6183465493386003 
0.07000000000000098, -0.6179336367845667 
0.08000000000000126, -0.6174901284569777 
0.09000000000000155, -0.6170386077909473 
0.10000000000000184, -0.6166133041136729 
0.11000000000000212, -0.6162661779855954 
0.12000000000000241, -0.6160765062206474 
0.130000000000002, -0.6161638839155696 
0.1400000000000009, -0.6167037836453455 
0.1499999999999998, -0.6179428605535547 
0.1599999999999987, -0.6202069060262675 
0.1699999999999976, -0.6238861637700284 
0.1799999999999965, -0.6293707508703358 
0.1899999999999954, -0.636903013402421 
0.1999999999999943, -0.6463468058310847 
0.2099999999999932, -0.6569872927880589 
0.2199999999999921, -0.6676037477848562 
0.229999999999991, -0.6769370834451542 
0.2399999999999899, -0.6842401362599695 
0.2499999999999888, -0.6894431581634514 
0.2599999999999877, -0.6929084778372074 
0.2699999999999866, -0.695108868762282 
0.2799999999999855, -0.6964464848815612 
0.2899999999999844, -0.6972064278289669 
0.2999999999999833, -0.697571137815397 
0.3099999999999822, -0.697647022796581 
0.3199999999999811, -0.6974852110197662 
0.32999999999998, -0.6970927496898149 
0.3399999999999789, -0.6964348028625432 
0.3499999999999778, -0.6954292292909605 
0.35999999999997667, -0.693936416993381 
0.36999999999997557, -0.691752613917848 
0.37999999999997447, -0.6886261857053949 
0.38999999999997337, -0.6843264420864172 
0.39999999999997227, -0.6787766280488026 
0.40999999999997117, -0.6721900425807301 
0.41999999999997006, -0.6650806875447594 
0.42999999999996896, -0.6580929077452577 
0.43999999999996786, -0.6517701330941849 
0.44999999999996676, -0.6464250806729458 
0.45999999999996566, -0.6421463876139354 
0.46999999999996456, -0.6388730903423914 
0.47999999999996346, -0.6364699988972268 
0.48999999999996235, -0.6347785734435727 
0.49999999999996125, -0.6336446498730026 
0.5099999999999602, -0.632931376933659 
0.519999999999959, -0.6325240885060699 
0.529999999999958, -0.6323309166123475 
0.5399999999999568, -0.6322810798713288 
0.5499999999999557, -0.6323219802979374 
0.5599999999999546, -0.6324159838506113 
0.5699999999999535, -0.6325376132609292 
0.5799999999999524, -0.6326715901692654 
0.5899999999999513, -0.6328115968546474 
0.5999999999999502, -0.6329588551336128 
0.6099999999999491, -0.6331191211959528 
0.619999999999948, -0.6332972605499653 
0.6299999999999469, -0.6334904707067494 
0.6399999999999458, -0.6336833658775858 
0.6499999999999447, -0.6338485110544786 
0.6599999999999436, -0.633953366776616 
0.6699999999999425, -0.6339702862011767 
0.6799999999999414, -0.6338839397618514 
0.6899999999999403, -0.6336928388919225 
0.6999999999999392, -0.6334061997795574 
0.7099999999999381, -0.6330399232434203 
0.719999999999937, -0.6326148910627064 
0.7299999999999359, -0.6321591610927005 
0.7399999999999348, -0.6317147811955687 
0.7499999999999337, -0.6313500079580139 
0.7599999999999326, -0.6311779744554004 
0.7699999999999315, -0.6313822513259091 
0.7799999999999304, -0.632246716943399 
0.7899999999999293, -0.634179054526048 
0.7999999999999282, -0.6377007010926419 
0.8099999999999271, -0.6433526250492286 
0.819999999999926, -0.6514605142978769 
0.8299999999999249, -0.6617844261772496 
0.8399999999999238, -0.6732936935267912 
0.8499999999999227, -0.6844339661115588 
0.8599999999999216, -0.6938573365219951 
0.8699999999999205, -0.7009846618284191 
0.8799999999999194, -0.7059588116519367 
0.8899999999999183, -0.7092543879947334 
0.8999999999999172, -0.7113627483497063 
0.9099999999999161, -0.7126662723822214 
0.919999999999915, -0.7134267953875095 
0.9299999999999139, -0.7138107957942902 
0.9399999999999128, -0.7139161385845908 
0.9499999999999117, -0.7137906263821876 
0.9599999999999106, -0.7134416041891669 
0.9699999999999095, -0.712837871475708 
0.9799999999999084, -0.711905620638686 
0.9899999999999073, -0.710521869473498 
0.9999999999999062, -0.7085139861306725 
1.0099999999999052, -0.7056823824464614 
1.019999999999904, -0.7018664917958327 
1.029999999999903, -0.6970503750895455 
1.039999999999902, -0.6914479682564296 
1.0499999999999008, -0.6854810344519164 
1.0599999999998997, -0.6796398139557409 
1.0699999999998986, -0.6743256748818025 
1.0799999999998975, -0.6697734845841635 
1.0899999999998964, -0.6660615830791897 
1.0999999999998953, -0.6631614404274403 
1.1099999999998942, -0.6609864617173645 
1.119999999999893, -0.6594255809337073 
1.129999999999892, -0.6583629409581244 
1.1399999999998909, -0.657688803558755 
1.1499999999998898, -0.6573055560918042 
1.1599999999998887, -0.657130729746809 
1.1699999999998876, -0.6570978343053558 
1.1799999999998865, -0.6571555558457631 
1.1899999999998854, -0.65726599678222 
1.1999999999998843, -0.6574027343291029 
1.2099999999998832, -0.6575492799146027 
1.219999999999882, -0.6576979475222339 
1.229999999999881, -0.657848333536351 
1.2399999999998799, -0.6580041438739177 
1.2499999999998788, -0.6581677815267808 
1.2599999999998777, -0.6583340638987407 
1.2699999999998766, -0.6584863610869724 
1.2799999999998755, -0.6585982871158402 
1.2899999999998744, -0.6586410291125301 
1.2999999999998733, -0.6585924277566919 
1.3099999999998722, -0.658442730572914 
1.319999999999871, -0.6581949144886955 
1.32999999999987, -0.6578615775538245 
1.3399999999998689, -0.6574620340016021 
1.3499999999998678, -0.657022293562297 
1.3599999999998666, -0.6565791358041883 
1.3699999999998655, -0.6561887703646663 
1.3799999999998644, -0.6559404219503423 
1.3899999999998633, -0.6559747828996216 
1.3999999999998622, -0.656505710259549 
1.4099999999998611, -0.6578397214115046 
1.41999999999986, -0.6603803851917158 
1.429999999999859, -0.6645928002661932 
1.4399999999998578, -0.6708914714892789 
1.4499999999998567, -0.6794249111396943 
1.4599999999998556, -0.6898079229842884 
1.4699999999998545, -0.7010052973149278 
1.4799999999998534, -0.7116159796940967 
1.4899999999998523, -0.7204816455551675 
1.4999999999998512, -0.7271282252525484 
1.5099999999998501, -0.7317156610321371 
1.519999999999849, -0.7347020150463702 
1.529999999999848, -0.7365607790550966 
1.5399999999998468, -0.7376604640243083 
1.5499999999998457, -0.7382507649948521 
1.5599999999998446, -0.7384861118877073 
1.5699999999998435, -0.7384515717930232 
1.5799999999998424, -0.7381801902164438 
1.5899999999998413, -0.7376602286648309 
1.5999999999998402, -0.7368328616739321 
1.6099999999998391, -0.7355811851495062 
1.619999999999838, -0.7337134528650031 
1.629999999999837, -0.7309513071809486 
1.6399999999998358, -0.7269506379626822 
1.6499999999998347, -0.7213991673484409 
1.6599999999998336, -0.71420914338122 
1.6699999999998325, -0.705712867463542 
1.6799999999998314, -0.6966659270604488 
1.6899999999998303, -0.6879811264762384 
1.6999999999998292, -0.6803863655851637 
1.709999999999828, -0.674249661972506 
1.719999999999827, -0.6696096478502886 
1.729999999999826, -0.6662995558955207 
1.7399999999998248, -0.6640651361049509 
1.7499999999998237, -0.6626418177813507 
1.7599999999998226, -0.6617946164481734 
1.7699999999998215, -0.6613334737317789 
1.7799999999998204, -0.6611145285412987 
1.7899999999998193, -0.6610342126624559 
1.7999999999998182, -0.6610205319292727 
1.809999999999817, -0.6610242837575394 
1.819999999999816, -0.6610118762921572 
1.8299999999998149, -0.6609606470139427 
1.8399999999998138, -0.6608569124275501 
1.8499999999998127, -0.6606961085131211 
1.8599999999998116, -0.6604832539669142 
1.8699999999998105, -0.6602313299808598 
1.8799999999998094, -0.6599562473550435 
1.8899999999998083, -0.6596698542764434 
1.8999999999998072, -0.6593747080462478 
1.909999999999806, -0.6590637614874837 
1.919999999999805, -0.6587249973167517 
1.9299999999998039, -0.6583480206444441 
1.9399999999998028, -0.6579291164830487 
1.9499999999998017, -0.6574733530050383 
1.9599999999998006, -0.6569948047994123 
1.9699999999997995, -0.6565169505723892 
1.9799999999997984, -0.6560747482612053 
1.9899999999997973, -0.655718856782762 
1.9999999999997962, -0.6555216390855226 
2.0099999999998173, -0.6555839807321996 
2.0199999999998384, -0.6560414023049486 
2.0299999999998595, -0.6570672620583677 
2.0399999999998806, -0.6588697680758985 
2.0499999999999017, -0.6616775214228847 
2.059999999999923, -0.6657050871865557 
2.069999999999944, -0.6710876791820446 
2.079999999999965, -0.6777809347442844 
2.089999999999986, -0.6854533416960013 
2.100000000000007, -0.6934551630474426 
2.1100000000000283, -0.7009640218879356 
2.1200000000000494, -0.7072844228140047 
2.1300000000000705, -0.7120942510556353 
2.1400000000000916, -0.7154566487936195 
2.1500000000001127, -0.7176504296559313 
2.160000000000134, -0.7189924888966198 
2.170000000000155, -0.7197432611580372 
2.180000000000176, -0.7200837715360212 
2.190000000000197, -0.7201247290800191 
2.2000000000002182, -0.7199213732854102 
2.2100000000002393, -0.7194833071057112 
2.2200000000002604, -0.7187761376368828 
2.2300000000002815, -0.7177138805821226 
2.2400000000003026, -0.7161415487995996 
2.2500000000003237, -0.7138098232191147 
2.260000000000345, -0.7103538562283646 
2.270000000000366, -0.7053131535545384 
2.280000000000387, -0.6982611414913208 
2.290000000000408, -0.6890882118918015 
2.3000000000004293, -0.6783073781533474 
2.3100000000004504, -0.6670525682738404 
2.3200000000004715, -0.6566266095255952 
2.3300000000004926, -0.6479527611671043 
2.3400000000005137, -0.6413570991700821 
2.3500000000005348, -0.6366984694411116 
2.360000000000556, -0.6336088895546299 
2.370000000000577, -0.6316771301965586 
2.380000000000598, -0.6305423585048848 
2.390000000000619, -0.62992442627234 
2.4000000000006403, -0.6296217549170906 
2.4100000000006614, -0.6294966849471088 
2.4200000000006825, -0.6294584293244837 
2.4300000000007036, -0.6294480404781819 
2.4400000000007247, -0.62942693608278 
2.450000000000746, -0.6293692887838235 
2.460000000000767, -0.6292581195031042 
2.470000000000788, -0.6290845778360998 
2.480000000000809, -0.628849142089274 
2.49000000000083, -0.6285624018325365 
2.5000000000008513, -0.6282427863452599 
2.5100000000008724, -0.6279103598259141 
2.5200000000008935, -0.6275790247300053 
2.5300000000009146, -0.6272513885430422 
2.5400000000009357, -0.6269192034029416 
2.550000000000957, -0.6265687913867835 
2.560000000000978, -0.6261880630124873 
2.570000000000999, -0.625771639204969 
2.58000000000102, -0.6253228619119764 
2.5900000000010412, -0.6248539269088506 
2.6000000000010624, -0.62438626092988 
2.6100000000010835, -0.623952733835649 
2.6200000000011046, -0.623602400481291 
2.6300000000011257, -0.6234078194642717 
2.6400000000011468, -0.6234745404988051 
2.650000000001168, -0.6239517492826115 
2.660000000001189, -0.6250418874590442 
2.67000000000121, -0.6270046973897682 
2.680000000001231, -0.6301466199279868 
2.6900000000012523, -0.6347793366837111 
2.7000000000012734, -0.6411253741362845 
2.7100000000012945, -0.6491605081605792 
2.7200000000013156, -0.6584419651329989 
2.7300000000013367, -0.6680722534769991 
2.740000000001358, -0.6769542522011537 
2.750000000001379, -0.6842453506761856 
2.7600000000014, -0.689650801904756 
2.770000000001421, -0.693351923201059 
2.780000000001442, -0.6957404593636236 
2.7900000000014633, -0.6972051673768972 
2.8000000000014844, -0.6980437593311148 
2.8100000000015055, -0.698455174306073 
2.8200000000015266, -0.6985592050852873 
2.8300000000015477, -0.6984167220660326 
2.840000000001569, -0.6980420915298973 
2.85000000000159, -0.6974064905323564 
2.860000000001611, -0.6964325184353762 
2.870000000001632, -0.6949814572169677 
2.8800000000016532, -0.6928385306083562 
2.8900000000016743, -0.6897126590622189 
2.9000000000016954, -0.6852851385597585 
2.9100000000017165, -0.6793446257264446 
2.9200000000017377, -0.6719841831775506 
2.9300000000017588, -0.6637142943774962 
2.94000000000178, -0.6553337450273927 
2.950000000001801, -0.6476179120067939 
2.960000000001822, -0.6410681034626398 
2.970000000001843, -0.6358603322766061 
2.9800000000018643, -0.6319336782078417 
2.9900000000018854, -0.6291057166907942 
3.0000000000019065, -0.6271567723334122 
3.0100000000019276, -0.625876294990575 
3.0200000000019487, -0.625083105770526 
3.03000000000197, -0.6246311804117821 
3.040000000001991, -0.6244082711880368 
3.050000000002012, -0.6243313015368389 
3.060000000002033, -0.6243406777129261 
3.070000000002054, -0.624394820594895 
3.0800000000020753, -0.6244657672737051 
3.0900000000020964, -0.6245362985591654 
3.1000000000021175, -0.6245985017956384 
3.1100000000021386, -0.62465289658391 
3.1200000000021597, -0.6247065403842835 
3.130000000002181, -0.6247686901443259 
3.140000000002202, -0.6248442240649454 
3.150000000002223, -0.6249274046100072 
3.160000000002244, -0.6249997271087342 
3.1700000000022652, -0.6250340033384244 
3.1800000000022863, -0.6250030115180556 
3.1900000000023074, -0.6248879051460037 
3.2000000000023285, -0.6246821355742397 
3.2100000000023496, -0.6243904161001967 
3.2200000000023707, -0.6240255385595512 
3.230000000002392, -0.6236063471029384 
3.240000000002413, -0.6231589151709784 
3.250000000002434, -0.6227218758028745 
3.260000000002455, -0.6223566028008054 
3.2700000000024763, -0.6221630994916604 
3.2800000000024974, -0.622302163170402 
3.2900000000025185, -0.6230224332157748 
3.3000000000025396, -0.6246852487980142 
3.3100000000025607, -0.6277677559614795 
3.3200000000025818, -0.6328039890211293 
3.330000000002603, -0.6402072886343754 
3.340000000002624, -0.6499562840945549 
3.350000000002645, -0.6612934112288621 
3.360000000002666, -0.6727880725106264 
3.3700000000026873, -0.682942118439547 
3.3800000000027084, -0.6908872355841515 
3.3900000000027295, -0.6965567338004595 
3.4000000000027506, -0.7003612293227787 
3.4100000000027717, -0.7028152365350084 
3.420000000002793, -0.7043476811332832 
3.430000000002814, -0.7052614573400227 
3.440000000002835, -0.7057527530601344 
3.450000000002856, -0.7059400326875781 
3.460000000002877, -0.705886211365035 
3.4700000000028983, -0.7056114573223762 
3.4800000000029194, -0.7050977147870499 
3.4900000000029405, -0.7042866386723062 
3.5000000000029616, -0.7030737050262774 
3.5100000000029827, -0.7013050749613106 
3.520000000003004, -0.6987913071691256 
3.530000000003025, -0.6953579940268654 
3.540000000003046, -0.6909399644408595 
3.550000000003067, -0.6856777212019716 
3.5600000000030882, -0.6799312901656591 
3.5700000000031094, -0.6741714515943436 
3.5800000000031305, -0.668820781161916 
3.5900000000031516, -0.664152631041572 
3.6000000000031727, -0.660281162280077 
3.6100000000031938, -0.657203939617332 
3.620000000003215, -0.6548517918006392 
3.630000000003236, -0.6531253285042158 
3.640000000003257, -0.6519166140504535 
3.650000000003278, -0.6511209087002783 
3.6600000000032993, -0.6506429810567762 
3.6700000000033204, -0.650400474164943 
3.6800000000033415, -0.650325336316825 
3.6900000000033626, -0.6503637602447359 
3.7000000000033837, -0.6504750817570535 
3.710000000003405, -0.6506302333756129 
3.720000000003426, -0.6508103076424907 
3.730000000003447, -0.6510053928325794 
3.740000000003468, -0.6512131454362186 
3.750000000003489, -0.6514359738030844 
3.7600000000035103, -0.6516759901504082 
3.7700000000035314, -0.6519284992163275 
3.7800000000035525, -0.6521769456767333 
3.7900000000035736, -0.6523929767243883 
3.8000000000035947, -0.652543009090777 
3.810000000003616, -0.6525983064085024 
3.820000000003637, -0.6525428369891345 
3.830000000003658, -0.6523751355515083 
3.840000000003679, -0.6521051274095383 
3.8500000000037002, -0.6517497930483387 
3.8600000000037213, -0.6513311270223107 
3.8700000000037424, -0.6508781143915282 
3.8800000000037635, -0.6504334136372527 
3.8900000000037847, -0.6500653667438663 
3.9000000000038058, -0.6498860903025061 
3.910000000003827, -0.6500756878993621 
3.920000000003848, -0.6509097105315567 
3.930000000003869, -0.6527798736923164 
3.94000000000389, -0.6561844007697809 
3.9500000000039113, -0.6616454686002562 
3.9600000000039324, -0.6695051320440343 
3.9700000000039535, -0.679610604103123 
3.9800000000039746, -0.6910729612488721 
3.9900000000039957, -0.7024276992862714 
4.000000000004016, -0.7122680047676103 
4.010000000003993, -0.7198571295322748 
4.02000000000397, -0.7252111604895779 
4.030000000003946, -0.7287637886423037 
4.040000000003923, -0.7310229670650652 
4.0500000000039, -0.7324040138911878 
4.0600000000038765, -0.7331970228168465 
4.070000000003853, -0.7335872306451402 
4.08000000000383, -0.7336832156568841 
4.090000000003807, -0.7335378084716031 
4.100000000003783, -0.733159144570712 
4.11000000000376, -0.7325125646122259 
4.120000000003737, -0.731514523398893 
4.130000000003713, -0.7300209167492827 
4.14000000000369, -0.7278173941439865 
4.150000000003667, -0.7246308473509164 
4.1600000000036434, -0.7201941864448581 
4.17000000000362, -0.7143841335273837 
4.180000000003597, -0.7073801400706872 
4.1900000000035735, -0.6997074533314211 
4.20000000000355, -0.692077677874182 
4.210000000003527, -0.6851301486237051 
4.220000000003504, -0.6792601894327838 
4.23000000000348, -0.6746009540605339 
4.240000000003457, -0.6710968821486832 
4.250000000003434, -0.6685908354402091 
4.26000000000341, -0.6668888348509434 
4.270000000003387, -0.6657988592045425 
4.280000000003364, -0.6651508882226606 
4.2900000000033405, -0.66480514806104 
4.300000000003317, -0.6646531314946542 
4.310000000003294, -0.6646143674077207 
4.320000000003271, -0.6646311568831208 
4.330000000003247, -0.6646630420902337 
4.340000000003224, -0.6646823233097807 
4.350000000003201, -0.6646713772681081 
4.360000000003177, -0.6646217415787476 
4.370000000003154, -0.6645338861877377 
4.380000000003131, -0.6644157605180427 
4.390000000003107, -0.6642786036584443 
4.400000000003084, -0.6641306021693455 
4.410000000003061, -0.6639714060993372 
4.4200000000030375, -0.6637909151224931 
4.430000000003014, -0.6635733291173078 
4.440000000002991, -0.6633040501619328 
4.450000000002968, -0.6629755225902576 
4.460000000002944, -0.6625897121331168 
4.470000000002921, -0.6621578877310845 
4.480000000002898, -0.6617000553818161 
4.490000000002874, -0.6612461279392824 
4.500000000002851, -0.6608398022803137 
4.510000000002828, -0.6605451581387847 
4.520000000002804, -0.6604553233426027 
4.530000000002781, -0.6607018625623893 
4.540000000002758, -0.6614625644147549 
4.5500000000027345, -0.662963805808302 
4.560000000002711, -0.6654712797176041 
4.570000000002688, -0.6692591712047148 
4.580000000002665, -0.6745441415945539 
4.590000000002641, -0.6813742935064727 
4.600000000002618, -0.6894922222609416 
4.610000000002595, -0.6982559661936822 
4.620000000002571, -0.7067476824297361 
4.630000000002548, -0.7140977208947997 
4.640000000002525, -0.719817963806867 
4.6500000000025015, -0.7238865996274679 
4.660000000002478, -0.7265816352893705 
4.670000000002455, -0.728262892496561 
4.6800000000024315, -0.7292410924219096 
4.690000000002408, -0.7297386771111187 
4.700000000002385, -0.7298965143028273 
4.710000000002362, -0.7297916916945615 
4.720000000002338, -0.7294513301695774 
4.730000000002315, -0.7288580372501454 
4.740000000002292, -0.727946002757801 
4.750000000002268, -0.7265872484661402 
4.760000000002245, -0.7245688481086188 
4.770000000002222, -0.7215687412078022 
4.7800000000021985, -0.7171569673314709 
4.790000000002175, -0.7108805745388088 
4.800000000002152, -0.7024937265623841 
4.810000000002129, -0.6922760235060401 
4.820000000002105, -0.6811632602756346 
4.830000000002082, -0.6704403880914429 
4.840000000002059, -0.6611868902734523 
4.850000000002035, -0.6539308355161922 
4.860000000002012, -0.648675449678717 
4.870000000001989, -0.6451170236735658 
4.880000000001965, -0.6428515728522115 
4.890000000001942, -0.6414974828628074 
4.900000000001919, -0.6407456269388966 
4.9100000000018955, -0.6403674196969986 
4.920000000001872, -0.640203984659104 
