t, s[1].omega / s[0].omega 
0, -0.06999784081837368 
0.009999999999999995, -0.07000369995621585 
0.019999999999999934, -0.07043182375422198 
0.029999999999999874, -0.07122329637635404 
0.04000000000000012, -0.07226352713273859 
0.050000000000000405, -0.07338907557998453 
0.06000000000000069, -0.07442726843088224 
0.07000000000000098, -0.07524550424340318 
0.08000000000000126, -0.07577364397008511 
0.09000000000000155, -0.07599013806922134 
0.10000000000000184, -0.07589100919336035 
0.11000000000000212, -0.0754615901856173 
0.12000000000000241, -0.07465881160496265 
0.130000000000002, -0.0734068017560912 
0.1400000000000009, -0.07161376530645788 
0.1499999999999998, -0.06922361350490827 
0.1599999999999987, -0.06629924224157094 
0.1699999999999976, -0.06308130579744659 
0.1799999999999965, -0.05993686884948209 
0.1899999999999954, -0.057205497337956844 
0.1999999999999943, -0.05507505425275555 
0.2099999999999932, -0.053575344392241056 
0.2199999999999921, -0.05264353619648661 
0.229999999999991, -0.052182847792733064 
0.2399999999999899, -0.052086544660747136 
0.2499999999999888, -0.052239852641144835 
0.2599999999999877, -0.05252114046913929 
0.2699999999999866, -0.0528132504155554 
0.2799999999999855, -0.05301939242366743 
0.2899999999999844, -0.05307046436203786 
0.2999999999999833, -0.05291756773286045 
0.3099999999999822, -0.052513566160129165 
0.3199999999999811, -0.05179001598932022 
0.32999999999998, -0.050633344117074465 
0.3399999999999789, -0.04886618606516045 
0.3499999999999778, -0.046254673344701326 
0.35999999999997667, -0.04258763878230161 
0.36999999999997557, -0.03786229348417504 
0.37999999999997447, -0.03247398052740174 
0.38999999999997337, -0.027147277621688216 
0.39999999999997227, -0.022558958243925138 
0.40999999999997117, -0.019027938957152997 
0.41999999999997006, -0.016530243605405233 
0.42999999999996896, -0.014880798823104193 
0.43999999999996786, -0.01387196117173919 
0.44999999999996676, -0.013323758158636137 
0.45999999999996566, -0.01308523273693268 
0.46999999999996456, -0.013025314026792467 
0.47999999999996346, -0.013030162302267351 
0.48999999999996235, -0.013006316631990821 
0.49999999999996125, -0.012881250795003301 
0.5099999999999602, -0.012595424146266312 
0.519999999999959, -0.012085707606093387 
0.529999999999958, -0.01126234869654236 
0.5399999999999568, -0.00998136342646143 
0.5499999999999557, -0.008019177819925437 
0.5599999999999546, -0.005077605752742453 
0.5699999999999535, -0.0008846076837896769 
0.5799999999999524, 0.004199490264949749 
0.5899999999999513, 0.009934558077459849 
0.5999999999999502, 0.015487786867950049 
0.6099999999999491, 0.020076646154118985 
0.619999999999948, 0.02340059455134024 
0.6299999999999469, 0.025556583526076315 
0.6399999999999458, 0.026792950092541668 
0.6499999999999447, 0.027354083391535576 
0.6599999999999436, 0.027436972643932876 
0.6699999999999425, 0.027199626417538036 
0.6799999999999414, 0.026776923228621425 
0.6899999999999403, 0.026286519566989686 
0.6999999999999392, 0.025826218612365788 
0.7099999999999381, 0.025472490188740655 
0.719999999999937, 0.02528730784541598 
0.7299999999999359, 0.025333603476209367 
0.7399999999999348, 0.025695838494712832 
0.7499999999999337, 0.02650090790408054 
0.7599999999999326, 0.027928626833081376 
0.7699999999999315, 0.030184274501693965 
0.7799999999999304, 0.03339141152285637 
0.7899999999999293, 0.03741240685861608 
0.7999999999999282, 0.04175522514939007 
0.8099999999999271, 0.04576094560035947 
0.819999999999926, 0.048947749662261474 
0.8299999999999249, 0.051166865485110145 
0.8399999999999238, 0.0525053865044565 
0.8499999999999227, 0.053130534467377574 
0.8599999999999216, 0.05320318163812465 
0.8699999999999205, 0.05286088835943944 
0.8799999999999194, 0.05223114819503395 
0.8899999999999183, 0.05144318421275912 
0.8999999999999172, 0.05062384403832461 
0.9099999999999161, 0.049882184117067366 
0.919999999999915, 0.04929837064725288 
0.9299999999999139, 0.04892706548561624 
0.9399999999999128, 0.04881260340131606 
0.9499999999999117, 0.049006836246684275 
0.9599999999999106, 0.04958073948130866 
0.9699999999999095, 0.05061997259776867 
0.9799999999999084, 0.052191308774411346 
0.9899999999999073, 0.05427500833644211 
0.9999999999999062, 0.05669757900196931 
1.0099999999999052, 0.059142874207890925 
1.019999999999904, 0.06127254083029675 
1.029999999999903, 0.06286053948327784 
1.039999999999902, 0.0638301550191636 
1.0499999999999008, 0.06420192684658255 
1.0599999999998997, 0.0640301493273271 
1.0699999999998986, 0.06337478516368586 
1.0799999999998975, 0.062310155669805 
1.0899999999998964, 0.06094851765286504 
1.0999999999998953, 0.05944779709236021 
1.1099999999998942, 0.05798401071318371 
1.119999999999893, 0.05670358038550771 
1.129999999999892, 0.05569316083908379 
1.1399999999998909, 0.05498481939737817 
1.1499999999998898, 0.05458208823787349 
1.1599999999998887, 0.054484578202033354 
1.1699999999998876, 0.05469918901987547 
1.1799999999998865, 0.05523457741839991 
1.1899999999998854, 0.05607920748102298 
1.1999999999998843, 0.057170517741169026 
1.2099999999998832, 0.05837657015530952 
1.219999999999882, 0.05951478575083916 
1.229999999999881, 0.06040391675761684 
1.2399999999998799, 0.06090951339776962 
1.2499999999998788, 0.0609506314875254 
1.2599999999998777, 0.06047673187697775 
1.2699999999998766, 0.059447038991568245 
1.2799999999998755, 0.05783878733479629 
1.2899999999998744, 0.05569158496013776 
1.2999999999998733, 0.05316182117566794 
1.3099999999998722, 0.05052462898097384 
1.319999999999871, 0.048084509890922396 
1.32999999999987, 0.04605531821331926 
1.3399999999998689, 0.04451117618849765 
1.3499999999998678, 0.04342399072716928 
1.3599999999998666, 0.04272696154111645 
1.3699999999998655, 0.04235677398836393 
1.3799999999998644, 0.042266923519889706 
1.3899999999998633, 0.04242131600180307 
1.3999999999998622, 0.042777337892683884 
1.4099999999998611, 0.043267105313356556 
1.41999999999986, 0.04378804939383423 
1.429999999999859, 0.044211398947733384 
1.4399999999998578, 0.04440345096955034 
1.4499999999998567, 0.04424144203081579 
1.4599999999998556, 0.04361109392831104 
1.4699999999998545, 0.042392761421015515 
1.4799999999998534, 0.040460371069724596 
1.4899999999998523, 0.03772426070863688 
1.4999999999998512, 0.03423224268066402 
1.5099999999998501, 0.03027204008382504 
1.519999999999849, 0.026336293272475646 
1.529999999999848, 0.022902016879823545 
1.5399999999998468, 0.0202159577683748 
1.5499999999998457, 0.018275701095339086 
1.5599999999998446, 0.01694961935547071 
1.5699999999998435, 0.016088829184418292 
1.5799999999998424, 0.015576741722469162 
1.5899999999998413, 0.015334033053558913 
1.5999999999998402, 0.015304521894025088 
1.6099999999998391, 0.015435537908239436 
1.619999999999838, 0.01565985263973563 
1.629999999999837, 0.01588572084249364 
1.6399999999998358, 0.01599935989868127 
1.6499999999998347, 0.015875710167515843 
1.6599999999998336, 0.015385403654856624 
1.6699999999998325, 0.014389753561140538 
1.6799999999998314, 0.01273112621864458 
1.6899999999998303, 0.010244356449628665 
1.6999999999998292, 0.006826047125729313 
1.709999999999828, 0.002572578471199543 
1.719999999999827, -0.001915523683858911 
1.729999999999826, -0.005966820358474187 
1.7399999999998248, -0.009301215043206624 
1.7499999999998237, -0.011715951417843585 
1.7599999999998226, -0.013286533987194862 
1.7699999999998215, -0.014199391041385536 
1.7799999999998204, -0.014632066541643734 
1.7899999999998193, -0.01471272701113877 
1.7999999999998182, -0.01452386968467589 
1.809999999999817, -0.014121152646208413 
1.819999999999816, -0.01355516391443361 
1.8299999999998149, -0.01289065866871127 
1.8399999999998138, -0.012217379815096904 
1.8499999999998127, -0.011647834405387438 
1.8599999999998116, -0.01130551673147909 
1.8699999999998105, -0.011315446525136592 
1.8799999999998094, -0.011805539564544564 
1.8899999999998083, -0.012912027006893067 
1.8999999999998072, -0.014765580140976842 
1.909999999999806, -0.017429006743941697 
1.919999999999805, -0.020786726382291548 
1.9299999999998039, -0.0244717262973805 
1.9399999999998028, -0.02796437771449879 
1.9499999999998017, -0.03083867745370361 
1.9599999999998006, -0.03292753573747982 
1.9699999999997995, -0.03428519780306054 
1.9799999999997984, -0.035056879582477725 
1.9899999999997973, -0.035383135788445805 
1.9999999999997962, -0.03536487632484621 
2.0099999999998173, -0.03506474071417067 
2.0199999999998384, -0.034523423208264244 
2.0299999999998595, -0.033781465900516935 
2.0399999999998806, -0.03290065716408394 
2.0499999999999017, -0.031976166751818594 
2.059999999999923, -0.031130855130752384 
2.069999999999944, -0.030494602494130173 
2.079999999999965, -0.030184889049313678 
2.089999999999986, -0.030301918969823833 
2.100000000000007, -0.030933204060146637 
2.1100000000000283, -0.032147360583676246 
2.1200000000000494, -0.03395766300900029 
2.1300000000000705, -0.03626051369187792 
2.1400000000000916, -0.03880154386085706 
2.1500000000001127, -0.041237922182091366 
2.160000000000134, -0.04327854954638022 
2.170000000000155, -0.04478374815705853 
2.180000000000176, -0.04575491006557407 
2.190000000000197, -0.046262366095147896 
2.2000000000002182, -0.0463824852828834 
2.2100000000002393, -0.04616811253500751 
2.2200000000002604, -0.045645029701004716 
2.2300000000002815, -0.04482447732702269 
2.2400000000003026, -0.04372689516247512 
2.2500000000003237, -0.04241052358247642 
2.260000000000345, -0.040989103863706994 
2.270000000000366, -0.039619951487627154 
2.280000000000387, -0.03846391474290116 
2.290000000000408, -0.03764638443385673 
2.3000000000004293, -0.037245520491024864 
2.3100000000004504, -0.03730300262382054 
2.3200000000004715, -0.03783282284847288 
2.3300000000004926, -0.038810020613166775 
2.3400000000005137, -0.04014353199365433 
2.3500000000005348, -0.04166281073057629 
2.360000000000556, -0.04315107340691063 
2.370000000000577, -0.04441620398241921 
2.380000000000598, -0.04534524504331079 
2.390000000000619, -0.04590582466493996 
2.4000000000006403, -0.04611050679364088 
2.4100000000006614, -0.04597840619068834 
2.4200000000006825, -0.0455118380939658 
2.4300000000007036, -0.04469016788451872 
2.4400000000007247, -0.04348091127357746 
2.450000000000746, -0.04187061106802277 
2.460000000000767, -0.03991090925338512 
2.470000000000788, -0.037752281380246056 
2.480000000000809, -0.03562412118925888 
2.49000000000083, -0.0337579206013781 
2.5000000000008513, -0.032312140551870296 
2.5100000000008724, -0.03135297172525198 
2.5200000000008935, -0.030881517706020167 
2.5300000000009146, -0.03086468994166792 
2.5400000000009357, -0.031244301481901167 
2.550000000000957, -0.03192780573657211 
2.560000000000978, -0.032782234092400546 
2.570000000000999, -0.03365171399687145 
2.58000000000102, -0.034395182654396214 
2.5900000000010412, -0.03491701354858092 
2.6000000000010624, -0.03516959203200026 
2.6100000000010835, -0.03513270157418567 
2.6200000000011046, -0.034787130382785296 
2.6300000000011257, -0.03409459444430524 
2.6400000000011468, -0.03298955142617917 
2.650000000001168, -0.03139004920771015 
2.660000000001189, -0.029239276324315285 
2.67000000000121, -0.026578417941567352 
2.680000000001231, -0.023607916060495105 
2.6900000000012523, -0.020658805360501353 
2.7000000000012734, -0.01806141321755255 
2.7100000000012945, -0.01601968990961696 
2.7200000000013156, -0.014588292189826352 
2.7300000000013367, -0.013727481828761271 
2.740000000001358, -0.013360733981692127 
2.750000000001379, -0.013399047853251161 
2.7600000000014, -0.013738852351270817 
2.770000000001421, -0.014256407301386132 
2.780000000001442, -0.014817029545006822 
2.7900000000014633, -0.0152987088555333 
2.8000000000014844, -0.015612342699604343 
2.8100000000015055, -0.01570338119680064 
2.8200000000015266, -0.015536153311472284 
2.8300000000015477, -0.015071864567807253 
2.840000000001569, -0.014249604097031817 
2.85000000000159, -0.012977198396187517 
2.860000000001611, -0.011143135176190776 
2.870000000001632, -0.00866737435455392 
2.8800000000016532, -0.0055941077878538855 
2.8900000000016743, -0.002168980428778073 
2.9000000000016954, 0.0010472461872445933 
2.9100000000017165, 0.0035481756051784124 
2.9200000000017377, 0.00539573445182015 
2.9300000000017588, 0.0065547212616704886 
2.94000000000178, 0.007092960622842386 
2.950000000001801, 0.007109866093618354 
2.960000000001822, 0.006708621747518517 
2.970000000001843, 0.005999186349106768 
2.9800000000018643, 0.0051060741006132854 
2.9900000000018854, 0.004161993522701546 
3.0000000000019065, 0.003287161926954186 
3.0100000000019276, 0.0025708062271891556 
3.0200000000019487, 0.002069530032912137 
3.03000000000197, 0.0018220151960992483 
3.040000000001991, 0.0018699459728965244 
3.050000000002012, 0.0022758799578012127 
3.060000000002033, 0.003130547995007836 
3.070000000002054, 0.004537777825942186 
3.0800000000020753, 0.0065607586411662935 
3.0900000000020964, 0.009132536954943211 
3.1000000000021175, 0.011993677340893065 
3.1100000000021386, 0.01475243513180755 
3.1200000000021597, 0.017054867091920466 
3.130000000002181, 0.018714390093497242 
3.140000000002202, 0.019708825963689395 
3.150000000002223, 0.020103725730045457 
3.160000000002244, 0.019989418162167566 
3.1700000000022652, 0.019460517760871036 
3.1800000000022863, 0.01862337552807595 
3.1900000000023074, 0.01760527511938314 
3.2000000000023285, 0.016545953074504488 
3.2100000000023496, 0.015572392971857512 
3.2200000000023707, 0.014776625296522138 
3.230000000002392, 0.014213297821476633 
3.240000000002413, 0.013915441596649144 
3.250000000002434, 0.013915982655044507 
3.260000000002455, 0.014264249244970006 
3.2700000000024763, 0.01502993549033678 
3.2800000000024974, 0.016285060070440616 
3.2900000000025185, 0.018054431799677167 
3.3000000000025396, 0.020246074870137777 
3.3100000000025607, 0.02261794597862023 
3.3200000000025818, 0.02484335389768 
3.330000000002603, 0.02664391854764252 
3.340000000002624, 0.027875907659955595 
3.350000000002645, 0.02851795463297707 
3.360000000002666, 0.028611692283178676 
3.3700000000026873, 0.028218424277902904 
3.3800000000027084, 0.027411425667927064 
3.3900000000027295, 0.026290594141166867 
3.4000000000027506, 0.024993000626068504 
3.4100000000027717, 0.02367763597411278 
3.420000000002793, 0.02248814697902261 
3.430000000002814, 0.021521933289192666 
3.440000000002835, 0.020827230930286267 
3.450000000002856, 0.020423094078318018 
3.460000000002877, 0.020324061433185468 
3.4700000000028983, 0.02055635370022237 
3.4800000000029194, 0.021159330843359615 
3.4900000000029405, 0.022167191392476544 
3.5000000000029616, 0.023568927033021072 
3.5100000000029827, 0.025262051437903926 
3.520000000003004, 0.027041594605448 
3.530000000003025, 0.028656236311220162 
3.540000000003046, 0.029898181702305987 
3.550000000003067, 0.030653713868234574 
3.5600000000030882, 0.03088990643540378 
3.5700000000031094, 0.03061504484483834 
3.5800000000031305, 0.029855119722389308 
3.5900000000031516, 0.028660680577860764 
3.6000000000031727, 0.027131722950104038 
3.6100000000031938, 0.025429826397954873 
3.620000000003215, 0.023750047424778167 
3.630000000003236, 0.022262783151850686 
3.640000000003257, 0.021070621833989264 
3.650000000003278, 0.02020847093435229 
3.6600000000032993, 0.01967318452243941 
3.6700000000033204, 0.019454725209893144 
3.6800000000033415, 0.019553501319987492 
3.6900000000033626, 0.019980592363143406 
3.7000000000033837, 0.020740758489806464 
3.710000000003405, 0.021801207402829082 
3.720000000003426, 0.023061140817517648 
3.730000000003447, 0.024350359261922867 
3.740000000003468, 0.025471990841207888 
3.750000000003489, 0.026261878673406625 
3.7600000000035103, 0.02661858507709065 
3.7700000000035314, 0.026492254260557013 
3.7800000000035525, 0.02585948082100315 
3.7900000000035736, 0.024715305913118053 
3.8000000000035947, 0.023094759622283387 
3.810000000003616, 0.021110051319543303 
3.820000000003637, 0.01896287710326528 
3.830000000003658, 0.016896326843482704 
3.840000000003679, 0.015109522354762862 
3.8500000000037002, 0.013703920914889714 
3.8600000000037213, 0.012693310473611105 
3.8700000000037424, 0.012047924011902609 
3.8800000000037635, 0.0117332718189998 
3.8900000000037847, 0.011728392999427031 
3.9000000000038058, 0.01202475791541462 
3.910000000003827, 0.012609841566664453 
3.920000000003848, 0.013440733638453625 
3.930000000003869, 0.014421120190474215 
3.94000000000389, 0.01540229795886284 
3.9500000000039113, 0.016216401224711675 
3.9600000000039324, 0.01671962398930029 
3.9700000000039535, 0.016812662357915453 
3.9800000000039746, 0.01643164015732492 
3.9900000000039957, 0.015531570153217414 
4.000000000004016, 0.014088925090632929 
4.010000000003993, 0.012134948919620608 
4.02000000000397, 0.009801929758513612 
4.030000000003946, 0.00733124148680595 
4.040000000003923, 0.005003665581493887 
4.0500000000039, 0.0030326455413921143 
4.0600000000038765, 0.00150914494168857 
4.070000000003853, 0.0004253693173037423 
4.08000000000383, -0.00007199050897966456 
4.090000000003807, 4.135489909308731e-8 
4.100000000003783, 0.000019601770247536316 
4.11000000000376, 0.00026424512091597024 
4.120000000003737, 0.0007813232730601733 
4.130000000003713, 0.0015248257039728408 
4.14000000000369, 0.0024005738570579897 
4.150000000003667, 0.003267539377307075 
4.1600000000036434, 0.003967595809983493 
4.17000000000362, 0.004363475912643352 
4.180000000003597, 0.004356447473950998 
4.1900000000035735, 0.003878564889396724 
4.20000000000355, 0.002879989434341855 
4.210000000003527, 0.0013362106158618654 
4.220000000003504, -0.0005745927093412508 
4.23000000000348, -0.0025509547052005974 
4.240000000003457, -0.004634434732492352 
4.250000000003434, -0.006541635297541077 
4.26000000000341, -0.008067863703644148 
4.270000000003387, -0.009134554482192334 
4.280000000003364, -0.009758324981269025 
4.2900000000033405, -0.009992948387519487 
4.300000000003317, -0.00988793395489032 
4.310000000003294, -0.009473009979597222 
4.320000000003271, -0.008762367991497115 
4.330000000003247, -0.007772840011853235 
4.340000000003224, -0.006550286458306053 
4.350000000003201, -0.005191300037661871 
4.360000000003177, -0.0038411733873166083 
4.370000000003154, -0.0026618487282693355 
4.380000000003131, -0.0017917071064939664 
4.390000000003107, -0.0013271667952605975 
4.400000000003084, -0.0013308546016995832 
4.410000000003061, -0.0018448294661640705 
4.4200000000030375, -0.0028842954583052855 
4.430000000003014, -0.004403531760753832 
4.440000000002991, -0.00625600992366578 
4.450000000002968, -0.008198608822168964 
4.460000000002944, -0.009967232762515812 
4.470000000002921, -0.011373807763617997 
4.480000000002898, -0.012345963967166891 
4.490000000002874, -0.012896976968014085 
4.500000000002851, -0.013072671382584286 
4.510000000002828, -0.01291370258661205 
4.520000000002804, -0.012441508522640945 
4.530000000002781, -0.011663133891601108 
4.540000000002758, -0.010590522612539033 
4.5500000000027345, -0.009268960742305769 
4.560000000002711, -0.0078003654985299405 
4.570000000002688, -0.006339766630423423 
4.580000000002665, -0.005058235626106568 
4.590000000002641, -0.00409770072558 
4.600000000002618, -0.0035511562640526658 
4.610000000002595, -0.0034724728338836816 
4.620000000002571, -0.0038919390576158687 
4.630000000002548, -0.004812654572871424 
4.640000000002525, -0.0061811777357957546 
4.6500000000025015, -0.007854302522831844 
4.660000000002478, -0.009606206821248926 
4.670000000002455, -0.01119674342172157 
4.6800000000024315, -0.012455211276310461 
4.690000000002408, -0.013313156080572052 
4.700000000002385, -0.013777266639543161 
4.710000000002362, -0.013882462923459645 
4.720000000002338, -0.013658111882910601 
4.730000000002315, -0.01311525927378778 
4.740000000002292, -0.012251943122329127 
4.750000000002268, -0.011073931340286326 
4.760000000002245, -0.009626003053965021 
4.770000000002222, -0.008017469812524481 
