t, s[1].omega / s[0].omega 
0, -1.4299943153744668 
0.009999999999999995, -1.4291959021946974 
0.019999999999999934, -1.4279423573412802 
0.029999999999999874, -1.4262339952984593 
0.04000000000000012, -1.4240713051203653 
0.050000000000000405, -1.4214552862022007 
0.06000000000000069, -1.4183879028303126 
0.07000000000000098, -1.4148726454212845 
0.08000000000000126, -1.4109151837290979 
0.09000000000000155, -1.4065241054330975 
0.10000000000000184, -1.4017117666303223 
0.11000000000000212, -1.396495352599159 
0.12000000000000241, -1.390898356075742 
0.130000000000002, -1.384952788673738 
0.1400000000000009, -1.378702462839269 
0.1499999999999998, -1.3722074956505323 
0.1599999999999987, -1.3655496881274545 
0.1699999999999976, -1.3588376233089234 
0.1799999999999965, -1.3522093928731043 
0.1899999999999954, -1.3458302296804419 
0.1999999999999943, -1.339882580564177 
0.2099999999999932, -1.3345477905099195 
0.2199999999999921, -1.3299815304822853 
0.229999999999991, -1.3262883966398922 
0.2399999999999899, -1.3235029730045609 
0.2499999999999888, -1.3215835364652546 
0.2599999999999877, -1.3204204721229713 
0.2699999999999866, -1.3198562719828582 
0.2799999999999855, -1.3197103921906286 
0.2899999999999844, -1.3198018237328424 
0.2999999999999833, -1.319964552396056 
0.3099999999999822, -1.3200543849985482 
0.3199999999999811, -1.3199482220457321 
0.32999999999998, -1.319538041075694 
0.3399999999999789, -1.318721811915131 
0.3499999999999778, -1.3173928785708724 
0.35999999999997667, -1.3154285381459883 
0.36999999999997557, -1.3126779226571554 
0.37999999999997447, -1.3089489516169193 
0.38999999999997337, -1.3039940921335267 
0.39999999999997227, -1.2974949610445956 
0.40999999999997117, -1.289046499916976 
0.41999999999997006, -1.2781426689399475 
0.42999999999996896, -1.2641674619754941 
0.43999999999996786, -1.2463975375932363 
0.44999999999996676, -1.2240255111946627 
0.45999999999996566, -1.1962148428864905 
0.46999999999996456, -1.1621960937745857 
0.47999999999996346, -1.1214070220301382 
0.48999999999996235, -1.0736630751354084 
0.49999999999996125, -1.0193218477112302 
0.5099999999999602, -0.9593844438302489 
0.519999999999959, -0.8954751509118646 
0.529999999999958, -0.829672013791784 
0.5399999999999568, -0.7642186507438645 
0.5499999999999557, -0.7012009749839877 
0.5599999999999546, -0.6422861677405779 
0.5699999999999535, -0.5885869155585902 
0.5799999999999524, -0.5406572352126497 
0.5899999999999513, -0.49858220291220584 
0.5999999999999502, -0.4621095640209398 
0.6099999999999491, -0.43078088515164725 
0.619999999999948, -0.4040386830891304 
0.6299999999999469, -0.3813023775117142 
0.6399999999999458, -0.3620157544901861 
0.6499999999999447, -0.34567257181513117 
0.6599999999999436, -0.33182727356670133 
0.6699999999999425, -0.32009652929558363 
0.6799999999999414, -0.3101556983373155 
0.6899999999999403, -0.30173290094766236 
0.6999999999999392, -0.29460231897774364 
0.7099999999999381, -0.2885776318592627 
0.719999999999937, -0.28350604145706065 
0.7299999999999359, -0.27926307117996907 
0.7399999999999348, -0.2757481759410376 
0.7499999999999337, -0.27288112423663 
0.7599999999999326, -0.27059908151288414 
0.7699999999999315, -0.2688543161586714 
0.7799999999999304, -0.267612454530918 
0.7899999999999293, -0.2668512228282494 
0.7999999999999282, -0.26655962778797593 
0.8099999999999271, -0.266737543249839 
0.819999999999926, -0.26739568476656816 
0.8299999999999249, -0.2685559693280968 
0.8399999999999238, -0.27025227179219546 
0.8499999999999227, -0.2725316036286551 
0.8599999999999216, -0.27545575264399746 
0.8699999999999205, -0.27910343338946497 
0.8799999999999194, -0.2835730047631659 
0.8899999999999183, -0.288985809759035 
0.8999999999999172, -0.2954901750648235 
0.9099999999999161, -0.3032660628704287 
0.919999999999915, -0.3125302736859558 
0.9299999999999139, -0.32354192598299214 
0.9399999999999128, -0.33660764056612935 
0.9499999999999117, -0.3520853743618333 
0.9599999999999106, -0.370385112517031 
0.9699999999999095, -0.3919635940399699 
0.9799999999999084, -0.41730896144655816 
0.9899999999999073, -0.4469099637358595 
0.9999999999999062, -0.4812038139376644 
1.0099999999999052, -0.5204983487933831 
1.019999999999904, -0.5648696437807431 
1.029999999999903, -0.6140472287038257 
1.039999999999902, -0.6673145233171552 
1.0499999999999008, -0.7234657827297275 
1.0599999999998997, -0.7808609484017951 
1.0699999999998986, -0.8375957618432046 
1.0799999999998975, -0.8917593707474151 
1.0899999999998964, -0.9417083619123613 
1.0999999999998953, -0.9862741245327065 
1.1099999999998942, -1.0248499036119694 
1.119999999999893, -1.0573552361574874 
1.129999999999892, -1.0841169638134067 
1.1399999999998909, -1.1057196688004303 
1.1499999999998898, -1.122867822835887 
1.1599999999998887, -1.136281698508266 
1.1699999999998876, -1.1466314014919905 
1.1799999999998865, -1.1545031085554756 
1.1899999999998854, -1.1603880698521052 
1.1999999999998843, -1.1646854737127947 
1.2099999999998832, -1.1677124515010713 
1.219999999999882, -1.1697168568747736 
1.229999999999881, -1.1708903641184754 
1.2399999999998799, -1.1713807654232713 
1.2499999999998788, -1.1713031927707342 
1.2599999999998777, -1.1707504829209099 
1.2699999999998766, -1.169803156048472 
1.2799999999998755, -1.1685395509631313 
1.2899999999998744, -1.1670465586036876 
1.2999999999998733, -1.1654310805033739 
1.3099999999998722, -1.1638317502366549 
1.319999999999871, -1.1624295683865027 
1.32999999999987, -1.1614550133075097 
1.3399999999998689, -1.1611882201777226 
1.3499999999998678, -1.1619485445466495 
1.3599999999998666, -1.164070933240456 
1.3699999999998655, -1.1678694346800855 
1.3799999999998644, -1.1735925289348714 
1.3899999999998633, -1.1813793128532877 
1.3999999999998622, -1.1912277978591506 
1.4099999999998611, -1.2029849124730314 
1.41999999999986, -1.2163621499354484 
1.429999999999859, -1.2309732103226767 
1.4399999999998578, -1.2463837342358906 
1.4499999999998567, -1.2621609409861483 
1.4599999999998556, -1.2779131435825817 
1.4699999999998545, -1.293314019458323 
1.4799999999998534, -1.308111631980995 
1.4899999999998523, -1.3221256521246612 
1.4999999999998512, -1.3352374809120107 
1.5099999999998501, -1.3473775270206174 
1.519999999999849, -1.3585126306989375 
1.529999999999848, -1.3686352772737487 
1.5399999999998468, -1.3777552020517996 
1.5499999999998457, -1.3858933480031566 
1.5599999999998446, -1.393077827095604 
1.5699999999998435, -1.3993414345114499 
1.5799999999998424, -1.4047202687778695 
1.5899999999998413, -1.409253057386023 
1.5999999999998402, -1.4129808507657529 
1.6099999999998391, -1.4159468229881844 
1.619999999999838, -1.4181960065185382 
1.629999999999837, -1.4197748871985632 
1.6399999999998358, -1.420730882625982 
1.6499999999998347, -1.4211118048485691 
1.6599999999998336, -1.4209654496233235 
1.6699999999998325, -1.420339447809248 
1.6799999999998314, -1.419281456713019 
1.6899999999998303, -1.417839667093004 
1.6999999999998292, -1.4160634735109048 
1.709999999999828, -1.4140040361345032 
1.719999999999827, -1.411714403604895 
1.729999999999826, -1.4092489309299383 
1.7399999999998248, -1.4066619529837094 
1.7499999999998237, -1.4040060307805626 
1.7599999999998226, -1.40133043513556 
1.7699999999998215, -1.3986806539595686 
1.7799999999998204, -1.3960994254346883 
1.7899999999998193, -1.3936291108331493 
1.7999999999998182, -1.3913143743689251 
1.809999999999817, -1.3892035422090967 
1.819999999999816, -1.3873470503650356 
1.8299999999998149, -1.385792221059837 
1.8399999999998138, -1.3845750390151141 
1.8499999999998127, -1.3837110793967622 
1.8599999999998116, -1.3831885240903363 
1.8699999999998105, -1.382965747855203 
1.8799999999998094, -1.3829743353179536 
1.8899999999998083, -1.3831263735046315 
1.8999999999998072, -1.383323463725356 
1.909999999999806, -1.38346469747809 
1.919999999999805, -1.3834516901954117 
1.9299999999998039, -1.3831900219149043 
1.9399999999998028, -1.3825874696522515 
1.9499999999998017, -1.3815499476550932 
1.9599999999998006, -1.3799761537780653 
1.9699999999997995, -1.3777517665834687 
1.9799999999997984, -1.3747438518488642 
1.9899999999997973, -1.3707960363729417 
1.9999999999997962, -1.3657250211652059 
2.0099999999998173, -1.3593191037835164 
2.0199999999998384, -1.3513394931175475 
2.0299999999998595, -1.3415252444637216 
2.0399999999998806, -1.3296025353296053 
2.0499999999999017, -1.3152986865274543 
2.059999999999923, -1.298360804643255 
2.069999999999944, -1.27857824213006 
2.079999999999965, -1.2558073513588095 
2.089999999999986, -1.22999636675851 
2.100000000000007, -1.2012077629627043 
2.1100000000000283, -1.169635137218424 
2.1200000000000494, -1.1356115844512984 
2.1300000000000705, -1.0996067861451857 
2.1400000000000916, -1.0622108340399434 
2.1500000000001127, -1.024104365206798 
2.160000000000134, -0.986016876445311 
2.170000000000155, -0.9486776701497464 
2.180000000000176, -0.9127659293704725 
2.190000000000197, -0.8788670556597948 
2.2000000000002182, -0.8474412128097414 
2.2100000000002393, -0.8188073353423793 
2.2200000000002604, -0.7931426220102347 
2.2300000000002815, -0.7704948001276101 
2.2400000000003026, -0.7508029024778524 
2.2500000000003237, -0.733922056688579 
2.260000000000345, -0.7196485094635054 
2.270000000000366, -0.7077422870707895 
2.280000000000387, -0.6979460913197999 
2.290000000000408, -0.6899999887925862 
2.3000000000004293, -0.6836520861883187 
2.3100000000004504, -0.6786657255075149 
2.3200000000004715, -0.6748238575498449 
2.3300000000004926, -0.6719312435079955 
2.3400000000005137, -0.6698150581827684 
2.3500000000005348, -0.6683243683403237 
2.360000000000556, -0.667328860761292 
2.370000000000577, -0.666717108000281 
2.380000000000598, -0.6663945891783912 
2.390000000000619, -0.6662816276172107 
2.4000000000006403, -0.6663113645577724 
2.4100000000006614, -0.6664278560684062 
2.4200000000006825, -0.6665843562145343 
2.4300000000007036, -0.6667418315805642 
2.4400000000007247, -0.6668677383449769 
2.450000000000746, -0.6669350812936138 
2.460000000000767, -0.6669217622556721 
2.470000000000788, -0.6668102113011355 
2.480000000000809, -0.6665872758902391 
2.49000000000083, -0.6662443203472476 
2.5000000000008513, -0.665777461796705 
2.5100000000008724, -0.6651878428794236 
2.5200000000008935, -0.6644818225295084 
2.5300000000009146, -0.6636709615479476 
2.5400000000009357, -0.6627716961896499 
2.550000000000957, -0.661804632693494 
2.560000000000978, -0.6607934540875392 
2.570000000000999, -0.6597634963643886 
2.58000000000102, -0.6587401092151811 
2.5900000000010412, -0.6577469534848207 
2.6000000000010624, -0.6568043965124285 
2.6100000000010835, -0.6559281494439464 
2.6200000000011046, -0.6551282562835196 
2.6300000000011257, -0.6544085040217982 
2.6400000000011468, -0.6537662851760184 
2.650000000001168, -0.6531929117023685 
2.660000000001189, -0.6526743508379209 
2.67000000000121, -0.6521923254723896 
2.680000000001231, -0.6517256924658836 
2.6900000000012523, -0.6512519845335498 
2.7000000000012734, -0.6507489816416667 
2.7100000000012945, -0.6501961743275011 
2.7200000000013156, -0.6495759991952829 
2.7300000000013367, -0.6488747652828926 
2.740000000001358, -0.6480832417394385 
2.750000000001379, -0.6471969309405468 
2.7600000000014, -0.6462160955155535 
2.770000000001421, -0.6451456352980443 
2.780000000001442, -0.6439949189885937 
2.7900000000014633, -0.6427776682846333 
2.8000000000014844, -0.6415119751076623 
2.8100000000015055, -0.6402205114504403 
2.8200000000015266, -0.6389309710624749 
2.8300000000015477, -0.6376767654444802 
2.840000000001569, -0.6364979842589767 
2.85000000000159, -0.6354426217186546 
2.860000000001611, -0.6345680644218514 
2.870000000001632, -0.6339428307402019 
2.8800000000016532, -0.6336485453378978 
2.8900000000016743, -0.6337821226266533 
2.9000000000016954, -0.634458117428047 
2.9100000000017165, -0.6358111765608743 
2.9200000000017377, -0.6379984871027846 
2.9300000000017588, -0.6412020599008477 
2.94000000000178, -0.645630603394965 
2.950000000001801, -0.6515206252969943 
2.960000000001822, -0.6591362420930303 
2.970000000001843, -0.6687669787876704 
2.9800000000018643, -0.68072261792185 
2.9900000000018854, -0.6953239479630395 
3.0000000000019065, -0.7128881484251918 
3.0100000000019276, -0.7337076688319265 
3.0200000000019487, -0.758021999579434 
3.03000000000197, -0.7859828957421183 
3.040000000001991, -0.8176155089334034 
3.050000000002012, -0.8527803523257058 
3.060000000002033, -0.8911434690619159 
3.070000000002054, -0.9321635130783973 
3.0800000000020753, -0.9751034335096428 
3.0900000000020964, -1.0190703727104484 
3.1000000000021175, -1.0630808656873008 
3.1100000000021386, -1.106141604396859 
3.1200000000021597, -1.14733167869697 
3.130000000002181, -1.1858721675063868 
3.140000000002202, -1.2211730255419202 
3.150000000002223, -1.2528533868331941 
3.160000000002244, -1.2807372098138736 
3.1700000000022652, -1.3048299878890754 
3.1800000000022863, -1.3252837015977452 
3.1900000000023074, -1.3423568505448407 
3.2000000000023285, -1.3563750841925775 
3.2100000000023496, -1.3676962904800343 
3.2200000000023707, -1.3766823755585693 
3.230000000002392, -1.38367856783984 
3.240000000002413, -1.3890000037855443 
3.250000000002434, -1.392924646013016 
3.260000000002455, -1.3956912381371083 
3.2700000000024763, -1.3975009547356816 
3.2800000000024974, -1.39852156148852 
3.2900000000025185, -1.3988931500896118 
3.3000000000025396, -1.3987347537760744 
3.3100000000025607, -1.398151301831652 
3.3200000000025818, -1.3972403837131846 
3.330000000002603, -1.3960981573541842 
3.340000000002624, -1.3948235133893687 
3.350000000002645, -1.3935194555158525 
3.360000000002666, -1.3922908178546318 
3.3700000000026873, -1.3912381305488206 
3.3800000000027084, -1.3904486561883607 
3.3900000000027295, -1.3899869410848154 
3.4000000000027506, -1.389887921952086 
3.4100000000027717, -1.390155079906186 
3.420000000002793, -1.3907643721339473 
3.430000000002814, -1.3916725109724242 
3.440000000002835, -1.3928266979442196 
3.450000000002856, -1.394172807529582 
3.460000000002877, -1.395660112022555 
3.4700000000028983, -1.397242248083134 
3.4800000000029194, -1.3988754854614367 
3.4900000000029405, -1.400515998839933 
3.5000000000029616, -1.402117690484558 
3.5100000000029827, -1.4036314138963824 
3.520000000003004, -1.4050056178586925 
3.530000000003025, -1.4061878391460894 
3.540000000003046, -1.4071262966153608 
3.550000000003067, -1.4077710224864572 
3.5600000000030882, -1.408074312512724 
3.5700000000031094, -1.407990589816832 
3.5800000000031305, -1.407475950894153 
3.5900000000031516, -1.4064876872074104 
3.6000000000031727, -1.4049839988502102 
3.6100000000031938, -1.4029239971883218 
3.620000000003215, -1.4002679783000702 
3.630000000003236, -1.396977867551163 
3.640000000003257, -1.39301770140377 
3.650000000003278, -1.3883540269733223 
3.6600000000032993, -1.3829561541756712 
3.6700000000033204, -1.3767962733350558 
3.6800000000033415, -1.369849533820581 
3.6900000000033626, -1.3620942508286185 
3.7000000000033837, -1.3535124600498554 
3.710000000003405, -1.344091074795912 
3.720000000003426, -1.3338239228546298 
3.730000000003447, -1.3227149517945698 
3.740000000003468, -1.3107828760195739 
3.750000000003489, -1.298067454453054 
3.7600000000035103, -1.2846373646976736 
3.7700000000035314, -1.2705991986218432 
3.7800000000035525, -1.256106402353963 
3.7900000000035736, -1.241366086561359 
3.8000000000035947, -1.2266407931845476 
3.810000000003616, -1.2122419854132238 
3.820000000003637, -1.1985127882693114 
3.830000000003658, -1.185799701645386 
3.840000000003679, -1.174416380443015 
3.8500000000037002, -1.164606041577623 
3.8600000000037213, -1.1565109967460823 
3.8700000000037424, -1.150156924789944 
3.8800000000037635, -1.1454557250705526 
3.8900000000037847, -1.1422255527048417 
3.9000000000038058, -1.1402221065186413 
3.910000000003827, -1.1391731415196602 
3.920000000003848, -1.1388089185079653 
3.930000000003869, -1.1388840047004982 
3.94000000000389, -1.1391890510364553 
3.9500000000039113, -1.1395536910737771 
3.9600000000039324, -1.1398430070044336 
3.9700000000039535, -1.1399501936517427 
3.9800000000039746, -1.1397875462847828 
3.9900000000039957, -1.1392771465685438 
4.000000000004016, -1.1383419252711118 
4.010000000003993, -1.1368972794704697 
4.02000000000397, -1.1348431423942564 
4.030000000003946, -1.1320563225201106 
4.040000000003923, -1.128383017651431 
4.0500000000039, -1.123631659189386 
4.0600000000038765, -1.1175666603214147 
4.070000000003853, -1.1099042401619676 
4.08000000000383, -1.100312250903932 
4.090000000003807, -1.0884167315601463 
4.100000000003783, -1.0738184705480327 
4.11000000000376, -1.0561226875138503 
4.120000000003737, -1.0349833915153661 
4.130000000003713, -1.0101604995544249 
4.14000000000369, -0.9815825154855929 
4.150000000003667, -0.9494018389695889 
4.1600000000036434, -0.9140263444615963 
4.17000000000362, -0.8761128521226332 
4.180000000003597, -0.836516825227166 
4.1900000000035735, -0.7962056871504072 
4.20000000000355, -0.7561548695217434 
4.210000000003527, -0.7172503702385179 
4.220000000003504, -0.6802173041493547 
4.23000000000348, -0.6455836396764953 
4.240000000003457, -0.6136774272039708 
4.250000000003434, -0.5846485981444953 
4.26000000000341, -0.5585041260992646 
4.270000000003387, -0.5351468113957348 
4.280000000003364, -0.514411126452591 
4.2900000000033405, -0.496092778071789 
4.300000000003317, -0.4799710600344576 
4.310000000003294, -0.46582451557865623 
4.320000000003271, -0.453441087318207 
4.330000000003247, -0.44262408035288947 
4.340000000003224, -0.4331951435236782 
4.350000000003201, -0.42499524716594866 
4.360000000003177, -0.41788439571830543 
4.370000000003154, -0.4117406031462878 
4.380000000003131, -0.4064584922199386 
4.390000000003107, -0.4019477544643133 
4.400000000003084, -0.39813161935912655 
4.410000000003061, -0.39494542101456703 
4.4200000000030375, -0.3923353107148248 
4.430000000003014, -0.39025713842166515 
4.440000000002991, -0.3886755110417695 
4.450000000002968, -0.38756302670024323 
4.460000000002944, -0.3868996801129255 
4.470000000002921, -0.38667243280622915 
4.480000000002898, -0.3868749422867866 
4.490000000002874, -0.3875074455363781 
4.500000000002851, -0.3885767938249483 
4.510000000002828, -0.39009663732143385 
4.520000000002804, -0.3920877588798554 
4.530000000002781, -0.39457855616314985 
4.540000000002758, -0.39760566926442814 
4.5500000000027345, -0.40121474626230824 
4.560000000002711, -0.40546133037664117 
4.570000000002688, -0.4104118376723429 
4.580000000002665, -0.41614457089661666 
4.590000000002641, -0.42275067930631643 
4.600000000002618, -0.4303349213501274 
4.610000000002595, -0.4390160108971714 
4.620000000002571, -0.4489262223054081 
4.630000000002548, -0.4602097912199416 
4.640000000002525, -0.47301948011059436 
4.6500000000025015, -0.4875105001455456 
4.660000000002478, -0.5038308445375087 
4.670000000002455, -0.5221070916209322 
4.6800000000024315, -0.5424250385355917 
4.690000000002408, -0.564805338498217 
4.700000000002385, -0.5891758265922801 
4.710000000002362, -0.6153444378349867 
4.720000000002338, -0.642979122660997 
4.730000000002315, -0.6716028931760686 
4.740000000002292, -0.7006115418905753 
4.750000000002268, -0.7293173967753439 
4.760000000002245, -0.7570149815056906 
4.770000000002222, -0.7830562496674658 
4.7800000000021985, -0.8069182578621299 
4.790000000002175, -0.8282477587869531 
4.800000000002152, -0.8468747927208256 
4.810000000002129, -0.862797119093438 
4.820000000002105, -0.8761447114771486 
4.830000000002082, -0.8871361007870949 
4.840000000002059, -0.8960365757023929 
4.850000000002035, -0.9031243137346167 
4.860000000002012, -0.9086665768403381 
4.870000000001989, -0.9129053514494988 
4.880000000001965, -0.916050453963302 
4.890000000001942, -0.9182778218591379 
4.900000000001919, -0.9197310014830468 
4.9100000000018955, -0.9205243567229164 
4.920000000001872, -0.9207470412058405 
