t, s[1].omega / s[0].omega 
0, -0.920065105019731 
0.009999999999999995, -0.9261448347596632 
0.019999999999999934, -0.9311284985664571 
0.029999999999999874, -0.9348544976323103 
0.04000000000000012, -0.9374025707543778 
0.050000000000000405, -0.9389926963247536 
0.06000000000000069, -0.9398729336301782 
0.07000000000000098, -0.9402511742664521 
0.08000000000000126, -0.9402745758772368 
0.09000000000000155, -0.9400365130974982 
0.10000000000000184, -0.9395946090158505 
0.11000000000000212, -0.9389951003537815 
0.12000000000000241, -0.9383081428212098 
0.130000000000002, -0.9376825612940948 
0.1400000000000009, -0.9374212869173946 
0.1499999999999998, -0.9380503030193796 
0.1599999999999987, -0.9403075454833848 
0.1699999999999976, -0.9449616640565524 
0.1799999999999965, -0.9524576192639176 
0.1899999999999954, -0.9625585573950236 
0.1999999999999943, -0.9742450415273718 
0.2099999999999932, -0.9860094985555798 
0.2199999999999921, -0.9964174752524595 
0.229999999999991, -1.0046030781793145 
0.2399999999999899, -1.01041185611438 
0.2499999999999888, -1.0141911819623937 
0.2599999999999877, -1.016467569566477 
0.2699999999999866, -1.0177217576531485 
0.2799999999999855, -1.0183052495746485 
0.2899999999999844, -1.0184432520902382 
0.2999999999999833, -1.0182669522765175 
0.3099999999999822, -1.017848266457378 
0.3199999999999811, -1.0172339654980225 
0.32999999999998, -1.016489136437092 
0.3399999999999789, -1.01576485935245 
0.3499999999999778, -1.015393846300026 
0.35999999999997667, -1.0159718237431667 
0.36999999999997557, -1.018310027523523 
0.37999999999997447, -1.0231463322347443 
0.38999999999997337, -1.030697876239944 
0.39999999999997227, -1.0403804070230744 
0.40999999999997117, -1.0509556926040577 
0.41999999999997006, -1.0610170301372865 
0.42999999999996896, -1.0694918717094863 
0.43999999999996786, -1.0759002703951315 
0.44999999999996676, -1.080307708175325 
0.45999999999996566, -1.0830916103077692 
0.46999999999996456, -1.0847010751556712 
0.47999999999996346, -1.0855155342953338 
0.48999999999996235, -1.0858032714450705 
0.49999999999996125, -1.085734908601792 
0.5099999999999602, -1.085415516369474 
0.519999999999959, -1.0849218139066765 
0.529999999999958, -1.084346295417339 
0.5399999999999568, -1.0838515805101132 
0.5499999999999557, -1.0837193298127208 
0.5599999999999546, -1.0843420131655472 
0.5699999999999535, -1.0861014207312325 
0.5799999999999524, -1.0891705993775995 
0.5899999999999513, -1.0933922088379713 
0.5999999999999502, -1.0983377707739361 
0.6099999999999491, -1.1034780965296764 
0.619999999999948, -1.108333184168379 
0.6299999999999469, -1.112549856033862 
0.6399999999999458, -1.1159271986158987 
0.6499999999999447, -1.1184132428474798 
0.6599999999999436, -1.1200767194310401 
0.6699999999999425, -1.1210576844570033 
0.6799999999999414, -1.1215147491158648 
0.6899999999999403, -1.121589005318865 
0.6999999999999392, -1.1213921824566686 
0.7099999999999381, -1.1210148564033058 
0.719999999999937, -1.1205470848935375 
0.7299999999999359, -1.1201023579196199 
0.7399999999999348, -1.1198292722498855 
0.7499999999999337, -1.1198904530154599 
0.7599999999999326, -1.1204058894621398 
0.7699999999999315, -1.1213972596671788 
0.7799999999999304, -1.1227802817813983 
0.7899999999999293, -1.124407204653939 
0.7999999999999282, -1.126120104725105 
0.8099999999999271, -1.1277838565052927 
0.819999999999926, -1.1292957903877627 
0.8299999999999249, -1.1305827482758766 
0.8399999999999238, -1.1315957085051114 
0.8499999999999227, -1.1323072317047527 
0.8599999999999216, -1.1327117706022476 
0.8699999999999205, -1.1328254305303642 
0.8799999999999194, -1.1326824282888377 
0.8899999999999183, -1.1323295694021884 
0.8999999999999172, -1.1318229063386354 
0.9099999999999161, -1.1312288955384548 
0.919999999999915, -1.130626945728788 
0.9299999999999139, -1.130105643005562 
0.9399999999999128, -1.1297471283705023 
0.9499999999999117, -1.1296048476403397 
0.9599999999999106, -1.1296885005996669 
0.9699999999999095, -1.1299645222431418 
0.9799999999999084, -1.130368596726354 
0.9899999999999073, -1.1308226577783893 
0.9999999999999062, -1.131250566702192 
1.0099999999999052, -1.1315883822793547 
1.019999999999904, -1.1317880642365366 
1.029999999999903, -1.131816831397518 
1.039999999999902, -1.1316550659189177 
1.0499999999999008, -1.13129420154253 
1.0599999999998997, -1.1307351081308057 
1.0699999999998986, -1.1299875917813205 
1.0799999999998975, -1.129071541940496 
1.0899999999998964, -1.1280195634533103 
1.0999999999998953, -1.1268800777768049 
1.1099999999998942, -1.1257188880111797 
1.119999999999893, -1.124616354968913 
1.129999999999892, -1.1236577724643992 
1.1399999999998909, -1.12291648392273 
1.1499999999998898, -1.1224324746451626 
1.1599999999998887, -1.1221949797459017 
1.1699999999998876, -1.1221419300919706 
1.1799999999998865, -1.1221801542885677 
1.1899999999998854, -1.1222124743831827 
1.1999999999998843, -1.1221538772354251 
1.2099999999998832, -1.1219326032854011 
1.219999999999882, -1.12148450305464 
1.229999999999881, -1.1207504071315957 
1.2399999999998799, -1.1196808764746993 
1.2499999999998788, -1.1182461209255836 
1.2599999999998777, -1.116444849903296 
1.2699999999998766, -1.1143075133534572 
1.2799999999998755, -1.1118954141747546 
1.2899999999998744, -1.1093008826575426 
1.2999999999998733, -1.1066508270207227 
1.3099999999998722, -1.1041085653819604 
1.319999999999871, -1.1018614760696326 
1.32999999999987, -1.1000816362977637 
1.3399999999998689, -1.0988643589161047 
1.3499999999998678, -1.0981819706061677 
1.3599999999998666, -1.097896191982908 
1.3699999999998655, -1.0978234662903943 
1.3799999999998644, -1.097799355355281 
1.3899999999998633, -1.097702423729135 
1.3999999999998622, -1.0974418390636067 
1.4099999999998611, -1.0969313048376852 
1.41999999999986, -1.0960655442630614 
1.429999999999859, -1.0947078318043366 
1.4399999999998578, -1.0926961922693272 
1.4499999999998567, -1.0898751382568297 
1.4599999999998556, -1.086149796021199 
1.4699999999998545, -1.0815423450165111 
1.4799999999998534, -1.0762254346513787 
1.4899999999998523, -1.0705226889883412 
1.4999999999998512, -1.0648800101988605 
1.5099999999998501, -1.0598018024216675 
1.519999999999849, -1.0557360697987654 
1.529999999999848, -1.0529271371257702 
1.5399999999998468, -1.051323553506764 
1.5499999999998457, -1.0506284392070193 
1.5599999999998446, -1.0504609070031947 
1.5699999999998435, -1.0505016362067991 
1.5799999999998424, -1.0505439352839765 
1.5899999999998413, -1.0504697957135465 
1.5999999999998402, -1.050202025617313 
1.6099999999998391, -1.0496610641823367 
1.619999999999838, -1.0487313609417788 
1.629999999999837, -1.0472357880121206 
1.6399999999998358, -1.0449236942064632 
1.6499999999998347, -1.0414914703462927 
1.6599999999998336, -1.0366599878943041 
1.6699999999998325, -1.030309043060543 
1.6799999999998314, -1.0226145146426258 
1.6899999999998303, -1.014101718419366 
1.6999999999998292, -1.0055662810100228 
1.709999999999828, -0.9978820645018034 
1.719999999999827, -0.9917558771545801 
1.729999999999826, -0.9875167232287243 
1.7399999999998248, -0.9850476988385308 
1.7499999999998237, -0.983910289490816 
1.7599999999998226, -0.98357488123026 
1.7699999999998215, -0.9836049745379312 
1.7799999999998204, -0.9837197389137812 
1.7899999999998193, -0.9837661308162662 
1.7999999999998182, -0.9836624159895001 
1.809999999999817, -0.9833486828442284 
1.819999999999816, -0.9827513800255622 
1.8299999999998149, -0.9817578875146575 
1.8399999999998138, -0.9801996042712113 
1.8499999999998127, -0.9778516726867018 
1.8599999999998116, -0.9744675248351896 
1.8699999999998105, -0.9698622811205004 
1.8799999999998094, -0.9640252430087479 
1.8899999999998083, -0.957197498422597 
1.8999999999998072, -0.9498550078164856 
1.909999999999806, -0.9426027694223885 
1.919999999999805, -0.9360365131449025 
1.9299999999998039, -0.930618653867257 
1.9399999999998028, -0.9265896867952901 
1.9499999999998017, -0.923935033698948 
1.9599999999998006, -0.9224265803974969 
1.9699999999997995, -0.9217261952584425 
1.9799999999997984, -0.9214988493616272 
1.9899999999997973, -0.9214832413594332 
1.9999999999997962, -0.9215065854320319 
2.0099999999998173, -0.9214637122894631 
2.0199999999998384, -0.9212858968188489 
2.0299999999998595, -0.9209138760447558 
2.0399999999998806, -0.9202796817450132 
2.0499999999999017, -0.919299055364243 
2.059999999999923, -0.9178777382904256 
2.069999999999944, -0.9159347320225161 
2.079999999999965, -0.9134376144439562 
2.089999999999986, -0.9104315557702096 
2.100000000000007, -0.9070410012299147 
2.1100000000000283, -0.9034418526168506 
2.1200000000000494, -0.8998241227940946 
2.1300000000000705, -0.8963655164011639 
2.1400000000000916, -0.8932197100131262 
2.1500000000001127, -0.8905104869064788 
2.160000000000134, -0.8883230083391254 
2.170000000000155, -0.8866914513389519 
2.180000000000176, -0.8855903698168609 
2.190000000000197, -0.8849390673337671 
2.2000000000002182, -0.884621373801757 
2.2100000000002393, -0.8845127116072401 
2.2200000000002604, -0.8845020151911521 
2.2300000000002815, -0.884501303033159 
2.2400000000003026, -0.8844442239925054 
2.2500000000003237, -0.884279698174482 
2.260000000000345, -0.8839667474104568 
2.270000000000366, -0.8834740874911701 
2.280000000000387, -0.8827845279706281 
2.290000000000408, -0.881900417375227 
2.3000000000004293, -0.8808445977972094 
2.3100000000004504, -0.8796543516846377 
2.3200000000004715, -0.8783717883964062 
2.3300000000004926, -0.8770368556591629 
2.3400000000005137, -0.8756861557859914 
2.3500000000005348, -0.8743560311665819 
2.360000000000556, -0.8730862622024453 
2.370000000000577, -0.871921390833786 
2.380000000000598, -0.8709082819211138 
2.390000000000619, -0.8700900546565116 
2.4000000000006403, -0.8694979460520125 
2.4100000000006614, -0.8691438385707411 
2.4200000000006825, -0.8690164527517785 
2.4300000000007036, -0.8690830577835543 
2.4400000000007247, -0.8692962467436031 
2.450000000000746, -0.8696031067463353 
2.460000000000767, -0.8699534927584305 
2.470000000000788, -0.8703053762938108 
2.480000000000809, -0.8706270414632948 
2.49000000000083, -0.8708967418448635 
2.5000000000008513, -0.8711002670022125 
2.5100000000008724, -0.8712269558652647 
2.5200000000008935, -0.8712657946430491 
2.5300000000009146, -0.871204163506067 
2.5400000000009357, -0.8710306250906411 
2.550000000000957, -0.8707401857227666 
2.560000000000978, -0.8703386947304491 
2.570000000000999, -0.8698444933690757 
2.58000000000102, -0.8692882739740894 
2.5900000000010412, -0.8687131454624828 
2.6000000000010624, -0.8681753596274188 
2.6100000000010835, -0.8677437711590631 
2.6200000000011046, -0.8674950317688367 
2.6300000000011257, -0.8675030896016512 
2.6400000000011468, -0.8678253533108828 
2.650000000001168, -0.8684910938600092 
2.660000000001189, -0.8694971409605945 
2.67000000000121, -0.8708117486019462 
2.680000000001231, -0.8723830922815401 
2.6900000000012523, -0.8741472340084717 
2.7000000000012734, -0.8760318050422062 
2.7100000000012945, -0.8779549057202685 
2.7200000000013156, -0.8798227297554396 
2.7300000000013367, -0.88153254287279 
2.740000000001358, -0.8829863951049186 
2.750000000001379, -0.8841127832344011 
2.7600000000014, -0.8848838034140855 
2.770000000001421, -0.8853159384358358 
2.780000000001442, -0.8854552497573124 
2.7900000000014633, -0.8853585913280577 
2.8000000000014844, -0.885081743726067 
2.8100000000015055, -0.8846784512094594 
2.8200000000015266, -0.8842095618864896 
2.8300000000015477, -0.8837599608866544 
2.840000000001569, -0.8834592024724202 
2.85000000000159, -0.8834970321146434 
2.860000000001611, -0.8841194654965738 
2.870000000001632, -0.8855927198833642 
2.8800000000016532, -0.8881376567976164 
2.8900000000016743, -0.8918582977040208 
2.9000000000016954, -0.8966937625429031 
2.9100000000017165, -0.9024070784115896 
2.9200000000017377, -0.9086069878981677 
2.9300000000017588, -0.9148000853829252 
2.94000000000178, -0.9204797191687968 
2.950000000001801, -0.9252437737857827 
2.960000000001822, -0.9288927448209625 
2.970000000001843, -0.9314469292157919 
2.9800000000018643, -0.9330763459250606 
2.9900000000018854, -0.9340007461303461 
3.0000000000019065, -0.9344175258340787 
3.0100000000019276, -0.9344730140829407 
3.0200000000019487, -0.9342634794052124 
3.03000000000197, -0.9338499781364341 
3.040000000001991, -0.9332806291432492 
3.050000000002012, -0.9326230280880774 
3.060000000002033, -0.9320138234176898 
3.070000000002054, -0.931726897904458 
3.0800000000020753, -0.9322377704415347 
3.0900000000020964, -0.9342217344739442 
3.1000000000021175, -0.9384055454345702 
3.1100000000021386, -0.9452602670100013 
3.1200000000021597, -0.9546683060180845 
3.130000000002181, -0.9657881506427642 
3.140000000002202, -0.9772591653107444 
3.150000000002223, -0.987679111571411 
3.160000000002244, -0.9960932733486993 
3.1700000000022652, -1.0022112669168288 
3.1800000000022863, -1.0062776139406027 
3.1900000000023074, -1.008775823271746 
3.2000000000023285, -1.0101859852565003 
3.2100000000023496, -1.0108757991475112 
3.2200000000023707, -1.011088214503191 
3.230000000002392, -1.0109681480532218 
3.240000000002413, -1.0105958704069868 
3.250000000002434, -1.0100196699330248 
3.260000000002455, -1.0092951282968046 
3.2700000000024763, -1.0085452444656977 
3.2800000000024974, -1.0080501094474716 
3.2900000000025185, -1.0083396805131697 
3.3000000000025396, -1.010193622734895 
3.3100000000025607, -1.0144202385089118 
3.3200000000025818, -1.0214255886234205 
3.330000000002603, -1.0308449238185013 
3.340000000002624, -1.0415580781562717 
3.350000000002645, -1.0521131585260892 
3.360000000002666, -1.0612746676426 
3.3700000000026873, -1.0683808259818648 
3.3800000000027084, -1.073375093403919 
3.3900000000027295, -1.0765935633795123 
3.4000000000027506, -1.0785001130556398 
3.4100000000027717, -1.0795103369076164 
3.420000000002793, -1.0799276013523034 
3.430000000002814, -1.0799479816724802 
3.440000000002835, -1.0796907257325872 
3.450000000002856, -1.079234606396449 
3.460000000002877, -1.0786595002762343 
3.4700000000028983, -1.0780990834607356 
3.4800000000029194, -1.077799044149584 
3.4900000000029405, -1.0781408193516502 
3.5000000000029616, -1.079562388173573 
3.5100000000029827, -1.0823624937633032 
3.520000000003004, -1.0865133460499723 
3.530000000003025, -1.09164317221896 
3.540000000003046, -1.0971898975499812 
3.550000000003067, -1.102588368285049 
3.5600000000030882, -1.1073916642894066 
3.5700000000031094, -1.1113222848334876 
3.5800000000031305, -1.1142793087105691 
3.5900000000031516, -1.1163118569714043 
3.6000000000031727, -1.1175644253471533 
3.6100000000031938, -1.1182137566051022 
3.620000000003215, -1.1184219717769779 
3.630000000003236, -1.1183171672022045 
3.640000000003257, -1.1179976501202051 
3.650000000003278, -1.1175512833527252 
3.6600000000032993, -1.117081919261834 
3.6700000000033204, -1.116730734039225 
3.6800000000033415, -1.1166712864851058 
3.6900000000033626, -1.1170621234621514 
3.7000000000033837, -1.117977425784708 
3.710000000003405, -1.1193707474314225 
3.720000000003426, -1.121101415499358 
3.730000000003447, -1.1229942502871972 
3.740000000003468, -1.1248876897751194 
3.750000000003489, -1.1266540162572503 
3.7600000000035103, -1.1282001576196632 
3.7700000000035314, -1.1294622652119992 
3.7800000000035525, -1.1304022083846568 
3.7900000000035736, -1.1310074601969338 
3.8000000000035947, -1.1312909237273612 
3.810000000003616, -1.1312869412353823 
3.820000000003637, -1.131044058722273 
3.830000000003658, -1.1306192184142956 
3.840000000003679, -1.1300773435894453 
3.8500000000037002, -1.1294951145458658 
3.8600000000037213, -1.1289617517361905 
3.8700000000037424, -1.1285682433241828 
3.8800000000037635, -1.128384833593835 
3.8900000000037847, -1.1284396405283252 
3.9000000000038058, -1.128712649044123 
3.910000000003827, -1.1291461557177473 
3.920000000003848, -1.129662706622342 
3.930000000003869, -1.1301824923643073 
3.94000000000389, -1.1306357792748611 
3.9500000000039113, -1.1309686611082932 
3.9600000000039324, -1.1311434040170494 
3.9700000000039535, -1.131136244851739 
3.9800000000039746, -1.1309347944816985 
3.9900000000039957, -1.1305360702671403 
4.000000000004016, -1.1299457836414666 
4.010000000003993, -1.1291792064119088 
4.02000000000397, -1.1282633729029388 
4.030000000003946, -1.1272398880153622 
4.040000000003923, -1.126166945746197 
4.0500000000039, -1.1251180762691564 
4.0600000000038765, -1.124174952151424 
4.070000000003853, -1.123413480058717 
4.08000000000383, -1.122885200946374 
4.090000000003807, -1.1225993837540211 
4.100000000003783, -1.1225155936071485 
4.11000000000376, -1.1225547733935783 
4.120000000003737, -1.12262335504244 
4.130000000003713, -1.1226340100927932 
4.14000000000369, -1.1225129142489767 
4.150000000003667, -1.1221970215702997 
4.1600000000036434, -1.1216306116812844 
4.17000000000362, -1.1207671801428616 
4.180000000003597, -1.1195764466020264 
4.1900000000035735, -1.118051643415109 
4.20000000000355, -1.1162125869846302 
4.210000000003527, -1.1141048611821045 
4.220000000003504, -1.1117994124894555 
4.23000000000348, -1.1093955791249894 
4.240000000003457, -1.1070251161997051 
4.250000000003434, -1.104848521398286 
4.26000000000341, -1.103031567813351 
4.270000000003387, -1.1016972339105149 
4.280000000003364, -1.100872748452643 
4.2900000000033405, -1.100473188263995 
4.300000000003317, -1.1003415788244506 
4.310000000003294, -1.1003130233331164 
4.320000000003271, -1.1002548811696118 
4.330000000003247, -1.1000687259997057 
4.340000000003224, -1.0996702417217092 
4.350000000003201, -1.098966098133088 
4.360000000003177, -1.097839035209086 
4.370000000003154, -1.0961486174344908 
4.380000000003131, -1.0937537257788579 
4.390000000003107, -1.0905555357742487 
4.400000000003084, -1.0865458444691334 
4.410000000003061, -1.0818391767896336 
4.4200000000030375, -1.0766789408525728 
4.430000000003014, -1.0714224734195859 
4.440000000002991, -1.066504115078342 
4.450000000002968, -1.062358315714834 
4.460000000002944, -1.0592960500837698 
4.470000000002921, -1.057386792915522 
4.480000000002898, -1.056441246375534 
4.490000000002874, -1.0561240243638608 
4.500000000002851, -1.0561059441005953 
4.510000000002828, -1.0561503434747115 
4.520000000002804, -1.0561150564185584 
4.530000000002781, -1.0559126293100474 
4.540000000002758, -1.0554663020915964 
4.5500000000027345, -1.0546742519144747 
4.560000000002711, -1.0533822907366674 
4.570000000002688, -1.0513681461816797 
4.580000000002665, -1.0483517962551798 
4.590000000002641, -1.0440543069908252 
4.600000000002618, -1.0383125899591212 
4.610000000002595, -1.0312120586862015 
4.620000000002571, -1.0231614757788365 
4.630000000002548, -1.014854787934427 
4.640000000002525, -1.0071226852598723 
4.6500000000025015, -1.000714248761246 
4.660000000002478, -0.9960746353717133 
4.670000000002455, -0.9932212792183386 
4.6800000000024315, -0.9918037137504598 
4.690000000002408, -0.9913104979517626 
4.700000000002385, -0.9912772738265143 
4.710000000002362, -0.9913853152305855 
4.720000000002338, -0.9914540296921167 
4.730000000002315, -0.9913881755706576 
4.740000000002292, -0.991125088311823 
4.750000000002268, -0.9905954891805531 
4.760000000002245, -0.9896953383279012 
4.770000000002222, -0.9882657721676334 
4.7800000000021985, -0.9860867112384509 
4.790000000002175, -0.9829011423804129 
4.800000000002152, -0.9784887012892719 
4.810000000002129, -0.9727804415640696 
4.820000000002105, -0.9659581749417023 
4.830000000002082, -0.9584670711727741 
4.840000000002059, -0.9509252541507252 
4.850000000002035, -0.9439790645784207 
4.860000000002012, -0.9381596546293972 
4.870000000001989, -0.9337724149963288 
4.880000000001965, -0.9308454489014297 
4.890000000001942, -0.9291623352222425 
4.900000000001919, -0.928370408548755 
4.9100000000018955, -0.9281080158216888 
4.920000000001872, -0.9280887395648495 
4.930000000001849, -0.9281227876215825 
