t, s[1].omega / s[0].omega 
0, -1.959993047637783 
0.009999999999999995, -1.958985537549804 
0.019999999999999934, -1.9572564381588715 
0.029999999999999874, -1.9545972008649837 
0.04000000000000012, -1.9508673081503098 
0.050000000000000405, -1.9465465510674946 
0.06000000000000069, -1.9433092316373284 
0.07000000000000098, -1.9424524013542093 
0.08000000000000126, -1.9429777857899875 
0.09000000000000155, -1.9434966959417523 
0.10000000000000184, -1.943571996316037 
0.11000000000000212, -1.9431908344289603 
0.12000000000000241, -1.9423727367738686 
0.130000000000002, -1.9412608529143198 
0.1400000000000009, -1.940601296296299 
0.1499999999999998, -1.9416624328819878 
0.1599999999999987, -1.9444274913746535 
0.1699999999999976, -1.9474122968609773 
0.1799999999999965, -1.949648109957917 
0.1899999999999954, -1.9510094736648642 
0.1999999999999943, -1.9516377004412182 
0.2099999999999932, -1.951660365045432 
0.2199999999999921, -1.951132800357599 
0.229999999999991, -1.950034407024802 
0.2399999999999899, -1.94827676386911 
0.2499999999999888, -1.945750518509719 
0.2599999999999877, -1.9425375243936471 
0.2699999999999866, -1.9393890251932902 
0.2799999999999855, -1.9376169792349678 
0.2899999999999844, -1.937459903699904 
0.2999999999999833, -1.937853675279578 
0.3099999999999822, -1.93802785268814 
0.3199999999999811, -1.9377879156140267 
0.32999999999998, -1.9370863334361423 
0.3399999999999789, -1.93588929002925 
0.3499999999999778, -1.9345304399843761 
0.35999999999997667, -1.9344258093072955 
0.36999999999997557, -1.9370450317615038 
0.37999999999997447, -1.9412713172976528 
0.38999999999997337, -1.9450092812147468 
0.39999999999997227, -1.9475184825882639 
0.40999999999997117, -1.9489347563980668 
0.41999999999997006, -1.949528595784566 
0.42999999999996896, -1.9494889320566866 
0.43999999999996786, -1.9489080236622978 
0.44999999999996676, -1.9478012272050684 
0.45999999999996566, -1.9461361136874005 
0.46999999999996456, -1.943907949869627 
0.47999999999996346, -1.941364926520149 
0.48999999999996235, -1.9392797340912131 
0.49999999999996125, -1.9384149138287754 
0.5099999999999602, -1.9384777092988361 
0.519999999999959, -1.9386638804788572 
0.529999999999958, -1.9385544838270476 
0.5399999999999568, -1.9380132523426774 
0.5499999999999557, -1.9369129548946098 
0.5599999999999546, -1.9351979699581985 
0.5699999999999535, -1.9336614818295836 
0.5799999999999524, -1.9347573030686689 
0.5899999999999513, -1.939595169881964 
0.5999999999999502, -1.9454014129745005 
0.6099999999999491, -1.9497880470979592 
0.619999999999948, -1.9524624935333545 
0.6299999999999469, -1.9538556037701393 
0.6399999999999458, -1.9543653541660304 
0.6499999999999447, -1.9542366905468604 
0.6599999999999436, -1.9535934818035536 
0.6699999999999425, -1.9524832402750874 
0.6799999999999414, -1.9509262043263533 
0.6899999999999403, -1.9490115331927291 
0.6999999999999392, -1.9470996803551077 
0.7099999999999381, -1.9458447013697397 
0.719999999999937, -1.945507353959466 
0.7299999999999359, -1.9455926649291513 
0.7399999999999348, -1.9455623230798804 
0.7499999999999337, -1.9451699773969153 
0.7599999999999326, -1.9442450618577773 
0.7699999999999315, -1.9425467599388668 
0.7799999999999304, -1.9401379902217397 
0.7899999999999293, -1.938922928856782 
0.7999999999999282, -1.9425121846152844 
0.8099999999999271, -1.9500319521501965 
0.819999999999926, -1.9569438155130243 
0.8299999999999249, -1.9614431322121557 
0.8399999999999238, -1.9639256995113485 
0.8499999999999227, -1.9650818922047353 
0.8599999999999216, -1.9653819902514336 
0.8699999999999205, -1.965087893061424 
0.8799999999999194, -1.9643311907825147 
0.8899999999999183, -1.9631796805571446 
0.8999999999999172, -1.9617020604185267 
0.9099999999999161, -1.9600822432903002 
0.919999999999915, -1.9587532622884196 
0.9299999999999139, -1.958133886795053 
0.9399999999999128, -1.9580681217940215 
0.9499999999999117, -1.9580566512220396 
0.9599999999999106, -1.9577679450829966 
0.9699999999999095, -1.956998581087354 
0.9799999999999084, -1.9554577510734508 
0.9899999999999073, -1.9528198730948358 
0.9999999999999062, -1.9499271124678974 
1.0099999999999052, -1.950965366720429 
1.019999999999904, -1.95863731576283 
1.029999999999903, -1.9679090437847797 
1.039999999999902, -1.9744804081001235 
1.0499999999999008, -1.9781933780467458 
1.0599999999998997, -1.9800182934502684 
1.0699999999998986, -1.9807010308397863 
1.0799999999998975, -1.980664820653148 
1.0899999999998964, -1.9801275389632724 
1.0999999999998953, -1.9792028774978885 
1.1099999999998942, -1.977973643990103 
1.119999999999893, -1.9765702120789093 
1.129999999999892, -1.9752939318498353 
1.1399999999998909, -1.974549637491296 
1.1499999999998898, -1.9743682337289408 
1.1599999999998887, -1.9743432582236675 
1.1699999999998876, -1.9741073936017752 
1.1799999999998865, -1.9734312128513853 
1.1899999999998854, -1.9720142940988024 
1.1999999999998843, -1.9693922567142437 
1.2099999999998832, -1.9657577324515565 
1.219999999999882, -1.9648083848743039 
1.229999999999881, -1.9716133557000575 
1.2399999999998799, -1.982228491041298 
1.2499999999998788, -1.9903389002938254 
1.2599999999998777, -1.9949763206397708 
1.2699999999998766, -1.9972719479078855 
1.2799999999998755, -1.9981966148315926 
1.2899999999998744, -1.998302392436583 
1.2999999999998733, -1.9978704326797563 
1.3099999999998722, -1.997044885261348 
1.319999999999871, -1.9959217691865554 
1.32999999999987, -1.9946209050754262 
1.3399999999998689, -1.993396503676702 
1.3499999999998678, -1.9926274022553414 
1.3599999999998666, -1.9924024626946628 
1.3699999999998655, -1.9923638460683097 
1.3799999999998644, -1.992137995371203 
1.3899999999998633, -1.991482826698975 
1.3999999999998622, -1.9900896189809945 
1.4099999999998611, -1.9874529952868059 
1.41999999999986, -1.9836032457489576 
1.429999999999859, -1.9821255526231407 
1.4399999999998578, -1.9887232657374625 
1.4499999999998567, -1.9996951013410136 
1.4599999999998556, -2.0081362468262762 
1.4699999999998545, -2.012918483260625 
1.4799999999998534, -2.0152569791020136 
1.4899999999998523, -2.016186630376227 
1.4999999999998512, -2.0162860183922424 
1.5099999999998501, -2.0158449297450747 
1.519999999999849, -2.015009898157159 
1.529999999999848, -2.0138779279004213 
1.5399999999998468, -2.012572507735404 
1.5499999999998457, -2.0113611066685704 
1.5599999999998446, -2.010628518358023 
1.5699999999998435, -2.0104327917523808 
1.5799999999998424, -2.0103913154522983 
1.5899999999998413, -2.010136109306756 
1.5999999999998402, -2.009426330142537 
1.6099999999998391, -2.007937059315511 
1.619999999999838, -2.0051780793527345 
1.629999999999837, -2.0014940202384186 
1.6399999999998358, -2.001149005637251 
1.6499999999998347, -2.008770734024807 
1.6599999999998336, -2.0191777715531467 
1.6699999999998325, -2.0265796097588225 
1.6799999999998314, -2.0306359789882977 
1.6899999999998303, -2.0325605639393935 
1.6999999999998292, -2.033253101511067 
1.709999999999828, -2.03319904210462 
1.719999999999827, -2.0326365575246124 
1.729999999999826, -2.0316849526369407 
1.7399999999998248, -2.0304302608049087 
1.7499999999998237, -2.0290198641588213 
1.7599999999998226, -2.0278026646149194 
1.7699999999998215, -2.0271824563624534 
1.7799999999998204, -2.027078836831452 
1.7899999999998193, -2.0270307320436456 
1.7999999999998182, -2.0266982296904756 
1.809999999999817, -2.02585111633885 
1.819999999999816, -2.024148893585055 
1.8299999999998149, -2.021265430046241 
1.8399999999998138, -2.018537207638457 
1.8499999999998127, -2.0209294156244924 
1.8599999999998116, -2.0295143107235925 
1.8699999999998105, -2.0380559661086037 
1.8799999999998094, -2.0434704540595865 
1.8899999999998083, -2.0463060054638986 
1.8999999999998072, -2.047560408446758 
1.909999999999806, -2.0478646136234313 
1.919999999999805, -2.0475438965126043 
1.9299999999998039, -2.046750180235185 
1.9399999999998028, -2.045556676287937 
1.9499999999998017, -2.0440424774528188 
1.9599999999998006, -2.042448356856774 
1.9699999999997995, -2.041295177131246 
1.9799999999997984, -2.040908215841087 
1.9899999999997973, -2.0409239338634846 
1.9999999999997962, -2.0408308972174156 
2.0099999999998173, -2.040358803798731 
2.0199999999998384, -2.0392902346010895 
2.0299999999998595, -2.037331857488876 
2.0399999999998806, -2.034748858299371 
2.0499999999999017, -2.0343832539734192 
2.059999999999923, -2.0396069991415513 
2.069999999999944, -2.0472579426091024 
2.079999999999965, -2.053039567157213 
2.089999999999986, -2.0563684402490225 
2.100000000000007, -2.0579993365219043 
2.1100000000000283, -2.058567977513234 
2.1200000000000494, -2.0584304032851333 
2.1300000000000705, -2.057752690882446 
2.1400000000000916, -2.0565939271173015 
2.1500000000001127, -2.0549800605713924 
2.160000000000134, -2.053048725143238 
2.170000000000155, -2.0513117892140813 
2.180000000000176, -2.050455439095135 
2.190000000000197, -2.0504050828938007 
2.2000000000002182, -2.0504870884335356 
2.2100000000002393, -2.0502791013889934 
2.2200000000002604, -2.0496032537549675 
2.2300000000002815, -2.0482753241455995 
2.2400000000003026, -2.046299154372239 
2.2500000000003237, -2.0451013739504638 
2.260000000000345, -2.0476701548545115 
2.270000000000366, -2.05340068444887 
2.280000000000387, -2.0586177947916604 
2.290000000000408, -2.061936561090109 
2.3000000000004293, -2.0636920699719012 
2.3100000000004504, -2.0643960030222974 
2.3200000000004715, -2.0643689740158835 
2.3300000000004926, -2.063759995007948 
2.3400000000005137, -2.06260166374753 
2.3500000000005348, -2.0608636259750894 
2.360000000000556, -2.0585776575942107 
2.370000000000577, -2.056179869711605 
2.380000000000598, -2.0546523540224073 
2.390000000000619, -2.054386842683893 
2.4000000000006403, -2.0546123285730022 
2.4100000000006614, -2.054639969152735 
2.4200000000006825, -2.054250815576557 
2.4300000000007036, -2.0533445375825328 
2.4400000000007247, -2.0518901199808948 
2.450000000000746, -2.050592247482431 
2.460000000000767, -2.0515284013113386 
2.470000000000788, -2.0553293768319008 
2.480000000000809, -2.0595609150052976 
2.49000000000083, -2.0625610732771866 
2.5000000000008513, -2.064265485682825 
2.5100000000008724, -2.0650092205086925 
2.5200000000008935, -2.0650414727317807 
2.5300000000009146, -2.064473940528914 
2.5400000000009357, -2.06330290285421 
2.550000000000957, -2.0614362726182582 
2.560000000000978, -2.0587861661927187 
2.570000000000999, -2.05563911136644 
2.58000000000102, -2.0531708320304034 
2.5900000000010412, -2.052444986163095 
2.6000000000010624, -2.05277283686343 
2.6100000000010835, -2.0530586150493373 
2.6200000000011046, -2.0529314846669093 
2.6300000000011257, -2.0523398087724805 
2.6400000000011468, -2.051276626192757 
2.650000000001168, -2.050082359077653 
2.660000000001189, -2.0500639871227113 
2.67000000000121, -2.0522938483342994 
2.680000000001231, -2.055515851653551 
2.6900000000012523, -2.058124447845887 
2.7000000000012734, -2.0597311337027064 
2.7100000000012945, -2.0604925023705056 
2.7200000000013156, -2.0605817108028335 
2.7300000000013367, -2.0600719353673265 
2.740000000001358, -2.0589260883908485 
2.750000000001379, -2.0569966033631584 
2.7600000000014, -2.0540712346516496 
2.770000000001421, -2.0501940095860127 
2.780000000001442, -2.04648916025831 
2.7900000000014633, -2.044835921963458 
2.8000000000014844, -2.0451080049876964 
2.8100000000015055, -2.0456989924177504 
2.8200000000015266, -2.0458714038701324 
2.8300000000015477, -2.0455630649814234 
2.840000000001569, -2.044812073214751 
2.85000000000159, -2.043780831658417 
2.860000000001611, -2.0432138568458678 
2.870000000001632, -2.0442176289385254 
2.8800000000016532, -2.046519452320621 
2.8900000000016743, -2.0487805879738645 
2.9000000000016954, -2.0503357107333344 
2.9100000000017165, -2.051159130146935 
2.9200000000017377, -2.051354155681266 
2.9300000000017588, -2.0509675707866335 
2.94000000000178, -2.0499472192208352 
2.950000000001801, -2.0481186204952624 
2.960000000001822, -2.045180167215543 
2.970000000001843, -2.0408885448315646 
2.9800000000018643, -2.0359039694482757 
2.9900000000018854, -2.0325920195379665 
3.0000000000019065, -2.032260935441199 
3.0100000000019276, -2.033131490157782 
3.0200000000019487, -2.033698343440336 
3.03000000000197, -2.033711878042218 
3.040000000001991, -2.0332553917596843 
3.050000000002012, -2.0324334464260922 
3.060000000002033, -2.031609336229218 
3.070000000002054, -2.031659165067247 
3.0800000000020753, -2.033056062117025 
3.0900000000020964, -2.034989452192118 
3.1000000000021175, -2.0365706778236765 
3.1100000000021386, -2.037541949773011 
3.1200000000021597, -2.037927100041587 
3.130000000002181, -2.037759800101184 
3.140000000002202, -2.0369995771462484 
3.150000000002223, -2.0354918691140207 
3.160000000002244, -2.0329299822026163 
3.1700000000022652, -2.0288889556978384 
3.1800000000022863, -2.023315250694192 
3.1900000000023074, -2.01791833163708 
3.2000000000023285, -2.0156953193106757 
3.2100000000023496, -2.016348312262337 
3.2200000000023707, -2.017390495028036 
3.230000000002392, -2.0178459102439805 
3.240000000002413, -2.017734151793289 
3.250000000002434, -2.0171856882741097 
3.260000000002455, -2.0163655007331753 
3.2700000000024763, -2.015770887688537 
3.2800000000024974, -2.016187893171789 
3.2900000000025185, -2.0176399192768923 
3.3000000000025396, -2.019273894008788 
3.3100000000025607, -2.0204968110372716 
3.3200000000025818, -2.0211795007792706 
3.330000000002603, -2.0213351268770645 
3.340000000002624, -2.0209533336061423 
3.350000000002645, -2.0199400064918516 
3.360000000002666, -2.0180710190941 
3.3700000000026873, -2.014951342214895 
3.3800000000027084, -2.010116672595591 
3.3900000000027295, -2.003823950038552 
3.4000000000027506, -1.9985881677151032 
3.4100000000027717, -1.99722002378491 
3.420000000002793, -1.9982853176723308 
3.430000000002814, -1.9993233209144772 
3.440000000002835, -1.9996977128117837 
3.450000000002856, -1.9995193482700953 
3.460000000002877, -1.9989287916885714 
3.4700000000028983, -1.998123872122957 
3.4800000000029194, -1.9976523265243586 
3.4900000000029405, -1.998217806311396 
3.5000000000029616, -1.9996785653025217 
3.5100000000029827, -2.001213829407619 
3.520000000003004, -2.002330893036487 
3.530000000003025, -2.00293063458732 
3.540000000003046, -2.003019609716711 
3.550000000003067, -2.0025748292421506 
3.5600000000030882, -2.001489595854954 
3.5700000000031094, -1.9995282948775461 
3.5800000000031305, -1.9962912648028777 
3.5900000000031516, -1.9913411419942466 
3.6000000000031727, -1.9850340941711075 
3.6100000000031938, -1.9799490552670598 
3.620000000003215, -1.9787001884935456 
3.630000000003236, -1.9797578104688385 
3.640000000003257, -1.9807650683664328 
3.650000000003278, -1.981124040304702 
3.6600000000032993, -1.9809396796566887 
3.6700000000033204, -1.98034373491508 
3.6800000000033415, -1.9795236865730046 
3.6900000000033626, -1.9790214095897167 
3.7000000000033837, -1.9795795387181827 
3.710000000003405, -1.9811116579457244 
3.720000000003426, -1.982769349879829 
3.730000000003447, -1.9840056337289877 
3.740000000003468, -1.9847047249262588 
3.750000000003489, -1.9848815143267402 
3.7600000000035103, -1.9845314707425694 
3.7700000000035314, -1.983577313126665 
3.7800000000035525, -1.9818326688834609 
3.7900000000035736, -1.9789743521011878 
3.8000000000035947, -1.9746255171191716 
3.810000000003616, -1.9689498369695926 
3.820000000003637, -1.9638926132118075 
3.830000000003658, -1.9620587328481196 
3.840000000003679, -1.9627453664297156 
3.8500000000037002, -1.9637013472790308 
3.8600000000037213, -1.964104759513079 
3.8700000000037424, -1.9639713228325237 
3.8800000000037635, -1.963406373982216 
3.8900000000037847, -1.962545056458005 
3.9000000000038058, -1.9618558345431225 
3.910000000003827, -1.9622141158177726 
3.920000000003848, -1.9638450191518142 
3.930000000003869, -1.9658583625451893 
3.94000000000389, -1.9674724036982654 
3.9500000000039113, -1.9684788549223007 
3.9600000000039324, -1.9689067034010423 
3.9700000000039535, -1.968795985146685 
3.9800000000039746, -1.9681286864145968 
3.9900000000039957, -1.9668020092032479 
4.000000000004016, -1.9646103008422657 
4.010000000003993, -1.9612756341410549 
4.02000000000397, -1.9567392457348691 
4.030000000003946, -1.9520146749027334 
4.040000000003923, -1.949316839042374 
4.0500000000039, -1.9492231127218662 
4.0600000000038765, -1.950001535939558 
4.070000000003853, -1.9504697195258038 
4.08000000000383, -1.9504344066992387 
4.090000000003807, -1.9499467981336402 
4.100000000003783, -1.9490676314062287 
4.11000000000376, -1.9480960772502443 
4.120000000003737, -1.9479573782956277 
4.130000000003713, -1.9494996455260751 
4.14000000000369, -1.952060347261583 
4.150000000003667, -1.9544014202673385 
4.1600000000036434, -1.9560133563976425 
4.17000000000362, -1.9569014337419954 
4.180000000003597, -1.9571714212408082 
4.1900000000035735, -1.9568862656598687 
4.20000000000355, -1.9560365513636075 
4.210000000003527, -1.9545336353885905 
4.220000000003504, -1.9522191619973728 
4.23000000000348, -1.9489687595248077 
4.240000000003457, -1.9451059697749007 
4.250000000003434, -1.941959005589841 
4.26000000000341, -1.9408499776486157 
4.270000000003387, -1.941180038290118 
4.280000000003364, -1.9416473075266123 
4.2900000000033405, -1.9417290104996876 
4.300000000003317, -1.9413639947563586 
4.310000000003294, -1.940543040463968 
4.320000000003271, -1.939347687174278 
4.330000000003247, -1.938453094184256 
4.340000000003224, -1.9393222117995657 
4.350000000003201, -1.942308098275981 
4.360000000003177, -1.9457917571250483 
4.370000000003154, -1.9484843453901637 
4.380000000003131, -1.9501665761364624 
4.390000000003107, -1.951011692678716 
4.400000000003084, -1.951196478614159 
4.410000000003061, -1.950818518136036 
4.4200000000030375, -1.9498954577491385 
4.430000000003014, -1.948378069785731 
4.440000000002991, -1.9461883280559427 
4.450000000002968, -1.9433726697624132 
4.460000000002944, -1.9404842084719391 
4.470000000002921, -1.9386474169971273 
4.480000000002898, -1.9382949636240068 
4.490000000002874, -1.9385920946734156 
4.500000000002851, -1.9387545701101865 
4.510000000002828, -1.9385308124587362 
4.520000000002804, -1.9378439117678563 
4.530000000002781, -1.936615267023237 
4.540000000002758, -1.9350602968954491 
4.5500000000027345, -1.9345526564712823 
4.560000000002711, -1.9370501315065702 
4.570000000002688, -1.941783042332491 
4.580000000002665, -1.9462087386134077 
4.590000000002641, -1.9492376387342454 
4.600000000002618, -1.9509831500971995 
4.610000000002595, -1.9517852247971266 
4.620000000002571, -1.9518945430636088 
4.630000000002548, -1.9514475307703674 
4.640000000002525, -1.950493574353798 
4.6500000000025015, -1.9490286144190438 
4.660000000002478, -1.947057543507147 
4.670000000002455, -1.944767930964855 
4.6800000000024315, -1.9427836593826968 
4.690000000002408, -1.9418338285039085 
4.700000000002385, -1.9417939698000097 
4.710000000002362, -1.9419440871192069 
4.720000000002338, -1.941838168190984 
4.730000000002315, -1.941311197073438 
4.740000000002292, -1.9402107064284628 
4.750000000002268, -1.9384035018385248 
4.760000000002245, -1.9365120506682358 
4.770000000002222, -1.9371204536381061 
4.7800000000021985, -1.9421012766400083 
4.790000000002175, -1.9486637631693433 
4.800000000002152, -1.9537630225934692 
4.810000000002129, -1.9568898665526695 
4.820000000002105, -1.9585401313813413 
4.830000000002082, -1.9592008004842576 
4.840000000002059, -1.9591761222866246 
4.850000000002035, -1.9586263127654315 
4.860000000002012, -1.957623151095311 
4.870000000001989, -1.9562030306549072 
4.880000000001965, -1.954449889762183 
4.890000000001942, -1.952668004649722 
4.900000000001919, -1.9514388194284797 
4.9100000000018955, -1.9510536740553952 
4.920000000001872, -1.9511003125872928 
4.930000000001849, -1.9510583786909403 
4.940000000001826, -1.950666468632966 
4.950000000001802, -1.9497380451841522 
