t, s[1].omega / s[0].omega 
0, -0.5299977505157013 
0.009999999999999995, -0.5298047869994459 
0.019999999999999934, -0.5296636132788068 
0.029999999999999874, -0.5295442612657218 
0.04000000000000012, -0.5294095255247477 
0.050000000000000405, -0.5292272093087496 
0.06000000000000069, -0.5289778078197077 
0.07000000000000098, -0.5286557440648069 
0.08000000000000126, -0.5282666308990454 
0.09000000000000155, -0.5278245850722092 
0.10000000000000184, -0.5273526468701626 
0.11000000000000212, -0.5268881778425488 
0.12000000000000241, -0.526495107627019 
0.130000000000002, -0.5262860703906336 
0.1400000000000009, -0.5264590233869328 
0.1499999999999998, -0.5273527919927753 
0.1599999999999987, -0.5295178425092113 
0.1699999999999976, -0.5337661115528286 
0.1799999999999965, -0.5410806085024019 
0.1899999999999954, -0.5521532698710866 
0.1999999999999943, -0.5664505490594001 
0.2099999999999932, -0.5815708258729934 
0.2199999999999921, -0.5943761138557877 
0.229999999999991, -0.6032981520240894 
0.2399999999999899, -0.608890308441443 
0.2499999999999888, -0.6124274544206738 
0.2599999999999877, -0.6148284604086813 
0.2699999999999866, -0.6165476287984648 
0.2799999999999855, -0.6177907260744603 
0.2899999999999844, -0.6186676904364113 
0.2999999999999833, -0.6192520775121926 
0.3099999999999822, -0.6195967788151916 
0.3199999999999811, -0.6197363915707139 
0.32999999999998, -0.6196867903190912 
0.3399999999999789, -0.6194444369802802 
0.3499999999999778, -0.6189864087113297 
0.35999999999997667, -0.6182731953711855 
0.36999999999997557, -0.617258065617807 
0.37999999999997447, -0.6159065703337374 
0.38999999999997337, -0.6142235553154863 
0.39999999999997227, -0.6122732099570442 
0.40999999999997117, -0.610172980272959 
0.41999999999997006, -0.6080588009261205 
0.42999999999996896, -0.6060439300050178 
0.43999999999996786, -0.6041966150337159 
0.44999999999996676, -0.6025421975020232 
0.45999999999996566, -0.6010787961460529 
0.46999999999996456, -0.5997942373478271 
0.47999999999996346, -0.5986780259341369 
0.48999999999996235, -0.5977275772494105 
0.49999999999996125, -0.5969503562285001 
0.5099999999999602, -0.5963638256785229 
0.519999999999959, -0.5959945064696447 
0.529999999999958, -0.5958768667268519 
0.5399999999999568, -0.5960524743235818 
0.5499999999999557, -0.5965697667784331 
0.5599999999999546, -0.5974846741983021 
0.5699999999999535, -0.5988619297375924 
0.5799999999999524, -0.6007759829553152 
0.5899999999999513, -0.6033087477644823 
0.5999999999999502, -0.6065388773097214 
0.6099999999999491, -0.6105147612197753 
0.619999999999948, -0.6152049484892226 
0.6299999999999469, -0.6204340279822389 
0.6399999999999458, -0.6258447989897069 
0.6499999999999447, -0.6309522747038497 
0.6599999999999436, -0.6353059408795536 
0.6699999999999425, -0.6386586007606326 
0.6799999999999414, -0.6410099903743793 
0.6899999999999403, -0.6425198952966726 
0.6999999999999392, -0.6433913413962766 
0.7099999999999381, -0.6437973082379844 
0.719999999999937, -0.6438557009824876 
0.7299999999999359, -0.6436288021157747 
0.7399999999999348, -0.6431273297370653 
0.7499999999999337, -0.6423085865706626 
0.7599999999999326, -0.6410627075587947 
0.7699999999999315, -0.6391810597141949 
0.7799999999999304, -0.6363002431157501 
0.7899999999999293, -0.6318237496404472 
0.7999999999999282, -0.6248669941877556 
0.8099999999999271, -0.6143829856148899 
0.819999999999926, -0.5997191296017527 
0.8299999999999249, -0.5815227608713804 
0.8399999999999238, -0.5620501521654924 
0.8499999999999227, -0.5440759392896829 
0.8599999999999216, -0.5294073151166594 
0.8699999999999205, -0.5184546518110353 
0.8799999999999194, -0.5107415195963642 
0.8899999999999183, -0.5055115456866887 
0.8999999999999172, -0.5020598871418637 
0.9099999999999161, -0.49983703344941677 
0.919999999999915, -0.4984475964987851 
0.9299999999999139, -0.4976180940245614 
0.9399999999999128, -0.4971633949144169 
0.9499999999999117, -0.49696010857808276 
0.9599999999999106, -0.49692752243957095 
0.9699999999999095, -0.4970147191311039 
0.9799999999999084, -0.49719240780562385 
0.9899999999999073, -0.49744826531585373 
0.9999999999999062, -0.49778461609528374 
1.0099999999999052, -0.49821689191082513 
1.019999999999904, -0.49877068921081114 
1.029999999999903, -0.499475003027342 
1.039999999999902, -0.5003501343185953 
1.0499999999999008, -0.5013913764796679 
1.0599999999998997, -0.5025540673833379 
1.0699999999998986, -0.5037503649733314 
1.0799999999998975, -0.5048669277862725 
1.0899999999998964, -0.5057993525368437 
1.0999999999998953, -0.5064828706860831 
1.1099999999998942, -0.5069003165591751 
1.119999999999893, -0.5070679502145132 
1.129999999999892, -0.5070136971820981 
1.1399999999998909, -0.5067595281288553 
1.1499999999998898, -0.5063103170760372 
1.1599999999998887, -0.505645640226004 
1.1699999999998876, -0.5047090982378897 
1.1799999999998865, -0.5033884512467863 
1.1899999999998854, -0.5014766312855558 
1.1999999999998843, -0.4985990893081498 
1.2099999999998832, -0.49409838604359757 
1.219999999999882, -0.4869273358867181 
1.229999999999881, -0.475793856624407 
1.2399999999998799, -0.4599810350847652 
1.2499999999998788, -0.44062756812293336 
1.2599999999998777, -0.4207965983946629 
1.2699999999998766, -0.4035535531331521 
1.2799999999998755, -0.3902826754110687 
1.2899999999998744, -0.38080535288322936 
1.2999999999998733, -0.37429113832128735 
1.3099999999998722, -0.36988420407328876 
1.319999999999871, -0.36691948682138514 
1.32999999999987, -0.36493459157101227 
1.3399999999998689, -0.3636235203076143 
1.3499999999998678, -0.3627889253037301 
1.3599999999998666, -0.36230668382466474 
1.3699999999998655, -0.36210267082717934 
1.3799999999998644, -0.36213876640942905 
1.3899999999998633, -0.3624054761852709 
1.3999999999998622, -0.36291940975294956 
1.4099999999998611, -0.36372447399124874 
1.41999999999986, -0.3648956851804903 
1.429999999999859, -0.36654359654205576 
1.4399999999998578, -0.36881469245236187 
1.4499999999998567, -0.37187758196594783 
1.4599999999998556, -0.37587702237853915 
1.4699999999998545, -0.3808377080699063 
1.4799999999998534, -0.38653547505493285 
1.4899999999998523, -0.39243960215788115 
1.4999999999998512, -0.3978634661056445 
1.5099999999998501, -0.40227667761980623 
1.519999999999849, -0.40550658718647864 
1.529999999999848, -0.4076803328731481 
1.5399999999998468, -0.40904440414653226 
1.5499999999998457, -0.4098313800188899 
1.5599999999998446, -0.4102105293586085 
1.5699999999998435, -0.41028606399981493 
1.5799999999998424, -0.4101091513129334 
1.5899999999998413, -0.40968891506022026 
1.5999999999998402, -0.4089998442186187 
1.6099999999998391, -0.40798911745520544 
1.619999999999838, -0.40659125764416304 
1.629999999999837, -0.40475837106171453 
1.6399999999998358, -0.40250491074548184 
1.6499999999998347, -0.3999430440361841 
1.6599999999998336, -0.39727076541831796 
1.6699999999998325, -0.39470549801054 
1.6799999999998314, -0.3924091042617087 
1.6899999999998303, -0.39045469228380686 
1.6999999999998292, -0.3888397871383627 
1.709999999999828, -0.3875187979908381 
1.719999999999827, -0.3864320884609976 
1.729999999999826, -0.3855243059260608 
1.7399999999998248, -0.3847533101761159 
1.7499999999998237, -0.38409323925605454 
1.7599999999998226, -0.38353507753459615 
1.7699999999998215, -0.3830874414486227 
1.7799999999998204, -0.38277971305384606 
1.7899999999998193, -0.38266947860489847 
1.7999999999998182, -0.3828567393006077 
1.809999999999817, -0.3835086240692331 
1.819999999999816, -0.3848999651801929 
1.8299999999998149, -0.3874750483735787 
1.8399999999998138, -0.391926338938813 
1.8499999999998127, -0.39924398100872577 
1.8599999999998116, -0.41057165532328643 
1.8699999999998105, -0.4265289127912347 
1.8799999999998094, -0.4458696184980012 
1.8899999999998083, -0.46478605085199354 
1.8999999999998072, -0.4790959742681438 
1.909999999999806, -0.48756278463276514 
1.919999999999805, -0.49181459629057345 
1.9299999999998039, -0.4939172141737814 
1.9399999999998028, -0.49511269522227963 
1.9499999999998017, -0.49592285522789153 
1.9599999999998006, -0.4965250708666981 
1.9699999999997995, -0.4969749462427989 
1.9799999999997984, -0.4972929422759339 
1.9899999999997973, -0.49748981802419534 
1.9999999999997962, -0.497571565236396 
2.0099999999998173, -0.49753923588028537 
2.0199999999998384, -0.49738868322171054 
2.0299999999998595, -0.4971121100327115 
2.0399999999998806, -0.49670257042690513 
2.0499999999999017, -0.49616164381643457 
2.059999999999923, -0.4955080455582978 
2.069999999999944, -0.49478178540386397 
2.079999999999965, -0.4940384523633344 
2.089999999999986, -0.4933340580962861 
2.100000000000007, -0.49270818445235304 
2.1100000000000283, -0.4921742552443228 
2.1200000000000494, -0.49172033639118934 
2.1300000000000705, -0.49131812296237165 
2.1400000000000916, -0.4909350673894994 
2.1500000000001127, -0.49054456125237006 
2.160000000000134, -0.49013122694609723 
2.170000000000155, -0.48969169732664436 
2.180000000000176, -0.48923360520717407 
2.190000000000197, -0.4887758147364796 
2.2000000000002182, -0.4883521926921337 
2.2100000000002393, -0.48802086200129136 
2.2200000000002604, -0.48788149115278195 
2.2300000000002815, -0.48810453635176804 
2.2400000000003026, -0.48897740464363715 
2.2500000000003237, -0.49096970408855756 
2.260000000000345, -0.49480236294337815 
2.270000000000366, -0.501448830469244 
2.280000000000387, -0.5118780764865829 
2.290000000000408, -0.5262812583037075 
2.3000000000004293, -0.5430063039555839 
2.3100000000004504, -0.5586519786125129 
2.3200000000004715, -0.5703392179044167 
2.3300000000004926, -0.577682371237314 
2.3400000000005137, -0.5820173019606031 
2.3500000000005348, -0.5847104774088735 
2.360000000000556, -0.5865392561745356 
2.370000000000577, -0.5878488433361324 
2.380000000000598, -0.5887908381113529 
2.390000000000619, -0.5894461865861923 
2.4000000000006403, -0.5898679012222255 
2.4100000000006614, -0.5900919644835451 
2.4200000000006825, -0.5901389609465968 
2.4300000000007036, -0.5900137779156824 
2.4400000000007247, -0.5897055624959199 
2.450000000000746, -0.5891895409502234 
2.460000000000767, -0.588433258515694 
2.470000000000788, -0.5874100073523766 
2.480000000000809, -0.586118755410387 
2.49000000000083, -0.5846017700798779 
2.5000000000008513, -0.5829453260590697 
2.5100000000008724, -0.5812571204465732 
2.5200000000008935, -0.5796330634738134 
2.5300000000009146, -0.5781343457097442 
2.5400000000009357, -0.5767843061982868 
2.550000000000957, -0.5755796065100288 
2.560000000000978, -0.5745054063776321 
2.570000000000999, -0.5735476398016074 
2.58000000000102, -0.5727003429763664 
2.5900000000010412, -0.5719690352925928 
2.6000000000010624, -0.5713720946182071 
2.6100000000010835, -0.5709416821987003 
2.6200000000011046, -0.5707250133564118 
2.6300000000011257, -0.5707862354820454 
2.6400000000011468, -0.5712089896846094 
2.650000000001168, -0.5720997182347739 
2.660000000001189, -0.5735915934591423 
2.67000000000121, -0.5758480628791265 
2.680000000001231, -0.5790626256890723 
2.6900000000012523, -0.5834465480357489 
2.7000000000012734, -0.5891886453640545 
2.7100000000012945, -0.5963661615658779 
2.7200000000013156, -0.6048023789086404 
2.7300000000013367, -0.6139347013177858 
2.740000000001358, -0.6228512140367253 
2.750000000001379, -0.6306051348455799 
2.7600000000014, -0.6366240393264284 
2.770000000001421, -0.6408615743108463 
2.780000000001442, -0.6436234501925961 
2.7900000000014633, -0.6453089563312637 
2.8000000000014844, -0.6462560306778065 
2.8100000000015055, -0.646698426077412 
2.8200000000015266, -0.64677583330713 
2.8300000000015477, -0.6465539739993275 
2.840000000001569, -0.6460371089814393 
2.85000000000159, -0.6451677660549147 
2.860000000001611, -0.6438116693424104 
2.870000000001632, -0.6417270396250871 
2.8800000000016532, -0.6385248410434937 
2.8900000000016743, -0.6336530842697031 
2.9000000000016954, -0.6264910671320351 
2.9100000000017165, -0.6166611414998212 
2.9200000000017377, -0.6044869735204272 
2.9300000000017588, -0.5911636208879015 
2.94000000000178, -0.5782774378655546 
2.950000000001801, -0.5670579614864986 
2.960000000001822, -0.5580297286972338 
2.970000000001843, -0.5511501565343859 
2.9800000000018643, -0.546099954373318 
2.9900000000018854, -0.542495159743481 
3.0000000000019065, -0.5399874516441991 
3.0100000000019276, -0.5382944239753643 
3.0200000000019487, -0.5371988988871521 
3.03000000000197, -0.5365384523332771 
3.040000000001991, -0.5361939020428974 
3.050000000002012, -0.536079538259165 
3.060000000002033, -0.5361355987174684 
3.070000000002054, -0.5363228398985839 
3.0800000000020753, -0.5366189454926944 
3.0900000000020964, -0.5370163952343866 
3.1000000000021175, -0.5375210141168069 
3.1100000000021386, -0.5381497061903965 
3.1200000000021597, -0.53892522342423 
3.130000000002181, -0.5398660103087816 
3.140000000002202, -0.5409710622476 
3.150000000002223, -0.5422038451326012 
3.160000000002244, -0.5434846537247923 
3.1700000000022652, -0.5447021989123979 
3.1800000000022863, -0.5457451589201676 
3.1900000000023074, -0.5465366325820483 
3.2000000000023285, -0.5470493032973073 
3.2100000000023496, -0.547295769170079 
3.2200000000023707, -0.5473067777381324 
3.230000000002392, -0.5471116818313588 
3.240000000002413, -0.5467263064392517 
3.250000000002434, -0.5461461056444871 
3.260000000002455, -0.5453401398416744 
3.2700000000024763, -0.5442410061650188 
3.2800000000024974, -0.5427241699442108 
3.2900000000025185, -0.5405649230463995 
3.3000000000025396, -0.5373522707200251 
3.3100000000025607, -0.5323397852964936 
3.3200000000025818, -0.5242880669698051 
3.330000000002603, -0.5116252398099013 
3.340000000002624, -0.4935195113639099 
3.350000000002645, -0.47152152933692576 
3.360000000002666, -0.44946102527476944 
3.3700000000026873, -0.43086548429760035 
3.3800000000027084, -0.4170598541007483 
3.3900000000027295, -0.40757805745752923 
3.4000000000027506, -0.40132983885475504 
3.4100000000027717, -0.39729402350781373 
3.420000000002793, -0.3947156438162146 
3.430000000002814, -0.39308762834214034 
3.440000000002835, -0.39208323982954296 
3.450000000002856, -0.391495942505873 
3.460000000002877, -0.3911971537655072 
3.4700000000028983, -0.3911091845097413 
3.4800000000029194, -0.39118887061656893 
3.4900000000029405, -0.39141838198196843 
3.5000000000029616, -0.3918008405195444 
3.5100000000029827, -0.39235901594016365 
3.520000000003004, -0.3931353553084464 
3.530000000003025, -0.3941909366424791 
3.540000000003046, -0.39559967937914103 
3.550000000003067, -0.39743257741051397 
3.5600000000030882, -0.3997264921852167 
3.5700000000031094, -0.4024384859318749 
3.5800000000031305, -0.4054064061887665 
3.5900000000031516, -0.40835885060221716 
3.6000000000031727, -0.4110002063992858 
3.6100000000031938, -0.4131239382821644 
3.620000000003215, -0.4146669939783876 
3.630000000003236, -0.4156792877471088 
3.640000000003257, -0.416257602242703 
3.650000000003278, -0.4164942369798297 
3.6600000000032993, -0.41645261303557063 
3.6700000000033204, -0.41615963204244527 
3.6800000000033415, -0.4156029890106603 
3.6900000000033626, -0.4147270109401909 
3.7000000000033837, -0.4134264449285607 
3.710000000003405, -0.4115452133017435 
3.720000000003426, -0.40889883218643125 
3.730000000003447, -0.4053471396267758 
3.740000000003468, -0.4009176382790476 
3.750000000003489, -0.395898836611482 
3.7600000000035103, -0.39077947320294926 
3.7700000000035314, -0.38604057165062455 
3.7800000000035525, -0.3819758435142321 
3.7900000000035736, -0.3786621892298724 
3.8000000000035947, -0.37603472703372076 
3.810000000003616, -0.37397272049939806 
3.820000000003637, -0.37235371773680953 
3.830000000003658, -0.3710772262544265 
3.840000000003679, -0.3700709996176897 
3.8500000000037002, -0.3692901453654076 
3.8600000000037213, -0.368714748788823 
3.8700000000037424, -0.3683488856092682 
3.8800000000037635, -0.36822262082099866 
3.8900000000037847, -0.36839833600530497 
3.9000000000038058, -0.3689831799006862 
3.910000000003827, -0.3701503873959335 
3.920000000003848, -0.37217320727248404 
3.930000000003869, -0.37547451812399524 
3.94000000000389, -0.38068713586702596 
3.9500000000039113, -0.3886886167072555 
3.9600000000039324, -0.4004923240776722 
3.9700000000039535, -0.41675658062689136 
3.9800000000039746, -0.4367838519133519 
3.9900000000039957, -0.45777461458438695 
4.000000000004016, -0.47595701167473703 
4.010000000003993, -0.48912865464855226 
4.02000000000397, -0.4975361557779704 
4.030000000003946, -0.502590703616309 
4.040000000003923, -0.5056043650187815 
4.0500000000039, -0.5074271001621548 
4.0600000000038765, -0.5085399671079684 
4.070000000003853, -0.5092055050455608 
4.08000000000383, -0.5095668379683639 
4.090000000003807, -0.5097004197337802 
4.100000000003783, -0.5096422782163182 
4.11000000000376, -0.509401199359171 
4.120000000003737, -0.508966693334965 
4.130000000003713, -0.508317127507088 
4.14000000000369, -0.507432181225101 
4.150000000003667, -0.5063107397193882 
4.1600000000036434, -0.5049884102280077 
4.17000000000362, -0.5035420317471182 
4.180000000003597, -0.5020724688687352 
4.1900000000035735, -0.5006735279567198 
4.20000000000355, -0.4994065094152921 
4.210000000003527, -0.4982929469911719 
4.220000000003504, -0.4973232199203414 
4.23000000000348, -0.49647164734654997 
4.240000000003457, -0.495710363764397 
4.250000000003434, -0.49501852881790753 
4.26000000000341, -0.494386873792402 
4.270000000003387, -0.49381954902441727 
4.280000000003364, -0.49333573286427557 
4.2900000000033405, -0.49297304067050896 
4.300000000003317, -0.4927942538145045 
4.310000000003294, -0.4928987884874271 
4.320000000003271, -0.49344067906514544 
4.330000000003247, -0.49465530573512106 
4.340000000003224, -0.4968966351339046 
4.350000000003201, -0.5006825144829014 
4.360000000003177, -0.5067303687568344 
4.370000000003154, -0.515926018158946 
4.380000000003131, -0.5290980226146559 
4.390000000003107, -0.5464428713731266 
4.400000000003084, -0.5667297888855153 
4.410000000003061, -0.5871339250531874 
4.4200000000030375, -0.6045554014415708 
4.430000000003014, -0.617408973365237 
4.440000000002991, -0.6259522645467342 
4.450000000002968, -0.6313072589726163 
4.460000000002944, -0.6345769938737711 
4.470000000002921, -0.6365450966482264 
4.480000000002898, -0.6376993471519864 
4.490000000002874, -0.6383261669434389 
4.500000000002851, -0.6385862377371087 
4.510000000002828, -0.6385602553514688 
4.520000000002804, -0.6382725048798171 
4.530000000002781, -0.637700116513271 
4.540000000002758, -0.6367740836070981 
4.5500000000027345, -0.6353792142067952 
4.560000000002711, -0.6333653556816483 
4.570000000002688, -0.6305876743807622 
4.580000000002665, -0.6269846150661403 
4.590000000002641, -0.6226621268930127 
4.600000000002618, -0.6179101858677913 
4.610000000002595, -0.613111070600432 
4.620000000002571, -0.608601869479228 
4.630000000002548, -0.6045908401446515 
4.640000000002525, -0.6011567977927487 
4.6500000000025015, -0.598292893669724 
4.660000000002478, -0.5959521438175812 
4.670000000002455, -0.5940771224284346 
4.6800000000024315, -0.5926141103048359 
4.690000000002408, -0.5915174548910245 
4.700000000002385, -0.5907493191088105 
4.710000000002362, -0.5902780696342345 
4.720000000002338, -0.5900769608293956 
4.730000000002315, -0.5901237547523421 
4.740000000002292, -0.5904013382869091 
4.750000000002268, -0.5908990861697145 
4.760000000002245, -0.5916145154458292 
4.770000000002222, -0.5925544975263382 
4.7800000000021985, -0.5937347573495761 
4.790000000002175, -0.595175596386118 
4.800000000002152, -0.5968912302714173 
4.810000000002129, -0.5988711778468916 
4.820000000002105, -0.6010568874982359 
4.830000000002082, -0.6033259765409112 
4.840000000002059, -0.6055034641804703 
4.850000000002035, -0.6074085673203313 
4.860000000002012, -0.608914265598069 
4.870000000001989, -0.6099786742908887 
4.880000000001965, -0.6106316462032215 
4.890000000001942, -0.6109371840525513 
