t, s[1].omega / s[0].omega 
0, -1.0999396927181893 
0.009999999999999995, -1.0972668914510444 
0.019999999999999934, -1.1005145825712759 
0.029999999999999874, -1.106692756890726 
0.04000000000000012, -1.1127832825815331 
0.050000000000000405, -1.117375778538237 
0.06000000000000069, -1.1203548941349406 
0.07000000000000098, -1.1220958995461774 
0.08000000000000126, -1.1229978464922774 
0.09000000000000155, -1.1233423870350858 
0.10000000000000184, -1.1232900633441079 
0.11000000000000212, -1.1229066624950712 
0.12000000000000241, -1.1221855509081238 
0.130000000000002, -1.1210672860167623 
0.1400000000000009, -1.1194820745126322 
0.1499999999999998, -1.1174742162594937 
0.1599999999999987, -1.1154922298447816 
0.1699999999999976, -1.1148161752879442 
0.1799999999999965, -1.1176548035640355 
0.1899999999999954, -1.126072226701322 
0.1999999999999943, -1.1399771233106628 
0.2099999999999932, -1.1564415947146685 
0.2199999999999921, -1.1716518181432864 
0.229999999999991, -1.1832934348408173 
0.2399999999999899, -1.1910639118085968 
0.2499999999999888, -1.19577090926354 
0.2599999999999877, -1.1984145550609147 
0.2699999999999866, -1.1997753979193901 
0.2799999999999855, -1.2003561987038853 
0.2899999999999844, -1.20044886994199 
0.2999999999999833, -1.2002139727545122 
0.3099999999999822, -1.1997468021234188 
0.3199999999999811, -1.1991400994003367 
0.32999999999998, -1.1985583085032236 
0.3399999999999789, -1.198309496551217 
0.3499999999999778, -1.1988356902199164 
0.35999999999997667, -1.2005295166291619 
0.36999999999997557, -1.2034642997597795 
0.37999999999997447, -1.2073107178010238 
0.38999999999997337, -1.211527588757192 
0.39999999999997227, -1.21560975849396 
0.40999999999997117, -1.2192094168359047 
0.41999999999997006, -1.2221410264889567 
0.42999999999996896, -1.2243457085664962 
0.43999999999996786, -1.2258548971496643 
0.44999999999996676, -1.2267575446038839 
0.45999999999996566, -1.227168492525736 
0.46999999999996456, -1.2272024907570005 
0.47999999999996346, -1.22696103886839 
0.48999999999996235, -1.2265344778872194 
0.49999999999996125, -1.2260148094666303 
0.5099999999999602, -1.2255077150831724 
0.519999999999959, -1.225127496222755 
0.529999999999958, -1.2249676670049916 
0.5399999999999568, -1.2250661043717883 
0.5499999999999557, -1.2253950385632277 
0.5599999999999546, -1.225880104337048 
0.5699999999999535, -1.2264278879371746 
0.5799999999999524, -1.2269472025701496 
0.5899999999999513, -1.2273615669511275 
0.5999999999999502, -1.227613577751239 
0.6099999999999491, -1.2276635501008195 
0.619999999999948, -1.2274862757550287 
0.6299999999999469, -1.2270684599065629 
0.6399999999999458, -1.226407397870453 
0.6499999999999447, -1.225510980356431 
0.6599999999999436, -1.224399529805759 
0.6699999999999425, -1.2231098818501245 
0.6799999999999414, -1.221701054104734 
0.6899999999999403, -1.2202590214845528 
0.6999999999999392, -1.2188960207650283 
0.7099999999999381, -1.2177372131212083 
0.719999999999937, -1.216887091100608 
0.7299999999999359, -1.216382286094441 
0.7399999999999348, -1.2161653743305505 
0.7499999999999337, -1.2161101672204988 
0.7599999999999326, -1.2160765012741699 
0.7699999999999315, -1.2159452776475503 
0.7799999999999304, -1.2156164341609916 
0.7899999999999293, -1.2149862010005656 
0.7999999999999282, -1.2139236086462524 
0.8099999999999271, -1.2122590614359996 
0.819999999999926, -1.2097948173392357 
0.8299999999999249, -1.2063442307147765 
0.8399999999999238, -1.2017972201707514 
0.8499999999999227, -1.1961992228832723 
0.8599999999999216, -1.1898283994709593 
0.8699999999999205, -1.1832456150710202 
0.8799999999999194, -1.1772477474328369 
0.8899999999999183, -1.1726280710677137 
0.8999999999999172, -1.169791805606177 
0.9099999999999161, -1.1685443835755704 
0.919999999999915, -1.1682967392730825 
0.9299999999999139, -1.1684592725912006 
0.9399999999999128, -1.1686556888502555 
0.9499999999999117, -1.1687062203969671 
0.9599999999999106, -1.1685283322786786 
0.9699999999999095, -1.168050965459135 
0.9799999999999084, -1.1671526696880288 
0.9899999999999073, -1.1656028756703187 
0.9999999999999062, -1.16298848959775 
1.0099999999999052, -1.158632561652151 
1.019999999999904, -1.151577869559096 
1.029999999999903, -1.1408305918234145 
1.039999999999902, -1.1261099442019091 
1.0499999999999008, -1.108916469031748 
1.0599999999998997, -1.0927258440858012 
1.0699999999998986, -1.08116711890364 
1.0799999999998975, -1.0755480542374272 
1.0899999999998964, -1.0744853606389317 
1.0999999999998953, -1.0756475396860634 
1.1099999999998942, -1.0773156242525626 
1.119999999999893, -1.0787048763656522 
1.129999999999892, -1.0796195176576264 
1.1399999999998909, -1.080094544381476 
1.1499999999998898, -1.0802057094208581 
1.1599999999998887, -1.079996759239854 
1.1699999999998876, -1.0794536011538713 
1.1799999999998865, -1.0784856945468497 
1.1899999999998854, -1.076897608682122 
1.1999999999998843, -1.0743495346151648 
1.2099999999998832, -1.0703334297569298 
1.219999999999882, -1.0642550439658804 
1.229999999999881, -1.055795937821595 
1.2399999999998799, -1.0456445315519936 
1.2499999999998788, -1.0360822825873806 
1.2599999999998777, -1.0302177576893343 
1.2699999999998766, -1.0297517961912317 
1.2799999999998755, -1.0336236705378237 
1.2899999999998744, -1.0392127703917313 
1.2999999999998733, -1.0443768972435639 
1.3099999999998722, -1.0482277034102476 
1.319999999999871, -1.050752236415072 
1.32999999999987, -1.052253848889485 
1.3399999999998689, -1.0530430101687664 
1.3499999999998678, -1.0533404498180612 
1.3599999999998666, -1.0532712359050649 
1.3699999999998655, -1.0528792188999823 
1.3799999999998644, -1.0521359805807244 
1.3899999999998633, -1.0509397158106275 
1.3999999999998622, -1.04911241934786 
1.4099999999998611, -1.0464250644770023 
1.41999999999986, -1.0427214411729975 
1.429999999999859, -1.0382451363447927 
1.4399999999998578, -1.034154660656364 
1.4499999999998567, -1.0327336609759346 
1.4599999999998556, -1.03638138536586 
1.4699999999998545, -1.045531607749359 
1.4799999999998534, -1.057774327150408 
1.4899999999998523, -1.0696339782423114 
1.4999999999998512, -1.078899928272325 
1.5099999999998501, -1.0851654258653385 
1.519999999999849, -1.0890153247894045 
1.529999999999848, -1.0912174062773663 
1.5399999999998468, -1.0923739113444229 
1.5499999999998457, -1.092871590734658 
1.5599999999998446, -1.092929339907561 
1.5699999999998435, -1.0926518197175763 
1.5799999999998424, -1.0920672915522034 
1.5899999999998413, -1.0911562375210118 
1.5999999999998402, -1.0898932918821163 
1.6099999999998391, -1.0883453954191675 
1.619999999999838, -1.0868826324188468 
1.629999999999837, -1.086488122065289 
1.6399999999998358, -1.0888808586825642 
1.6499999999998347, -1.0958777093402956 
1.6599999999998336, -1.107936891207851 
1.6699999999998325, -1.1232148876709729 
1.6799999999998314, -1.1384971729033566 
1.6899999999998303, -1.151163428363443 
1.6999999999998292, -1.1602410707049937 
1.709999999999828, -1.1660783186166956 
1.719999999999827, -1.1695353096009484 
1.729999999999826, -1.1714315335648735 
1.7399999999998248, -1.17235643920997 
1.7499999999998237, -1.1726777420574388 
1.7599999999998226, -1.1726065965364996 
1.7699999999998215, -1.172261851915634 
1.7799999999998204, -1.1717266400733588 
1.7899999999998193, -1.1711098023152664 
1.7999999999998182, -1.170619141994305 
1.809999999999817, -1.170613686771015 
1.819999999999816, -1.1715449075083229 
1.8299999999998149, -1.1737358833224742 
1.8399999999998138, -1.1771489793609509 
1.8499999999998127, -1.181380750473691 
1.8599999999998116, -1.1858769911161007 
1.8699999999998105, -1.1901489248524415 
1.8799999999998094, -1.1938655718505582 
1.8899999999998083, -1.1968537285807228 
1.8999999999998072, -1.199068085596168 
1.909999999999806, -1.2005575344960335 
1.919999999999805, -1.201428967465533 
1.9299999999998039, -1.2018106867572391 
1.9399999999998028, -1.2018245348251033 
1.9499999999998017, -1.2015744054948874 
1.9599999999998006, -1.201151455724117 
1.9699999999997995, -1.2006497586079774 
1.9799999999997984, -1.200180087109121 
1.9899999999997973, -1.199864664744377 
1.9999999999997962, -1.1998044864532893 
2.0099999999998173, -1.200039122632238 
2.0199999999998384, -1.2005340339995416 
2.0299999999998595, -1.2012031254897435 
2.0399999999998806, -1.2019426362989685 
2.0499999999999017, -1.2026558376061918 
2.059999999999923, -1.20326506976675 
2.069999999999944, -1.203714509398665 
2.079999999999965, -1.2039676279207074 
2.089999999999986, -1.204003016575148 
2.100000000000007, -1.2038109918565048 
2.1100000000000283, -1.2033918748175836 
2.1200000000000494, -1.2027559967219206 
2.1300000000000705, -1.2019252279118482 
2.1400000000000916, -1.2009357998721968 
2.1500000000001127, -1.1998417031714526 
2.160000000000134, -1.1987164312108332 
2.170000000000155, -1.1976495715294952 
2.180000000000176, -1.1967354417401184 
2.190000000000197, -1.1960525167267373 
2.2000000000002182, -1.1956360663389052 
2.2100000000002393, -1.1954576191040798 
2.2200000000002604, -1.195431128993874 
2.2300000000002815, -1.195445085838222 
2.2400000000003026, -1.1953937110742134 
2.2500000000003237, -1.195186448636909 
2.260000000000345, -1.1947393747166313 
2.270000000000366, -1.1939634881049737 
2.280000000000387, -1.19276162979421 
2.290000000000408, -1.1910387795317352 
2.3000000000004293, -1.1887232224461548 
2.3100000000004504, -1.1857906137153356 
2.3200000000004715, -1.1822844397127166 
2.3300000000004926, -1.1783341759885269 
2.3400000000005137, -1.1741746223984237 
2.3500000000005348, -1.1701541595959128 
2.360000000000556, -1.1666916114107981 
2.370000000000577, -1.1641434146718523 
2.380000000000598, -1.1626301516186535 
2.390000000000619, -1.1619756940691894 
2.4000000000006403, -1.1618350980827625 
2.4100000000006614, -1.1618818922510026 
2.4200000000006825, -1.1618988725490265 
2.4300000000007036, -1.1617614863854795 
2.4400000000007247, -1.1613806226899608 
2.450000000000746, -1.160646596402503 
2.460000000000767, -1.1593790174433287 
2.470000000000788, -1.1572766535244532 
2.480000000000809, -1.1538746674948197 
2.49000000000083, -1.1485508817977421 
2.5000000000008513, -1.1406662453486782 
2.5100000000008724, -1.1299193029508152 
2.5200000000008935, -1.1168423580838271 
2.5300000000009146, -1.103077771751 
2.5400000000009357, -1.0909527513400976 
2.550000000000957, -1.0823475868170052 
2.560000000000978, -1.0777063010419614 
2.570000000000999, -1.0761006387871308 
2.58000000000102, -1.076136823399832 
2.5900000000010412, -1.0767362008436203 
2.6000000000010624, -1.0773316114342553 
2.6100000000010835, -1.0777118304733655 
2.6200000000011046, -1.077826984476077 
2.6300000000011257, -1.0776664550195003 
2.6400000000011468, -1.0771966463021856 
2.650000000001168, -1.0763224339163715 
2.660000000001189, -1.074845641230883 
2.67000000000121, -1.0724061307010722 
2.680000000001231, -1.0684100502029028 
2.6900000000012523, -1.06199852474461 
2.7000000000012734, -1.052208124762473 
2.7100000000012945, -1.038542867985527 
2.7200000000013156, -1.0219047366835732 
2.7300000000013367, -1.0050363236117739 
2.740000000001358, -0.9913879563803112 
2.750000000001379, -0.9829992433250524 
2.7600000000014, -0.9795404721523463 
2.770000000001421, -0.9792389578240401 
2.780000000001442, -0.9803023466423687 
2.7900000000014633, -0.9816102832816164 
2.8000000000014844, -0.9826782848376032 
2.8100000000015055, -0.9833829266681828 
2.8200000000015266, -0.983741451437347 
2.8300000000015477, -0.9837960915252675 
2.840000000001569, -0.9835646809694367 
2.85000000000159, -0.9830174445954336 
2.860000000001611, -0.9820555915702143 
2.870000000001632, -0.9804782689808074 
2.8800000000016532, -0.9779321256962413 
2.8900000000016743, -0.9738534134330077 
2.9000000000016954, -0.9674541097653494 
2.9100000000017165, -0.9578766354486943 
2.9200000000017377, -0.9446665489469759 
2.9300000000017588, -0.9284719684760858 
2.94000000000178, -0.9113554178730154 
2.950000000001801, -0.8960600570843908 
2.960000000001822, -0.8846168345226303 
2.970000000001843, -0.8775151966178246 
2.9800000000018643, -0.873968222835608 
2.9900000000018854, -0.8727120767732346 
3.0000000000019065, -0.8726344492553724 
3.0100000000019276, -0.8730046744492865 
3.0200000000019487, -0.8734345262252626 
3.03000000000197, -0.8737534488867389 
3.040000000001991, -0.8738990855875974 
3.050000000002012, -0.8738474258102185 
3.060000000002033, -0.8735735248589325 
3.070000000002054, -0.8730283283106477 
3.0800000000020753, -0.8721217830465108 
3.0900000000020964, -0.8707097648930253 
3.1000000000021175, -0.8685919476075187 
3.1100000000021386, -0.8655384804332649 
3.1200000000021597, -0.8613641686491681 
3.130000000002181, -0.8560394523260072 
3.140000000002202, -0.8497738427610984 
3.150000000002223, -0.8429960658671873 
3.160000000002244, -0.8362318950595278 
3.1700000000022652, -0.8299628164753738 
3.1800000000022863, -0.8245383552573754 
3.1900000000023074, -0.8201504630232204 
3.2000000000023285, -0.8168436788544404 
3.2100000000023496, -0.8145409700358688 
3.2200000000023707, -0.8130795058887612 
3.230000000002392, -0.8122535550167292 
3.240000000002413, -0.8118563632080342 
3.250000000002434, -0.8117103411850654 
3.260000000002455, -0.8116798858312343 
3.2700000000024763, -0.8116691232964804 
3.2800000000024974, -0.8116115356340335 
3.2900000000025185, -0.8114584037400411 
3.3000000000025396, -0.8111707394566524 
3.3100000000025607, -0.8107171043184607 
3.3200000000025818, -0.8100774685005044 
3.330000000002603, -0.8092501511480557 
3.340000000002624, -0.808255896521149 
3.350000000002645, -0.8071339400319362 
3.360000000002666, -0.8059309556844537 
3.3700000000026873, -0.8046897180518311 
3.3800000000027084, -0.8034438715808558 
3.3900000000027295, -0.8022197238389153 
3.4000000000027506, -0.8010415736022674 
3.4100000000027717, -0.7999365814798656 
3.420000000002793, -0.7989369471469253 
3.430000000002814, -0.7980788432679944 
3.440000000002835, -0.7973984961510032 
3.450000000002856, -0.7969264645800145 
3.460000000002877, -0.7966818191189307 
3.4700000000028983, -0.7966682057165226 
3.4800000000029194, -0.7968732512151885 
3.4900000000029405, -0.7972715174550358 
3.5000000000029616, -0.7978298535468192 
3.5100000000029827, -0.798513212764905 
3.520000000003004, -0.7992890325175651 
3.530000000003025, -0.8001288296115888 
3.540000000003046, -0.8010063798913316 
3.550000000003067, -0.8018928824452841 
3.5600000000030882, -0.8027512918420368 
3.5700000000031094, -0.8035340046741822 
3.5800000000031305, -0.8041879792701364 
3.5900000000031516, -0.8046669963547949 
3.6000000000031727, -0.8049444661177351 
3.6100000000031938, -0.8050187329618177 
3.620000000003215, -0.8049089060668088 
3.630000000003236, -0.804646451405949 
3.640000000003257, -0.804269375836238 
3.650000000003278, -0.8038227824271431 
3.6600000000032993, -0.803366274770237 
3.6700000000033204, -0.8029866994694885 
3.6800000000033415, -0.8028128276748661 
3.6900000000033626, -0.8030257955347304 
3.7000000000033837, -0.8038566991771565 
3.710000000003405, -0.8055638768199964 
3.720000000003426, -0.808388902364422 
3.730000000003447, -0.8124986619642012 
3.740000000003468, -0.8179245718937626 
3.750000000003489, -0.8245087435586218 
3.7600000000035103, -0.8318708735528126 
3.7700000000035314, -0.8394262442885896 
3.7800000000035525, -0.8464940661322886 
3.7900000000035736, -0.8524903559275471 
3.8000000000035947, -0.8571067562478376 
3.810000000003616, -0.8603527612864028 
3.820000000003637, -0.8624511008993332 
3.830000000003658, -0.863689740701999 
3.840000000003679, -0.8643219733177668 
3.8500000000037002, -0.8645304954364059 
3.8600000000037213, -0.8644294700955667 
3.8700000000037424, -0.8640793034180401 
3.8800000000037635, -0.8635026478964425 
3.8900000000037847, -0.8627012648506394 
3.9000000000038058, -0.8616811297540126 
3.910000000003827, -0.8605002456524181 
3.920000000003848, -0.8593584928187982 
3.930000000003869, -0.858738622982338 
3.94000000000389, -0.8595538816100691 
3.9500000000039113, -0.8631415336189796 
3.9600000000039324, -0.870843631412904 
3.9700000000039535, -0.8831022030453705 
3.9800000000039746, -0.8986419068991859 
3.9900000000039957, -0.9147526383176734 
4.000000000004016, -0.9287595480654834 
4.010000000003993, -0.9393133051235832 
4.02000000000397, -0.9464630170023149 
4.030000000003946, -0.950960644801504 
4.040000000003923, -0.9536398476497409 
4.0500000000039, -0.9551479378148574 
4.0600000000038765, -0.9559119933091603 
4.070000000003853, -0.9561863947313272 
4.08000000000383, -0.9561056362594507 
4.090000000003807, -0.9557201037140169 
4.100000000003783, -0.9550136037711351 
4.11000000000376, -0.9539072351305874 
4.120000000003737, -0.9522575925426043 
4.130000000003713, -0.9498663316993257 
4.14000000000369, -0.9465378196590299 
4.150000000003667, -0.9422432164011276 
4.1600000000036434, -0.937418990464584 
4.17000000000362, -0.9332440845835162 
4.180000000003597, -0.9314542787079564 
4.1900000000035735, -0.9333871105121239 
4.20000000000355, -0.9388916939285832 
4.210000000003527, -0.9463144712878545 
4.220000000003504, -0.9536502908508886 
4.23000000000348, -0.959626159536205 
4.240000000003457, -0.9639039267740163 
4.250000000003434, -0.966703972655482 
4.26000000000341, -0.9684089684766934 
4.270000000003387, -0.9693583126914657 
4.280000000003364, -0.9697899466445531 
4.2900000000033405, -0.9698449877605324 
4.300000000003317, -0.9695850265485163 
4.310000000003294, -0.9690021043846144 
4.320000000003271, -0.9680150127835668 
4.330000000003247, -0.9664500997527762 
4.340000000003224, -0.9640088648788033 
4.350000000003201, -0.9602378359574679 
4.360000000003177, -0.9545503939247071 
4.370000000003154, -0.9464038299608099 
4.380000000003131, -0.9357364462007606 
4.390000000003107, -0.9235394470256377 
4.400000000003084, -0.9119678823788313 
4.410000000003061, -0.9033987601004053 
4.4200000000030375, -0.898990028477386 
4.430000000003014, -0.8981737947482188 
4.440000000002991, -0.8994474433955363 
4.450000000002968, -0.901419674514712 
4.460000000002944, -0.903272418068078 
4.470000000002921, -0.904692561336787 
4.480000000002898, -0.905643909760067 
4.490000000002874, -0.9061908711061504 
4.500000000002851, -0.9064072896932063 
4.510000000002828, -0.9063394942689971 
4.520000000002804, -0.9059917801278866 
4.530000000002781, -0.9053150551201782 
4.540000000002758, -0.9041883127661527 
4.5500000000027345, -0.9023879599893467 
4.560000000002711, -0.89954801330158 
4.570000000002688, -0.8951349436690441 
4.580000000002665, -0.8885014884447985 
4.590000000002641, -0.8791148526059939 
4.600000000002618, -0.8669715372405218 
4.610000000002595, -0.8529485270465493 
4.620000000002571, -0.8386811532811421 
4.630000000002548, -0.8259153368609585 
4.640000000002525, -0.8158203419688711 
4.6500000000025015, -0.8087260705055856 
4.660000000002478, -0.8042939045185544 
4.670000000002455, -0.801859653062019 
4.6800000000024315, -0.8007280848180379 
4.690000000002408, -0.8003358475324844 
4.700000000002385, -0.8002959750372456 
4.710000000002362, -0.8003733893666126 
4.720000000002338, -0.8004369675865954 
4.730000000002315, -0.8004145103884955 
4.740000000002292, -0.800259661342061 
4.750000000002268, -0.7999307197734422 
4.760000000002245, -0.7993792157958449 
4.770000000002222, -0.7985478141772551 
4.7800000000021985, -0.7973792248721958 
4.790000000002175, -0.7958364227100326 
4.800000000002152, -0.7939269503765305 
4.810000000002129, -0.7917154416141353 
4.820000000002105, -0.7893118858615564 
4.830000000002082, -0.786841395466268 
4.840000000002059, -0.7844153033673106 
4.850000000002035, -0.7821179531514922 
4.860000000002012, -0.7800085324983966 
4.870000000001989, -0.7781291060919184 
4.880000000001965, -0.7765112033951724 
4.890000000001942, -0.7751778987094975 
4.900000000001919, -0.7741419383743209 
4.9100000000018955, -0.7734022565114419 
4.920000000001872, -0.7729415787741627 
4.930000000001849, -0.7727270638629753 
