t, s[1].omega / s[0].omega 
0, -0.9799979924934438 
0.009999999999999995, -0.9797236286489986 
0.019999999999999934, -0.9792971169278903 
0.029999999999999874, -0.9787131100255497 
0.04000000000000012, -0.9779936724131328 
0.050000000000000405, -0.9772047029454339 
0.06000000000000069, -0.9764538227674355 
0.07000000000000098, -0.9758660803890062 
0.08000000000000126, -0.9755418801081848 
0.09000000000000155, -0.9755223952055445 
0.10000000000000184, -0.9757807849165515 
0.11000000000000212, -0.9762332127242863 
0.12000000000000241, -0.9767658004615467 
0.130000000000002, -0.9772717696387534 
0.1400000000000009, -0.9776791496943726 
0.1499999999999998, -0.9779562740498202 
0.1599999999999987, -0.978096029120282 
0.1699999999999976, -0.9780901897628933 
0.1799999999999965, -0.9779171199707373 
0.1899999999999954, -0.9775575288799581 
0.1999999999999943, -0.9770226899202707 
0.2099999999999932, -0.9763710483959227 
0.2199999999999921, -0.9757087294323141 
0.229999999999991, -0.9751727740684877 
0.2399999999999899, -0.9748894524389418 
0.2499999999999888, -0.9749253755436714 
0.2599999999999877, -0.9752689223034916 
0.2699999999999866, -0.9758460454319123 
0.2799999999999855, -0.9765494506801549 
0.2899999999999844, -0.9772717123727038 
0.2999999999999833, -0.9779330465792584 
0.3099999999999822, -0.9784900445121429 
0.3199999999999811, -0.9789216130192451 
0.32999999999998, -0.9792036965599826 
0.3399999999999789, -0.9792977688638983 
0.3499999999999778, -0.979169483253447 
0.35999999999997667, -0.9788200737127173 
0.36999999999997557, -0.9783021473281509 
0.37999999999997447, -0.9777193986334639 
0.38999999999997337, -0.9772177506817818 
0.39999999999997227, -0.9769524499141038 
0.40999999999997117, -0.97702804594213 
0.41999999999997006, -0.977456954553412 
0.42999999999996896, -0.9781710571498065 
0.43999999999996786, -0.9790612662564204 
0.44999999999996676, -0.9800147213944806 
0.45999999999996566, -0.9809419728086434 
0.46999999999996456, -0.9817870031967011 
0.47999999999996346, -0.982514596991055 
0.48999999999996235, -0.9830850348601133 
0.49999999999996125, -0.9834427409207568 
0.5099999999999602, -0.9835381974994662 
0.519999999999959, -0.9833638820545474 
0.529999999999958, -0.982969192356485 
0.5399999999999568, -0.982455893625609 
0.5499999999999557, -0.9819735853839016 
0.5599999999999546, -0.9817005155999023 
0.5699999999999535, -0.9817834029632022 
0.5799999999999524, -0.9822701921861383 
0.5899999999999513, -0.9831027192901995 
0.5999999999999502, -0.9841646173618235 
0.6099999999999491, -0.9853314581839238 
0.619999999999948, -0.986501395364495 
0.6299999999999469, -0.9876055247075712 
0.6399999999999458, -0.9885958449391741 
0.6499999999999447, -0.9894194831526685 
0.6599999999999436, -0.9900065449622193 
0.6699999999999425, -0.9902943046797836 
0.6799999999999414, -0.9902679426928285 
0.6899999999999403, -0.9899756399250818 
0.6999999999999392, -0.9895186264042043 
0.7099999999999381, -0.9890464797028398 
0.719999999999937, -0.9887498034509549 
0.7299999999999359, -0.9888085661154056 
0.7399999999999348, -0.9893078581352419 
0.7499999999999337, -0.9902053788428631 
0.7599999999999326, -0.9913788258547525 
0.7699999999999315, -0.9926904637413377 
0.7799999999999304, -0.9940254330886241 
0.7899999999999293, -0.9953034640502001 
0.7999999999999282, -0.9964673714384311 
0.8099999999999271, -0.9974568553146914 
0.819999999999926, -0.9981944666871893 
0.8299999999999249, -0.9986093259732415 
0.8399999999999238, -0.9986808449617443 
0.8499999999999227, -0.9984556076054154 
0.8599999999999216, -0.9980342633304508 
0.8699999999999205, -0.9975645560825039 
0.8799999999999194, -0.997239965161137 
0.8899999999999183, -0.9972566641329663 
0.8999999999999172, -0.9977235931845235 
0.9099999999999161, -0.998612711727743 
0.919999999999915, -0.9998010880079493 
0.9299999999999139, -1.0011433019694593 
0.9399999999999128, -1.0025160585537018 
0.9499999999999117, -1.0038322866320808 
0.9599999999999106, -1.005031426050322 
0.9699999999999095, -1.0060538448039267 
0.9799999999999084, -1.0068242455903076 
0.9899999999999073, -1.0072712153659558 
0.9999999999999062, -1.0073702267351587 
1.0099999999999052, -1.0071636011411846 
1.019999999999904, -1.00674882838914 
1.029999999999903, -1.0062702281587343 
1.039999999999902, -1.005917509769548 
1.0499999999999008, -1.0058854996641693 
1.0599999999998997, -1.0062860079238132 
1.0699999999998986, -1.0070961879262883 
1.0799999999998975, -1.0081976781565885 
1.0899999999998964, -1.0094471738093065 
1.0999999999998953, -1.0107209355133007 
1.1099999999998942, -1.0119311503012265 
1.119999999999893, -1.0130198500352918 
1.129999999999892, -1.0139355700994925 
1.1399999999998909, -1.014614282672948 
1.1499999999998898, -1.0149918480726101 
1.1599999999998887, -1.0150423006920566 
1.1699999999998876, -1.0148010478450002 
1.1799999999998865, -1.0143589787395317 
1.1899999999998854, -1.0138549108567265 
1.1999999999998843, -1.013469710569696 
1.2099999999998832, -1.013383049202289 
1.219999999999882, -1.0136922195719003 
1.229999999999881, -1.0143718833799389 
1.2399999999998799, -1.015312618328131 
1.2499999999998788, -1.0163809374064328 
1.2599999999998777, -1.0174582776914378 
1.2699999999998766, -1.0184598989305687 
1.2799999999998755, -1.019333854204522 
1.2899999999998744, -1.0200409995097475 
1.2999999999998733, -1.0205339880402649 
1.3099999999998722, -1.0207615251031577 
1.319999999999871, -1.0206993469006003 
1.32999999999987, -1.020375613341662 
1.3399999999998689, -1.0198727889855677 
1.3499999999998678, -1.019322240993859 
1.3599999999998666, -1.01889174961616 
1.3699999999998655, -1.0187378151981614 
1.3799999999998644, -1.0189364517867598 
1.3899999999998633, -1.019459414954618 
1.3999999999998622, -1.020208919781877 
1.4099999999998611, -1.0210623716736626 
1.41999999999986, -1.0219060890210876 
1.429999999999859, -1.0226582783041025 
1.4399999999998578, -1.023273213213907 
1.4499999999998567, -1.023724605972044 
1.4599999999998556, -1.0239831868456388 
1.4699999999998545, -1.0240131629723614 
1.4799999999998534, -1.023795129768699 
1.4899999999998523, -1.0233521327261863 
1.4999999999998512, -1.0227587169372823 
1.5099999999998501, -1.0221376606038337 
1.519999999999849, -1.021641159033739 
1.529999999999848, -1.0214017081002047 
1.5399999999998468, -1.021477935522109 
1.5499999999998457, -1.0218430298007175 
1.5599999999998446, -1.0224094393687955 
1.5699999999998435, -1.023059971474816 
1.5799999999998424, -1.02368127381039 
1.5899999999998413, -1.0241920083494707 
1.5999999999998402, -1.0245508850507492 
1.6099999999998391, -1.0247428150351736 
1.619999999999838, -1.0247555678303946 
1.629999999999837, -1.0245694030220316 
1.6399999999998358, -1.0241722665762891 
1.6499999999998347, -1.0235851926701367 
1.6599999999998336, -1.0228766225246035 
1.6699999999998325, -1.0221607445363066 
1.6799999999998314, -1.0215748183531033 
1.6899999999998303, -1.0212330789165107 
1.6999999999998292, -1.0211859418807434 
1.709999999999828, -1.0214112728862959 
1.719999999999827, -1.021825876517527 
1.729999999999826, -1.0223099239914428 
1.7399999999998248, -1.0227455275843589 
1.7499999999998237, -1.0230491701847195 
1.7599999999998226, -1.0231815314026513 
1.7699999999998215, -1.02313613288122 
1.7799999999998204, -1.0229157427187319 
1.7899999999998193, -1.0225160970164489 
1.7999999999998182, -1.021933972036536 
1.809999999999817, -1.0211910089874439 
1.819999999999816, -1.0203514768460609 
1.8299999999998149, -1.01952218642955 
1.8399999999998138, -1.0188292804207397 
1.8499999999998127, -1.018377601787263 
1.8599999999998116, -1.0182176036227342 
1.8699999999998105, -1.0183314061090605 
1.8799999999998094, -1.0186331156989457 
1.8899999999998083, -1.0189943329315332 
1.8999999999998072, -1.0192900221352719 
1.909999999999806, -1.019432744695686 
1.919999999999805, -1.0193826807069863 
1.9299999999998039, -1.0191390073438689 
1.9399999999998028, -1.0187169198800805 
1.9499999999998017, -1.0181262503871664 
1.9599999999998006, -1.0173728906355584 
1.9699999999997995, -1.0164804779042553 
1.9799999999997984, -1.0155104649433837 
1.9899999999997973, -1.0145641761481285 
1.9999999999997962, -1.0137615914054534 
2.0099999999998173, -1.0132057410817614 
2.0199999999998384, -1.0129514229545487 
2.0299999999998595, -1.0129830202778152 
2.0399999999998806, -1.0132082651838454 
2.0499999999999017, -1.0134888729940934 
2.059999999999923, -1.0136926215515558 
2.069999999999944, -1.013727432454131 
2.079999999999965, -1.0135510007224855 
2.089999999999986, -1.0131651108311805 
2.100000000000007, -1.0125940877497968 
2.1100000000000283, -1.0118593160204723 
2.1200000000000494, -1.0109745876011655 
2.1300000000000705, -1.0099653727867468 
2.1400000000000916, -1.008890613431355 
2.1500000000001127, -1.0078474986379666 
2.160000000000134, -1.00695324608496 
2.170000000000155, -1.0063127419134223 
2.180000000000176, -1.0059861740112443 
2.190000000000197, -1.0059602906134804 
2.2000000000002182, -1.0061388338133848 
2.2100000000002393, -1.0063769586247058 
2.2200000000002604, -1.0065369879905364 
2.2300000000002815, -1.0065223696121446 
2.2400000000003026, -1.0062872194624632 
2.2500000000003237, -1.0058330746229538 
2.260000000000345, -1.0051891450685473 
2.270000000000366, -1.0043841846525354 
2.280000000000387, -1.003436863514848 
2.290000000000408, -1.0023726575500718 
2.3000000000004293, -1.0012469579603556 
2.3100000000004504, -1.000152713284471 
2.3200000000004715, -0.9992051290343837 
2.3300000000004926, -0.9985110398310654 
2.3400000000005137, -0.9981357546850999 
2.3500000000005348, -0.998071827629196 
2.360000000000556, -0.9982267949443002 
2.370000000000577, -0.9984559922308477 
2.380000000000598, -0.9986190777211379 
2.390000000000619, -0.9986157201036625 
2.4000000000006403, -0.9983961485414893 
2.4100000000006614, -0.9979591938060531 
2.4200000000006825, -0.9973340429135765 
2.4300000000007036, -0.9965511857663791 
2.4400000000007247, -0.995629566564623 
2.450000000000746, -0.9945915118035012 
2.460000000000767, -0.9934867823467316 
2.470000000000788, -0.9924028979626869 
2.480000000000809, -0.9914524724965701 
2.49000000000083, -0.9907433225412489 
2.5000000000008513, -0.9903454306353235 
2.5100000000008724, -0.9902614012853512 
2.5200000000008935, -0.9904120342543538 
2.5300000000009146, -0.990661413908543 
2.5400000000009357, -0.9908702500298053 
2.550000000000957, -0.9909352040155641 
2.560000000000978, -0.9908023693163277 
2.570000000000999, -0.9904657380185881 
2.58000000000102, -0.98994971120593 
2.5900000000010412, -0.9892805497782954 
2.6000000000010624, -0.9884722865004494 
2.6100000000010835, -0.9875404832873971 
2.6200000000011046, -0.9865269874939337 
2.6300000000011257, -0.9855127074649238 
2.6400000000011468, -0.9846078145183574 
2.650000000001168, -0.983922066871507 
2.660000000001189, -0.9835306699225914 
2.67000000000121, -0.9834480303159826 
2.680000000001231, -0.9836141946750241 
2.6900000000012523, -0.9839098588036671 
2.7000000000012734, -0.9842014135724556 
2.7100000000012945, -0.9843833470989947 
2.7200000000013156, -0.984396805173604 
2.7300000000013367, -0.9842289079285358 
2.740000000001358, -0.9838954334455153 
2.750000000001379, -0.9834134335750182 
2.7600000000014, -0.9827874435816836 
2.770000000001421, -0.9820230770078768 
2.780000000001442, -0.9811524944318116 
2.7900000000014633, -0.9802492830732544 
2.8000000000014844, -0.9794223498841471 
2.8100000000015055, -0.9787874620040349 
2.8200000000015266, -0.9784290695395754 
2.8300000000015477, -0.9783735154349669 
2.840000000001569, -0.9785795372510233 
2.85000000000159, -0.9789477336082277 
2.860000000001611, -0.9793544393424264 
2.870000000001632, -0.9796932158296223 
2.8800000000016532, -0.979899080492665 
2.8900000000016743, -0.9799502872339716 
2.9000000000016954, -0.9798513182136604 
2.9100000000017165, -0.9796065948120358 
2.9200000000017377, -0.979207720663026 
2.9300000000017588, -0.9786480002662455 
2.94000000000178, -0.9779489727725171 
2.950000000001801, -0.9771765744402022 
2.960000000001822, -0.976439061957575 
2.970000000001843, -0.9758629964261597 
2.9800000000018643, -0.9755506186624163 
2.9900000000018854, -0.9755441351664048 
3.0000000000019065, -0.9758170540979129 
3.0100000000019276, -0.9762861774000873 
3.0200000000019487, -0.9768385100616241 
3.03000000000197, -0.9773677472057958 
3.040000000001991, -0.9778018177584259 
3.050000000002012, -0.9781083788487877 
3.060000000002033, -0.9782788976866367 
3.070000000002054, -0.9783030770301266 
3.0800000000020753, -0.978157182550736 
3.0900000000020964, -0.977820586875107 
3.1000000000021175, -0.9773042257429674 
3.1100000000021386, -0.9766667925889395 
3.1200000000021597, -0.9760150680186167 
3.130000000002181, -0.9754876938049546 
3.140000000002202, -0.9752135687426163 
3.150000000002223, -0.9752615296310226 
3.160000000002244, -0.9756205731673165 
3.1700000000022652, -0.9762163727309378 
3.1800000000022863, -0.9769414879793419 
3.1900000000023074, -0.9776884436224018 
3.2000000000023285, -0.9783771421651036 
3.2100000000023496, -0.978963407994036 
3.2200000000023707, -0.9794247521436615 
3.230000000002392, -0.9797351274051503 
3.240000000002413, -0.9798539837216688 
3.250000000002434, -0.9797457770584438 
3.260000000002455, -0.9794116952386199 
3.2700000000024763, -0.9789049179956865 
3.2800000000024974, -0.978329845802961 
3.2900000000025185, -0.9778336784759138 
3.3000000000025396, -0.9775741702813102 
3.3100000000025607, -0.9776587603383647 
3.3200000000025818, -0.9781012144678987 
3.330000000002603, -0.978832900771155 
3.340000000002624, -0.9797436885457592 
3.350000000002645, -0.9807199652440463 
3.360000000002666, -0.9816716920688416 
3.3700000000026873, -0.9825420876702338 
3.3800000000027084, -0.9832947305849689 
3.3900000000027295, -0.9838882219100074 
3.4000000000027506, -0.9842653111098387 
3.4100000000027717, -0.9843756275347212 
3.420000000002793, -0.9842119399885727 
3.430000000002814, -0.9838245176888822 
3.440000000002835, -0.9833159465317848 
3.450000000002856, -0.982836758224663 
3.460000000002877, -0.9825668996520704 
3.4700000000028983, -0.9826553508062518 
3.4800000000029194, -0.9831513974692143 
3.4900000000029405, -0.9839964686577135 
3.5000000000029616, -0.9850729316583059 
3.5100000000029827, -0.9862553003280148 
3.520000000003004, -0.9874410643322308 
3.530000000003025, -0.9885607566026675 
3.540000000003046, -0.9895656178132998 
3.550000000003067, -0.9904017602178763 
3.5600000000030882, -0.9909983785649333 
3.5700000000031094, -0.9912925273814867 
3.5800000000031305, -0.991269996070587 
3.5900000000031516, -0.9909798976312539 
3.6000000000031727, -0.9905242651469559 
3.6100000000031938, -0.9900533978954942 
3.620000000003215, -0.9897587125625014 
3.630000000003236, -0.9898207879989526 
3.640000000003257, -0.9903245407806062 
3.650000000003278, -0.9912267642688775 
3.6600000000032993, -0.9924042076876757 
3.6700000000033204, -0.9937185909018409 
3.6800000000033415, -0.9950548811792123 
3.6900000000033626, -0.9963327965774691 
3.7000000000033837, -0.997495127647997 
3.710000000003405, -0.998481544179904 
3.720000000003426, -0.9992148013715768 
3.730000000003447, -0.9996246609678232 
3.740000000003468, -0.9996913941401361 
3.750000000003489, -0.9994622692079111 
3.7600000000035103, -0.9990384460372682 
3.7700000000035314, -0.9985681934562881 
3.7800000000035525, -0.9982451148799423 
3.7900000000035736, -0.9982641074583801 
3.8000000000035947, -0.998731507415871 
3.810000000003616, -0.999617140440583 
3.820000000003637, -1.0007975745981945 
3.830000000003658, -1.0021279328994923 
3.840000000003679, -1.0034856927660996 
3.8500000000037002, -1.0047845472481272 
3.8600000000037213, -1.0059647293835814 
3.8700000000037424, -1.0069675733020056 
3.8800000000037635, -1.0077190794342366 
3.8900000000037847, -1.0081492979750293 
3.9000000000038058, -1.0082347443329291 
3.910000000003827, -1.008018070472034 
3.920000000003848, -1.0075968641680413 
3.930000000003869, -1.0071157118403218 
3.94000000000389, -1.006763850691925 
3.9500000000039113, -1.0067332258344521 
3.9600000000039324, -1.0071309873697734 
3.9700000000039535, -1.007931216057965 
3.9800000000039746, -1.0090155654759618 
3.9900000000039957, -1.0102422219584493 
4.000000000004016, -1.0114889418399498 
4.010000000003993, -1.0126692192811202 
4.02000000000397, -1.01372642380832 
4.030000000003946, -1.0146106868985827 
4.040000000003923, -1.015259939945556 
4.0500000000039, -1.0156120036847005 
4.0600000000038765, -1.015642099745249 
4.070000000003853, -1.0153858036801862 
4.08000000000383, -1.014933871041465 
4.090000000003807, -1.0144251351081055 
4.100000000003783, -1.0140393918233719 
4.11000000000376, -1.0139523823602776 
4.120000000003737, -1.014256009492799 
4.130000000003713, -1.014922046852002 
4.14000000000369, -1.0158415911200243 
4.150000000003667, -1.016882825263169 
4.1600000000036434, -1.0179286503408402 
4.17000000000362, -1.0188956572162506 
4.180000000003597, -1.0197333578810406 
4.1900000000035735, -1.0204043673184624 
4.20000000000355, -1.0208634400412009 
4.210000000003527, -1.0210613446990893 
4.220000000003504, -1.0209751070610606 
4.23000000000348, -1.020633170709831 
4.240000000003457, -1.020117925358252 
4.250000000003434, -1.01956057972509 
4.26000000000341, -1.0191273565664485 
4.270000000003387, -1.0189705937569606 
4.280000000003364, -1.0191616467710352 
4.2900000000033405, -1.019670391338118 
4.300000000003317, -1.020399636804011 
4.310000000003294, -1.0212277614687286 
4.320000000003271, -1.0220419123361746 
4.330000000003247, -1.022761311509163 
4.340000000003224, -1.0233415389913907 
4.350000000003201, -1.0237579341560905 
4.360000000003177, -1.0239831514922197 
4.370000000003154, -1.0239833018728774 
4.380000000003131, -1.0237402992575866 
4.390000000003107, -1.023277714829671 
4.400000000003084, -1.022670232875658 
4.410000000003061, -1.0220403959698012 
4.4200000000030375, -1.0215386958995245 
4.430000000003014, -1.0212941201882293 
4.440000000002991, -1.0213621862923339 
4.450000000002968, -1.0217151080575506 
4.460000000002944, -1.0222653396603196 
4.470000000002921, -1.0228955607285015 
4.480000000002898, -1.0234925558091055 
4.490000000002874, -1.0239756731577094 
4.500000000002851, -1.0243046960927271 
4.510000000002828, -1.0244659248315107 
4.520000000002804, -1.0244487700878981 
4.530000000002781, -1.0242351283716533 
4.540000000002758, -1.0238141996275913 
4.5500000000027345, -1.0232077292759998 
4.560000000002711, -1.0224844957127794 
4.570000000002688, -1.02175849194375 
4.580000000002665, -1.0211655748544384 
4.590000000002641, -1.0208176648143736 
4.600000000002618, -1.020763526361911 
4.610000000002595, -1.0209803025366229 
4.620000000002571, -1.0213838856762996 
4.630000000002548, -1.0218534627079916 
4.640000000002525, -1.0222709239872985 
4.6500000000025015, -1.022553246713239 
4.660000000002478, -1.0226619599987972 
4.670000000002455, -1.0225917167768677 
4.6800000000024315, -1.0223466244344956 
4.690000000002408, -1.0219237466782174 
4.700000000002385, -1.02132094473171 
4.710000000002362, -1.0205606074645 
4.720000000002338, -1.0197074436695368 
4.730000000002315, -1.0188682141073437 
4.740000000002292, -1.0181682300299104 
4.750000000002268, -1.0177111627045943 
4.760000000002245, -1.0175466477108448 
4.770000000002222, -1.0176558626784902 
4.7800000000021985, -1.0179513747270854 
4.790000000002175, -1.0183035623248078 
4.800000000002152, -1.018587185991281 
4.810000000002129, -1.0187152394617751 
4.820000000002105, -1.0186485746294915 
4.830000000002082, -1.0183872465535857 
4.840000000002059, -1.017947453602751 
4.850000000002035, -1.0173399747901086 
4.860000000002012, -1.0165714886994077 
4.870000000001989, -1.0156662438827158 
4.880000000001965, -1.014686114349349 
4.890000000001942, -1.0137325192935047 
4.900000000001919, -1.0129251044824634 
4.9100000000018955, -1.0123663954203357 
4.920000000001872, -1.0121106211762039 
4.930000000001849, -1.0121410781402498 
