t, s[1].omega / s[0].omega 
0, -0.6999976924439281 
0.009999999999999995, -0.6997598442410505 
0.019999999999999934, -0.6995016911827375 
0.029999999999999874, -0.6992080296896398 
0.04000000000000012, -0.6988629307766038 
0.050000000000000405, -0.6984577691194378 
0.06000000000000069, -0.6979955882606701 
0.07000000000000098, -0.697492004990611 
0.08000000000000126, -0.6969753013588245 
0.09000000000000155, -0.6964881454547729 
0.10000000000000184, -0.6960917156516608 
0.11000000000000212, -0.6958713544767071 
0.12000000000000241, -0.6959417900739335 
0.130000000000002, -0.6964495233943152 
0.1400000000000009, -0.6975702859992673 
0.1499999999999998, -0.6995003306298267 
0.1599999999999987, -0.7024407381470419 
0.1699999999999976, -0.7065724377296885 
0.1799999999999965, -0.7120159275504754 
0.1899999999999954, -0.7187674474871264 
0.1999999999999943, -0.7266132226078561 
0.2099999999999932, -0.7350588705238181 
0.2199999999999921, -0.7433598782368819 
0.229999999999991, -0.7507233012504868 
0.2399999999999899, -0.7566009519939457 
0.2499999999999888, -0.7608549112365245 
0.2599999999999877, -0.7636833999734642 
0.2699999999999866, -0.7654239652076322 
0.2799999999999855, -0.7663971360722834 
0.2899999999999844, -0.7668414128902558 
0.2999999999999833, -0.766908058352424 
0.3099999999999822, -0.7666761002290157 
0.3199999999999811, -0.7661663362135299 
0.32999999999998, -0.7653470618864664 
0.3399999999999789, -0.764129867654891 
0.3499999999999778, -0.762355164364003 
0.35999999999997667, -0.7597675099295704 
0.36999999999997557, -0.7559827768282735 
0.37999999999997447, -0.7504570668295576 
0.38999999999997337, -0.7424951104624113 
0.39999999999997227, -0.7314111772789389 
0.40999999999997117, -0.7170305751823574 
0.41999999999997006, -0.700442550861293 
0.42999999999996896, -0.6841141979828155 
0.43999999999996786, -0.6706336013278992 
0.44999999999996676, -0.6612331184931837 
0.45999999999996566, -0.6556082397089397 
0.46999999999996456, -0.652711317919303 
0.47999999999996346, -0.6514791533720236 
0.48999999999996235, -0.6511313046493543 
0.49999999999996125, -0.6511843716263717 
0.5099999999999602, -0.6513702252291764 
0.519999999999959, -0.6515515725080864 
0.529999999999958, -0.6516611672859122 
0.5399999999999568, -0.6516640468345376 
0.5499999999999557, -0.6515359197186579 
0.5599999999999546, -0.6512519585753564 
0.5699999999999535, -0.6507831526666189 
0.5799999999999524, -0.650099898370784 
0.5899999999999513, -0.6491829807363098 
0.5999999999999502, -0.648038782486414 
0.6099999999999491, -0.6467096357217298 
0.619999999999948, -0.6452689482343341 
0.6299999999999469, -0.6438004562201828 
0.6399999999999458, -0.6423740870021795 
0.6499999999999447, -0.641032572997637 
0.6599999999999436, -0.6397926887128007 
0.6699999999999425, -0.6386554142878579 
0.6799999999999414, -0.6376174455269761 
0.6899999999999403, -0.636679599739685 
0.6999999999999392, -0.6358512697537432 
0.7099999999999381, -0.6351519939822992 
0.719999999999937, -0.6346114348327386 
0.7299999999999359, -0.6342685259573939 
0.7399999999999348, -0.6341701002449458 
0.7499999999999337, -0.6343692388311829 
0.7599999999999326, -0.6349237321020624 
0.7699999999999315, -0.6358950814990828 
0.7799999999999304, -0.6373480784752836 
0.7899999999999293, -0.6393499604706812 
0.7999999999999282, -0.6419663823011368 
0.8099999999999271, -0.6452491951006275 
0.819999999999926, -0.6492096458347956 
0.8299999999999249, -0.653774161646213 
0.8399999999999238, -0.6587352256934527 
0.8499999999999227, -0.6637368917530584 
0.8599999999999216, -0.6683439604856002 
0.8699999999999205, -0.672188437093687 
0.8799999999999194, -0.6750965904741913 
0.8899999999999183, -0.6771020680389221 
0.8999999999999172, -0.6783611476717964 
0.9099999999999161, -0.6790554077693443 
0.919999999999915, -0.6793343925152688 
0.9299999999999139, -0.6792973010373583 
0.9399999999999128, -0.6789934456618243 
0.9499999999999117, -0.6784256400939317 
0.9599999999999106, -0.6775482750135161 
0.9699999999999095, -0.6762553554747027 
0.9799999999999084, -0.6743534521022653 
0.9899999999999073, -0.6715124024882569 
0.9999999999999062, -0.6671880907301959 
1.0099999999999052, -0.6605360020954789 
1.019999999999904, -0.6504274953218147 
1.029999999999903, -0.6358505377464081 
1.039999999999902, -0.6168975189829554 
1.0499999999999008, -0.5956290140077509 
1.0599999999998997, -0.5753738439116567 
1.0699999999998986, -0.5587666967601485 
1.0799999999998975, -0.5466556306006971 
1.0899999999998964, -0.5385287234932495 
1.0999999999998953, -0.5333833144548894 
1.1099999999998942, -0.5302668171464651 
1.119999999999893, -0.5284549894611457 
1.129999999999892, -0.5274510709541349 
1.1399999999998909, -0.5269322161951042 
1.1499999999998898, -0.5266948992076882 
1.1599999999998887, -0.5266130745947024 
1.1699999999998876, -0.5266094465071067 
1.1799999999998865, -0.5266369857031118 
1.1899999999998854, -0.5266679197661113 
1.1999999999998843, -0.526688150301871 
1.2099999999998832, -0.5266954311155774 
1.219999999999882, -0.526699318038854 
1.229999999999881, -0.5267201763202791 
1.2399999999998799, -0.526784535074598 
1.2499999999998788, -0.5269159179466296 
1.2599999999998777, -0.5271234647903872 
1.2699999999998766, -0.527393215800307 
1.2799999999998755, -0.5276872377687416 
1.2899999999998744, -0.5279529451093297 
1.2999999999998733, -0.5281391086677474 
1.3099999999998722, -0.5282099669757618 
1.319999999999871, -0.5281502591521737 
1.32999999999987, -0.5279611023073422 
1.3399999999998689, -0.5276520584178168 
1.3499999999998678, -0.5272345995065876 
1.3599999999998666, -0.5267192928392929 
1.3699999999998655, -0.5261170184534475 
1.3799999999998644, -0.5254442482831314 
1.3899999999998633, -0.5247328530883645 
1.3999999999998622, -0.5240441815105125 
1.4099999999998611, -0.5234812923621435 
1.41999999999986, -0.5231732738302952 
1.429999999999859, -0.5231607740991584 
1.4399999999998578, -0.5230742519063556 
1.4499999999998567, -0.5216743315938024 
1.4599999999998556, -0.5169954384396969 
1.4699999999998545, -0.508015199785537 
1.4799999999998534, -0.4963580373796216 
1.4899999999998523, -0.48514953802295946 
1.4999999999998512, -0.4764746136396272 
1.5099999999998501, -0.4706690257508012 
1.519999999999849, -0.46713499765767663 
1.529999999999848, -0.4651224393023778 
1.5399999999998468, -0.464041258864586 
1.5499999999998457, -0.463499311654844 
1.5599999999998446, -0.46325556450933103 
1.5699999999998435, -0.46316744796437515 
1.5799999999998424, -0.4631521178461919 
1.5899999999998413, -0.4631617505661919 
1.5999999999998402, -0.4631690948230965 
1.6099999999998391, -0.46316001087836733 
1.619999999999838, -0.4631307780924643 
1.629999999999837, -0.46308836593334873 
1.6399999999998358, -0.463051440659685 
1.6499999999998347, -0.4630492400293301 
1.6599999999998336, -0.4631158953536108 
1.6699999999998325, -0.4632800320823757 
1.6799999999998314, -0.46355245868982237 
1.6899999999998303, -0.4639167826878149 
1.6999999999998292, -0.4643282297610183 
1.709999999999828, -0.46472377950545096 
1.719999999999827, -0.4650405983282825 
1.729999999999826, -0.46523311320337707 
1.7399999999998248, -0.4652796001465914 
1.7499999999998237, -0.4651773334489825 
1.7599999999998226, -0.46493222748771396 
1.7699999999998215, -0.464548910973764 
1.7799999999998204, -0.46402330420597454 
1.7899999999998193, -0.46333643098287736 
1.7999999999998182, -0.46244622421491 
1.809999999999817, -0.4612717479768441 
1.819999999999816, -0.45965899595380433 
1.8299999999998149, -0.45730722157849935 
1.8399999999998138, -0.4536264540516994 
1.8499999999998127, -0.4475400393433526 
1.8599999999998116, -0.4374765218274462 
1.8699999999998105, -0.4221821224214521 
1.8799999999998094, -0.4024524910060704 
1.8899999999998083, -0.38167900454366216 
1.8999999999998072, -0.36356819434049437 
1.909999999999806, -0.3498236195312573 
1.919999999999805, -0.34022192875656204 
1.9299999999998039, -0.33377820795440205 
1.9399999999998028, -0.3295159819822474 
1.9499999999998017, -0.32670459852533834 
1.9599999999998006, -0.3248536323572836 
1.9699999999997995, -0.3236489421214686 
1.9799999999997984, -0.3228942508031915 
1.9899999999997973, -0.3224704196184057 
1.9999999999997962, -0.32231000227894746 
2.0099999999998173, -0.32238268276183935 
2.0199999999998384, -0.32268827279534007 
2.0299999999998595, -0.3232552513234807 
2.0399999999998806, -0.3241436751547131 
2.0499999999999017, -0.3254514050442687 
2.059999999999923, -0.3273214310427127 
2.069999999999944, -0.32994432533533613 
2.079999999999965, -0.3335413897479156 
2.089999999999986, -0.3383014667304409 
2.100000000000007, -0.3442442307949522 
2.1100000000000283, -0.3510420878634253 
2.1200000000000494, -0.35796736872506896 
2.1300000000000705, -0.3641507246651252 
2.1400000000000916, -0.36901200921847577 
2.1500000000001127, -0.3724550179652128 
2.160000000000134, -0.3747150499524605 
2.170000000000155, -0.3761154202532116 
2.180000000000176, -0.37692782865345 
2.190000000000197, -0.377338194267343 
2.2000000000002182, -0.3774584602998536 
2.2100000000002393, -0.37734652839610827 
2.2200000000002604, -0.37702200086980747 
2.2300000000002815, -0.3764774639862912 
2.2400000000003026, -0.3756893240080489 
2.2500000000003237, -0.3746332779420694 
2.260000000000345, -0.3733069435843105 
2.270000000000366, -0.3717536128103949 
2.280000000000387, -0.37007058773197665 
2.290000000000408, -0.3683882238533903 
2.3000000000004293, -0.3668283296914895 
2.3100000000004504, -0.36546924954649473 
2.3200000000004715, -0.36433588814546636 
2.3300000000004926, -0.363410797950193 
2.3400000000005137, -0.36265290942185574 
2.3500000000005348, -0.36201447515868856 
2.360000000000556, -0.3614527381539717 
2.370000000000577, -0.36093596220483304 
2.380000000000598, -0.360445010572988 
2.390000000000619, -0.35997260292056044 
2.4000000000006403, -0.3595225477265456 
2.4100000000006614, -0.3591107930526992 
2.4200000000006825, -0.35876967135299986 
2.4300000000007036, -0.3585565332422579 
2.4400000000007247, -0.3585674766772374 
2.450000000000746, -0.35895357961967844 
2.460000000000767, -0.35992341332209515 
2.470000000000788, -0.361673702393099 
2.480000000000809, -0.3641016765831425 
2.49000000000083, -0.36612027179207207 
2.5000000000008513, -0.36496178521392336 
2.5100000000008724, -0.35732854757883137 
2.5200000000008935, -0.343137276961866 
2.5300000000009146, -0.3266832858303576 
2.5400000000009357, -0.3124759820761619 
2.550000000000957, -0.3021812217922843 
2.560000000000978, -0.2953686237105712 
2.570000000000999, -0.291033914668656 
2.58000000000102, -0.2883116182785312 
2.5900000000010412, -0.28660915131283826 
2.6000000000010624, -0.2855543710056808 
2.6100000000010835, -0.2849220655720594 
2.6200000000011046, -0.2845795126121351 
2.6300000000011257, -0.284452444897123 
2.6400000000011468, -0.28450561381750594 
2.650000000001168, -0.2847329609797895 
2.660000000001189, -0.2851542332728258 
2.67000000000121, -0.285816143137877 
2.680000000001231, -0.28679661418771035 
2.6900000000012523, -0.28821001099813903 
2.7000000000012734, -0.2902087243493297 
2.7100000000012945, -0.29297057018598816 
2.7200000000013156, -0.29665233993746404 
2.7300000000013367, -0.3012887544068236 
2.740000000001358, -0.30665608748241896 
2.750000000001379, -0.3122164160987737 
2.7600000000014, -0.31728754726597286 
2.770000000001421, -0.321367777731834 
2.780000000001442, -0.3243197688213952 
2.7900000000014633, -0.3262882648545011 
2.8000000000014844, -0.3275163384901473 
2.8100000000015055, -0.32822310703952 
2.8200000000015266, -0.3285643526799558 
2.8300000000015477, -0.32863563227657766 
2.840000000001569, -0.3284863402024425 
2.85000000000159, -0.3281327192953753 
2.860000000001611, -0.3275687407682827 
2.870000000001632, -0.32677804239147157 
2.8800000000016532, -0.3257505654743197 
2.8900000000016743, -0.3245035926560448 
2.9000000000016954, -0.32309832944816985 
2.9100000000017165, -0.321637379214445 
2.9200000000017377, -0.320237773210613 
2.9300000000017588, -0.31899471984443334 
2.94000000000178, -0.31795862817404774 
2.950000000001801, -0.31713363721921217 
2.960000000001822, -0.3164900456472858 
2.970000000001843, -0.3159803997735148 
2.9800000000018643, -0.31555367101774745 
2.9900000000018854, -0.31516530043120883 
3.0000000000019065, -0.3147821456584632 
3.0100000000019276, -0.31438268318195706 
3.0200000000019487, -0.31395419233215166 
3.03000000000197, -0.3134889185476041 
3.040000000001991, -0.312980255476665 
3.050000000002012, -0.3124183788377518 
3.060000000002033, -0.31178236237775886 
3.070000000002054, -0.31102079125796867 
3.0800000000020753, -0.31000116946933987 
3.0900000000020964, -0.30838588052784693 
3.1000000000021175, -0.3053780970865738 
3.1100000000021386, -0.29940574208952075 
3.1200000000021597, -0.28835472084052316 
3.130000000002181, -0.2713908632746642 
3.140000000002202, -0.25113562536382533 
3.150000000002223, -0.23222338133637246 
3.160000000002244, -0.2175482445034381 
3.1700000000022652, -0.2073292259539024 
3.1800000000022863, -0.20054019326988853 
3.1900000000023074, -0.1960739273052533 
3.2000000000023285, -0.19311219076128555 
3.2100000000023496, -0.1911242464287885 
3.2200000000023707, -0.18978377136632993 
3.230000000002392, -0.18889687341571929 
3.240000000002413, -0.18835528492004266 
3.250000000002434, -0.18810994930184038 
3.260000000002455, -0.1881592467920944 
3.2700000000024763, -0.1885488157737379 
3.2800000000024974, -0.18938301734335944 
3.2900000000025185, -0.19085127923183126 
3.3000000000025396, -0.19327567112278432 
3.3100000000025607, -0.19718622027237304 
3.3200000000025818, -0.20341412330453731 
3.330000000002603, -0.21311691221019005 
3.340000000002624, -0.22743967411572955 
3.350000000002645, -0.2463133841869721 
3.360000000002666, -0.26678545733732706 
3.3700000000026873, -0.2837765484282903 
3.3800000000027084, -0.29429715603930146 
3.3900000000027295, -0.29932722907299597 
3.4000000000027506, -0.30131906102479383 
3.4100000000027717, -0.3020301115941623 
3.420000000002793, -0.30228904763569225 
3.430000000002814, -0.3024059200180945 
3.440000000002835, -0.3024786057002611 
3.450000000002856, -0.3025321779996593 
3.460000000002877, -0.30257053466380357 
3.4700000000028983, -0.3025934594817683 
3.4800000000029194, -0.3026021401049265 
3.4900000000029405, -0.3026017160287231 
3.5000000000029616, -0.302603760237948 
3.5100000000029827, -0.30262924491494214 
3.520000000003004, -0.3027111562388873 
3.530000000003025, -0.3028950005157613 
3.540000000003046, -0.3032353048973861 
3.550000000003067, -0.3037868590277266 
3.5600000000030882, -0.3045901593575212 
3.5700000000031094, -0.30565167607496524 
3.5800000000031305, -0.3069240498450937 
3.5900000000031516, -0.308299663080163 
3.6000000000031727, -0.309632633455232 
3.6100000000031938, -0.3107855503878821 
3.620000000003215, -0.31167162478201593 
3.630000000003236, -0.31226514167240305 
3.640000000003257, -0.31258235674392154 
3.650000000003278, -0.31265364144547764 
3.6600000000032993, -0.3125019245401806 
3.6700000000033204, -0.31212971996116295 
3.6800000000033415, -0.311510787534989 
3.6900000000033626, -0.3105828726041734 
3.7000000000033837, -0.3092421937013595 
3.710000000003405, -0.3073482185604494 
3.720000000003426, -0.30475761900682996 
3.730000000003447, -0.3014054472429816 
3.740000000003468, -0.2974102945549505 
3.750000000003489, -0.2931088970087373 
3.7600000000035103, -0.28894073421835365 
3.7700000000035314, -0.285258069659013 
3.7800000000035525, -0.282220926276771 
3.7900000000035736, -0.2798213510539663 
3.8000000000035947, -0.2779625611789922 
3.810000000003616, -0.2765243690409702 
3.820000000003637, -0.27539767284380207 
3.830000000003658, -0.2744969663438645 
3.840000000003679, -0.273762021408991 
3.8500000000037002, -0.27315561743152544 
3.8600000000037213, -0.27266094072151403 
3.8700000000037424, -0.2722807235189225 
3.8800000000037635, -0.2720396380032649 
3.8900000000037847, -0.27199153351285854 
3.9000000000038058, -0.2722335673050154 
3.910000000003827, -0.2729292629106425 
3.920000000003848, -0.2743385549608018 
3.930000000003869, -0.27683310362627955 
3.94000000000389, -0.2808083136807386 
3.9500000000039113, -0.28625337457334443 
3.9600000000039324, -0.2916916542599928 
3.9700000000039535, -0.29323566679066937 
3.9800000000039746, -0.28675974628090983 
3.9900000000039957, -0.2730541159415337 
4.000000000004016, -0.2576491544039447 
4.010000000003993, -0.24498867831477092 
4.02000000000397, -0.23614123077863547 
4.030000000003946, -0.23039124971338257 
4.040000000003923, -0.22674411736295305 
4.0500000000039, -0.22443758577086337 
4.0600000000038765, -0.22297798196331337 
4.070000000003853, -0.22206548124306774 
4.08000000000383, -0.22152418644409813 
4.090000000003807, -0.22125599846267408 
4.100000000003783, -0.22121400526102147 
4.11000000000376, -0.2213891405842719 
4.120000000003737, -0.22180600416797308 
4.130000000003713, -0.22252585821960819 
4.14000000000369, -0.22365620437729766 
4.150000000003667, -0.22536662077578903 
4.1600000000036434, -0.2279081763261655 
4.17000000000362, -0.23162430268465894 
4.180000000003597, -0.23691660638263654 
4.1900000000035735, -0.24409153537746303 
4.20000000000355, -0.25302843921353474 
4.210000000003527, -0.2628383093074258 
4.220000000003504, -0.272029711002635 
4.23000000000348, -0.27934871014851836 
4.240000000003457, -0.28444070662257864 
4.250000000003434, -0.28767925403873135 
4.26000000000341, -0.28964161369869407 
4.270000000003387, -0.2907992837972669 
4.280000000003364, -0.29145887037884044 
4.2900000000033405, -0.2918004160440033 
4.300000000003317, -0.2919242929833271 
4.310000000003294, -0.2918840321783778 
4.320000000003271, -0.29170665759899056 
4.330000000003247, -0.29140620709374787 
4.340000000003224, -0.290994775872083 
4.350000000003201, -0.29049274228005584 
4.360000000003177, -0.289936515961849 
4.370000000003154, -0.28937975036107666 
4.380000000003131, -0.2888853744446782 
4.390000000003107, -0.288511107756204 
4.400000000003084, -0.2882950635368308 
4.410000000003061, -0.28824648756669285 
4.4200000000030375, -0.28834299419074055 
4.430000000003014, -0.2885347408422781 
4.440000000002991, -0.2887561375430735 
4.450000000002968, -0.28894244967046345 
4.460000000002944, -0.28904394864380883 
4.470000000002921, -0.2890308311712868 
4.480000000002898, -0.2888883909220157 
4.490000000002874, -0.2886068950577948 
4.500000000002851, -0.28817022794553465 
4.510000000002828, -0.28754392970555653 
4.520000000002804, -0.28666005302301756 
4.530000000002781, -0.2853945247377524 
4.540000000002758, -0.2835340370060816 
4.5500000000027345, -0.2807409690452755 
4.560000000002711, -0.27656161505273075 
4.570000000002688, -0.27058150145017434 
4.580000000002665, -0.26279456847333565 
4.590000000002641, -0.25393082960128 
4.600000000002618, -0.24522868527151442 
4.610000000002595, -0.23772858904774025 
4.620000000002571, -0.23184048225299794 
4.630000000002548, -0.22746081281867792 
4.640000000002525, -0.22427611114142648 
4.6500000000025015, -0.22196439373940638 
4.660000000002478, -0.22026928694828887 
4.670000000002455, -0.2190083568354891 
4.6800000000024315, -0.2180605038495928 
4.690000000002408, -0.21735147182990588 
4.700000000002385, -0.21684334023392973 
4.710000000002362, -0.21652937326136684 
4.720000000002338, -0.21643482792664423 
4.730000000002315, -0.2166250278929988 
4.740000000002292, -0.2172234811083798 
4.750000000002268, -0.21844449082011558 
4.760000000002245, -0.2206439660614114 
4.770000000002222, -0.22437781047911862 
4.7800000000021985, -0.23039253061833426 
4.790000000002175, -0.2392829718708013 
4.800000000002152, -0.250313618153281 
4.810000000002129, -0.2596890454348807 
4.820000000002105, -0.26170085479356736 
4.830000000002082, -0.25480573490392755 
4.840000000002059, -0.24368504972946142 
4.850000000002035, -0.23342117480454333 
4.860000000002012, -0.22591043199568572 
4.870000000001989, -0.22094482136314922 
4.880000000001965, -0.21778460519982254 
