t, s[1].omega / s[0].omega 
0, -1.4199683014316253 
0.009999999999999995, -1.422698766467375 
0.019999999999999934, -1.4330911261446067 
0.029999999999999874, -1.4435845750662804 
0.04000000000000012, -1.450707481914656 
0.050000000000000405, -1.4547000981472065 
0.06000000000000069, -1.4566894982330463 
0.07000000000000098, -1.457534517918789 
0.08000000000000126, -1.4577234181777254 
0.09000000000000155, -1.4575069525278277 
0.10000000000000184, -1.457027278397249 
0.11000000000000212, -1.456432252087049 
0.12000000000000241, -1.4559815985001867 
0.130000000000002, -1.4560544696781588 
0.1400000000000009, -1.456929820120828 
0.1499999999999998, -1.4585206006435256 
0.1599999999999987, -1.460442779857747 
0.1699999999999976, -1.4623099202487126 
0.1799999999999965, -1.4638891024328216 
0.1899999999999954, -1.4650829410375976 
0.1999999999999943, -1.4658690069134352 
0.2099999999999932, -1.466258068096065 
0.2199999999999921, -1.466273426721806 
0.229999999999991, -1.4659425075569663 
0.2399999999999899, -1.4652950429367597 
0.2499999999999888, -1.4643663147757744 
0.2599999999999877, -1.4632057292617375 
0.2699999999999866, -1.4618896997398576 
0.2799999999999855, -1.4605361600017388 
0.2899999999999844, -1.4593119021957202 
0.2999999999999833, -1.4583991680781676 
0.3099999999999822, -1.4578930309618794 
0.3199999999999811, -1.4577148739704475 
0.32999999999998, -1.4576653862497975 
0.3399999999999789, -1.4575464063929453 
0.3499999999999778, -1.4572035955881877 
0.35999999999997667, -1.4564784953413557 
0.36999999999997557, -1.455120538232515 
0.37999999999997447, -1.4526731102499069 
0.38999999999997337, -1.4483352852588827 
0.39999999999997227, -1.4408879227624212 
0.40999999999997117, -1.4290479955783444 
0.41999999999997006, -1.4129425248513439 
0.42999999999996896, -1.3963724413455325 
0.43999999999996786, -1.3858241701082548 
0.44999999999996676, -1.3839820442884623 
0.45999999999996566, -1.3872481859385566 
0.46999999999996456, -1.391186460202317 
0.47999999999996346, -1.3939765128620887 
0.48999999999996235, -1.395543969153515 
0.49999999999996125, -1.3962497791711246 
0.5099999999999602, -1.396392353639526 
0.519999999999959, -1.39613641810089 
0.529999999999958, -1.3955539446419 
0.5399999999999568, -1.394700989316972 
0.5499999999999557, -1.3937609045999744 
0.5599999999999546, -1.3932611770583934 
0.5699999999999535, -1.3941161494782328 
0.5799999999999524, -1.3970517646560514 
0.5899999999999513, -1.401799962990126 
0.5999999999999502, -1.4072447707858216 
0.6099999999999491, -1.4123067947742647 
0.619999999999948, -1.416419245422382 
0.6299999999999469, -1.4194497514623348 
0.6399999999999458, -1.421489307617657 
0.6499999999999447, -1.4227099620245502 
0.6599999999999436, -1.4232935932648743 
0.6699999999999425, -1.4234000389458692 
0.6799999999999414, -1.4231582029053569 
0.6899999999999403, -1.4226738847666205 
0.6999999999999392, -1.4220472836876517 
0.7099999999999381, -1.4213859786025995 
0.719999999999937, -1.4207972007683982 
0.7299999999999359, -1.4203628483213886 
0.7399999999999348, -1.420121325123883 
0.7499999999999337, -1.420061542824475 
0.7599999999999326, -1.420119622901972 
0.7699999999999315, -1.4201912240925423 
0.7799999999999304, -1.4201615500444704 
0.7899999999999293, -1.419923134116476 
0.7999999999999282, -1.4193665345121285 
0.8099999999999271, -1.4183583429675826 
0.819999999999926, -1.4167249117326322 
0.8299999999999249, -1.4142531446960915 
0.8399999999999238, -1.410717343485352 
0.8499999999999227, -1.4059480103027249 
0.8599999999999216, -1.3999747875511859 
0.8699999999999205, -1.3932633606297025 
0.8799999999999194, -1.386900378565091 
0.8899999999999183, -1.3822670316087005 
0.8999999999999172, -1.3800461962551007 
0.9099999999999161, -1.3796799308889942 
0.919999999999915, -1.380092476385859 
0.9299999999999139, -1.3805443799728758 
0.9399999999999128, -1.3807486469353003 
0.9499999999999117, -1.380635239705651 
0.9599999999999106, -1.3801642008250015 
0.9699999999999095, -1.3792324031972076 
0.9799999999999084, -1.3776247691784649 
0.9899999999999073, -1.3750229349108916 
0.9999999999999062, -1.3712482267624142 
1.0099999999999052, -1.367124488253371 
1.019999999999904, -1.365775085751895 
1.029999999999903, -1.371655902645127 
1.039999999999902, -1.3854132770176388 
1.0499999999999008, -1.401889417269527 
1.0599999999998997, -1.4156245697196002 
1.0699999999998986, -1.4248133222875154 
1.0799999999998975, -1.4301942293063348 
1.0899999999998964, -1.4330696249293335 
1.0999999999998953, -1.434455632428241 
1.1099999999998942, -1.434979131995486 
1.119999999999893, -1.4349909072008968 
1.129999999999892, -1.4346891022430919 
1.1399999999998909, -1.4342176312555932 
1.1499999999998898, -1.4337414979633758 
1.1599999999998887, -1.4334708909879628 
1.1699999999998876, -1.4335862943718962 
1.1799999999998865, -1.4341172123190804 
1.1899999999998854, -1.4349289119368516 
1.1999999999998843, -1.4358289033071814 
1.2099999999998832, -1.436656742781402 
1.219999999999882, -1.4373046996478878 
1.229999999999881, -1.4377064876291366 
1.2399999999998799, -1.4378221214391615 
1.2499999999998788, -1.4376258838069886 
1.2599999999998777, -1.4370991586375068 
1.2699999999998766, -1.4362281109111033 
1.2799999999998755, -1.4350057344352303 
1.2899999999998744, -1.4334395105437516 
1.2999999999998733, -1.4315681892022194 
1.3099999999998722, -1.4294917463867707 
1.319999999999871, -1.4274093888342558 
1.32999999999987, -1.4256218620865577 
1.3399999999998689, -1.424414746034419 
1.3499999999998678, -1.423852716710438 
1.3599999999998666, -1.4237254025220598 
1.3699999999998655, -1.4237288706930968 
1.3799999999998644, -1.4236341326485042 
1.3899999999998633, -1.4232941362651332 
1.3999999999998622, -1.4225620233334968 
1.4099999999998611, -1.4211896270670963 
1.41999999999986, -1.4187036712735857 
1.429999999999859, -1.4142523251201988 
1.4399999999998578, -1.4065423166955477 
1.4499999999998567, -1.3943766560447757 
1.4599999999998556, -1.378650268284855 
1.4699999999998545, -1.3647064765816237 
1.4799999999998534, -1.3593879141974368 
1.4899999999998523, -1.3631759984115162 
1.4999999999998512, -1.3704107816039888 
1.5099999999998501, -1.3765302658420737 
1.519999999999849, -1.3804001580803666 
1.529999999999848, -1.3824947902344662 
1.5399999999998468, -1.3834696569313447 
1.5499999999998457, -1.383767635170646 
1.5599999999998446, -1.3836286116004097 
1.5699999999998435, -1.3831707407714828 
1.5799999999998424, -1.3824780306005324 
1.5899999999998413, -1.3817182817869655 
1.5999999999998402, -1.3812905600345862 
1.6099999999998391, -1.381836061354399 
1.619999999999838, -1.3838572815671784 
1.629999999999837, -1.3872102447118464 
1.6399999999998358, -1.3911769061170856 
1.6499999999998347, -1.3950092338297284 
1.6599999999998336, -1.3982605591488229 
1.6699999999998325, -1.4007707162848733 
1.6799999999998314, -1.4025443749361324 
1.6899999999998303, -1.4036604605510634 
1.6999999999998292, -1.4042242745462037 
1.709999999999828, -1.4043432432430065 
1.719999999999827, -1.404115304140954 
1.729999999999826, -1.403628014351934 
1.7399999999998248, -1.402967135279421 
1.7499999999998237, -1.4022270678651916 
1.7599999999998226, -1.4015100621995762 
1.7699999999998215, -1.400910011803451 
1.7799999999998204, -1.4004933488791758 
1.7899999999998193, -1.400283240519117 
1.7999999999998182, -1.4002433717039013 
1.809999999999817, -1.4002794457665788 
1.819999999999816, -1.400271074181582 
1.8299999999998149, -1.4001025398718552 
1.8399999999998138, -1.399662755290971 
1.8499999999998127, -1.3988221835071148 
1.8599999999998116, -1.3974080848873673 
1.8699999999998105, -1.3951935640130695 
1.8799999999998094, -1.3919124583398232 
1.8899999999998083, -1.3873156852023718 
1.8999999999998072, -1.381296165790598 
1.909999999999806, -1.374114688552288 
1.919999999999805, -1.3666687329667675 
1.9299999999998039, -1.3604454406121893 
1.9399999999998028, -1.3566985843541857 
1.9499999999998017, -1.3554334298343382 
1.9599999999998006, -1.3555987137607803 
1.9699999999997995, -1.3561488320234374 
1.9799999999997984, -1.3565558817965981 
1.9899999999997973, -1.3566638114898515 
1.9999999999997962, -1.3564409454871875 
2.0099999999998173, -1.3558400092820855 
2.0199999999998384, -1.3547313630598121 
2.0299999999998595, -1.3528690638227132 
2.0399999999998806, -1.3499372346587193 
2.0499999999999017, -1.3459036713404513 
2.059999999999923, -1.3420295666986326 
2.069999999999944, -1.3419227758086654 
2.079999999999965, -1.349631301246665 
2.089999999999986, -1.3645171521649495 
2.100000000000007, -1.380936954796176 
2.1100000000000283, -1.394028655940259 
2.1200000000000494, -1.4025776641577063 
2.1300000000000705, -1.4075164582153454 
2.1400000000000916, -1.410129196634279 
2.1500000000001127, -1.4113690280227449 
2.160000000000134, -1.4118122827605677 
2.170000000000155, -1.4117787212137913 
2.180000000000176, -1.4114502640990567 
2.190000000000197, -1.4109655233929144 
2.2000000000002182, -1.4104942233529412 
2.2100000000002393, -1.4102605955744347 
2.2200000000002604, -1.410461718175737 
2.2300000000002815, -1.4111319383518177 
2.2400000000003026, -1.4121214996398503 
2.2500000000003237, -1.4132128456429516 
2.260000000000345, -1.4142261113458088 
2.270000000000366, -1.415045709032848 
2.280000000000387, -1.4156063397780922 
2.290000000000408, -1.415874110759616 
2.3000000000004293, -1.4158325713021696 
2.3100000000004504, -1.4154746224362535 
2.3200000000004715, -1.414799389713064 
2.3300000000004926, -1.4138131249060681 
2.3400000000005137, -1.412534511801554 
2.3500000000005348, -1.4110058244543633 
2.360000000000556, -1.4093109537959347 
2.370000000000577, -1.407597318528301 
2.380000000000598, -1.406080801268359 
2.390000000000619, -1.4049838810065143 
2.4000000000006403, -1.4043984276185872 
2.4100000000006614, -1.4042066487945526 
2.4200000000006825, -1.4041728779644014 
2.4300000000007036, -1.4040841217925502 
2.4400000000007247, -1.4037887670217717 
2.450000000000746, -1.4031448222058718 
2.460000000000767, -1.4019363577571577 
2.470000000000788, -1.3997712711057706 
2.480000000000809, -1.3959548661707042 
2.49000000000083, -1.3893939312422685 
2.5000000000008513, -1.3787897116781505 
2.5100000000008724, -1.3636834271231235 
2.5200000000008935, -1.3464789156851669 
2.5300000000009146, -1.3329004814100274 
2.5400000000009357, -1.32743755252565 
2.550000000000957, -1.3287715177334252 
2.560000000000978, -1.332512573772327 
2.570000000000999, -1.3357976385636579 
2.58000000000102, -1.3379034205690519 
2.5900000000010412, -1.3390179429634697 
2.6000000000010624, -1.3394550174069992 
2.6100000000010835, -1.3394289246691082 
2.6200000000011046, -1.3390431947390524 
2.6300000000011257, -1.3383303332136225 
2.6400000000011468, -1.3373246297921166 
2.650000000001168, -1.3362183324016361 
2.660000000001189, -1.3356229570818048 
2.67000000000121, -1.3366764775577427 
2.680000000001231, -1.3404287419778596 
2.6900000000012523, -1.3467529261674938 
2.7000000000012734, -1.3542601942857182 
2.7100000000012945, -1.3613884969671814 
2.7200000000013156, -1.3672185544425903 
2.7300000000013367, -1.3715008123787502 
2.740000000001358, -1.3743720454536184 
2.750000000001379, -1.376115853609411 
2.7600000000014, -1.3770272596572477 
2.770000000001421, -1.3773521498027654 
2.780000000001442, -1.3772734716682384 
2.7900000000014633, -1.3769254068305794 
2.8000000000014844, -1.3764213910543555 
2.8100000000015055, -1.3758802362681837 
2.8200000000015266, -1.3754282362675603 
2.8300000000015477, -1.3751660857387527 
2.840000000001569, -1.3751299859778974 
2.85000000000159, -1.3752880655151456 
2.860000000001611, -1.3755648797525868 
2.870000000001632, -1.3758648682647274 
2.8800000000016532, -1.3760903452681899 
2.8900000000016743, -1.376154625454611 
2.9000000000016954, -1.3759842671699887 
2.9100000000017165, -1.3755128446148008 
2.9200000000017377, -1.3746755103391495 
2.9300000000017588, -1.373409628939902 
2.94000000000178, -1.3716611852479341 
2.950000000001801, -1.3693965101414953 
2.960000000001822, -1.3666239816913222 
2.970000000001843, -1.3634353865042494 
2.9800000000018643, -1.3600684887557741 
2.9900000000018854, -1.3569457867613397 
3.0000000000019065, -1.3545702932151713 
3.0100000000019276, -1.353229100856915 
3.0200000000019487, -1.3527753033458458 
3.03000000000197, -1.3527857440315443 
3.040000000001991, -1.3528768142586731 
3.050000000002012, -1.3528277598169924 
3.060000000002033, -1.3525196850676438 
3.070000000002054, -1.3518341224678443 
3.0800000000020753, -1.350560531509296 
3.0900000000020964, -1.3482938369523798 
3.1000000000021175, -1.3443109987708286 
3.1100000000021386, -1.3375224509541128 
3.1200000000021597, -1.326894783249487 
3.130000000002181, -1.3130214083096028 
3.140000000002202, -1.3001833850377156 
3.150000000002223, -1.294660551568327 
3.160000000002244, -1.2981734662841498 
3.1700000000022652, -1.306163059055486 
3.1800000000022863, -1.3136385948470453 
3.1900000000023074, -1.3187413158838424 
3.2000000000023285, -1.32169903049024 
3.2100000000023496, -1.323223081339199 
3.2200000000023707, -1.3238733838820846 
3.230000000002392, -1.3239814077081347 
3.240000000002413, -1.3237163011707926 
3.250000000002434, -1.3231599867069834 
3.260000000002455, -1.3223880856839585 
3.2700000000024763, -1.3215913989004178 
3.2800000000024974, -1.321230049379121 
3.2900000000025185, -1.3220382166402362 
3.3000000000025396, -1.3246112060434907 
3.3100000000025607, -1.328832859618205 
3.3200000000025818, -1.3338927891450418 
3.330000000002603, -1.338869480183055 
3.340000000002624, -1.3431593717039592 
3.350000000002645, -1.3465165194079847 
3.360000000002666, -1.348928249793326 
3.3700000000026873, -1.3505003764763086 
3.3800000000027084, -1.3513849507622562 
3.3900000000027295, -1.3517374375968025 
3.4000000000027506, -1.3516940677629246 
3.4100000000027717, -1.3513671205014308 
3.420000000002793, -1.3508551809154719 
3.430000000002814, -1.35025960589836 
3.440000000002835, -1.349690955552671 
3.450000000002856, -1.34925157201018 
3.460000000002877, -1.3490047123040165 
3.4700000000028983, -1.3489588027934396 
3.4800000000029194, -1.3490730766401655 
3.4900000000029405, -1.3492702243198915 
3.5000000000029616, -1.3494536346421038 
3.5100000000029827, -1.3495275925591186 
3.520000000003004, -1.3494077141241387 
3.530000000003025, -1.3490174885416832 
3.540000000003046, -1.348280625979219 
3.550000000003067, -1.347118979760487 
3.5600000000030882, -1.345458568903491 
3.5700000000031094, -1.343241865667931 
3.5800000000031305, -1.3404467222819354 
3.5900000000031516, -1.3371190058658926 
3.6000000000031727, -1.3334277419995306 
3.6100000000031938, -1.3297275352270221 
3.620000000003215, -1.326544288469103 
3.630000000003236, -1.324363675064462 
3.640000000003257, -1.3233055842568606 
3.650000000003278, -1.323053172147148 
3.6600000000032993, -1.32314027689927 
3.6700000000033204, -1.323226014692604 
3.6800000000033415, -1.3231334553618768 
3.6900000000033626, -1.3227603984153373 
3.7000000000033837, -1.3219829137143209 
3.710000000003405, -1.320569236595882 
3.720000000003426, -1.3180792726762822 
3.730000000003447, -1.3137472212806798 
3.740000000003468, -1.3064609188319454 
3.750000000003489, -1.2952385112143872 
3.7600000000035103, -1.280777519072463 
3.7700000000035314, -1.2672533742146372 
3.7800000000035525, -1.2605570093371135 
3.7900000000035736, -1.2624482961558448 
3.8000000000035947, -1.2690125138197117 
3.810000000003616, -1.2756462215256534 
3.820000000003637, -1.280382720099697 
3.830000000003658, -1.2832211049670779 
3.840000000003679, -1.2847258055742148 
3.8500000000037002, -1.2853905902024612 
3.8600000000037213, -1.2855213448539486 
3.8700000000037424, -1.2852753868198359 
3.8800000000037635, -1.284719982209002 
3.8900000000037847, -1.2838966678265435 
3.9000000000038058, -1.2829270661457735 
3.910000000003827, -1.282193652965277 
3.920000000003848, -1.2824964383587958 
3.930000000003869, -1.2848312130385382 
3.94000000000389, -1.2896282448156036 
3.9500000000039113, -1.296220772429025 
3.9600000000039324, -1.3032933842476715 
3.9700000000039535, -1.3097063313191295 
3.9800000000039746, -1.3148632746782554 
3.9900000000039957, -1.3186337150409755 
4.000000000004016, -1.3211555398429138 
4.010000000003993, -1.3226757962697016 
4.02000000000397, -1.3234511928195143 
4.030000000003946, -1.3236979453755437 
4.040000000003923, -1.3235792082702522 
4.0500000000039, -1.323217886208748 
4.0600000000038765, -1.3227226244103842 
4.070000000003853, -1.3222119477376564 
4.08000000000383, -1.3218149672498671 
4.090000000003807, -1.3216364043082942 
4.100000000003783, -1.3217128785808694 
4.11000000000376, -1.3220053291786535 
4.120000000003737, -1.3224279535158685 
4.130000000003713, -1.3228800501448663 
4.14000000000369, -1.3232661312102467 
4.150000000003667, -1.323506661778778 
4.1600000000036434, -1.3235402958230773 
4.17000000000362, -1.3233201968940596 
4.180000000003597, -1.3228100284049635 
4.1900000000035735, -1.3219827762074714 
4.20000000000355, -1.3208221317651518 
4.210000000003527, -1.3193260102646298 
4.220000000003504, -1.3175138412660772 
4.23000000000348, -1.315440523636601 
4.240000000003457, -1.3132180356756344 
4.250000000003434, -1.3110364074209135 
4.26000000000341, -1.3091532206320389 
4.270000000003387, -1.3078069192127744 
4.280000000003364, -1.3070756397625796 
4.2900000000033405, -1.3068199539237857 
4.300000000003317, -1.306787363729837 
4.310000000003294, -1.306752970336825 
4.320000000003271, -1.3065646170966043 
4.330000000003247, -1.3061038455366771 
4.340000000003224, -1.3052200491778174 
4.350000000003201, -1.3036583616661912 
4.360000000003177, -1.3009775276049111 
4.370000000003154, -1.2964715659866306 
4.380000000003131, -1.2891811260221033 
4.390000000003107, -1.278207486875174 
4.400000000003084, -1.263575971148305 
4.410000000003061, -1.2473663937686514 
4.4200000000030375, -1.2335983165417574 
4.430000000003014, -1.2256128986774817 
4.440000000002991, -1.22340599851966 
4.450000000002968, -1.2244426969176785 
4.460000000002944, -1.2263095657818586 
4.470000000002921, -1.227853337102765 
4.480000000002898, -1.2288131463372218 
4.490000000002874, -1.2292566861014567 
4.500000000002851, -1.229292206062104 
4.510000000002828, -1.2289761587359325 
4.520000000002804, -1.2282928382347484 
4.530000000002781, -1.2271533239398162 
4.540000000002758, -1.2254204017379506 
4.5500000000027345, -1.2230318345851277 
4.560000000002711, -1.2203696390650873 
4.570000000002688, -1.2189114334294278 
4.580000000002665, -1.2214508653218248 
4.590000000002641, -1.2304250281387161 
4.600000000002618, -1.2450481147503802 
4.610000000002595, -1.2612569900003543 
4.620000000002571, -1.2750496179774864 
4.630000000002548, -1.2848134630043535 
4.640000000002525, -1.2909123075475544 
4.6500000000025015, -1.2943974933815945 
4.660000000002478, -1.2962297344424518 
4.670000000002455, -1.2970667101894282 
4.6800000000024315, -1.2973019232747613 
4.690000000002408, -1.2971570976513462 
4.700000000002385, -1.2967654935026887 
4.710000000002362, -1.2962446316467384 
4.720000000002338, -1.2957641327074088 
4.730000000002315, -1.295580246092798 
4.740000000002292, -1.2959697119391766 
4.750000000002268, -1.2970635474889614 
4.760000000002245, -1.2987433036879408 
4.770000000002222, -1.3007245424550284 
4.7800000000021985, -1.3027181902918368 
4.790000000002175, -1.3045196949396998 
4.800000000002152, -1.3060138478887369 
4.810000000002129, -1.3071484234802786 
4.820000000002105, -1.3079098715305695 
4.830000000002082, -1.3083085916506134 
4.840000000002059, -1.3083711510762854 
4.850000000002035, -1.3081355935755468 
4.860000000002012, -1.3076485495861154 
4.870000000001989, -1.3069654580269277 
4.880000000001965, -1.306154232730258 
4.890000000001942, -1.305297985311516 
4.900000000001919, -1.304489874372829 
4.9100000000018955, -1.3038187570664206 
4.920000000001872, -1.3033503336396706 
4.930000000001849, -1.3031057753905464 
4.940000000001826, -1.3030451187495966 
