t, s[1].omega / s[0].omega 
0, -0.6099977238332602 
0.009999999999999995, -0.6097717325217001 
0.019999999999999934, -0.6095437535814241 
0.029999999999999874, -0.6093007245978377 
0.04000000000000012, -0.6090276477324196 
0.050000000000000405, -0.608713536271922 
0.06000000000000069, -0.6083547502051826 
0.07000000000000098, -0.6079554819771457 
0.08000000000000126, -0.6075270498216934 
0.09000000000000155, -0.6070879707618719 
0.10000000000000184, -0.6066661164867364 
0.11000000000000212, -0.6063035732564449 
0.12000000000000241, -0.6060644739352732 
0.130000000000002, -0.6060458070270291 
0.1400000000000009, -0.6063905398673948 
0.1499999999999998, -0.6073006277249335 
0.1599999999999987, -0.609043578610075 
0.1699999999999976, -0.6119390364657983 
0.1799999999999965, -0.616302211361985 
0.1899999999999954, -0.6223187771329172 
0.1999999999999943, -0.6298588136308079 
0.2099999999999932, -0.6383314699841439 
0.2199999999999921, -0.6467679980907473 
0.229999999999991, -0.6541976381958178 
0.2399999999999899, -0.6600549033535049 
0.2499999999999888, -0.6642849461230508 
0.2599999999999877, -0.6671546078082705 
0.2699999999999866, -0.6690163202977194 
0.2799999999999855, -0.670174958505684 
0.2899999999999844, -0.6708514258708227 
0.2999999999999833, -0.671190825556654 
0.3099999999999822, -0.6712806765221887 
0.3199999999999811, -0.6711658622033734 
0.32999999999998, -0.6708573658921504 
0.3399999999999789, -0.6703352202121386 
0.3499999999999778, -0.6695471364736582 
0.35999999999997667, -0.6684056986514437 
0.36999999999997557, -0.6667903669863209 
0.37999999999997447, -0.6645654987789122 
0.38999999999997337, -0.6616262933574677 
0.39999999999997227, -0.6579685021808974 
0.40999999999997117, -0.6537432016452921 
0.41999999999997006, -0.649242380386883 
0.42999999999996896, -0.6448080789051547 
0.43999999999996786, -0.6407264901056535 
0.44999999999996676, -0.6371718413874958 
0.45999999999996566, -0.6342097137302942 
0.46999999999996456, -0.6318300906166725 
0.47999999999996346, -0.6299816973076966 
0.48999999999996235, -0.6285959741135043 
0.49999999999996125, -0.6276006418959177 
0.5099999999999602, -0.6269264953652873 
0.519999999999959, -0.6265106689746356 
0.529999999999958, -0.6262982543366782 
0.5399999999999568, -0.6262430782981283 
0.5499999999999557, -0.626307920132849 
0.5599999999999546, -0.626464307639858 
0.5699999999999535, -0.6266920413910573 
0.5799999999999524, -0.6269785313149876 
0.5899999999999513, -0.6273177581481405 
0.5999999999999502, -0.6277082544653003 
0.6099999999999491, -0.6281493041189871 
0.619999999999948, -0.6286351665806513 
0.6299999999999469, -0.6291488005171029 
0.6399999999999458, -0.6296584858690419 
0.6499999999999447, -0.6301209534817919 
0.6599999999999436, -0.630491438419383 
0.6699999999999425, -0.6307358962866279 
0.6799999999999414, -0.6308384083197333 
0.6899999999999403, -0.6308004759784162 
0.6999999999999392, -0.6306347150206103 
0.7099999999999381, -0.6303578616957899 
0.719999999999937, -0.6299864670145602 
0.7299999999999359, -0.629536304202593 
0.7399999999999348, -0.629025464745689 
0.7499999999999337, -0.628481360668585 
0.7599999999999326, -0.6279525303140219 
0.7699999999999315, -0.6275262798468432 
0.7799999999999304, -0.6273513184273675 
0.7899999999999293, -0.6276580628389501 
0.7999999999999282, -0.6287552562730322 
0.8099999999999271, -0.6309634989510864 
0.819999999999926, -0.6344518560290665 
0.8299999999999249, -0.6390287592323577 
0.8399999999999238, -0.6440872400652359 
0.8499999999999227, -0.6488738841045858 
0.8599999999999216, -0.6528845616517215 
0.8699999999999205, -0.6559997090553582 
0.8799999999999194, -0.6583315613350074 
0.8899999999999183, -0.6600444936445446 
0.8999999999999172, -0.6612787744161642 
0.9099999999999161, -0.6621416574394372 
0.919999999999915, -0.6627144266474662 
0.9299999999999139, -0.6630576113759501 
0.9399999999999128, -0.663213407706756 
0.9499999999999117, -0.6632068000804647 
0.9599999999999106, -0.663045961053055 
0.9699999999999095, -0.6627220522205691 
0.9799999999999084, -0.662208962471044 
0.9899999999999073, -0.6614646757180525 
0.9999999999999062, -0.6604375212540505 
1.0099999999999052, -0.6590810667131721 
1.019999999999904, -0.6573777823119655 
1.029999999999903, -0.6553623338273447 
1.039999999999902, -0.6531276002897857 
1.0499999999999008, -0.6508036767840062 
1.0599999999998997, -0.6485209282531528 
1.0699999999998986, -0.6463799553627534 
1.0799999999998975, -0.6444415636519787 
1.0899999999998964, -0.642733217280953 
1.0999999999998953, -0.6412615504745036 
1.1099999999998942, -0.6400232757020895 
1.119999999999893, -0.6390118429836494 
1.129999999999892, -0.6382203129289501 
1.1399999999998909, -0.6376419015398925 
1.1499999999998898, -0.6372695591667406 
1.1599999999998887, -0.6370955233681638 
1.1699999999998876, -0.6371113482568191 
1.1799999999998865, -0.6373085376947416 
1.1899999999998854, -0.6376796077536645 
1.1999999999998843, -0.6382191641842458 
1.2099999999998832, -0.6389243580077315 
1.219999999999882, -0.6397938318766776 
1.229999999999881, -0.640824086404734 
1.2399999999998799, -0.6420025030727813 
1.2499999999998788, -0.6432977965831286 
1.2599999999998777, -0.6446518054138808 
1.2699999999998766, -0.6459796810173841 
1.2799999999998755, -0.6471842495691196 
1.2899999999998744, -0.6481813072542424 
1.2999999999998733, -0.6489219496801808 
1.3099999999998722, -0.6493985231130475 
1.319999999999871, -0.649633651990463 
1.32999999999987, -0.6496626560058096 
1.3399999999998689, -0.64951919507213 
1.3499999999998678, -0.6492274732936985 
1.3599999999998666, -0.6487996698968416 
1.3699999999998655, -0.6482362790262057 
1.3799999999998644, -0.6475279411757032 
1.3899999999998633, -0.6466584703989613 
1.3999999999998622, -0.6456092960874369 
1.4099999999998611, -0.6443646943828087 
1.41999999999986, -0.64291389509974 
1.429999999999859, -0.6412409337572098 
1.4399999999998578, -0.6392952146306501 
1.4499999999998567, -0.6369677025480032 
1.4599999999998556, -0.6341532928610325 
1.4699999999998545, -0.6309355422847563 
1.4799999999998534, -0.6277040800068752 
1.4899999999998523, -0.6249729348935318 
1.4999999999998512, -0.6230594687494817 
1.5099999999998501, -0.621966181397134 
1.519999999999849, -0.6214953140978461 
1.529999999999848, -0.6214068823404159 
1.5399999999998468, -0.621506835263515 
1.5499999999998457, -0.6216671910040363 
1.5599999999998446, -0.621813935353981 
1.5699999999998435, -0.6219077833567734 
1.5799999999998424, -0.6219279760003051 
1.5899999999998413, -0.6218611670097661 
1.5999999999998402, -0.621694713952002 
1.6099999999998391, -0.6214135157015797 
1.619999999999838, -0.62100022616829 
1.629999999999837, -0.6204391851110989 
1.6399999999998358, -0.6197237709397762 
1.6499999999998347, -0.6188645563795626 
1.6599999999998336, -0.6178930612563132 
1.6699999999998325, -0.6168566898612516 
1.6799999999998314, -0.6158061503541636 
1.6899999999998303, -0.614782459735705 
1.6999999999998292, -0.6138104071309731 
1.709999999999828, -0.6128999620648574 
1.719999999999827, -0.6120524055399106 
1.729999999999826, -0.6112670604626566 
1.7399999999998248, -0.6105462351892892 
1.7499999999998237, -0.6098980417364225 
1.7599999999998226, -0.6093378253844581 
1.7699999999998215, -0.6088890178040227 
1.7799999999998204, -0.6085838509868428 
1.7899999999998193, -0.6084640153410124 
1.7999999999998182, -0.6085811748873755 
1.809999999999817, -0.6089971947954675 
1.819999999999816, -0.6097838033858751 
1.8299999999998149, -0.6110209579245747 
1.8399999999998138, -0.6127921747176792 
1.8499999999998127, -0.6151734955229882 
1.8599999999998116, -0.6182113671134408 
1.8699999999998105, -0.6218862002330681 
1.8799999999998094, -0.6260678379855653 
1.8899999999998083, -0.6304890061991791 
1.8999999999998072, -0.634777824280082 
1.909999999999806, -0.638564502950687 
1.919999999999805, -0.641607053999535 
1.9299999999998039, -0.643847165893608 
1.9399999999998028, -0.6453703231856389 
1.9499999999998017, -0.6463239595641943 
1.9599999999998006, -0.646852788445163 
1.9699999999997995, -0.6470688080146257 
1.9799999999997984, -0.6470451335436999 
1.9899999999997973, -0.646819054069135 
1.9999999999997962, -0.646395374990085 
2.0099999999998173, -0.6457460170366208 
2.0199999999998384, -0.6448042058651954 
2.0299999999998595, -0.6434529152861843 
2.0399999999998806, -0.6415101271863534 
2.0499999999999017, -0.6387217360525772 
2.059999999999923, -0.634789193304336 
2.069999999999944, -0.6294718722484888 
2.079999999999965, -0.6227702388161921 
2.089999999999986, -0.6150823232178058 
2.100000000000007, -0.6071496458332238 
2.1100000000000283, -0.5997677740048319 
2.1200000000000494, -0.5934883673603941 
2.1300000000000705, -0.588518960252331 
2.1400000000000916, -0.5848019215144438 
2.1500000000001127, -0.5821447452324964 
2.160000000000134, -0.5803191757504903 
2.170000000000155, -0.5791138958735196 
2.180000000000176, -0.5783544042325285 
2.190000000000197, -0.5779056756911884 
2.2000000000002182, -0.5776675883675835 
2.2100000000002393, -0.5775682033610695 
2.2200000000002604, -0.5775571787947336 
2.2300000000002815, -0.5776002649765416 
2.2400000000003026, -0.577675238449485 
2.2500000000003237, -0.5777693122085072 
2.260000000000345, -0.5778777122203717 
2.270000000000366, -0.5780026099743771 
2.280000000000387, -0.5781511281806203 
2.290000000000408, -0.5783312475795264 
2.3000000000004293, -0.5785456550852703 
2.3100000000004504, -0.5787855866229453 
2.3200000000004715, -0.5790281612769405 
2.3300000000004926, -0.5792399265896155 
2.3400000000005137, -0.5793858921744739 
2.3500000000005348, -0.5794393949207187 
2.360000000000556, -0.5793874796381007 
2.370000000000577, -0.5792300443301486 
2.380000000000598, -0.5789751714669251 
2.390000000000619, -0.578634310609409 
2.4000000000006403, -0.5782196506815312 
2.4100000000006614, -0.5777444236000604 
2.4200000000006825, -0.5772262616669331 
2.4300000000007036, -0.5766939222285765 
2.4400000000007247, -0.5761979645840485 
2.450000000000746, -0.5758252847715432 
2.460000000000767, -0.5757139911995306 
2.470000000000788, -0.5760561855868672 
2.480000000000809, -0.5770612703433626 
2.49000000000083, -0.5788462038561006 
2.5000000000008513, -0.5812691323943072 
2.5100000000008724, -0.5838589472393665 
2.5200000000008935, -0.5860404583040261 
2.5300000000009146, -0.5875295327739258 
2.5400000000009357, -0.5884501592682583 
2.550000000000957, -0.5890845772200208 
2.560000000000978, -0.589625431837483 
2.570000000000999, -0.5901312538545536 
2.58000000000102, -0.5905894817248879 
2.5900000000010412, -0.5909732827357732 
2.6000000000010624, -0.591264620691563 
2.6100000000010835, -0.5914563780054307 
2.6200000000011046, -0.5915474405985678 
2.6300000000011257, -0.5915373480980604 
2.6400000000011468, -0.5914224364696599 
2.650000000001168, -0.5911937760362139 
2.660000000001189, -0.5908371798136822 
2.67000000000121, -0.5903360154328352 
2.680000000001231, -0.5896775363794708 
2.6900000000012523, -0.5888619335957366 
2.7000000000012734, -0.5879102205638973 
2.7100000000012945, -0.5868650146931784 
2.7200000000013156, -0.5857812385892617 
2.7300000000013367, -0.5847110138587764 
2.740000000001358, -0.5836914178941701 
2.750000000001379, -0.582740756346394 
2.7600000000014, -0.5818626208745445 
2.770000000001421, -0.5810533505378064 
2.780000000001442, -0.5803089149225904 
2.7900000000014633, -0.5796294898131971 
2.8000000000014844, -0.5790219333832993 
2.8100000000015055, -0.5785011706585368 
2.8200000000015266, -0.578091390389152 
2.8300000000015477, -0.5778275270665024 
2.840000000001569, -0.5777571340271864 
2.85000000000159, -0.5779425400653885 
2.860000000001611, -0.5784630095197115 
2.870000000001632, -0.5794162665500837 
2.8800000000016532, -0.5809178663004003 
2.8900000000016743, -0.5830951118604354 
2.9000000000016954, -0.5860694554242909 
2.9100000000017165, -0.5899190793096007 
2.9200000000017377, -0.594617118526606 
2.9300000000017588, -0.5999606515396608 
2.94000000000178, -0.60554211984573 
2.950000000001801, -0.6108295781203593 
2.960000000001822, -0.6153513752155517 
2.970000000001843, -0.6188627845693202 
2.9800000000018643, -0.621372337821104 
2.9900000000018854, -0.6230449033182014 
3.0000000000019065, -0.6240861950855289 
3.0100000000019276, -0.624674023460501 
3.0200000000019487, -0.6249364702584884 
3.03000000000197, -0.6249538368604212 
3.040000000001991, -0.6247666186046101 
3.050000000002012, -0.6243813609769295 
3.060000000002033, -0.6237718067966631 
3.070000000002054, -0.6228751362809507 
3.0800000000020753, -0.6215850098140769 
3.0900000000020964, -0.6197472028640181 
3.1000000000021175, -0.6171715931697348 
3.1100000000021386, -0.6136819384958856 
3.1200000000021597, -0.6092137873657159 
3.130000000002181, -0.6039201159380091 
3.140000000002202, -0.5981895367140067 
3.150000000002223, -0.5925241766409969 
3.160000000002244, -0.587357721881191 
3.1700000000022652, -0.5829443874642615 
3.1800000000022863, -0.5793586415101071 
3.1900000000023074, -0.5765551141206403 
3.2000000000023285, -0.5744315207072019 
3.2100000000023496, -0.5728707158308776 
3.2200000000023707, -0.5717621587935131 
3.230000000002392, -0.5710103117876493 
3.240000000002413, -0.5705364768388473 
3.250000000002434, -0.570277915238735 
3.260000000002455, -0.570186100962324 
3.2700000000024763, -0.5702248838655597 
3.2800000000024974, -0.5703688670363752 
3.2900000000025185, -0.5706021016390752 
3.3000000000025396, -0.5709170238624918 
3.3100000000025607, -0.5713132515114853 
3.3200000000025818, -0.571795429050858 
3.330000000002603, -0.5723690385325484 
3.340000000002624, -0.5730335371913502 
3.350000000002645, -0.5737738415323864 
3.360000000002666, -0.5745537836796852 
3.3700000000026873, -0.5753168913754323 
3.3800000000027084, -0.5759976223177179 
3.3900000000027295, -0.5765391953371334 
3.4000000000027506, -0.5769079946157817 
3.4100000000027717, -0.5770966368535358 
3.420000000002793, -0.5771165093360417 
3.430000000002814, -0.5769865455557256 
3.440000000002835, -0.576724040040879 
3.450000000002856, -0.5763393178025707 
3.460000000002877, -0.575833374249718 
3.4700000000028983, -0.5751969316241506 
3.4800000000029194, -0.574409577673398 
3.4900000000029405, -0.573437646633047 
3.5000000000029616, -0.5722285243857946 
3.5100000000029827, -0.5706968138798613 
3.520000000003004, -0.5686964627040253 
3.530000000003025, -0.5659833860938264 
3.540000000003046, -0.5622168534825521 
3.550000000003067, -0.5571092968099335 
3.5600000000030882, -0.5507565350464839 
3.5700000000031094, -0.5438513238076834 
3.5800000000031305, -0.5374003637481563 
3.5900000000031516, -0.5321608933561379 
3.6000000000031727, -0.5283666263692138 
3.6100000000031938, -0.5258534200675224 
3.620000000003215, -0.5243027934169636 
3.630000000003236, -0.5234042194952374 
3.640000000003257, -0.5229164286586816 
3.650000000003278, -0.5226720324861944 
3.6600000000032993, -0.5225620775337758 
3.6700000000033204, -0.5225181535294523 
3.6800000000033415, -0.522497962041486 
3.6900000000033626, -0.5224752951449602 
3.7000000000033837, -0.5224338702348188 
3.710000000003405, -0.5223642717831094 
3.720000000003426, -0.5222632871635745 
3.730000000003447, -0.5221346717782334 
3.740000000003468, -0.5219897735870678 
3.750000000003489, -0.5218460547787551 
3.7600000000035103, -0.521722312874115 
3.7700000000035314, -0.5216315263978795 
3.7800000000035525, -0.5215744123782052 
3.7900000000035736, -0.5215372138313309 
3.8000000000035947, -0.5214953609462674 
3.810000000003616, -0.5214214115931097 
3.820000000003637, -0.5212931524567933 
3.830000000003658, -0.5210980269510628 
3.840000000003679, -0.5208329593369383 
3.8500000000037002, -0.5205014716759249 
3.8600000000037213, -0.5201107028558835 
3.8700000000037424, -0.5196700257224858 
3.8800000000037635, -0.5191919170002154 
3.8900000000037847, -0.5186952974594055 
3.9000000000038058, -0.5182115246226047 
3.910000000003827, -0.5177928721364146 
3.920000000003848, -0.5175214105592414 
3.930000000003869, -0.5175105577461314 
3.94000000000389, -0.5178802517936383 
3.9500000000039113, -0.518676079135161 
3.9600000000039324, -0.5197275138492936 
3.9700000000039535, -0.5205565495354757 
3.9800000000039746, -0.520571109101641 
3.9900000000039957, -0.5195418194070714 
4.000000000004016, -0.5178364400141329 
4.010000000003993, -0.5160811740929434 
4.02000000000397, -0.5147050183921013 
4.030000000003946, -0.5138187781279163 
4.040000000003923, -0.5133401440179977 
4.0500000000039, -0.5131332933163006 
4.0600000000038765, -0.5130795553931715 
4.070000000003853, -0.5130955020551208 
4.08000000000383, -0.5131285086807715 
4.090000000003807, -0.5131469958393975 
4.100000000003783, -0.5131318509319299 
4.11000000000376, -0.5130705840548396 
4.120000000003737, -0.5129542063659543 
4.130000000003713, -0.5127765757174432 
4.14000000000369, -0.512535884138295 
4.150000000003667, -0.5122374448121697 
4.1600000000036434, -0.511895921294424 
4.17000000000362, -0.5115345030636129 
4.180000000003597, -0.5111796334934432 
4.1900000000035735, -0.5108527796252453 
4.20000000000355, -0.51056318342621 
4.210000000003527, -0.5103053229104311 
4.220000000003504, -0.5100621795859861 
4.23000000000348, -0.5098123173243746 
4.240000000003457, -0.5095370870601699 
4.250000000003434, -0.5092249362072895 
4.26000000000341, -0.5088721715980558 
4.270000000003387, -0.5084816505733786 
4.280000000003364, -0.5080614631145836 
4.2900000000033405, -0.5076251070185281 
4.300000000003317, -0.5071939882705994 
4.310000000003294, -0.506802825827296 
4.320000000003271, -0.5065085508241136 
4.330000000003247, -0.5064029235141609 
4.340000000003224, -0.5066270329944074 
4.350000000003201, -0.5073795704996241 
4.360000000003177, -0.5088971517882305 
4.370000000003154, -0.5113676381971326 
4.380000000003131, -0.514749290403489 
4.390000000003107, -0.5185815029513421 
4.400000000003084, -0.5220557393005458 
4.410000000003061, -0.5244950840611777 
4.4200000000030375, -0.5258064107840708 
4.430000000003014, -0.5263758382349983 
4.440000000002991, -0.5266399625677403 
4.450000000002968, -0.5268454991139737 
4.460000000002944, -0.5270656962710125 
4.470000000002921, -0.5272921864730206 
4.480000000002898, -0.5274973502451751 
4.490000000002874, -0.5276584736894119 
4.500000000002851, -0.5277616857076224 
4.510000000002828, -0.5277990986646484 
4.520000000002804, -0.5277651007442007 
4.530000000002781, -0.527653752663123 
4.540000000002758, -0.5274578723129271 
4.5500000000027345, -0.5271701527792735 
4.560000000002711, -0.5267864975998248 
4.570000000002688, -0.5263109295147248 
4.580000000002665, -0.5257598153958386 
4.590000000002641, -0.5251619961934553 
4.600000000002618, -0.5245528128271176 
4.610000000002595, -0.523964055695213 
4.620000000002571, -0.5234150815964024 
4.630000000002548, -0.5229095452615125 
4.640000000002525, -0.522438449700679 
4.6500000000025015, -0.5219868884886937 
4.660000000002478, -0.5215408450481682 
4.670000000002455, -0.5210916019052702 
4.6800000000024315, -0.5206374385110314 
4.690000000002408, -0.5201838837944444 
4.700000000002385, -0.5197441869451495 
4.710000000002362, -0.519341295687274 
4.720000000002338, -0.5190121987023594 
4.730000000002315, -0.5188153216640705 
4.740000000002292, -0.5188416232577442 
4.750000000002268, -0.5192296062146037 
4.760000000002245, -0.5201825758497634 
4.770000000002222, -0.5219810651939187 
4.7800000000021985, -0.524971417344803 
4.790000000002175, -0.5294934268520782 
4.800000000002152, -0.5357050906396952 
4.810000000002129, -0.5433291237583131 
4.820000000002105, -0.5515211554983681 
4.830000000002082, -0.5591396107077843 
4.840000000002059, -0.5653268245963264 
4.850000000002035, -0.5698534526048354 
4.860000000002012, -0.5729642752599695 
4.870000000001989, -0.5750446586191302 
4.880000000001965, -0.5764225741088994 
4.890000000001942, -0.5773249190522346 
4.900000000001919, -0.5778971589628805 
4.9100000000018955, -0.5782302696103108 
4.920000000001872, -0.5783796257970162 
4.930000000001849, -0.578375995921004 
