t, s[1].omega / s[0].omega 
0, -0.6899976962814438 
0.009999999999999995, -0.6897625975717088 
0.019999999999999934, -0.6895115159279092 
0.029999999999999874, -0.6892282642331338 
0.04000000000000012, -0.6888955605268791 
0.050000000000000405, -0.6885033459892241 
0.06000000000000069, -0.6880533262175841 
0.07000000000000098, -0.6875598657596965 
0.08000000000000126, -0.6870499565394963 
0.09000000000000155, -0.686564880264249 
0.10000000000000184, -0.6861645700014771 
0.11000000000000212, -0.6859340519902017 
0.12000000000000241, -0.6859902252678197 
0.130000000000002, -0.6864866107722255 
0.1400000000000009, -0.687613626589588 
0.1499999999999998, -0.6895923237382866 
0.1599999999999987, -0.6926595372217165 
0.1699999999999976, -0.6970406107236014 
0.1799999999999965, -0.7029017067969634 
0.1899999999999954, -0.7102711580852017 
0.1999999999999943, -0.7189312355575603 
0.2099999999999932, -0.7283259395157282 
0.2199999999999921, -0.7375928315584475 
0.229999999999991, -0.7458075017892115 
0.2399999999999899, -0.7523386154554732 
0.2499999999999888, -0.7570402588064815 
0.2599999999999877, -0.7601532425602321 
0.2699999999999866, -0.7620690038455098 
0.2799999999999855, -0.7631510948491658 
0.2899999999999844, -0.7636661378511941 
0.2999999999999833, -0.7637820867467034 
0.3099999999999822, -0.7635873132334344 
0.3199999999999811, -0.7631071348754512 
0.32999999999998, -0.7623101461456377 
0.3399999999999789, -0.7611023014567421 
0.3499999999999778, -0.7593071448358077 
0.35999999999997667, -0.7566298223280713 
0.36999999999997557, -0.7526043785334176 
0.37999999999997447, -0.7465375123108468 
0.38999999999997337, -0.7375112173726943 
0.39999999999997227, -0.7246165399263231 
0.40999999999997117, -0.707641982108928 
0.41999999999997006, -0.6879773715975157 
0.42999999999996896, -0.6685823233539709 
0.43999999999996786, -0.6524087454517769 
0.44999999999996676, -0.6408186594621991 
0.45999999999996566, -0.6335042366890551 
0.46999999999996456, -0.6293663496672386 
0.47999999999996346, -0.6272688010237297 
0.48999999999996235, -0.6263491235203752 
0.49999999999996125, -0.6260457512128096 
0.5099999999999602, -0.6260255106713382 
0.519999999999959, -0.6261026009756232 
0.529999999999958, -0.6261769725603228 
0.5399999999999568, -0.6261939592919413 
0.5499999999999557, -0.6261200062894816 
0.5599999999999546, -0.6259294381362286 
0.5699999999999535, -0.6255992280000011 
0.5799999999999524, -0.6251105012107392 
0.5899999999999513, -0.6244556252504515 
0.5999999999999502, -0.6236473278184885 
0.6099999999999491, -0.6227229686917879 
0.619999999999948, -0.621737850471464 
0.6299999999999469, -0.6207489543241144 
0.6399999999999458, -0.6197984332933981 
0.6499999999999447, -0.6189059791704628 
0.6599999999999436, -0.6180719622073095 
0.6699999999999425, -0.6172869123543661 
0.6799999999999414, -0.6165415270103497 
0.6899999999999403, -0.6158336686935456 
0.6999999999999392, -0.6151719559487615 
0.7099999999999381, -0.6145774739348457 
0.719999999999937, -0.614085300014824 
0.7299999999999359, -0.6137467153220373 
0.7399999999999348, -0.6136321164655456 
0.7499999999999337, -0.6138341958556639 
0.7599999999999326, -0.6144708985583112 
0.7699999999999315, -0.6156877152153771 
0.7799999999999304, -0.6176585437311198 
0.7899999999999293, -0.6205828670318371 
0.7999999999999282, -0.6246733746929027 
0.8099999999999271, -0.6301220418448231 
0.819999999999926, -0.6370272608568921 
0.8299999999999249, -0.645273044870182 
0.8399999999999238, -0.6543983164196391 
0.8499999999999227, -0.6635783702789833 
0.8599999999999216, -0.6718504452944577 
0.8699999999999205, -0.6785068796469937 
0.8799999999999194, -0.6833418243900494 
0.8899999999999183, -0.6865711544930523 
0.8999999999999172, -0.6885835909703744 
0.9099999999999161, -0.6897470712847938 
0.919999999999915, -0.6903330393607294 
0.9299999999999139, -0.6905132906027789 
0.9399999999999128, -0.6903789822065323 
0.9499999999999117, -0.6899567255233194 
0.9599999999999106, -0.6892132599175567 
0.9699999999999095, -0.688045484831642 
0.9799999999999084, -0.6862524894740812 
0.9899999999999073, -0.6834865370186546 
0.9999999999999062, -0.6791905768953126 
1.0099999999999052, -0.6725712812866502 
1.019999999999904, -0.6627436749867583 
1.029999999999903, -0.6492225748309164 
1.039999999999902, -0.6326315277676968 
1.0499999999999008, -0.6148910947886751 
1.0599999999998997, -0.5983516915621507 
1.0699999999998986, -0.584629469551871 
1.0799999999998975, -0.5742070151220375 
1.0899999999998964, -0.566774567256437 
1.0999999999998953, -0.5617117145663392 
1.1099999999998942, -0.5583885835126361 
1.119999999999893, -0.5562844035058284 
1.129999999999892, -0.5550074617632164 
1.1399999999998909, -0.5542777604581387 
1.1499999999998898, -0.5539013643122992 
1.1599999999998887, -0.553746955286912 
1.1699999999998876, -0.5537273046072408 
1.1799999999998865, -0.5537857216843457 
1.1899999999998854, -0.5538868848369106 
1.1999999999998843, -0.5540113722420894 
1.2099999999998832, -0.5541530341040517 
1.219999999999882, -0.554317777137678 
1.229999999999881, -0.5545215470007157 
1.2399999999998799, -0.5547851396358319 
1.2499999999998788, -0.5551249129751533 
1.2599999999998777, -0.5555413885775224 
1.2699999999998766, -0.5560106592556322 
1.2799999999998755, -0.5564844668852007 
1.2899999999998744, -0.556901715510225 
1.2999999999998733, -0.5572069009345931 
1.3099999999998722, -0.5573650354944567 
1.319999999999871, -0.5573652690594477 
1.32999999999987, -0.5572143429735845 
1.3399999999998689, -0.5569267559269742 
1.3499999999998678, -0.5565174330078174 
1.3599999999998666, -0.5559990224013899 
1.3699999999998655, -0.5553838646483469 
1.3799999999998644, -0.554690767630863 
1.3899999999998633, -0.5539577447312599 
1.3999999999998622, -0.5532620481610605 
1.4099999999998611, -0.5527444788113813 
1.41999999999986, -0.5526172005659447 
1.429999999999859, -0.5530896882724793 
1.4399999999998578, -0.5540933028581969 
1.4499999999998567, -0.5547937620538287 
1.4599999999998556, -0.5534646077477254 
1.4699999999998545, -0.5487146440617704 
1.4799999999998534, -0.5412486890382232 
1.4899999999998523, -0.5334579151738446 
1.4999999999998512, -0.5272786398572664 
1.5099999999998501, -0.5232285891197873 
1.519999999999849, -0.520924514004528 
1.529999999999848, -0.5197720968747758 
1.5399999999998468, -0.5192854531993991 
1.5499999999998457, -0.5191440861508414 
1.5599999999998446, -0.5191576324969162 
1.5699999999998435, -0.5192191752547787 
1.5799999999998424, -0.5192698583452187 
1.5899999999998413, -0.5192763602565001 
1.5999999999998402, -0.5192180302402967 
1.6099999999998391, -0.5190808271945995 
1.619999999999838, -0.5188563650475424 
1.629999999999837, -0.5185447972621131 
1.6399999999998358, -0.5181593422142642 
1.6499999999998347, -0.5177285469698056 
1.6599999999998336, -0.5172922424399908 
1.6699999999998325, -0.5168906123789324 
1.6799999999998314, -0.5165509407887001 
1.6899999999998303, -0.5162786690931681 
1.6999999999998292, -0.5160568907164076 
1.709999999999828, -0.515854032241317 
1.719999999999827, -0.5156357251224084 
1.729999999999826, -0.5153752189959014 
1.7399999999998248, -0.515058393926062 
1.7499999999998237, -0.5146834659431241 
1.7599999999998226, -0.51425851805536 
1.7699999999998215, -0.5138003134101012 
1.7799999999998204, -0.5133367459048682 
1.7899999999998193, -0.5129146271953681 
1.7999999999998182, -0.5126149856310983 
1.809999999999817, -0.5125793350275438 
1.819999999999816, -0.513051322600133 
1.8299999999998149, -0.514435445673878 
1.8399999999998138, -0.5173585065831612 
1.8499999999998127, -0.5226690585011294 
1.8599999999998116, -0.5312085235754828 
1.8699999999998105, -0.5431381821106286 
1.8799999999998094, -0.5570316073694734 
1.8899999999998083, -0.5699764376361084 
1.8999999999998072, -0.5795358466364355 
1.909999999999806, -0.5854424597201657 
1.919999999999805, -0.5889046155352022 
1.9299999999998039, -0.5911064654297065 
1.9399999999998028, -0.5926770307220444 
1.9499999999998017, -0.5938610755844999 
1.9599999999998006, -0.5947488750936143 
1.9699999999997995, -0.5953867937465296 
1.9799999999997984, -0.5958096947811385 
1.9899999999997973, -0.5960448469477269 
1.9999999999997962, -0.5961093653774772 
2.0099999999998173, -0.5960075779833304 
2.0199999999998384, -0.5957296469081231 
2.0299999999998595, -0.595252361544566 
2.0399999999998806, -0.594544137543659 
2.0499999999999017, -0.5935768391330092 
2.059999999999923, -0.5923444148410013 
2.069999999999944, -0.5908810265025111 
2.079999999999965, -0.5892648105856144 
2.089999999999986, -0.587599074335871 
2.100000000000007, -0.5859805398197953 
2.1100000000000283, -0.5844747880572425 
2.1200000000000494, -0.5831103934874303 
2.1300000000000705, -0.5818882042389802 
2.1400000000000916, -0.5807959073087292 
2.1500000000001127, -0.5798204957865168 
2.160000000000134, -0.5789560219726524 
2.170000000000155, -0.5782072969603111 
2.180000000000176, -0.5775913553077604 
2.190000000000197, -0.5771382380548811 
2.2000000000002182, -0.5768919200991333 
2.2100000000002393, -0.57691166099746 
2.2200000000002604, -0.577273856479111 
2.2300000000002815, -0.5780744560038868 
2.2400000000003026, -0.5794318725373364 
2.2500000000003237, -0.5814895872470226 
2.260000000000345, -0.5844156845090235 
2.270000000000366, -0.5883925355349006 
2.280000000000387, -0.5935836774037702 
2.290000000000408, -0.600060524690283 
2.3000000000004293, -0.6076835983476525 
2.3100000000004504, -0.6159855911395996 
2.3200000000004715, -0.6241830788333667 
2.3300000000004926, -0.6314226380008431 
2.3400000000005137, -0.6371394421658222 
2.3500000000005348, -0.6412292557203542 
2.360000000000556, -0.6439296585473101 
2.370000000000577, -0.6455933474749451 
2.380000000000598, -0.6465346830772213 
2.390000000000619, -0.6469779439664689 
2.4000000000006403, -0.6470602278057702 
2.4100000000006614, -0.646847973662175 
2.4200000000006825, -0.6463483548960834 
2.4300000000007036, -0.645509252794527 
2.4400000000007247, -0.6442051568814519 
2.450000000000746, -0.6422072941744866 
2.460000000000767, -0.6391420141339581 
2.470000000000788, -0.6344644553072379 
2.480000000000809, -0.6275264301679463 
2.49000000000083, -0.6178577572790298 
2.5000000000008513, -0.6056435683268333 
2.5100000000008724, -0.5919980652148218 
2.5200000000008935, -0.5785710199077895 
2.5300000000009146, -0.5667481508457193 
2.5400000000009357, -0.5571867851057816 
2.550000000000957, -0.5499018262819882 
2.560000000000978, -0.5445731896891648 
2.570000000000999, -0.5407906614189856 
2.58000000000102, -0.5381755993020129 
2.5900000000010412, -0.5364200710390555 
2.6000000000010624, -0.5352881281774439 
2.6100000000010835, -0.5346045653563072 
2.6200000000011046, -0.5342419286231808 
2.6300000000011257, -0.5341093164950521 
2.6400000000011468, -0.5341436928002088 
2.650000000001168, -0.5343035816791888 
2.660000000001189, -0.5345648526803395 
2.67000000000121, -0.5349182013077468 
2.680000000001231, -0.5353675742134878 
2.6900000000012523, -0.5359281169958023 
2.7000000000012734, -0.5366215669022207 
2.7100000000012945, -0.5374671181719146 
2.7200000000013156, -0.5384674706769959 
2.7300000000013367, -0.5395934550053172 
2.740000000001358, -0.5407755005647334 
2.750000000001379, -0.5419120824818303 
2.7600000000014, -0.5428973003111403 
2.770000000001421, -0.5436536076735898 
2.780000000001442, -0.5441488328434104 
2.7900000000014633, -0.544389919101745 
2.8000000000014844, -0.5444035282530864 
2.8100000000015055, -0.5442172060788922 
2.8200000000015266, -0.5438471196325554 
2.8300000000015477, -0.5432911247748298 
2.840000000001569, -0.5425232105196051 
2.85000000000159, -0.5414848754919266 
2.860000000001611, -0.5400676317852249 
2.870000000001632, -0.5380763229705757 
2.8800000000016532, -0.5351544960904767 
2.8900000000016743, -0.5306501550682474 
2.9000000000016954, -0.5234546422985233 
2.9100000000017165, -0.5120762850540271 
2.9200000000017377, -0.4955120506465587 
2.9300000000017588, -0.47483256739112517 
2.94000000000178, -0.45347238839286064 
2.950000000001801, -0.4350055578680757 
2.960000000001822, -0.4210489753996737 
2.970000000001843, -0.41136219466366064 
2.9800000000018643, -0.4049466851694959 
2.9900000000018854, -0.400796443090619 
3.0000000000019065, -0.3981458057155664 
3.0100000000019276, -0.3964733978664035 
3.0200000000019487, -0.3954409838350631 
3.03000000000197, -0.3948339637294066 
3.040000000001991, -0.3945182560724284 
3.050000000002012, -0.3944122402245766 
3.060000000002033, -0.39446956814782685 
3.070000000002054, -0.3946693302099237 
3.0800000000020753, -0.39501115286281746 
3.0900000000020964, -0.3955134759911158 
3.1000000000021175, -0.39621331376287067 
3.1100000000021386, -0.3971652467075275 
3.1200000000021597, -0.39843633069613116 
3.130000000002181, -0.400092335368058 
3.140000000002202, -0.40217054539829533 
3.150000000002223, -0.40463949078872874 
3.160000000002244, -0.4073621609404163 
3.1700000000022652, -0.41009936548832326 
3.1800000000022863, -0.4125793707770427 
3.1900000000023074, -0.4145998864889912 
3.2000000000023285, -0.4160857906897289 
3.2100000000023496, -0.4170702880033593 
3.2200000000023707, -0.4176371316902815 
3.230000000002392, -0.41787119749546064 
3.240000000002413, -0.41783281851823295 
3.250000000002434, -0.41754855061115626 
3.260000000002455, -0.41700746402724914 
3.2700000000024763, -0.41615629659887626 
3.2800000000024974, -0.41489209308313324 
3.2900000000025185, -0.4130580158869991 
3.3000000000025396, -0.4104597348879162 
3.3100000000025607, -0.40693096570306786 
3.3200000000025818, -0.40245846257023954 
3.330000000002603, -0.3972974354318203 
3.340000000002624, -0.39194068382500397 
3.350000000002645, -0.3869129585707568 
3.360000000002666, -0.38256136676393515 
3.3700000000026873, -0.37899833625351853 
3.3800000000027084, -0.3761715709534509 
3.3900000000027295, -0.373958197665844 
3.4000000000027506, -0.37222765005790864 
3.4100000000027717, -0.37087032126865216 
3.420000000002793, -0.3698057659866806 
3.430000000002814, -0.3689821292670149 
3.440000000002835, -0.36837339778151496 
3.450000000002856, -0.3679777119403599 
3.460000000002877, -0.3678183934822779 
3.4700000000028983, -0.367948901394346 
3.4800000000029194, -0.36846321687114586 
3.4900000000029405, -0.3695139220514776 
3.5000000000029616, -0.37134107909842284 
3.5100000000029827, -0.3743146026508933 
3.520000000003004, -0.3789867317551102 
3.530000000003025, -0.38612734610831123 
3.540000000003046, -0.39665066299536617 
3.550000000003067, -0.4112384301065687 
3.5600000000030882, -0.4295061939697528 
3.5700000000031094, -0.4492156650925431 
3.5800000000031305, -0.4669348708000224 
3.5900000000031516, -0.48025079168742274 
3.6000000000031727, -0.48898823519205187 
3.6100000000031938, -0.49431876960671745 
3.620000000003215, -0.4975080965918012 
3.630000000003236, -0.4994314553355334 
3.640000000003257, -0.5006005868948196 
3.650000000003278, -0.5012986682093161 
3.6600000000032993, -0.5016807853195917 
3.6700000000033204, -0.5018302543389453 
3.6800000000033415, -0.5017873952700256 
3.6900000000033626, -0.5015641177551439 
3.7000000000033837, -0.5011524727560976 
3.710000000003405, -0.5005327019971839 
3.720000000003426, -0.4996850256176361 
3.730000000003447, -0.49860667209961357 
3.740000000003468, -0.49732925608108836 
3.750000000003489, -0.4959246988608822 
3.7600000000035103, -0.49449039302723385 
3.7700000000035314, -0.4931195638913315 
3.7800000000035525, -0.49187530347669445 
3.7900000000035736, -0.4907816756608046 
3.8000000000035947, -0.4898309242183065 
3.810000000003616, -0.48899795962739007 
3.820000000003637, -0.488254291066874 
3.830000000003658, -0.487577590273402 
3.840000000003679, -0.4869565438000901 
3.8500000000037002, -0.4863927621556151 
3.8600000000037213, -0.48590219047656885 
3.8700000000037424, -0.4855181473568397 
3.8800000000037635, -0.485297617528455 
3.8900000000037847, -0.4853323202319806 
3.9000000000038058, -0.4857664691924022 
3.910000000003827, -0.48682372205086455 
3.920000000003848, -0.48884562184945846 
3.930000000003869, -0.4923400553320617 
3.94000000000389, -0.4980235480157279 
3.9500000000039113, -0.5068010584577314 
3.9600000000039324, -0.5195518415732984 
3.9700000000039535, -0.5365503053235703 
3.9800000000039746, -0.5566278674517483 
3.9900000000039957, -0.5769474621905777 
4.000000000004016, -0.5943365309299704 
4.010000000003993, -0.6071611827269295 
4.02000000000397, -0.6156821592673231 
4.030000000003946, -0.621036223045331 
4.040000000003923, -0.6243279078229846 
4.0500000000039, -0.6263334104098442 
4.0600000000038765, -0.6275330682789443 
4.070000000003853, -0.6282094959920274 
4.08000000000383, -0.6285234272327331 
4.090000000003807, -0.6285590361843837 
4.100000000003783, -0.62834768549977 
4.11000000000376, -0.6278783310551881 
4.120000000003737, -0.6271005995088795 
4.130000000003713, -0.6259268986291633 
4.14000000000369, -0.624243327048958 
4.150000000003667, -0.6219422675247264 
4.1600000000036434, -0.6189816333500412 
4.17000000000362, -0.6154466530975464 
4.180000000003597, -0.6115612017578796 
4.1900000000035735, -0.607620294010646 
4.20000000000355, -0.6038878542646825 
4.210000000003527, -0.6005318192618012 
4.220000000003504, -0.5976206228612051 
4.23000000000348, -0.5951550493042939 
4.240000000003457, -0.5931035694957856 
4.250000000003434, -0.5914264671164744 
4.26000000000341, -0.5900878353691721 
4.270000000003387, -0.5890594363040415 
4.280000000003364, -0.5883204464964412 
4.2900000000033405, -0.5878558012472015 
4.300000000003317, -0.5876546503663606 
4.310000000003294, -0.5877096411939723 
4.320000000003271, -0.5880172507728937 
4.330000000003247, -0.5885790537594099 
4.340000000003224, -0.5894035113197857 
4.350000000003201, -0.5905074588284376 
4.360000000003177, -0.5919157973009652 
4.370000000003154, -0.5936569189791051 
4.380000000003131, -0.5957505769453765 
4.390000000003107, -0.5981857815254976 
4.400000000003084, -0.6008917868585968 
4.410000000003061, -0.6037171292517084 
4.4200000000030375, -0.6064422332081738 
4.430000000003014, -0.6088387783859517 
4.440000000002991, -0.6107472925231209 
4.450000000002968, -0.6121182237211409 
4.460000000002944, -0.6129938951972806 
4.470000000002921, -0.6134593163514535 
4.480000000002898, -0.6135991056364138 
4.490000000002874, -0.6134744026681452 
4.500000000002851, -0.6131145215679058 
4.510000000002828, -0.6125137062141687 
4.520000000002804, -0.6116255460625013 
4.530000000002781, -0.6103493219068368 
4.540000000002758, -0.6085015223728196 
4.5500000000027345, -0.6057624219996789 
4.560000000002711, -0.6015872350893081 
4.570000000002688, -0.5950976279759868 
4.580000000002665, -0.5850825146442584 
4.590000000002641, -0.5704480034465164 
4.600000000002618, -0.5513398431419912 
4.610000000002595, -0.5300275894971691 
4.620000000002571, -0.5099542307866245 
4.630000000002548, -0.493621174254341 
4.640000000002525, -0.4816751619287164 
4.6500000000025015, -0.4735171794230575 
4.660000000002478, -0.46817326041767976 
4.670000000002455, -0.4647647352581338 
4.6800000000024315, -0.46263720648820206 
4.690000000002408, -0.46134274230288524 
4.700000000002385, -0.46058669955032394 
4.710000000002362, -0.4601791179182572 
4.720000000002338, -0.4599991887426504 
4.730000000002315, -0.45997150029411316 
4.740000000002292, -0.460050993296358 
4.750000000002268, -0.4602140277119968 
4.760000000002245, -0.46045366343742494 
4.770000000002222, -0.46077756420017923 
4.7800000000021985, -0.4612067132268659 
4.790000000002175, -0.4617726201151913 
4.800000000002152, -0.4625104970076276 
4.810000000002129, -0.4634466670792792 
4.820000000002105, -0.4645808480378747 
4.830000000002082, -0.465868650780784 
4.840000000002059, -0.4672157051734538 
4.850000000002035, -0.4684952384951413 
4.860000000002012, -0.46958669999108993 
4.870000000001989, -0.47041261551240743 
4.880000000001965, -0.47095008828957646 
4.890000000001942, -0.47121582683912944 
4.900000000001919, -0.4712413378281689 
4.9100000000018955, -0.4710524605562648 
