t, s[1].omega / s[0].omega 
0, -0.7299976810025895 
0.009999999999999995, -0.729755297956975 
0.019999999999999934, -0.7294853116662499 
0.029999999999999874, -0.7291712842517121 
0.04000000000000012, -0.728796575483579 
0.050000000000000405, -0.7283534677016594 
0.06000000000000069, -0.7278481193520782 
0.07000000000000098, -0.7273017191351198 
0.08000000000000126, -0.7267508472096124 
0.09000000000000155, -0.7262494416963298 
0.10000000000000184, -0.7258724769796534 
0.11000000000000212, -0.7257193951182949 
0.12000000000000241, -0.7259144178172543 
0.130000000000002, -0.7266014913707212 
0.1400000000000009, -0.7279336926627368 
0.1499999999999998, -0.7300592772278639 
0.1599999999999987, -0.7331070745796234 
0.1699999999999976, -0.7371711740126218 
0.1799999999999965, -0.7422897213052015 
0.1899999999999954, -0.7484091896730066 
0.1999999999999943, -0.7553312062588965 
0.2099999999999932, -0.7626629335145744 
0.2199999999999921, -0.7698289036474082 
0.229999999999991, -0.776203449612048 
0.2399999999999899, -0.7813280716617553 
0.2499999999999888, -0.7850596512251007 
0.2599999999999877, -0.7875386481434068 
0.2699999999999866, -0.7890398709354425 
0.2799999999999855, -0.7898369559003667 
0.2899999999999844, -0.7901379158095022 
0.2999999999999833, -0.7900746609307366 
0.3099999999999822, -0.7897140829652819 
0.3199999999999811, -0.789071796587963 
0.32999999999998, -0.7881235071763345 
0.3399999999999789, -0.786817938094514 
0.3499999999999778, -0.7851032360865768 
0.35999999999997667, -0.7829888583205312 
0.36999999999997557, -0.7806718380978483 
0.37999999999997447, -0.778732531208644 
0.38999999999997337, -0.7782934361705707 
0.39999999999997227, -0.780832090758252 
0.40999999999997117, -0.7873582936314331 
0.41999999999997006, -0.7974321988396624 
0.42999999999996896, -0.8092370541039268 
0.43999999999996786, -0.8207396657419668 
0.44999999999996676, -0.8305724814184444 
0.45999999999996566, -0.8381739491667499 
0.46999999999996456, -0.8435994197807448 
0.47999999999996346, -0.8472373906344833 
0.48999999999996235, -0.8495543132723078 
0.49999999999996125, -0.8509493054012358 
0.5099999999999602, -0.8517092095756624 
0.519999999999959, -0.8520145042125282 
0.529999999999958, -0.851957637184085 
0.5399999999999568, -0.8515548534930806 
0.5499999999999557, -0.850743429608316 
0.5599999999999546, -0.8493593234203919 
0.5699999999999535, -0.8470912823875698 
0.5799999999999524, -0.8434158223244921 
0.5899999999999513, -0.8375507817147623 
0.5999999999999502, -0.828538731726408 
0.6099999999999491, -0.8156277374195426 
0.619999999999948, -0.7989378539701135 
0.6299999999999469, -0.7799028639703214 
0.6399999999999458, -0.7608505302412671 
0.6499999999999447, -0.7439447911293663 
0.6599999999999436, -0.7304132995693661 
0.6699999999999425, -0.7204847160333419 
0.6799999999999414, -0.7137383421582061 
0.6899999999999403, -0.7094816580958583 
0.6999999999999392, -0.7070016010073484 
0.7099999999999381, -0.7056904435994013 
0.719999999999937, -0.7050872715362058 
0.7299999999999359, -0.7048716538084719 
0.7399999999999348, -0.7048353684373238 
0.7499999999999337, -0.7048488824425225 
0.7599999999999326, -0.7048318119808985 
0.7699999999999315, -0.7047311901850204 
0.7799999999999304, -0.7045084533355012 
0.7899999999999293, -0.7041349912435692 
0.7999999999999282, -0.7035952033532823 
0.8099999999999271, -0.7028935441818025 
0.819999999999926, -0.702058693549971 
0.8299999999999249, -0.7011381569456117 
0.8399999999999238, -0.7001834590550905 
0.8499999999999227, -0.699234330073202 
0.8599999999999216, -0.6983110711553808 
0.8699999999999205, -0.6974175554780722 
0.8799999999999194, -0.6965506392999095 
0.8899999999999183, -0.6957100043903066 
0.8999999999999172, -0.6949048243904431 
0.9099999999999161, -0.6941569165788126 
0.919999999999915, -0.6935016917868327 
0.9299999999999139, -0.6929879171318271 
0.9399999999999128, -0.6926763104981156 
0.9499999999999117, -0.6926365275831982 
0.9599999999999106, -0.692942549648538 
0.9699999999999095, -0.6936674025446901 
0.9799999999999084, -0.694878717839555 
0.9899999999999073, -0.6966361960107996 
0.9999999999999062, -0.6989903943428308 
1.0099999999999052, -0.7019798359023193 
1.019999999999904, -0.7056210160965477 
1.029999999999903, -0.7098850932329089 
1.039999999999902, -0.7146596373200301 
1.0499999999999008, -0.7197092644809822 
1.0599999999998997, -0.7246729144914694 
1.0699999999998986, -0.7291389859842624 
1.0799999999998975, -0.7327833029287031 
1.0899999999998964, -0.7354763810683184 
1.0999999999998953, -0.7372805109051852 
1.1099999999998942, -0.7383621263130378 
1.119999999999893, -0.7389004613893955 
1.129999999999892, -0.7390371075231063 
1.1399999999998909, -0.7388621541186844 
1.1499999999998898, -0.7384174535193082 
1.1599999999998887, -0.7377036609116285 
1.1699999999998876, -0.736686635297611 
1.1799999999998865, -0.7353052814352834 
1.1899999999998854, -0.7334882922343515 
1.1999999999998843, -0.7311919867885899 
1.2099999999998832, -0.7284684898617676 
1.219999999999882, -0.7255402652260973 
1.229999999999881, -0.7227699195677112 
1.2399999999998799, -0.7203658935710107 
1.2499999999998788, -0.7180028149568614 
1.2599999999998777, -0.7151497893867463 
1.2699999999998766, -0.7121016390624393 
1.2799999999998755, -0.7099603013161857 
1.2899999999998744, -0.7093938936449948 
1.2999999999998733, -0.7101332674774766 
1.3099999999998722, -0.7115025466799737 
1.319999999999871, -0.7129484076064644 
1.32999999999987, -0.7141809779902057 
1.3399999999998689, -0.7151047638515403 
1.3499999999998678, -0.7157207578781495 
1.3599999999998666, -0.7160603733778576 
1.3699999999998655, -0.7161509231428949 
1.3799999999998644, -0.7159991616348298 
1.3899999999998633, -0.7155824336128882 
1.3999999999998622, -0.7148426937189224 
1.4099999999998611, -0.7136846482777347 
1.41999999999986, -0.7119859348240773 
1.429999999999859, -0.7096315055650333 
1.4399999999998578, -0.7065752334987483 
1.4499999999998567, -0.7029011058739092 
1.4599999999998556, -0.6988307980815169 
1.4699999999998545, -0.6946552570164072 
1.4799999999998534, -0.690637821144049 
1.4899999999998523, -0.6869553071995195 
1.4999999999998512, -0.6836951477724393 
1.5099999999998501, -0.6808832112027999 
1.519999999999849, -0.6785138791670653 
1.529999999999848, -0.6765696428609644 
1.5399999999998468, -0.6750296209404829 
1.5499999999998457, -0.6738709165256555 
1.5599999999998446, -0.6730669756020504 
1.5699999999998435, -0.6725859531632252 
1.5799999999998424, -0.6723907152808182 
1.5899999999998413, -0.6724408532884315 
1.5999999999998402, -0.6726961554024471 
1.6099999999998391, -0.6731205468581358 
1.619999999999838, -0.6736855567580372 
1.629999999999837, -0.6743725828789765 
1.6399999999998358, -0.6751731735895871 
1.6499999999998347, -0.676086129842463 
1.6599999999998336, -0.677110081609206 
1.6699999999998325, -0.6782315037612785 
1.6799999999998314, -0.6794116404977848 
1.6899999999998303, -0.6805802289521619 
1.6999999999998292, -0.6816447054996787 
1.709999999999828, -0.682515345048262 
1.719999999999827, -0.6831328234851044 
1.729999999999826, -0.6834804343227653 
1.7399999999998248, -0.6835761666267771 
1.7499999999998237, -0.683455131809904 
1.7599999999998226, -0.6831551545767257 
1.7699999999998215, -0.6827115709078668 
1.7799999999998204, -0.6821620344812992 
1.7899999999998193, -0.6815619989117514 
1.7999999999998182, -0.6810146407247203 
1.809999999999817, -0.6807228629446104 
1.819999999999816, -0.6810730628760191 
1.8299999999998149, -0.6827549483707205 
1.8399999999998138, -0.6868956357831582 
1.8499999999998127, -0.6951152598781354 
1.8599999999998116, -0.7092782663736588 
1.8699999999998105, -0.7306183090545126 
1.8799999999998094, -0.758275462879448 
1.8899999999998083, -0.7884656705537729 
1.8999999999998072, -0.8160043037479605 
1.909999999999806, -0.8373366341181757 
1.919999999999805, -0.8518915369416578 
1.9299999999998039, -0.8610167484586109 
1.9399999999998028, -0.8664558881131199 
1.9499999999998017, -0.8695934127934211 
1.9599999999998006, -0.8713362455350655 
1.9699999999997995, -0.872224012674901 
1.9799999999997984, -0.8725563928345338 
1.9899999999997973, -0.8724806732202953 
1.9999999999997962, -0.8720382829025015 
2.0099999999998173, -0.8711783039963794 
2.0199999999998384, -0.869741296715769 
2.0299999999998595, -0.8674096795764917 
2.0399999999998806, -0.8636168497136809 
2.0499999999999017, -0.8574186693503624 
2.059999999999923, -0.8473923829058458 
2.069999999999944, -0.8317908860123918 
2.079999999999965, -0.8093667588298809 
2.089999999999986, -0.7809304111251258 
2.100000000000007, -0.750280585474502 
2.1100000000000283, -0.7226133238812833 
2.1200000000000494, -0.7014764102258814 
2.1300000000000705, -0.687471231724075 
2.1400000000000916, -0.6792382006225519 
2.1500000000001127, -0.674907152517291 
2.160000000000134, -0.6729041118941391 
2.170000000000155, -0.6721528799777701 
2.180000000000176, -0.6720016321134489 
2.190000000000197, -0.6720871756995564 
2.2000000000002182, -0.6722189734559043 
2.2100000000002393, -0.6722996661534246 
2.2200000000002604, -0.6722762804800436 
2.2300000000002815, -0.6721124299607248 
2.2400000000003026, -0.671774295569631 
2.2500000000003237, -0.671226962594081 
2.260000000000345, -0.6704403767635078 
2.270000000000366, -0.6694034639426579 
2.280000000000387, -0.6681395974918636 
2.290000000000408, -0.6667110790775446 
2.3000000000004293, -0.6652045258942121 
2.3100000000004504, -0.6637040852011458 
2.3200000000004715, -0.6622695204424726 
2.3300000000004926, -0.6609301216660187 
2.3400000000005137, -0.6596924529968312 
2.3500000000005348, -0.6585534441596985 
2.360000000000556, -0.6575117716098561 
2.370000000000577, -0.6565747344881635 
2.380000000000598, -0.6557610357623911 
2.390000000000619, -0.6551009472234028 
2.4000000000006403, -0.6546349744336424 
2.4100000000006614, -0.6544115320701995 
2.4200000000006825, -0.6544839774323749 
2.4300000000007036, -0.6549076029139682 
2.4400000000007247, -0.6557374337802073 
2.450000000000746, -0.6570274821317074 
2.460000000000767, -0.6588312495165967 
2.470000000000788, -0.6612017411160406 
2.480000000000809, -0.6641871787889725 
2.49000000000083, -0.6678164732138245 
2.5000000000008513, -0.672068270534454 
2.5100000000008724, -0.676824063507327 
2.5200000000008935, -0.6818258488211859 
2.5300000000009146, -0.6866851421022359 
2.5400000000009357, -0.6909823357243409 
2.550000000000957, -0.6944181389168579 
2.560000000000978, -0.6969052567712097 
2.570000000000999, -0.6985379552707253 
2.58000000000102, -0.6994924887749223 
2.5900000000010412, -0.6999414313207388 
2.6000000000010624, -0.7000128327999592 
2.6100000000010835, -0.6997815027197912 
2.6200000000011046, -0.6992721392312811 
2.6300000000011257, -0.6984617922946348 
2.6400000000011468, -0.6972760487755918 
2.650000000001168, -0.6955759252232662 
2.660000000001189, -0.6931314172533425 
2.67000000000121, -0.6895724578838726 
2.680000000001231, -0.6842976199764105 
2.6900000000012523, -0.676321542722031 
2.7000000000012734, -0.6641505224601656 
2.7100000000012945, -0.6461654135591953 
2.7200000000013156, -0.6222086088603015 
2.7300000000013367, -0.5953541667790562 
2.740000000001358, -0.5707241797840904 
2.750000000001379, -0.5518861596324639 
2.7600000000014, -0.5393359018798065 
2.770000000001421, -0.5317399762333695 
2.780000000001442, -0.5274482700156209 
2.7900000000014633, -0.5251627372154457 
2.8000000000014844, -0.5240254753163816 
2.8100000000015055, -0.5235149780950084 
2.8200000000015266, -0.5233277755278393 
2.8300000000015477, -0.5232912146819345 
2.840000000001569, -0.5233076786128346 
2.85000000000159, -0.5233212533451441 
2.860000000001611, -0.5232989907739631 
2.870000000001632, -0.5232217245650486 
2.8800000000016532, -0.5230814467908507 
2.8900000000016743, -0.5228828322104903 
2.9000000000016954, -0.5226456119297872 
2.9100000000017165, -0.5224034636965861 
2.9200000000017377, -0.5221963344970161 
2.9300000000017588, -0.5220573803519437 
2.94000000000178, -0.5219999337226291 
2.950000000001801, -0.5220106666101472 
2.960000000001822, -0.5220525695749825 
2.970000000001843, -0.522077066345016 
2.9800000000018643, -0.5220396690940899 
2.9900000000018854, -0.5219113179602579 
3.0000000000019065, -0.5216810635161918 
3.0100000000019276, -0.5213520997701607 
3.0200000000019487, -0.520936436503942 
3.03000000000197, -0.5204525434052896 
3.040000000001991, -0.519928282806628 
3.050000000002012, -0.5194109200373422 
3.060000000002033, -0.5189873137094474 
3.070000000002054, -0.5188197469797771 
3.0800000000020753, -0.5192041553684905 
3.0900000000020964, -0.5206505379554 
3.1000000000021175, -0.5239481957883988 
3.1100000000021386, -0.5300667892862467 
3.1200000000021597, -0.5395627555680913 
3.130000000002181, -0.5513136784944077 
3.140000000002202, -0.561807539926235 
3.150000000002223, -0.5674047838704352 
3.160000000002244, -0.5678983972789137 
3.1700000000022652, -0.5660214525127454 
3.1800000000022863, -0.5641930867498159 
3.1900000000023074, -0.5632414047265988 
3.2000000000023285, -0.5630462203115905 
3.2100000000023496, -0.5632682983556354 
3.2200000000023707, -0.5636415355935064 
3.230000000002392, -0.5640123191149276 
3.240000000002413, -0.5643058997554431 
3.250000000002434, -0.5644897133326805 
3.260000000002455, -0.5645486255075108 
3.2700000000024763, -0.5644708509177168 
3.2800000000024974, -0.5642413210615829 
3.2900000000025185, -0.5638409446605579 
3.3000000000025396, -0.5632518825290688 
3.3100000000025607, -0.5624686754118116 
3.3200000000025818, -0.5615114143456623 
3.330000000002603, -0.5604320392899022 
3.340000000002624, -0.5593053749427308 
3.350000000002645, -0.5582069073190369 
3.360000000002666, -0.557190406131087 
3.3700000000026873, -0.5562776825125273 
3.3800000000027084, -0.5554625721004374 
3.3900000000027295, -0.5547232724276407 
3.4000000000027506, -0.5540357787543506 
3.4100000000027717, -0.5533836817255186 
3.420000000002793, -0.552763191019852 
3.430000000002814, -0.5521851170392832 
3.440000000002835, -0.5516765803096138 
3.450000000002856, -0.5512847138356356 
3.460000000002877, -0.5510837231254657 
3.4700000000028983, -0.5511861580385723 
3.4800000000029194, -0.5517592068501453 
3.4900000000029405, -0.5530468917900166 
3.5000000000029616, -0.5553984579174494 
3.5100000000029827, -0.5593001441266182 
3.520000000003004, -0.5653974958138022 
3.530000000003025, -0.5744702369780604 
3.540000000003046, -0.5872755895199586 
3.550000000003067, -0.6041416011254004 
3.5600000000030882, -0.6243191998009696 
3.5700000000031094, -0.6455747565884626 
3.5800000000031305, -0.6648635986466899 
3.5900000000031516, -0.6799522007663448 
3.6000000000031727, -0.6903886532755484 
3.6100000000031938, -0.697019903823384 
3.620000000003215, -0.7010235901233633 
3.630000000003236, -0.7033593496783568 
3.640000000003257, -0.7046618658702755 
3.650000000003278, -0.7053092522088549 
3.6600000000032993, -0.7055091549244562 
3.6700000000033204, -0.7053575326146933 
3.6800000000033415, -0.7048679513633316 
3.6900000000033626, -0.7039766405351652 
3.7000000000033837, -0.7025262348629607 
3.710000000003405, -0.7002302332861092 
3.720000000003426, -0.6966300877522348 
3.730000000003447, -0.691091596511166 
3.740000000003468, -0.682946252148244 
3.750000000003489, -0.6718768152439609 
3.7600000000035103, -0.6583928419367229 
3.7700000000035314, -0.643888690442062 
3.7800000000035525, -0.6300350067585846 
3.7900000000035736, -0.6180393604863103 
3.8000000000035947, -0.6083839847367779 
3.810000000003616, -0.6010064350549029 
3.820000000003637, -0.5955830715223561 
3.830000000003658, -0.5917248242992417 
3.840000000003679, -0.5890700277238066 
3.8500000000037002, -0.5873151178881326 
3.8600000000037213, -0.5862176541367559 
3.8700000000037424, -0.5855897795702993 
3.8800000000037635, -0.5852895012313506 
3.8900000000037847, -0.5852122187961156 
3.9000000000038058, -0.5852832196834624 
3.910000000003827, -0.5854514958953696 
3.920000000003848, -0.5856851978287684 
3.930000000003869, -0.5859688063732507 
3.94000000000389, -0.586301420292952 
3.9500000000039113, -0.5866945026914283 
3.9600000000039324, -0.5871667074910709 
3.9700000000039535, -0.5877341376571953 
3.9800000000039746, -0.5883970814249027 
3.9900000000039957, -0.5891280524964335 
4.000000000004016, -0.5898686987533803 
4.010000000003993, -0.5905413766735309 
4.02000000000397, -0.5910723981098192 
4.030000000003946, -0.59141372766164 
4.040000000003923, -0.5915503129388117 
4.0500000000039, -0.5914923014262656 
4.0600000000038765, -0.5912614118339226 
4.070000000003853, -0.590880402651303 
4.08000000000383, -0.5903692328351445 
4.090000000003807, -0.5897482342365608 
4.100000000003783, -0.5890489867912658 
4.11000000000376, -0.5883361905515893 
4.120000000003737, -0.5877470511134427 
4.130000000003713, -0.5875556189206288 
4.14000000000369, -0.5882585648383135 
4.150000000003667, -0.5906303179502888 
4.1600000000036434, -0.5955727888250405 
4.17000000000362, -0.6034592890411475 
4.180000000003597, -0.613045995274946 
4.1900000000035735, -0.6213807795855637 
4.20000000000355, -0.6261275400133228 
4.210000000003527, -0.6277040896191535 
4.220000000003504, -0.628057326013803 
4.23000000000348, -0.6284976949043705 
4.240000000003457, -0.6292965624391116 
4.250000000003434, -0.6302678574805223 
4.26000000000341, -0.6311977455993866 
4.270000000003387, -0.6319658881645107 
4.280000000003364, -0.6325306700146456 
4.2900000000033405, -0.6328904852621808 
4.300000000003317, -0.6330549949220451 
4.310000000003294, -0.6330286380995453 
4.320000000003271, -0.6328020525072036 
4.330000000003247, -0.6323484313787996 
4.340000000003224, -0.6316250376716418 
4.350000000003201, -0.630583046936877 
4.360000000003177, -0.6291888619243388 
4.370000000003154, -0.6274528814056368 
4.380000000003131, -0.6254488164528581 
4.390000000003107, -0.6233034595894705 
4.400000000003084, -0.6211572989595215 
4.410000000003061, -0.6191221453470657 
4.4200000000030375, -0.6172611906661933 
4.430000000003014, -0.6155943828166355 
4.440000000002991, -0.6141162531378486 
4.450000000002968, -0.6128136174713663 
4.460000000002944, -0.6116774531209723 
4.470000000002921, -0.610708661493449 
4.480000000002898, -0.609919639293733 
4.490000000002874, -0.6093336463630367 
4.500000000002851, -0.6089832542956979 
4.510000000002828, -0.6089085809807765 
4.520000000002804, -0.6091558129022275 
4.530000000002781, -0.6097765132503895 
4.540000000002758, -0.6108281071002438 
4.5500000000027345, -0.6123754641633917 
4.560000000002711, -0.614492451638079 
4.570000000002688, -0.6172604796009531 
4.580000000002665, -0.6207582978728912 
4.590000000002641, -0.6250344726615278 
4.600000000002618, -0.6300551565826452 
4.610000000002595, -0.6356346569076764 
4.620000000002571, -0.6413922984622122 
4.630000000002548, -0.6468085591657806 
4.640000000002525, -0.6514015522505581 
4.6500000000025015, -0.6549120485324516 
4.660000000002478, -0.6573492319405608 
4.670000000002455, -0.65889241619003 
4.6800000000024315, -0.6597624982967298 
4.690000000002408, -0.660143618813861 
4.700000000002385, -0.6601578820787166 
4.710000000002362, -0.6598657075208612 
4.720000000002338, -0.659269867474934 
4.730000000002315, -0.6583116488069073 
4.740000000002292, -0.6568517476845674 
4.750000000002268, -0.6546266150069245 
4.760000000002245, -0.6511659420756103 
4.770000000002222, -0.6456588176928463 
4.7800000000021985, -0.636803877643826 
4.790000000002175, -0.6228635390288433 
4.800000000002152, -0.6024437644985261 
4.810000000002129, -0.5761926242637061 
4.820000000002105, -0.5477663782204644 
4.830000000002082, -0.5219341400885322 
4.840000000002059, -0.501612918121492 
4.850000000002035, -0.4871399392262796 
4.860000000002012, -0.4774348597748343 
4.870000000001989, -0.4711476413995121 
4.880000000001965, -0.46716120348531015 
4.890000000001942, -0.4646797365477095 
4.900000000001919, -0.4631718188839408 
4.9100000000018955, -0.46229252993423253 
4.920000000001872, -0.46182090399470255 
