t, s[1].omega / s[0].omega 
0, -1.1999969618095048 
0.009999999999999995, -1.1995435436170332 
0.019999999999999934, -1.1987950488246197 
0.029999999999999874, -1.1977561968940456 
0.04000000000000012, -1.1964389863886509 
0.050000000000000405, -1.1948673130451402 
0.06000000000000069, -1.1930808579242633 
0.07000000000000098, -1.1911369157274025 
0.08000000000000126, -1.1891094319677535 
0.09000000000000155, -1.1870862618177336 
0.10000000000000184, -1.185167215737698 
0.11000000000000212, -1.1834623908675996 
0.12000000000000241, -1.1820823856921459 
0.130000000000002, -1.1811106746725295 
0.1400000000000009, -1.18056500908664 
0.1499999999999998, -1.1803757235302013 
0.1599999999999987, -1.1804025449384437 
0.1699999999999976, -1.1804774687395578 
0.1799999999999965, -1.180440863302817 
0.1899999999999954, -1.1801521163333617 
0.1999999999999943, -1.1794802389095727 
0.2099999999999932, -1.178289952088989 
0.2199999999999921, -1.1764362330842626 
0.229999999999991, -1.1737737745629342 
0.2399999999999899, -1.1701797789018498 
0.2499999999999888, -1.165579713306325 
0.2599999999999877, -1.1599617742770827 
0.2699999999999866, -1.1533729836869606 
0.2799999999999855, -1.145903976310956 
0.2899999999999844, -1.1376783019875305 
0.2999999999999833, -1.1288593652777899 
0.3099999999999822, -1.1196782684437843 
0.3199999999999811, -1.1104729681440066 
0.32999999999998, -1.1017119452035198 
0.3399999999999789, -1.093958477933875 
0.3499999999999778, -1.0877408712823453 
0.35999999999997667, -1.0833606243098286 
0.36999999999997557, -1.080759090455717 
0.37999999999997447, -1.07955530497209 
0.38999999999997337, -1.0792281135638138 
0.39999999999997227, -1.0793018707112323 
0.40999999999997117, -1.0794328890235636 
0.41999999999997006, -1.0793992345488574 
0.42999999999996896, -1.0790461117018058 
0.43999999999996786, -1.0782261045227788 
0.44999999999996676, -1.0767473950471864 
0.45999999999996566, -1.0743308794457538 
0.46999999999996456, -1.0705806036931838 
0.47999999999996346, -1.064985368461436 
0.48999999999996235, -1.0569815219903091 
0.49999999999996125, -1.0460956448269632 
0.5099999999999602, -1.0321329727147723 
0.519999999999959, -1.0153144005677106 
0.529999999999958, -0.9962727690543062 
0.5399999999999568, -0.9759173908393558 
0.5499999999999557, -0.9552614667041707 
0.5599999999999546, -0.9352933246084963 
0.5699999999999535, -0.9169011657834268 
0.5799999999999524, -0.900816233384718 
0.5899999999999513, -0.8875468949311051 
0.5999999999999502, -0.8773117760225212 
0.6099999999999491, -0.8700088136618993 
0.619999999999948, -0.865253960280115 
0.6299999999999469, -0.862487942833956 
0.6399999999999458, -0.8611100620489534 
0.6499999999999447, -0.8605871075877027 
0.6599999999999436, -0.860507996439457 
0.6699999999999425, -0.860587000895174 
0.6799999999999414, -0.8606367117974553 
0.6899999999999403, -0.8605320696845882 
0.6999999999999392, -0.8601784426332112 
0.7099999999999381, -0.8594891912560358 
0.719999999999937, -0.8583748174626917 
0.7299999999999359, -0.8567454010227684 
0.7399999999999348, -0.8545271539834749 
0.7499999999999337, -0.8516890824583241 
0.7599999999999326, -0.8482672823836714 
0.7699999999999315, -0.8443700244670708 
0.7799999999999304, -0.8401556874747751 
0.7899999999999293, -0.8357938733214643 
0.7999999999999282, -0.8314304812942417 
0.8099999999999271, -0.8271710428955242 
0.819999999999926, -0.82308268537025 
0.8299999999999249, -0.8192065326246826 
0.8399999999999238, -0.8155718882312204 
0.8499999999999227, -0.8122069453289673 
0.8599999999999216, -0.809144177744451 
0.8699999999999205, -0.8064206650225645 
0.8799999999999194, -0.804074530157393 
0.8899999999999183, -0.8021389356367202 
0.8999999999999172, -0.8006351411860456 
0.9099999999999161, -0.7995662177485742 
0.919999999999915, -0.7989130831886208 
0.9299999999999139, -0.7986342532961386 
0.9399999999999128, -0.7986697969558166 
0.9499999999999117, -0.798948626263419 
0.9599999999999106, -0.7993971536075716 
0.9699999999999095, -0.7999471991245707 
0.9799999999999084, -0.8005418458902112 
0.9899999999999073, -0.8011390139200544 
0.9999999999999062, -0.8017130475088253 
1.0099999999999052, -0.8022543248848556 
1.019999999999904, -0.8027663128006157 
1.029999999999903, -0.8032595023910998 
1.039999999999902, -0.8037427634863171 
1.0499999999999008, -0.8042143391794873 
1.0599999999998997, -0.8046558328418829 
1.0699999999998986, -0.8050322111150028 
1.0799999999998975, -0.8052987885950429 
1.0899999999998964, -0.8054129410650144 
1.0999999999998953, -0.8053457357514772 
1.1099999999998942, -0.8050889941434232 
1.119999999999893, -0.8046566325055636 
1.129999999999892, -0.8040827465843371 
1.1399999999998909, -0.8034201154779905 
1.1499999999998898, -0.8027413983331231 
1.1599999999998887, -0.8021427998772733 
1.1699999999998876, -0.8017477151297602 
1.1799999999998865, -0.8017065392567254 
1.1899999999998854, -0.8021890963334432 
1.1999999999998843, -0.8033685749352666 
1.2099999999998832, -0.8053999834920469 
1.219999999999882, -0.808399760887766 
1.229999999999881, -0.812433563494885 
1.2399999999998799, -0.8175156031323232 
1.2499999999998788, -0.8236173871392624 
1.2599999999998777, -0.8306795210446268 
1.2699999999998766, -0.8386190121828374 
1.2799999999998755, -0.847325864263977 
1.2899999999998744, -0.8566459855591135 
1.2999999999998733, -0.8663532386555142 
1.3099999999998722, -0.8761233077058548 
1.319999999999871, -0.8855337692653853 
1.32999999999987, -0.8941162777377814 
1.3399999999998689, -0.9014610142218271 
1.3499999999998678, -0.907326773834931 
1.3599999999998666, -0.911689638144728 
1.3699999999998655, -0.9147043983291763 
1.3799999999998644, -0.9166156508768838 
1.3899999999998633, -0.9176748697829653 
1.3999999999998622, -0.9180932394549797 
1.4099999999998611, -0.9180293523055575 
1.41999999999986, -0.9175995696358887 
1.429999999999859, -0.916902473992427 
1.4399999999998578, -0.9160565595254859 
1.4499999999998567, -0.9152555810318828 
1.4599999999998556, -0.9148444220169092 
1.4699999999998545, -0.9154044550130497 
1.4799999999998534, -0.9178084398548633 
1.4899999999998523, -0.9231747121470357 
1.4999999999998512, -0.9326580001169142 
1.5099999999998501, -0.9470955530748282 
1.519999999999849, -0.9666492172214113 
1.529999999999848, -0.9906344536509487 
1.5399999999998468, -1.017630188696023 
1.5499999999998457, -1.0457938699967104 
1.5599999999998446, -1.0732205439426128 
1.5699999999998435, -1.0982372027928364 
1.5799999999998424, -1.1196170511156043 
1.5899999999998413, -1.1367210168549604 
1.5999999999998402, -1.1495313391913542 
1.6099999999998391, -1.1585352995849607 
1.619999999999838, -1.164493304357094 
1.629999999999837, -1.1681996742140708 
1.6399999999998358, -1.17032799970621 
1.6499999999998347, -1.171378555358785 
1.6599999999998336, -1.171694059512602 
1.6699999999998325, -1.1715056272170241 
1.6799999999998314, -1.1709883933524798 
1.6899999999998303, -1.1703208239236698 
1.6999999999998292, -1.1697412598375034 
1.709999999999828, -1.1695773064913009 
1.719999999999827, -1.1702050739082248 
1.729999999999826, -1.1719212250916777 
1.7399999999998248, -1.174798150635385 
1.7499999999998237, -1.1786440732834265 
1.7599999999998226, -1.1831032226744005 
1.7699999999998215, -1.187803938360021 
1.7799999999998204, -1.1924534288915924 
1.7899999999998193, -1.1968581823465194 
1.7999999999998182, -1.2009031097490879 
1.809999999999817, -1.2045223829171294 
1.819999999999816, -1.20767636945243 
1.8299999999998149, -1.2103374394368434 
1.8399999999998138, -1.2124843199649116 
1.8499999999998127, -1.2141038975336504 
1.8599999999998116, -1.215197489716989 
1.8699999999998105, -1.2157866784418097 
1.8799999999998094, -1.215914631986034 
1.8899999999998083, -1.2156428642557937 
1.8999999999998072, -1.2150472018391347 
1.909999999999806, -1.2142165781780725 
1.919999999999805, -1.2132538358391178 
1.9299999999998039, -1.2122725782943005 
1.9399999999998028, -1.2113841957963583 
1.9499999999998017, -1.210677981161716 
1.9599999999998006, -1.2102072329843168 
1.9699999999997995, -1.2099904608208147 
1.9799999999997984, -1.2100203565364953 
1.9899999999997973, -1.2102663267770397 
1.9999999999997962, -1.2106693392646954 
2.0099999999998173, -1.211141458064912 
2.0199999999998384, -1.2115775979992283 
2.0299999999998595, -1.2118726197257328 
2.0399999999998806, -1.2119330139856495 
2.0499999999999017, -1.21168053538697 
2.059999999999923, -1.21105237970428 
2.069999999999944, -1.2100022977885492 
2.079999999999965, -1.2085027166414481 
2.089999999999986, -1.2065449678875944 
2.100000000000007, -1.2041356910870444 
2.1100000000000283, -1.2012909186938014 
2.1200000000000494, -1.198031680920643 
2.1300000000000705, -1.1943843406720906 
2.1400000000000916, -1.1903866919445107 
2.1500000000001127, -1.1860995659667721 
2.160000000000134, -1.1816237952041806 
2.170000000000155, -1.1771209648372687 
2.180000000000176, -1.172828334420646 
2.190000000000197, -1.169044126932986 
2.2000000000002182, -1.1660572723229332 
2.2100000000002393, -1.1640331939584438 
2.2200000000002604, -1.1629286104291936 
2.2300000000002815, -1.1625106039377338 
2.2400000000003026, -1.1624648740119174 
2.2500000000003237, -1.1625025707249164 
2.260000000000345, -1.162402218256049 
2.270000000000366, -1.1619916481002925 
2.280000000000387, -1.161103308594571 
2.290000000000408, -1.1595266831713569 
2.3000000000004293, -1.1569684250806938 
2.3100000000004504, -1.1530299807865618 
2.3200000000004715, -1.147220410519986 
2.3300000000004926, -1.1390247746465227 
2.3400000000005137, -1.1280284539584198 
2.3500000000005348, -1.1140561375353955 
2.360000000000556, -1.0972599785904447 
2.370000000000577, -1.0781240889390318 
2.380000000000598, -1.0574143381184353 
2.390000000000619, -1.0361221380233 
2.4000000000006403, -1.0154091404926187 
2.4100000000006614, -0.9965072011860668 
2.4200000000006825, -0.9805263301277704 
2.4300000000007036, -0.968195829030615 
2.4400000000007247, -0.9596619754387502 
2.450000000000746, -0.9544815974433447 
2.460000000000767, -0.9518325553603454 
2.470000000000788, -0.9508123338510306 
2.480000000000809, -0.9506637348138675 
2.49000000000083, -0.9508591051442966 
2.5000000000008513, -0.9510754446768571 
2.5100000000008724, -0.9511250863927071 
2.5200000000008935, -0.950886442077358 
2.5300000000009146, -0.950250513667375 
2.5400000000009357, -0.949082993263095 
2.550000000000957, -0.9471992466799185 
2.560000000000978, -0.9443550052071545 
2.570000000000999, -0.9402638423919916 
2.58000000000102, -0.9346550054056877 
2.5900000000010412, -0.927369241170714 
2.6000000000010624, -0.9184541001451597 
2.6100000000010835, -0.9081956974934698 
2.6200000000011046, -0.8970548322714407 
2.6300000000011257, -0.8855456422711543 
2.6400000000011468, -0.874129798242514 
2.650000000001168, -0.8631686753441513 
2.660000000001189, -0.8529268712055896 
2.67000000000121, -0.8435980554577538 
2.680000000001231, -0.8353286206175224 
2.6900000000012523, -0.8282275402849313 
2.7000000000012734, -0.8223615609895181 
2.7100000000012945, -0.8177418051854167 
2.7200000000013156, -0.8143115988151067 
2.7300000000013367, -0.8119451075467513 
2.740000000001358, -0.8104613889858692 
2.750000000001379, -0.8096506548657394 
2.7600000000014, -0.8093035507093633 
2.770000000001421, -0.8092338540964877 
2.780000000001442, -0.8092896298999479 
2.7900000000014633, -0.8093537003193465 
2.8000000000014844, -0.8093379025789187 
2.8100000000015055, -0.8091762685041196 
2.8200000000015266, -0.8088209835565523 
2.8300000000015477, -0.8082427615103415 
2.840000000001569, -0.8074344923807428 
2.85000000000159, -0.8064143342489626 
2.860000000001611, -0.8052235662816447 
2.870000000001632, -0.803917122292987 
2.8800000000016532, -0.8025495958926263 
2.8900000000016743, -0.8011627164577519 
2.9000000000016954, -0.7997792991674552 
2.9100000000017165, -0.7984049358762565 
2.9200000000017377, -0.797035299124883 
2.9300000000017588, -0.7956654789665287 
2.94000000000178, -0.7942981629202214 
2.950000000001801, -0.7929489115209584 
2.960000000001822, -0.7916482732247638 
2.970000000001843, -0.790441231572263 
2.9800000000018643, -0.7893844188279923 
2.9900000000018854, -0.7885412617673065 
3.0000000000019065, -0.7879753609299035 
3.0100000000019276, -0.7877430224664465 
3.0200000000019487, -0.7878864895780401 
3.03000000000197, -0.7884294912274095 
3.040000000001991, -0.789376089823671 
3.050000000002012, -0.7907128387124306 
3.060000000002033, -0.792413466156206 
3.070000000002054, -0.7944449081753178 
3.0800000000020753, -0.7967733984716697 
3.0900000000020964, -0.7993692774167566 
3.1000000000021175, -0.8022091180152605 
3.1100000000021386, -0.8052737806175638 
3.1200000000021597, -0.8085413678261497 
3.130000000002181, -0.8119751796896747 
3.140000000002202, -0.815509113292962 
3.150000000002223, -0.8190364523191194 
3.160000000002244, -0.8224109024140547 
3.1700000000022652, -0.8254668586735574 
3.1800000000022863, -0.8280558591701735 
3.1900000000023074, -0.8300829199800058 
3.2000000000023285, -0.8315233270568887 
3.2100000000023496, -0.8324134288022839 
3.2200000000023707, -0.8328258475939452 
3.230000000002392, -0.832845195474938 
3.240000000002413, -0.832554599327414 
3.250000000002434, -0.8320356802284404 
3.260000000002455, -0.8313810889033337 
3.2700000000024763, -0.8307186528517844 
3.2800000000024974, -0.8302463284057565 
3.2900000000025185, -0.830274400674795 
3.3000000000025396, -0.8312641672305714 
3.3100000000025607, -0.8338424947955599 
3.3200000000025818, -0.8387663696553097 
3.330000000002603, -0.8468210175422604 
3.340000000002624, -0.8586623548172705 
3.350000000002645, -0.8746458422644499 
3.360000000002666, -0.8946956745089679 
3.3700000000026873, -0.9182495338469321 
3.3800000000027084, -0.944280741358297 
3.3900000000027295, -0.971382479048683 
3.4000000000027506, -0.9979136736857871 
3.4100000000027717, -1.0222289802393525 
3.420000000002793, -1.042989957918078 
3.430000000002814, -1.0594606124666925 
3.440000000002835, -1.0716221909720243 
3.450000000002856, -1.0800274653640625 
3.460000000002877, -1.0854983094011226 
3.4700000000028983, -1.0888492301821346 
3.4800000000029194, -1.0907380402482936 
3.4900000000029405, -1.0916333226437056 
3.5000000000029616, -1.091844553187752 
3.5100000000029827, -1.0915730700366426 
3.520000000003004, -1.0909677151567507 
3.530000000003025, -1.0901861673968332 
3.540000000003046, -1.0894660732702894 
3.550000000003067, -1.089194366231107 
3.5600000000030882, -1.0899281985503286 
3.5700000000031094, -1.0922974051439436 
3.5800000000031305, -1.096774153103564 
3.5900000000031516, -1.1034350530798334 
3.6000000000031727, -1.1119041556366513 
3.6100000000031938, -1.1215211005447159 
3.620000000003215, -1.1315877959107443 
3.630000000003236, -1.1415329340618054 
3.640000000003257, -1.150953551399715 
3.650000000003278, -1.1595820658344436 
3.6600000000032993, -1.1672373722030898 
3.6700000000033204, -1.1737933779609862 
3.6800000000033415, -1.1791736212234118 
3.6900000000033626, -1.183363225955854 
3.7000000000033837, -1.186419636306686 
3.710000000003405, -1.1884660448442275 
3.720000000003426, -1.1896660203688112 
3.730000000003447, -1.190192331462196 
3.740000000003468, -1.1902054337288952 
3.750000000003489, -1.189849167694492 
3.7600000000035103, -1.1892617705075126 
3.7700000000035314, -1.188593130462474 
3.7800000000035525, -1.1880132637284462 
3.7900000000035736, -1.1876959881130924 
3.8000000000035947, -1.187776135371512 
3.810000000003616, -1.1883059501596949 
3.820000000003637, -1.189245704748163 
3.830000000003658, -1.190494357566762 
3.840000000003679, -1.19193163014836 
3.8500000000037002, -1.1934440107864788 
3.8600000000037213, -1.1949321245523203 
3.8700000000037424, -1.1963111905985107 
3.8800000000037635, -1.1975122494201063 
3.8900000000037847, -1.198483889666622 
3.9000000000038058, -1.1991920601512323 
3.910000000003827, -1.1996173315431464 
3.920000000003848, -1.1997505229912573 
3.930000000003869, -1.1995881523846588 
3.94000000000389, -1.1991293286619258 
3.9500000000039113, -1.1983753465918079 
3.9600000000039324, -1.1973321392296186 
3.9700000000039535, -1.1960145249717735 
3.9800000000039746, -1.1944506883081116 
3.9900000000039957, -1.1926854728649339 
4.000000000004016, -1.1907812705591752 
4.010000000003993, -1.1888159736081017 
4.02000000000397, -1.1868794449081197 
4.030000000003946, -1.185071213877615 
4.040000000003923, -1.1834979985614589 
4.0500000000039, -1.1822618100140097 
4.0600000000038765, -1.181430750978859 
4.070000000003853, -1.1810033069749082 
4.08000000000383, -1.1808942688292805 
4.090000000003807, -1.1809577333085282 
4.100000000003783, -1.1810292592647305 
4.11000000000376, -1.1809562667771538 
4.120000000003737, -1.1806036815296062 
4.130000000003713, -1.179843298823239 
4.14000000000369, -1.178542040707146 
4.150000000003667, -1.1765603978461656 
4.1600000000036434, -1.1737653222608417 
4.17000000000362, -1.1700534397814257 
4.180000000003597, -1.1653727766627282 
4.1900000000035735, -1.1597305739508397 
4.20000000000355, -1.1531845590832341 
4.210000000003527, -1.1458278897940717 
4.220000000003504, -1.1377828588734713 
4.23000000000348, -1.1292133158773965 
4.240000000003457, -1.1203559887079275 
4.250000000003434, -1.1115585140565887 
4.26000000000341, -1.103294772578236 
4.270000000003387, -1.0961136464125822 
4.280000000003364, -1.0904955700087993 
4.2900000000033405, -1.086666415316766 
4.300000000003317, -1.0844957889721145 
4.310000000003294, -1.083569589602514 
4.320000000003271, -1.0833794199323052 
4.330000000003247, -1.0834873088716683 
4.340000000003224, -1.0835866352846648 
4.350000000003201, -1.0834782835382675 
4.360000000003177, -1.0830136687556449 
4.370000000003154, -1.0820370909786134 
4.380000000003131, -1.0803363686065228 
4.390000000003107, -1.0776027219973063 
4.400000000003084, -1.0734074559810107 
4.410000000003061, -1.0672173069749709 
4.4200000000030375, -1.0584783174304981 
4.430000000003014, -1.0467759081876633 
4.440000000002991, -1.032017942500398 
4.450000000002968, -1.014537620469258 
4.460000000002944, -0.995049759674535 
4.470000000002921, -0.9744994953936691 
4.480000000002898, -0.9539016312833686 
4.490000000002874, -0.9342307860778812 
4.500000000002851, -0.916353525430671 
4.510000000002828, -0.9009652203646227 
4.520000000002804, -0.88851444997064 
4.530000000002781, -0.8791361272891614 
4.540000000002758, -0.8726362232007394 
4.5500000000027345, -0.8685553028888788 
4.560000000002711, -0.8662945768790752 
4.570000000002688, -0.8652527058851759 
4.580000000002665, -0.8649227778921255 
4.590000000002641, -0.8649298910751921 
4.600000000002618, -0.8650211603507375 
4.610000000002595, -0.8650323316258338 
4.620000000002571, -0.8648508279551843 
4.630000000002548, -0.86438559903999 
4.640000000002525, -0.8635475846342524 
4.6500000000025015, -0.8622425198493457 
4.660000000002478, -0.8603779065954984 
4.670000000002455, -0.8578843380995672 
4.6800000000024315, -0.8547448841057694 
4.690000000002408, -0.8510172400084699 
4.700000000002385, -0.8468317353889503 
4.710000000002362, -0.8423616361473283 
4.720000000002338, -0.8377812493101683 
4.730000000002315, -0.8332335682013714 
4.740000000002292, -0.8288185776393167 
4.750000000002268, -0.8245991730729174 
4.760000000002245, -0.8206152182861944 
4.770000000002222, -0.8168975000276266 
4.7800000000021985, -0.81347722647492 
4.790000000002175, -0.8103899366395607 
4.800000000002152, -0.8076744590943726 
4.810000000002129, -0.8053682536734127 
4.820000000002105, -0.8035006611459751 
4.830000000002082, -0.8020856994063223 
4.840000000002059, -0.8011162134974672 
4.850000000002035, -0.8005611831226284 
4.860000000002012, -0.8003674005269429 
4.870000000001989, -0.800465425522151 
4.880000000001965, -0.8007782282213933 
4.890000000001942, -0.801230142258055 
4.900000000001919, -0.8017541527582478 
4.9100000000018955, -0.8022967297586179 
4.920000000001872, -0.8028204541707262 
4.930000000001849, -0.8033048740750953 
