t, s[1].omega / s[0].omega 
0, -1.0299984392993016 
0.009999999999999995, -1.0297506925998947 
0.019999999999999934, -1.0293302056127216 
0.029999999999999874, -1.0288508454550667 
0.04000000000000012, -1.0285356073996932 
0.050000000000000405, -1.0284960198223656 
0.06000000000000069, -1.0285887600693013 
0.07000000000000098, -1.0285730844050085 
0.08000000000000126, -1.0283493465909699 
0.09000000000000155, -1.027940507085377 
0.10000000000000184, -1.0273864722552815 
0.11000000000000212, -1.0268147752483545 
0.12000000000000241, -1.026443915751846 
0.130000000000002, -1.0263705584737703 
0.1400000000000009, -1.0264018310879617 
0.1499999999999998, -1.0262744357460112 
0.1599999999999987, -1.0258964713293246 
0.1699999999999976, -1.0253213930909304 
0.1799999999999965, -1.0246218190997909 
0.1899999999999954, -1.023944683408847 
0.1999999999999943, -1.0235226507779338 
0.2099999999999932, -1.0234318688604274 
0.2199999999999921, -1.0234119599095932 
0.229999999999991, -1.023179629913911 
0.2399999999999899, -1.022646903660958 
0.2499999999999888, -1.0218987171585956 
0.2599999999999877, -1.0210429058847101 
0.2699999999999866, -1.0202541264844511 
0.2799999999999855, -1.019793652584292 
0.2899999999999844, -1.0196979180065422 
0.2999999999999833, -1.019633683366317 
0.3099999999999822, -1.0193026840148176 
0.3199999999999811, -1.018617282270051 
0.32999999999998, -1.0176951263790273 
0.3399999999999789, -1.0166813690201326 
0.3499999999999778, -1.0157866845756713 
0.35999999999997667, -1.015304626610606 
0.36999999999997557, -1.015211173603255 
0.37999999999997447, -1.0151087982127671 
0.38999999999997337, -1.0146891789274015 
0.39999999999997227, -1.0138634085682785 
0.40999999999997117, -1.0127817120444114 
0.41999999999997006, -1.0116257462053921 
0.42999999999996896, -1.010645162258744 
0.43999999999996786, -1.0101574106196378 
0.44999999999996676, -1.0100689662630884 
0.45999999999996566, -1.0099361650806349 
0.46999999999996456, -1.0094454027125699 
0.47999999999996346, -1.0085083662533494 
0.48999999999996235, -1.0073043069513306 
0.49999999999996125, -1.0060446068516318 
0.5099999999999602, -1.005010663220068 
0.519999999999959, -1.0045285005886517 
0.529999999999958, -1.004445102964945 
0.5399999999999568, -1.004292245137355 
0.5499999999999557, -1.0037567389362774 
0.5599999999999546, -1.002756092248351 
0.5699999999999535, -1.0014900358536936 
0.5799999999999524, -1.0001855803055482 
0.5899999999999513, -0.9991382077715988 
0.5999999999999502, -0.9986677004764021 
0.6099999999999491, -0.9985884991853163 
0.619999999999948, -0.9984284439233302 
0.6299999999999469, -0.9978815645421468 
0.6399999999999458, -0.9968775512235295 
0.6499999999999447, -0.9956233201945537 
0.6599999999999436, -0.9943426621928735 
0.6699999999999425, -0.9933227950523276 
0.6799999999999414, -0.9928669871640865 
0.6899999999999403, -0.9927914758364939 
0.6999999999999392, -0.9926383403753986 
0.7099999999999381, -0.9921153473575139 
0.719999999999937, -0.9911685938941884 
0.7299999999999359, -0.9899967887065031 
0.7399999999999348, -0.988802644600404 
0.7499999999999337, -0.9878465088741056 
0.7599999999999326, -0.987408754785629 
0.7699999999999315, -0.9873375440491795 
0.7799999999999304, -0.9872050873613516 
0.7899999999999293, -0.9867372693930663 
0.7999999999999282, -0.9858964564397408 
0.8099999999999271, -0.9848594311979414 
0.819999999999926, -0.9837960546196437 
0.8299999999999249, -0.9829308954736029 
0.8399999999999238, -0.9825173976784277 
0.8499999999999227, -0.9824529351161759 
0.8599999999999216, -0.9823534215265348 
0.8699999999999205, -0.9819643514826027 
0.8799999999999194, -0.9812599237604103 
0.8899999999999183, -0.9803856191756002 
0.8999999999999172, -0.9794740752223525 
0.9099999999999161, -0.9787155887663538 
0.919999999999915, -0.9783359076107457 
0.9299999999999139, -0.9782834003730229 
0.9399999999999128, -0.9782275428145342 
0.9499999999999117, -0.9779328382683705 
0.9599999999999106, -0.9773783628705278 
0.9699999999999095, -0.9766736304144771 
0.9799999999999084, -0.9759149743170781 
0.9899999999999073, -0.975266804915347 
0.9999999999999062, -0.9749322256739691 
1.0099999999999052, -0.9749006338891807 
1.019999999999904, -0.9748987275138029 
1.029999999999903, -0.9747087102180599 
1.039999999999902, -0.974307110806762 
1.0499999999999008, -0.9737660835112143 
1.0599999999998997, -0.973148788400022 
1.0699999999998986, -0.9726041730129097 
1.0799999999998975, -0.9723247868260295 
1.0899999999998964, -0.9723274434367328 
1.0999999999998953, -0.9723914221346206 
1.1099999999998942, -0.9723151793619483 
1.119999999999893, -0.9720660978690726 
1.129999999999892, -0.971678791849521 
1.1399999999998909, -0.971186441938082 
1.1499999999998898, -0.9707314034861387 
1.1599999999998887, -0.9705131123442567 
1.1699999999998876, -0.9705674898902109 
1.1799999999998865, -0.9707134733852067 
1.1899999999998854, -0.9707631309440479 
1.1999999999998843, -0.9706691684251683 
1.2099999999998832, -0.9704278301330541 
1.219999999999882, -0.9700447875795982 
1.229999999999881, -0.9696618961969886 
1.2399999999998799, -0.9695042533686453 
1.2499999999998788, -0.9696305941529307 
1.2599999999998777, -0.9698814068222794 
1.2699999999998766, -0.9700760633142315 
1.2799999999998755, -0.9701473286117858 
1.2899999999998744, -0.9700501651267421 
1.2999999999998733, -0.9697646532062966 
1.3099999999998722, -0.9694365040598583 
1.319999999999871, -0.9693318306964804 
1.32999999999987, -0.9695505654603812 
1.3399999999998689, -0.9699375139603132 
1.3499999999998678, -0.9703065103891972 
1.3599999999998666, -0.9705635610345775 
1.3699999999998655, -0.9706162812258162 
1.3799999999998644, -0.9704212200222316 
1.3899999999998633, -0.9701330558173629 
1.3999999999998622, -0.9700670981645362 
1.4099999999998611, -0.970395122791098 
1.41999999999986, -0.9709578850056896 
1.429999999999859, -0.9715425444433775 
1.4399999999998578, -0.9720173191072148 
1.4499999999998567, -0.9722325912553339 
1.4599999999998556, -0.972124672378005 
1.4699999999998545, -0.9718657407871453 
1.4799999999998534, -0.9718201461195901 
1.4899999999998523, -0.9722664053173735 
1.4999999999998512, -0.9730492271665087 
1.5099999999998501, -0.9739007985196128 
1.519999999999849, -0.9746337248740975 
1.529999999999848, -0.9750277684323277 
1.5399999999998468, -0.9750050607599301 
1.5499999999998457, -0.9747684681205504 
1.5599999999998446, -0.9747249902160541 
1.5699999999998435, -0.9752867967722925 
1.5799999999998424, -0.9763288432260608 
1.5899999999998413, -0.9774985506779286 
1.5999999999998402, -0.9785282703782869 
1.6099999999998391, -0.9791130702709447 
1.619999999999838, -0.9791713256551918 
1.629999999999837, -0.9789525479933209 
1.6399999999998358, -0.9788979005657207 
1.6499999999998347, -0.9795604637156554 
1.6599999999998336, -0.9808795721609086 
1.6699999999998325, -0.982396546952741 
1.6799999999998314, -0.9837388139235704 
1.6899999999998303, -0.9845092811889196 
1.6999999999998292, -0.9846375027360241 
1.709999999999828, -0.9844322789393976 
1.719999999999827, -0.984361710470211 
1.729999999999826, -0.9851024901693547 
1.7399999999998248, -0.9866762053466734 
1.7499999999998237, -0.9885153341886226 
1.7599999999998226, -0.9901340869025849 
1.7699999999998215, -0.991053724061825 
1.7799999999998204, -0.991230678379893 
1.7899999999998193, -0.991033392353807 
1.7999999999998182, -0.9909514951386683 
1.809999999999817, -0.9917469859241751 
1.819999999999816, -0.9935008405304068 
1.8299999999998149, -0.9955575453031099 
1.8399999999998138, -0.9973454064233678 
1.8499999999998127, -0.998340554503441 
1.8599999999998116, -0.9985349195250934 
1.8699999999998105, -0.9983384330677395 
1.8799999999998094, -0.9982571890347914 
1.8899999999998083, -0.9990859437205568 
1.8999999999998072, -1.000899982214699 
1.909999999999806, -1.0029997775571102 
1.919999999999805, -1.0047931330312425 
1.9299999999998039, -1.0057662873957758 
1.9399999999998028, -1.0059420371678225 
1.9499999999998017, -1.0057391533895923 
1.9599999999998006, -1.0056740850385375 
1.9699999999997995, -1.006512421869186 
1.9799999999997984, -1.0082485641171899 
1.9899999999997973, -1.010200762881767 
1.9999999999997962, -1.0118327376933434 
2.0099999999998173, -1.0126918090458688 
2.0199999999998384, -1.0128167039112408 
2.0299999999998595, -1.0126023516347156 
2.0399999999998806, -1.012567294263676 
2.0499999999999017, -1.0133827158820652 
2.059999999999923, -1.0149223513159016 
2.069999999999944, -1.0165855369661156 
2.079999999999965, -1.017941691208903 
2.089999999999986, -1.0186260330146344 
2.100000000000007, -1.0186782243969954 
2.1100000000000283, -1.0184508168553514 
2.1200000000000494, -1.018451918657466 
2.1300000000000705, -1.0192037074715092 
2.1400000000000916, -1.0204765159508098 
2.1500000000001127, -1.0217903170267009 
2.160000000000134, -1.022828562361886 
2.170000000000155, -1.023315736875863 
2.180000000000176, -1.0232851486439425 
2.190000000000197, -1.0230459363099282 
2.2000000000002182, -1.023077130498599 
2.2100000000002393, -1.0237267468660693 
2.2200000000002604, -1.0247166931385092 
2.2300000000002815, -1.0256892473536314 
2.2400000000003026, -1.0264226072891327 
2.2500000000003237, -1.0267179916281286 
2.260000000000345, -1.026603249410999 
2.270000000000366, -1.0263536403155122 
2.280000000000387, -1.0263968332651259 
2.290000000000408, -1.0269203108729064 
2.3000000000004293, -1.0276509895154107 
2.3100000000004504, -1.0283262202051027 
2.3200000000004715, -1.0287932361040606 
2.3300000000004926, -1.0289146818492243 
2.3400000000005137, -1.028718402992079 
2.3500000000005348, -1.0284565010752595 
2.360000000000556, -1.0284873840963338 
2.370000000000577, -1.0288806634865075 
2.380000000000598, -1.0293937035136975 
2.390000000000619, -1.0298231775689588 
2.4000000000006403, -1.030065271593875 
2.4100000000006614, -1.0300314340123056 
2.4200000000006825, -1.0297559529744944 
2.4300000000007036, -1.029474248559519 
2.4400000000007247, -1.0294706959540503 
2.450000000000746, -1.0297462798645933 
2.460000000000767, -1.0300843883949184 
2.470000000000788, -1.030312058094511 
2.480000000000809, -1.030362128327974 
2.49000000000083, -1.0301862496789207 
2.5000000000008513, -1.0298305433618078 
2.5100000000008724, -1.0295162210531388 
2.5200000000008935, -1.0294649279583385 
2.5300000000009146, -1.0296442027946873 
2.5400000000009357, -1.0298423420246487 
2.550000000000957, -1.0298994863462931 
2.560000000000978, -1.0297784111868173 
2.570000000000999, -1.029466060298907 
2.58000000000102, -1.0290241253847516 
2.5900000000010412, -1.0286620620526783 
2.6000000000010624, -1.0285610958668496 
2.6100000000010835, -1.0286669056580968 
2.6200000000011046, -1.0287499028738423 
2.6300000000011257, -1.0286554823712244 
2.6400000000011468, -1.0283727044722433 
2.650000000001168, -1.0279218754051014 
2.660000000001189, -1.0273828999314671 
2.67000000000121, -1.0269601506667192 
2.680000000001231, -1.0268176103872544 
2.6900000000012523, -1.0268693387452352 
2.7000000000012734, -1.0268531301288162 
2.7100000000012945, -1.0266164730805274 
2.7200000000013156, -1.02617264210963 
2.7300000000013367, -1.0255756145429276 
2.740000000001358, -1.0249263397171195 
2.750000000001379, -1.0244364483394286 
2.7600000000014, -1.0242665897625864 
2.770000000001421, -1.024278163376841 
2.780000000001442, -1.0241726340581676 
2.7900000000014633, -1.023797300162939 
2.8000000000014844, -1.023188562683145 
2.8100000000015055, -1.0224357914186148 
2.8200000000015266, -1.0216651120661868 
2.8300000000015477, -1.0211107247142468 
2.840000000001569, -1.0209291313205793 
2.85000000000159, -1.0209094386784137 
2.860000000001611, -1.0207218000227494 
2.870000000001632, -1.0202105222935756 
2.8800000000016532, -1.0194347580529792 
2.8900000000016743, -1.0185211941469265 
2.9000000000016954, -1.0176262234526683 
2.9100000000017165, -1.0170189399867777 
2.9200000000017377, -1.016838326924258 
2.9300000000017588, -1.0167930947823118 
2.94000000000178, -1.0165313146754065 
2.950000000001801, -1.0158919443406371 
2.960000000001822, -1.0149567879394035 
2.970000000001843, -1.0138900370115986 
2.9800000000018643, -1.0128817552925136 
2.9900000000018854, -1.0122391309763064 
3.0000000000019065, -1.0120670434162367 
3.0100000000019276, -1.0120010853028683 
3.0200000000019487, -1.0116769280136673 
3.03000000000197, -1.0109283589544218 
3.040000000001991, -1.0098591179656626 
3.050000000002012, -1.0086667892928147 
3.060000000002033, -1.0075727013646083 
3.070000000002054, -1.0069137803845418 
3.0800000000020753, -1.0067525514186981 
3.0900000000020964, -1.0066715050719697 
3.1000000000021175, -1.006302434184256 
3.1100000000021386, -1.0054781106945478 
3.1200000000021597, -1.0043215905475886 
3.130000000002181, -1.0030534390385974 
3.140000000002202, -1.0019153578161573 
3.150000000002223, -1.0012570708643989 
3.160000000002244, -1.0011053973917137 
3.1700000000022652, -1.0010164832554684 
3.1800000000022863, -1.0006255548055754 
3.1900000000023074, -0.9997718205167514 
3.2000000000023285, -0.9985920223533602 
3.2100000000023496, -0.9973134854539227 
3.2200000000023707, -0.9961807105423475 
3.230000000002392, -0.9955368039922383 
3.240000000002413, -0.995391904309289 
3.250000000002434, -0.9953037025552344 
3.260000000002455, -0.9949171720497691 
3.2700000000024763, -0.9940858413501149 
3.2800000000024974, -0.9929514782430064 
3.2900000000025185, -0.9917298778415581 
3.3000000000025396, -0.9906501870051702 
3.3100000000025607, -0.9900324380417215 
3.3200000000025818, -0.989892076442479 
3.330000000002603, -0.9898137207746798 
3.340000000002624, -0.9894572996944887 
3.350000000002645, -0.9886955734831626 
3.360000000002666, -0.9876651176625044 
3.3700000000026873, -0.9865548882130141 
3.3800000000027084, -0.9855664188246797 
3.3900000000027295, -0.9849863600640877 
3.4000000000027506, -0.9848505243296282 
3.4100000000027717, -0.9847909291476392 
3.420000000002793, -0.9844864920962162 
3.430000000002814, -0.9838293056048001 
3.440000000002835, -0.9829411994952599 
3.450000000002856, -0.9819751424124521 
3.460000000002877, -0.9811014412037504 
3.4700000000028983, -0.9805708205644285 
3.4800000000029194, -0.9804430248455553 
3.4900000000029405, -0.9804107035274806 
3.5000000000029616, -0.980174933311222 
3.5100000000029827, -0.9796429443300703 
3.520000000003004, -0.9789145768094769 
3.530000000003025, -0.9781037431965768 
3.540000000003046, -0.9773528531246666 
3.550000000003067, -0.976882299661643 
3.5600000000030882, -0.9767703450299948 
3.5700000000031094, -0.9767740880627798 
3.5800000000031305, -0.9766193830103566 
3.5900000000031516, -0.9762221215701044 
3.6000000000031727, -0.9756555381309707 
3.6100000000031938, -0.9749952859303185 
3.620000000003215, -0.9743623105010837 
3.630000000003236, -0.9739589987075422 
3.640000000003257, -0.9738748789458814 
3.650000000003278, -0.9739252120970268 
3.6600000000032993, -0.9738622115181391 
3.6700000000033204, -0.9736037563570078 
3.6800000000033415, -0.9731936864788356 
3.6900000000033626, -0.9726715816690495 
3.7000000000033837, -0.9721432024394439 
3.710000000003405, -0.9718087744110598 
3.720000000003426, -0.9717675182038928 
3.730000000003447, -0.9718785920196459 
3.740000000003468, -0.9719194529738939 
3.750000000003489, -0.9718042397149338 
3.7600000000035103, -0.9715451462816393 
3.7700000000035314, -0.9711475494872787 
3.7800000000035525, -0.9707068361158793 
3.7900000000035736, -0.9704364337509807 
3.8000000000035947, -0.970453959996941 
3.810000000003616, -0.9706453570516225 
3.820000000003637, -0.9708071739579137 
3.830000000003658, -0.9708448075510737 
3.840000000003679, -0.9707357661454841 
3.8500000000037002, -0.9704519409659339 
3.8600000000037213, -0.9700823000401229 
3.8700000000037424, -0.9698649359549796 
3.8800000000037635, -0.9699552162865661 
3.8900000000037847, -0.9702530438944876 
3.9000000000038058, -0.9705609987720094 
3.910000000003827, -0.9707698388474583 
3.920000000003848, -0.970817314871762 
3.930000000003869, -0.970641179475428 
3.94000000000389, -0.9703288953865662 
3.9500000000039113, -0.9701490747780612 
3.9600000000039324, -0.9703209809117342 
3.9700000000039535, -0.9707574521802775 
3.9800000000039746, -0.9712470294821448 
3.9900000000039957, -0.9716563066068816 
4.000000000004016, -0.9718749865646916 
4.010000000003993, -0.9718049678493574 
4.02000000000397, -0.9715401760746564 
4.030000000003946, -0.9713805907130054 
4.040000000003923, -0.9716350200975121 
4.0500000000039, -0.9722454825399027 
4.0600000000038765, -0.9729622000814498 
4.070000000003853, -0.9736114763542661 
4.08000000000383, -0.9740225648641756 
4.090000000003807, -0.974059775295864 
4.100000000003783, -0.9738359358034413 
4.11000000000376, -0.9736807912183844 
4.120000000003737, -0.9740092397816623 
4.130000000003713, -0.9748255644251904 
4.14000000000369, -0.9758192905143632 
4.150000000003667, -0.9767524413141374 
4.1600000000036434, -0.9773777797868707 
4.17000000000362, -0.9775224020832927 
4.180000000003597, -0.9773345787326982 
4.1900000000035735, -0.9771726284371743 
4.20000000000355, -0.9775588401541189 
4.210000000003527, -0.9785990146345156 
4.220000000003504, -0.9799091325231509 
4.23000000000348, -0.9811588772188057 
4.240000000003457, -0.9820089615789531 
4.250000000003434, -0.9822548622432621 
4.26000000000341, -0.9820974138294177 
4.270000000003387, -0.9819235995090351 
4.280000000003364, -0.9823490098340054 
4.2900000000033405, -0.9836053207991869 
4.300000000003317, -0.9852356707692869 
4.310000000003294, -0.9867973804779591 
4.320000000003271, -0.9878540266759922 
4.330000000003247, -0.9881828134869601 
4.340000000003224, -0.9880473945946673 
4.350000000003201, -0.9878626516497713 
4.360000000003177, -0.9883134883044822 
4.370000000003154, -0.9897445195070398 
4.380000000003131, -0.9916364146386244 
4.390000000003107, -0.9934405554401265 
4.400000000003084, -0.9946420936116794 
4.410000000003061, -0.9950198780821571 
4.4200000000030375, -0.9948947622248804 
4.430000000003014, -0.9947046362039468 
4.440000000002991, -0.9951758314308345 
4.450000000002968, -0.9967072808819198 
4.460000000002944, -0.99873092273868 
4.470000000002921, -1.0006373122455998 
4.480000000002898, -1.0018807137768546 
4.490000000002874, -1.002261510696884 
4.500000000002851, -1.0021328661440745 
4.510000000002828, -1.0019459551269696 
4.520000000002804, -1.0024379555678078 
4.530000000002781, -1.003973423053568 
4.540000000002758, -1.0059558987638475 
4.5500000000027345, -1.0077885610746962 
4.560000000002711, -1.008956052840901 
4.570000000002688, -1.0092921939625523 
4.580000000002665, -1.0091469059188487 
4.590000000002641, -1.0089733312584404 
4.600000000002618, -1.0094829816528972 
4.610000000002595, -1.0109225735781497 
4.620000000002571, -1.0127036383320351 
4.630000000002548, -1.0143109685213716 
4.640000000002525, -1.015307195739349 
4.6500000000025015, -1.0155611708872292 
4.660000000002478, -1.0153897160904557 
4.670000000002455, -1.0152388136530277 
4.6800000000024315, -1.015750892565214 
4.690000000002408, -1.0170131743901958 
4.700000000002385, -1.0184928465074714 
4.710000000002362, -1.0197905053165472 
4.720000000002338, -1.0205649261131522 
4.730000000002315, -1.0207155607393268 
4.740000000002292, -1.0205133227873897 
4.750000000002268, -1.0203900174383684 
4.760000000002245, -1.0208766577532289 
4.770000000002222, -1.0219154473576066 
4.7800000000021985, -1.0230653611823386 
4.790000000002175, -1.0240380421333346 
4.800000000002152, -1.0245823755496466 
4.810000000002129, -1.0246233288822333 
4.820000000002105, -1.0243896994137316 
4.830000000002082, -1.0242907818866624 
4.840000000002059, -1.024720057549103 
4.850000000002035, -1.0255276657807693 
4.860000000002012, -1.0263708827945195 
4.870000000001989, -1.0270466329052341 
4.880000000001965, -1.027377826578779 
4.890000000001942, -1.027311743699214 
4.900000000001919, -1.027047478951865 
4.9100000000018955, -1.0269604028230734 
4.920000000001872, -1.0273078886273617 
