t, s[1].omega / s[0].omega 
0, -1.3600026858949554 
0.009999999999999995, -1.3601070040794987 
0.019999999999999934, -1.3598999650822954 
0.029999999999999874, -1.3594083917942186 
0.04000000000000012, -1.3586679387145253 
0.050000000000000405, -1.3577268863544436 
0.06000000000000069, -1.3566522520964561 
0.07000000000000098, -1.3555342147582694 
0.08000000000000126, -1.3544842864010418 
0.09000000000000155, -1.353621994238931 
0.10000000000000184, -1.3530392641647053 
0.11000000000000212, -1.3527475725259188 
0.12000000000000241, -1.3526572637340137 
0.130000000000002, -1.3526221076588194 
0.1400000000000009, -1.352499542301982 
0.1499999999999998, -1.3521669403286354 
0.1599999999999987, -1.3514944317400444 
0.1699999999999976, -1.3503017459777857 
0.1799999999999965, -1.3483177187418864 
0.1899999999999954, -1.3451587485897125 
0.1999999999999943, -1.34035738550007 
0.2099999999999932, -1.3334938033017634 
0.2199999999999921, -1.3244900129286645 
0.229999999999991, -1.314053538931693 
0.2399999999999899, -1.3039565404912432 
0.2499999999999888, -1.296440052459761 
0.2599999999999877, -1.2926600815442304 
0.2699999999999866, -1.2918731061092792 
0.2799999999999855, -1.2924741357356104 
0.2899999999999844, -1.2932944292727957 
0.2999999999999833, -1.2938579984793992 
0.3099999999999822, -1.2940685270194339 
0.3199999999999811, -1.293935176603739 
0.32999999999998, -1.2934457045959544 
0.3399999999999789, -1.2925149924169221 
0.3499999999999778, -1.2909597917788045 
0.35999999999997667, -1.288518267243743 
0.36999999999997557, -1.2850481959551119 
0.37999999999997447, -1.2811721940960514 
0.38999999999997337, -1.2793027828870152 
0.39999999999997227, -1.2833768506246597 
0.40999999999997117, -1.2952918067461925 
0.41999999999997006, -1.3117745811943773 
0.42999999999996896, -1.3272827035020813 
0.43999999999996786, -1.3386711870060202 
0.44999999999996676, -1.3458145244828548 
0.45999999999996566, -1.349861621178214 
0.46999999999996456, -1.351971387380126 
0.47999999999996346, -1.3529407547875842 
0.48999999999996235, -1.3532385603212134 
0.49999999999996125, -1.353122871467836 
0.5099999999999602, -1.3527438821056554 
0.519999999999959, -1.3522286435794892 
0.529999999999958, -1.35175484163651 
0.5399999999999568, -1.3515799491294336 
0.5499999999999557, -1.3519558781946306 
0.5599999999999546, -1.352958556072311 
0.5699999999999535, -1.3544241467284204 
0.5799999999999524, -1.356071983467837 
0.5899999999999513, -1.357655307840832 
0.5999999999999502, -1.3590171594651486 
0.6099999999999491, -1.360077003498509 
0.619999999999948, -1.3608025456672594 
0.6299999999999469, -1.3611887321112124 
0.6399999999999458, -1.3612459722339125 
0.6499999999999447, -1.3609946474962535 
0.6599999999999436, -1.3604632448844332 
0.6699999999999425, -1.359689382286062 
0.6799999999999414, -1.3587241208022869 
0.6899999999999403, -1.35763815514724 
0.6999999999999392, -1.3565254989507085 
0.7099999999999381, -1.3555002570361507 
0.719999999999937, -1.3546805334377061 
0.7299999999999359, -1.3541486290367644 
0.7399999999999348, -1.3538991470711073 
0.7499999999999337, -1.3538286830468342 
0.7599999999999326, -1.3537881429965033 
0.7699999999999315, -1.3536385069347965 
0.7799999999999304, -1.3532584093246607 
0.7899999999999293, -1.3525123622634403 
0.7999999999999282, -1.351206841135004 
0.8099999999999271, -1.3490513136958027 
0.819999999999926, -1.3456420038533627 
0.8299999999999249, -1.3405034588144853 
0.8399999999999238, -1.333244629556345 
0.8499999999999227, -1.3238870740946893 
0.8599999999999216, -1.3133210071117567 
0.8699999999999205, -1.3034913900670522 
0.8799999999999194, -1.2965863335344987 
0.8899999999999183, -1.2934358466204272 
0.8999999999999172, -1.293020792599413 
0.9099999999999161, -1.2937336515965476 
0.919999999999915, -1.2945336518516652 
0.9299999999999139, -1.295038982218737 
0.9399999999999128, -1.2951886212901944 
0.9499999999999117, -1.2949949861204062 
0.9599999999999106, -1.2944362262893994 
0.9699999999999095, -1.2934117955528541 
0.9799999999999084, -1.2917222855185169 
0.9899999999999073, -1.2891088853143178 
0.9999999999999062, -1.2855149282521032 
1.0099999999999052, -1.28183606899491 
1.019999999999904, -1.2808826455478572 
1.029999999999903, -1.2865374647685102 
1.039999999999902, -1.2997628656949656 
1.0499999999999008, -1.316446750740194 
1.0599999999998997, -1.3312684892409927 
1.0699999999998986, -1.3417661637002614 
1.0799999999998975, -1.3482054879153076 
1.0899999999998964, -1.351797595383012 
1.0999999999998953, -1.3536374570392027 
1.1099999999998942, -1.3544493704205762 
1.119999999999893, -1.3546521665007767 
1.129999999999892, -1.3544761436194925 
1.1399999999998909, -1.3540612746682816 
1.1499999999998898, -1.3535396510367417 
1.1599999999998887, -1.3531042532174273 
1.1699999999998876, -1.353019468968946 
1.1799999999998865, -1.3535108095740953 
1.1899999999998854, -1.3546021188429211 
1.1999999999998843, -1.3560947492198419 
1.2099999999998832, -1.3577104608380397 
1.219999999999882, -1.3592238384277509 
1.229999999999881, -1.3604979335221938 
1.2399999999998799, -1.361464839188652 
1.2499999999998788, -1.3620988923000252 
1.2599999999998777, -1.3623981321995933 
1.2699999999998766, -1.3623742797269853 
1.2799999999998755, -1.3620482777116627 
1.2899999999998744, -1.3614491518038705 
1.2999999999998733, -1.360615840702748 
1.3099999999998722, -1.3596022596185697 
1.319999999999871, -1.3584835922548582 
1.32999999999987, -1.3573592798763323 
1.3399999999998689, -1.356348273679955 
1.3499999999998678, -1.355568417260304 
1.3599999999998666, -1.3550896355908943 
1.3699999999998655, -1.3548839277560785 
1.3799999999998644, -1.354830152891582 
1.3899999999998633, -1.3547756830009292 
1.3999999999998622, -1.3545851063469887 
1.4099999999998611, -1.3541366597960667 
1.41999999999986, -1.353284627093777 
1.429999999999859, -1.3518136605698925 
1.4399999999998578, -1.34940040666848 
1.4499999999998567, -1.3456033043308975 
1.4599999999998556, -1.3399233237984407 
1.4699999999998545, -1.3320018732097576 
1.4799999999998534, -1.3220108365753955 
1.4899999999998523, -1.3111298666194382 
1.4999999999998512, -1.301567151435975 
1.5099999999998501, -1.295412399801757 
1.519999999999849, -1.2930282238486046 
1.529999999999848, -1.29305182374206 
1.5399999999998468, -1.293894923219321 
1.5499999999998457, -1.294675136714652 
1.5599999999998446, -1.2951175095394667 
1.5699999999998435, -1.295199244763176 
1.5799999999998424, -1.2949357745231147 
1.5899999999998413, -1.2942944562863228 
1.5999999999998402, -1.2931588027728627 
1.6099999999998391, -1.2913183576592788 
1.619999999999838, -1.288543057617166 
1.629999999999837, -1.2849370082159202 
1.6399999999998358, -1.2817936716703628 
1.6499999999998347, -1.2823352189930028 
1.6599999999998336, -1.2900633428038166 
1.6699999999998325, -1.3046354324483154 
1.6799999999998314, -1.321220566858336 
1.6899999999998303, -1.3350593192433151 
1.6999999999998292, -1.3444998541623494 
1.709999999999828, -1.350164055011634 
1.719999999999827, -1.3532738406229599 
1.729999999999826, -1.3548325225469626 
1.7399999999998248, -1.3554808929897395 
1.7499999999998237, -1.3555844772598127 
1.7599999999998226, -1.3553459041150664 
1.7699999999998215, -1.354897333940139 
1.7799999999998204, -1.3543796419075966 
1.7899999999998193, -1.354001845017598 
1.7999999999998182, -1.3540260361085297 
1.809999999999817, -1.3546348986473549 
1.819999999999816, -1.3557931945999484 
1.8299999999998149, -1.3572760548364549 
1.8399999999998138, -1.3588196920071398 
1.8499999999998127, -1.3602265697070064 
1.8599999999998116, -1.3613814992159576 
1.8699999999998105, -1.3622289421706584 
1.8799999999998094, -1.3627490325183014 
1.8899999999998083, -1.3629419709686812 
1.8999999999998072, -1.3628199003202883 
1.909999999999806, -1.362403568578229 
1.919999999999805, -1.3617220774507632 
1.9299999999998039, -1.3608156960460929 
1.9399999999998028, -1.3597417201415396 
1.9499999999998017, -1.358580809375393 
1.9599999999998006, -1.3574393065784656 
1.9699999999997995, -1.3564423412546929 
1.9799999999997984, -1.3557063300097758 
1.9899999999997973, -1.3552840717957904 
1.9999999999997962, -1.3551207681163961 
2.0099999999998173, -1.3550776951573313 
2.0199999999998384, -1.355000724726192 
2.0299999999998595, -1.3547583285826468 
2.0399999999998806, -1.3542261219858713 
2.0499999999999017, -1.3532437260360322 
2.059999999999923, -1.3515671548553505 
2.069999999999944, -1.3488310986620529 
2.079999999999965, -1.344547151205177 
2.089999999999986, -1.3381918313265397 
2.100000000000007, -1.329462755343807 
2.1100000000000283, -1.3187458650205837 
2.1200000000000494, -1.307587052231694 
2.1300000000000705, -1.2984467132981998 
2.1400000000000916, -1.2931779604291995 
2.1500000000001127, -1.2915818209373475 
2.160000000000134, -1.2920022119515724 
2.170000000000155, -1.2929388186805233 
2.180000000000176, -1.2936825416857012 
2.190000000000197, -1.2940562343607527 
2.2000000000002182, -1.294067186112971 
2.2100000000002393, -1.2937299456860873 
2.2200000000002604, -1.2929995204834475 
2.2300000000002815, -1.2917441082084247 
2.2400000000003026, -1.2897493443186678 
2.2500000000003237, -1.2868399032320448 
2.260000000000345, -1.2833389414123306 
2.270000000000366, -1.2809841673155629 
2.280000000000387, -1.2832767533624225 
2.290000000000408, -1.2930239003345405 
2.3000000000004293, -1.3085652106169214 
2.3100000000004504, -1.324719182052883 
2.3200000000004715, -1.337474231669756 
2.3300000000004926, -1.3458980580984614 
2.3400000000005137, -1.3508560319940837 
2.3500000000005348, -1.3535364403807304 
2.360000000000556, -1.3548464172971353 
2.370000000000577, -1.3553494626767657 
2.380000000000598, -1.3553640972940562 
2.390000000000619, -1.3550700200361283 
2.4000000000006403, -1.3545952932897574 
2.4100000000006614, -1.3540916886426857 
2.4200000000006825, -1.3537816570103436 
2.4300000000007036, -1.3539165832712263 
2.4400000000007247, -1.3546314428940158 
2.450000000000746, -1.3558399128839838 
2.460000000000767, -1.3573029301408426 
2.470000000000788, -1.3587751127838037 
2.480000000000809, -1.3600838289015644 
2.49000000000083, -1.361131559755951 
2.5000000000008513, -1.3618723924419809 
2.5100000000008724, -1.3622908518312635 
2.5200000000008935, -1.362388743692542 
2.5300000000009146, -1.3621785706558647 
2.5400000000009357, -1.3616811367133237 
2.550000000000957, -1.3609261071310033 
2.560000000000978, -1.3599557095338322 
2.570000000000999, -1.3588311948122525 
2.58000000000102, -1.3576390360999788 
2.5900000000010412, -1.3564923556240616 
2.6000000000010624, -1.3555209297874642 
2.6100000000010835, -1.3548359021860674 
2.6200000000011046, -1.354469561724777 
2.6300000000011257, -1.354342145947278 
2.6400000000011468, -1.3543028542053945 
2.650000000001168, -1.3541994184109363 
2.660000000001189, -1.3539039108587012 
2.67000000000121, -1.3532876404150798 
2.680000000001231, -1.352174387225671 
2.6900000000012523, -1.350291979251146 
2.7000000000012734, -1.3472369451991508 
2.7100000000012945, -1.3424844377669491 
2.7200000000013156, -1.3355077431530786 
2.7300000000013367, -1.3260928781908308 
2.740000000001358, -1.3148638592523576 
2.750000000001379, -1.3036927903253457 
2.7600000000014, -1.2951504674863856 
2.770000000001421, -1.2907359819274222 
2.780000000001442, -1.289764410220768 
2.7900000000014633, -1.29043994838887 
2.8000000000014844, -1.2914025610634479 
2.8100000000015055, -1.2920912200741959 
2.8200000000015266, -1.2923968215167652 
2.8300000000015477, -1.2923421484173137 
2.840000000001569, -1.2919360021462019 
2.85000000000159, -1.291120054444382 
2.860000000001611, -1.2897478687590032 
2.870000000001632, -1.287603967621732 
2.8800000000016532, -1.284573478785939 
2.8900000000016743, -1.2811956407383973 
2.9000000000016954, -1.279587672664408 
2.9100000000017165, -1.2833671313473058 
2.9200000000017377, -1.294612417073055 
2.9300000000017588, -1.3106792438670578 
2.94000000000178, -1.3263271084484085 
2.950000000001801, -1.3381902349371753 
2.960000000001822, -1.345834366875303 
2.970000000001843, -1.3502633380060318 
2.9800000000018643, -1.3526236036735284 
2.9900000000018854, -1.3537472131864863 
3.0000000000019065, -1.3541401559231323 
3.0100000000019276, -1.3540865697682976 
3.0200000000019487, -1.353750153531362 
3.03000000000197, -1.3532579304129297 
3.040000000001991, -1.352772317469348 
3.050000000002012, -1.3525262985663455 
3.060000000002033, -1.3527599512850448 
3.070000000002054, -1.3535696531292083 
3.0800000000020753, -1.3548324693362737 
3.0900000000020964, -1.356300814822863 
3.1000000000021175, -1.357741893914979 
3.1100000000021386, -1.3589990589343208 
3.1200000000021597, -1.3599861966437174 
3.130000000002181, -1.3606639766693287 
3.140000000002202, -1.36102038018901 
3.150000000002223, -1.3610590435252905 
3.160000000002244, -1.360793644825536 
3.1700000000022652, -1.360246106675598 
3.1800000000022863, -1.3594476909291369 
3.1900000000023074, -1.3584432656912937 
3.2000000000023285, -1.3572979934150715 
3.2100000000023496, -1.3561030151620672 
3.2200000000023707, -1.3549755196787163 
3.230000000002392, -1.3540454827784099 
3.240000000002413, -1.3534149022694448 
3.250000000002434, -1.3530973258035646 
3.260000000002455, -1.3529961685406868 
3.2700000000024763, -1.3529561984981249 
3.2800000000024974, -1.3528293159960922 
3.2900000000025185, -1.3524903953886975 
3.3000000000025396, -1.3518066062226035 
3.3100000000025607, -1.3505896570999882 
3.3200000000025818, -1.3485487678134076 
3.330000000002603, -1.3452604320003938 
3.340000000002624, -1.3401915298928375 
3.350000000002645, -1.3328442501135425 
3.360000000002666, -1.3231045621816606 
3.3700000000026873, -1.3117773014585854 
3.3800000000027084, -1.3009016172664585 
3.3900000000027295, -1.2929888068488977 
3.4000000000027506, -1.289207333981334 
3.4100000000027717, -1.2885973857031445 
3.420000000002793, -1.2893693258279524 
3.430000000002814, -1.2902999048941042 
3.440000000002835, -1.2909251045571601 
3.450000000002856, -1.2911703612153662 
3.460000000002877, -1.2910608866932172 
3.4700000000028983, -1.2905963524204112 
3.4800000000029194, -1.2897046353886812 
3.4900000000029405, -1.2882235530448618 
3.5000000000029616, -1.2859303500704704 
3.5100000000029827, -1.2827487695224675 
3.520000000003004, -1.27937485944438 
3.530000000003025, -1.2781989933769644 
3.540000000003046, -1.2829071938021133 
3.550000000003067, -1.2950728989774227 
3.5600000000030882, -1.3114330522180622 
3.5700000000031094, -1.326739463814001 
3.5800000000031305, -1.3380305352710105 
3.5900000000031516, -1.3451736654121318 
3.6000000000031727, -1.3492581195351192 
3.6100000000031938, -1.351406425347721 
3.620000000003215, -1.3524045880641355 
3.630000000003236, -1.3527221583480151 
3.640000000003257, -1.3526209725235652 
3.650000000003278, -1.3522544825289464 
3.6600000000032993, -1.351750164912473 
3.6700000000033204, -1.3512799675385527 
3.6800000000033415, -1.3510871015835613 
3.6900000000033626, -1.3514065946472216 
3.7000000000033837, -1.352309803251751 
3.710000000003405, -1.3536475489167203 
3.720000000003426, -1.3551620532809578 
3.730000000003447, -1.3566238373795985 
3.740000000003468, -1.3578836057587456 
3.750000000003489, -1.358861693273088 
3.7600000000035103, -1.359523389867679 
3.7700000000035314, -1.359859922025276 
3.7800000000035525, -1.3598774540679779 
3.7900000000035736, -1.3595919448837246 
3.8000000000035947, -1.3590276075728929 
3.810000000003616, -1.3582182290996383 
3.820000000003637, -1.357211671073061 
3.830000000003658, -1.3560764369726124 
3.840000000003679, -1.354906461242825 
3.8500000000037002, -1.3538195099947585 
3.8600000000037213, -1.3529414983314128 
3.8700000000037424, -1.3523638118595496 
3.8800000000037635, -1.3520861475844193 
3.8900000000037847, -1.352003573519172 
3.9000000000038058, -1.3519618012647263 
3.910000000003827, -1.3518175199351137 
3.920000000003848, -1.3514477200169985 
3.930000000003869, -1.3507168191946484 
3.94000000000389, -1.3494299819970053 
3.9500000000039113, -1.3472894762523526 
3.9600000000039324, -1.3438714509341356 
3.9700000000039535, -1.3386609128124385 
3.9800000000039746, -1.3312104058201297 
3.9900000000039957, -1.321492765539936 
4.000000000004016, -1.310407231681612 
4.010000000003993, -1.3000088696712495 
4.02000000000397, -1.2926589519604856 
4.030000000003946, -1.2892917423973045 
4.040000000003923, -1.2888493610689777 
4.0500000000039, -1.2896201588274105 
4.0600000000038765, -1.2904902214087528 
4.070000000003853, -1.2910523392811322 
4.08000000000383, -1.2912454004494418 
4.090000000003807, -1.2910899458927307 
4.100000000003783, -1.2905749890952694 
4.11000000000376, -1.289614155142169 
4.120000000003737, -1.2880272589285622 
4.130000000003713, -1.285575659086474 
4.14000000000369, -1.2821973400622402 
4.150000000003667, -1.2786935986407288 
4.1600000000036434, -1.2776661784670986 
4.17000000000362, -1.282893888702971 
4.180000000003597, -1.2956363892292013 
4.1900000000035735, -1.3121974703812698 
4.20000000000355, -1.3272860854966264 
4.210000000003527, -1.3381912319657212 
4.220000000003504, -1.3449852737516117 
4.23000000000348, -1.348823525539422 
4.240000000003457, -1.3508172513978154 
4.250000000003434, -1.3517223481130398 
4.26000000000341, -1.3519830121068288 
4.270000000003387, -1.351845023009415 
4.280000000003364, -1.351454493642687 
4.2900000000033405, -1.350940152607332 
4.300000000003317, -1.3504833938229504 
4.310000000003294, -1.3503387297892768 
4.320000000003271, -1.3507405295114265 
4.330000000003247, -1.351741516060306 
4.340000000003224, -1.353169352205239 
4.350000000003201, -1.3547535207555075 
4.360000000003177, -1.3562629528774022 
4.370000000003154, -1.3575518947928393 
4.380000000003131, -1.3585452013620278 
4.390000000003107, -1.3592121899508771 
4.400000000003084, -1.359547484523024 
4.410000000003061, -1.359560297927418 
4.4200000000030375, -1.3592695164766 
4.430000000003014, -1.35870224032585 
4.440000000002991, -1.3578951903334109 
4.450000000002968, -1.3568993230751705 
4.460000000002944, -1.3557861464970906 
4.470000000002921, -1.354651461900342 
4.480000000002898, -1.3536120632802195 
4.490000000002874, -1.3527882480627877 
4.500000000002851, -1.352260837116501 
4.510000000002828, -1.3520183093996425 
4.520000000002804, -1.3519507874636159 
4.530000000002781, -1.3519065128236547 
4.540000000002758, -1.351746687685287 
4.5500000000027345, -1.3513498808077111 
4.560000000002711, -1.3505781576646867 
4.570000000002688, -1.349232130429598 
4.580000000002665, -1.3470113106490225 
4.590000000002641, -1.3434982026262774 
4.600000000002618, -1.3382036872818108 
4.610000000002595, -1.3307342053855475 
4.620000000002571, -1.3211394343669023 
4.630000000002548, -1.3103820545940943 
4.640000000002525, -1.300492405743506 
4.6500000000025015, -1.293670275302631 
4.660000000002478, -1.2906547658001781 
4.670000000002455, -1.2903356163434634 
4.6800000000024315, -1.291088741832023 
4.690000000002408, -1.2918969777037002 
4.700000000002385, -1.2923989276936143 
4.710000000002362, -1.2925423863953 
4.720000000002338, -1.2923420058024706 
4.730000000002315, -1.2917757188366237 
4.740000000002292, -1.2907422021127166 
4.750000000002268, -1.2890421063136324 
4.760000000002245, -1.2864204138049273 
4.770000000002222, -1.2828337788350803 
4.7800000000021985, -1.279203995823116 
4.790000000002175, -1.2783596483740056 
4.800000000002152, -1.2841475731560013 
4.810000000002129, -1.2974541123950059 
4.820000000002105, -1.3141434078922578 
4.830000000002082, -1.328934713428683 
4.840000000002059, -1.3394031157103916 
4.850000000002035, -1.345824735651 
4.860000000002012, -1.3494082417231765 
4.870000000001989, -1.3512445434992126 
4.880000000001965, -1.3520552994281652 
4.890000000001942, -1.3522579754182018 
4.900000000001919, -1.3520821644610919 
4.9100000000018955, -1.3516673189045254 
4.920000000001872, -1.3511449344768316 
4.930000000001849, -1.3507075757437224 
4.940000000001826, -1.3506206095694275 
