t, s[1].omega / s[0].omega 
0, -0.5299977504031393 
0.009999999999999995, -0.5298036645281821 
0.019999999999999934, -0.5296594584488834 
0.029999999999999874, -0.529535932307287 
0.04000000000000012, -0.5293968655084361 
0.050000000000000405, -0.529210942837893 
0.06000000000000069, -0.5289592133926825 
0.07000000000000098, -0.5286362796759229 
0.08000000000000126, -0.5282476330524097 
0.09000000000000155, -0.52780703689448 
0.10000000000000184, -0.5273369075564424 
0.11000000000000212, -0.5268734881222138 
0.12000000000000241, -0.5264785780122341 
0.130000000000002, -0.5262606464006109 
0.1400000000000009, -0.5264095232551532 
0.1499999999999998, -0.5272484720160031 
0.1599999999999987, -0.5292992634955493 
0.1699999999999976, -0.5333246808709983 
0.1799999999999965, -0.5402354996146246 
0.1899999999999954, -0.5506499673227193 
0.1999999999999943, -0.5640289672642902 
0.2099999999999932, -0.5781106724248244 
0.2199999999999921, -0.5899877467411254 
0.229999999999991, -0.5982309597285302 
0.2399999999999899, -0.6033777821174728 
0.2499999999999888, -0.6066281211098534 
0.2599999999999877, -0.6088420010313239 
0.2699999999999866, -0.6104391294096856 
0.2799999999999855, -0.6116041979437636 
0.2899999999999844, -0.6124330021706395 
0.2999999999999833, -0.6129893997290476 
0.3099999999999822, -0.6133199231893771 
0.3199999999999811, -0.6134554124990066 
0.32999999999998, -0.6134100739653691 
0.3399999999999789, -0.6131805270798504 
0.3499999999999778, -0.6127457888780168 
0.35999999999997667, -0.6120700698594861 
0.36999999999997557, -0.6111117570642205 
0.37999999999997447, -0.6098415364299098 
0.38999999999997337, -0.6082667937208399 
0.39999999999997227, -0.606448956756299 
0.40999999999997117, -0.6044969262270307 
0.41999999999997006, -0.6025350780694961 
0.42999999999996896, -0.6006661250228803 
0.43999999999996786, -0.5989512333449392 
0.44999999999996676, -0.5974122440964331 
0.45999999999996566, -0.596046232490196 
0.46999999999996456, -0.5948412538706053 
0.47999999999996346, -0.5937875633566041 
0.48999999999996235, -0.5928835519629063 
0.49999999999996125, -0.5921379344739655 
0.5099999999999602, -0.5915699867884241 
0.519999999999959, -0.5912090437524016 
0.529999999999958, -0.5910938789042502 
0.5399999999999568, -0.5912723039109933 
0.5499999999999557, -0.5918012659272489 
0.5599999999999546, -0.5927476403804844 
0.5699999999999535, -0.594189535039386 
0.5799999999999524, -0.596216940295651 
0.5899999999999513, -0.5989286555272042 
0.5999999999999502, -0.6024194512428784 
0.6099999999999491, -0.6067484439217046 
0.619999999999948, -0.6118814506591495 
0.6299999999999469, -0.6176173108015152 
0.6399999999999458, -0.6235471397150223 
0.6499999999999447, -0.6291226309274744 
0.6599999999999436, -0.6338466231443164 
0.6699999999999425, -0.637460956606038 
0.6799999999999414, -0.639983793429564 
0.6899999999999403, -0.6416032284424553 
0.6999999999999392, -0.6425466345658111 
0.7099999999999381, -0.6430036296098884 
0.719999999999937, -0.6431025555151947 
0.7299999999999359, -0.642912431311023 
0.7399999999999348, -0.6424490288556696 
0.7499999999999337, -0.6416745747521035 
0.7599999999999326, -0.640485659037379 
0.7699999999999315, -0.638684512577326 
0.7799999999999304, -0.6359294507179037 
0.7899999999999293, -0.6316709715264418 
0.7999999999999282, -0.6251228944800433 
0.8099999999999271, -0.6154104565096716 
0.819999999999926, -0.6020787728823769 
0.8299999999999249, -0.5858124551370149 
0.8399999999999238, -0.5685755810518632 
0.8499999999999227, -0.552667393757942 
0.8599999999999216, -0.5395711518458158 
0.8699999999999205, -0.529647585622399 
0.8799999999999194, -0.5225343344347241 
0.8899999999999183, -0.517621030233318 
0.8999999999999172, -0.5143195198592623 
0.9099999999999161, -0.5121574659210772 
0.919999999999915, -0.510785451010336 
0.9299999999999139, -0.5099554030362796 
0.9399999999999128, -0.5094952407791145 
0.9499999999999117, -0.5092876374792721 
0.9599999999999106, -0.509254203208775 
0.9699999999999095, -0.5093444373993744 
0.9799999999999084, -0.5095285093006893 
0.9899999999999073, -0.5097930065330138 
0.9999999999999062, -0.5101387091833496 
1.0099999999999052, -0.510578999507888 
1.019999999999904, -0.5111368649288208 
1.029999999999903, -0.5118381948561398 
1.039999999999902, -0.5126999981685144 
1.0499999999999008, -0.5137148199304703 
1.0599999999998997, -0.5148370284481616 
1.0699999999998986, -0.5159808955615153 
1.0799999999998975, -0.5170385010082946 
1.0899999999998964, -0.5179124618930008 
1.0999999999998953, -0.5185438992255216 
1.1099999999998942, -0.5189186960475312 
1.119999999999893, -0.5190535207582949 
1.129999999999892, -0.5189753726815893 
1.1399999999998909, -0.5187053047909167 
1.1499999999998898, -0.5182483174005302 
1.1599999999998887, -0.5175861591049278 
1.1699999999998876, -0.5166681756832083 
1.1799999999998865, -0.5153942331423893 
1.1899999999998854, -0.5135805964742934 
1.1999999999998843, -0.5108940922334066 
1.2099999999998832, -0.5067399055820776 
1.219999999999882, -0.5001322121642058 
1.229999999999881, -0.48974957937395036 
1.2399999999998799, -0.4746212072004887 
1.2499999999998788, -0.4554690666294424 
1.2599999999998777, -0.435179592884103 
1.2699999999998766, -0.4170892565393672 
1.2799999999998755, -0.4029763896411679 
1.2899999999998744, -0.3928696796883972 
1.2999999999998733, -0.38596008374987206 
1.3099999999998722, -0.3813365641648049 
1.319999999999871, -0.37827100623872634 
1.32999999999987, -0.376252250007838 
1.3399999999998689, -0.3749411511926747 
1.3499999999998678, -0.37411866922433257 
1.3599999999998666, -0.3736461422259124 
1.3699999999998655, -0.3734387699400482 
1.3799999999998644, -0.3734492143262811 
1.3899999999998633, -0.37365832095742424 
1.3999999999998622, -0.37407084652082295 
1.4099999999998611, -0.3747147423780566 
1.41999999999986, -0.3756426763693755 
1.429999999999859, -0.37693384715611117 
1.4399999999998578, -0.37869239971769114 
1.4499999999998567, -0.3810354702513949 
1.4599999999998556, -0.38405986287671146 
1.4699999999998545, -0.38777780413780716 
1.4799999999998534, -0.3920345942201106 
1.4899999999998523, -0.39647047443949707 
1.4999999999998512, -0.40060909553519536 
1.5099999999998501, -0.4040542999169909 
1.519999999999849, -0.40663843945248723 
1.529999999999848, -0.4084113485814119 
1.5399999999998468, -0.4095301676639161 
1.5499999999998457, -0.410160559671222 
1.5599999999998446, -0.4104299159737538 
1.5699999999998435, -0.41041733867924457 
1.5799999999998424, -0.4101574481010573 
1.5899999999998413, -0.4096454211090477 
1.5999999999998402, -0.4088399608735068 
1.6099999999998391, -0.4076671303749956 
1.619999999999838, -0.4060335546434707 
1.629999999999837, -0.4038608849301867 
1.6399999999998358, -0.4011444283450266 
1.6499999999998347, -0.39800787290748263 
1.6599999999998336, -0.3946986106454628 
1.6699999999998325, -0.391502696350267 
1.6799999999998314, -0.38863906051902947 
1.6899999999998303, -0.38620939142054156 
1.6999999999998292, -0.3842146747672201 
1.709999999999828, -0.3825994651079448 
1.719999999999827, -0.3812905340651719 
1.729999999999826, -0.38021991751183054 
1.7399999999998248, -0.37933527490066477 
1.7499999999998237, -0.37860299737474695 
1.7599999999998226, -0.3780084278269113 
1.7699999999998215, -0.37755617649152373 
1.7799999999998204, -0.377272591873071 
1.7899999999998193, -0.37721212553354194 
1.7999999999998182, -0.3774696824809136 
1.809999999999817, -0.37820206300244663 
1.819999999999816, -0.37966297620395906 
1.8299999999998149, -0.38225638392855704 
1.8399999999998138, -0.3866066415942985 
1.8499999999998127, -0.39361461982504664 
1.8599999999998116, -0.4043827058004032 
1.8699999999998105, -0.4197407203078024 
1.8799999999998094, -0.43914938571744677 
1.8899999999998083, -0.4597121974823001 
1.8999999999998072, -0.4772814675494219 
1.909999999999806, -0.4894719156234683 
1.919999999999805, -0.4967775218416682 
1.9299999999998039, -0.5009293789454154 
1.9399999999998028, -0.503356029491216 
1.9499999999998017, -0.5048641338757534 
1.9599999999998006, -0.5058476229631979 
1.9699999999997995, -0.5064967322872729 
1.9799999999997984, -0.5069092077587435 
1.9899999999997973, -0.5071384331473261 
1.9999999999997962, -0.5072128758355376 
2.0099999999998173, -0.5071441505672942 
2.0199999999998384, -0.5069312178278361 
2.0299999999998595, -0.5065644595310437 
2.0399999999998806, -0.5060321612195516 
2.0499999999999017, -0.5053306688434585 
2.059999999999923, -0.504476297734325 
2.069999999999944, -0.5035125073986395 
2.079999999999965, -0.502504829952254 
2.089999999999986, -0.5015231355512477 
2.100000000000007, -0.5006208887964219 
2.1100000000000283, -0.49982296594271236 
2.1200000000000494, -0.49912615341647165 
2.1300000000000705, -0.4985086995892883 
2.1400000000000916, -0.4979427005603078 
2.1500000000001127, -0.4974043133862214 
2.160000000000134, -0.49687952794672074 
2.170000000000155, -0.49636611569904715 
2.180000000000176, -0.49587413805686076 
2.190000000000197, -0.49542760673010217 
2.2000000000002182, -0.4950693436555671 
2.2100000000002393, -0.4948708046018142 
2.2200000000002604, -0.49494902671415114 
2.2300000000002815, -0.4954937626838266 
2.2400000000003026, -0.49680848382775356 
2.2500000000003237, -0.49936685398831304 
2.260000000000345, -0.5038745345247758 
2.270000000000366, -0.5112887196129684 
2.280000000000387, -0.5226648162917416 
2.290000000000408, -0.5386140348000116 
2.3000000000004293, -0.558349116133565 
2.3100000000004504, -0.57913445524845 
2.3200000000004715, -0.5974466155094137 
2.3300000000004926, -0.6111853636317398 
2.3400000000005137, -0.6204063791527209 
2.3500000000005348, -0.6262660338959483 
2.360000000000556, -0.6299354670668722 
2.370000000000577, -0.6322346076558925 
2.380000000000598, -0.6336680488456112 
2.390000000000619, -0.634535445128032 
2.4000000000006403, -0.6350129802635843 
2.4100000000006614, -0.6352005593283365 
2.4200000000006825, -0.6351467885434628 
2.4300000000007036, -0.6348609704257584 
2.4400000000007247, -0.6343177688239983 
2.450000000000746, -0.6334592667519563 
2.460000000000767, -0.6322009345175195 
2.470000000000788, -0.6304509192211035 
2.480000000000809, -0.6281500077665473 
2.49000000000083, -0.6253233904806507 
2.5000000000008513, -0.6221097571708236 
2.5100000000008724, -0.6187327710430197 
2.5200000000008935, -0.6154258577604346 
2.5300000000009146, -0.612363827910029 
2.5400000000009357, -0.6096394419074955 
2.550000000000957, -0.6072789251041082 
2.560000000000978, -0.6052707318123751 
2.570000000000999, -0.6035895261084192 
2.58000000000102, -0.6022101826912003 
2.5900000000010412, -0.6011135292239478 
2.6000000000010624, -0.600287174202197 
2.6100000000010835, -0.5997241561471685 
2.6200000000011046, -0.5994211535698108 
2.6300000000011257, -0.5993772270154148 
2.6400000000011468, -0.5995935556886981 
2.650000000001168, -0.6000742602925005 
2.660000000001189, -0.6008280637351887 
2.67000000000121, -0.6018701364297884 
2.680000000001231, -0.6032228766583904 
2.6900000000012523, -0.6049134875065025 
2.7000000000012734, -0.6069652249197041 
2.7100000000012945, -0.6093791461270122 
2.7200000000013156, -0.6121065613323486 
2.7300000000013367, -0.61502213861459 
2.740000000001358, -0.6179208982371666 
2.750000000001379, -0.6205615762914248 
2.7600000000014, -0.6227454011189827 
2.770000000001421, -0.6243783949842113 
2.780000000001442, -0.6254748178947781 
2.7900000000014633, -0.6261133454550678 
2.8000000000014844, -0.6263868710280731 
2.8100000000015055, -0.6263708398579653 
2.8200000000015266, -0.6261103629453193 
2.8300000000015477, -0.6256165475064226 
2.840000000001569, -0.6248634607082449 
2.85000000000159, -0.6237798613622801 
2.860000000001611, -0.6222303125504756 
2.870000000001632, -0.6199779008144348 
2.8800000000016532, -0.6166171133954778 
2.8900000000016743, -0.6114708127352569 
2.9000000000016954, -0.6034990674935032 
2.9100000000017165, -0.5914387885154435 
2.9200000000017377, -0.5745672956912882 
2.9300000000017588, -0.5539521081736518 
2.94000000000178, -0.5326762308476147 
2.950000000001801, -0.5140625084491991 
2.960000000001822, -0.4998064255400766 
2.970000000001843, -0.48985263053972644 
2.9800000000018643, -0.48330075147980295 
2.9900000000018854, -0.47914727010697006 
3.0000000000019065, -0.4765858556979616 
3.0100000000019276, -0.47504852983026036 
3.0200000000019487, -0.4741590921035628 
3.03000000000197, -0.4736758225801642 
3.040000000001991, -0.4734459610920451 
3.050000000002012, -0.4733742191803348 
3.060000000002033, -0.4734023966850497 
3.070000000002054, -0.4734969008417208 
3.0800000000020753, -0.4736417625983863 
3.0900000000020964, -0.4738353580742549 
3.1000000000021175, -0.4740890990012806 
3.1100000000021386, -0.4744259329041144 
3.1200000000021597, -0.4748761549657966 
3.130000000002181, -0.47546859365626054 
3.140000000002202, -0.4762171290773637 
3.150000000002223, -0.47710566947740896 
3.160000000002244, -0.4780787053598501 
3.1700000000022652, -0.47904664919910517 
3.1800000000022863, -0.47990932682059817 
3.1900000000023074, -0.48058679197400817 
3.2000000000023285, -0.4810383193437565 
3.2100000000023496, -0.48126018672722753 
3.2200000000023707, -0.48126938034731664 
3.230000000002392, -0.48108563186094677 
3.240000000002413, -0.4807181723780375 
3.250000000002434, -0.48015648259369587 
3.260000000002455, -0.4793608134781769 
3.2700000000024763, -0.47824671694453763 
3.2800000000024974, -0.4766555643792455 
3.2900000000025185, -0.47429939677492916 
3.3000000000025396, -0.4706697400394824 
3.3100000000025607, -0.4649346186808918 
3.3200000000025818, -0.45597770944437344 
3.330000000002603, -0.4429243358359787 
3.340000000002624, -0.4262255171378818 
3.350000000002645, -0.40817903987083437 
3.360000000002666, -0.3916785903569875 
3.3700000000026873, -0.37846066634226905 
3.3800000000027084, -0.36874255181346827 
3.3900000000027295, -0.3619192517456443 
3.4000000000027506, -0.35722259712151505 
3.4100000000027717, -0.3540097472680517 
3.420000000002793, -0.35181751628196267 
3.430000000002814, -0.350333541647594 
3.440000000002835, -0.34935429867080636 
3.450000000002856, -0.34875111752621774 
3.460000000002877, -0.34844707723144575 
3.4700000000028983, -0.34840287605927944 
3.4800000000029194, -0.348609419526669 
3.4900000000029405, -0.34908555122609164 
3.5000000000029616, -0.3498800138584144 
3.5100000000029827, -0.35107696579127823 
3.520000000003004, -0.35280373333223586 
3.530000000003025, -0.35523694391463734 
3.540000000003046, -0.3585968411642493 
3.550000000003067, -0.3631078590828153 
3.5600000000030882, -0.3688933330283964 
3.5700000000031094, -0.37579736585055684 
3.5800000000031305, -0.38323714939292336 
3.5900000000031516, -0.39030827376203947 
3.6000000000031727, -0.396200093730846 
3.6100000000031938, -0.400568369031277 
3.620000000003215, -0.4035309347696299 
3.630000000003236, -0.40541617544868813 
3.640000000003257, -0.4065508710291149 
3.650000000003278, -0.4071775295952649 
3.6600000000032993, -0.40745083457884074 
3.6700000000033204, -0.4074577124633933 
3.6800000000033415, -0.40723646748127384 
3.6900000000033626, -0.40678986827003827 
3.7000000000033837, -0.406094674247511 
3.710000000003405, -0.40511298534360896 
3.720000000003426, -0.4038114531130693 
3.730000000003447, -0.40219008618471586 
3.740000000003468, -0.400309970744788 
3.750000000003489, -0.3982970322429948 
3.7600000000035103, -0.3963083527825475 
3.7700000000035314, -0.39447964110836653 
3.7800000000035525, -0.3928893246646772 
3.7900000000035736, -0.39155508132317723 
3.8000000000035947, -0.39045196361538803 
3.810000000003616, -0.38953500052612744 
3.820000000003637, -0.38875682817230095 
3.830000000003658, -0.38807824593084106 
3.840000000003679, -0.3874729130558093 
3.8500000000037002, -0.3869285372692519 
3.8600000000037213, -0.3864471322028857 
3.8700000000037424, -0.3860466277576461 
3.8800000000037635, -0.3857657836036118 
3.8900000000037847, -0.3856744930959036 
3.9000000000038058, -0.3858923843894914 
3.910000000003827, -0.3866198054580648 
3.920000000003848, -0.38818506544572284 
3.930000000003869, -0.39110372883660255 
3.94000000000389, -0.39611073510828243 
3.9500000000039113, -0.4040272235422348 
3.9600000000039324, -0.41517376084633095 
3.9700000000039535, -0.4282167301605975 
3.9800000000039746, -0.4396338075109532 
3.9900000000039957, -0.44593695650551685 
4.000000000004016, -0.4469087966891384 
4.010000000003993, -0.4450814517619611 
4.02000000000397, -0.4428220247554238 
4.030000000003946, -0.44113917652436907 
4.040000000003923, -0.4401433590296178 
4.0500000000039, -0.4396485883419004 
4.0600000000038765, -0.4394533199502592 
4.070000000003853, -0.43941301574560604 
4.08000000000383, -0.43943803442852036 
4.090000000003807, -0.4394762023101387 
4.100000000003783, -0.43949775548615966 
4.11000000000376, -0.43948569123748377 
4.120000000003737, -0.43943092865853056 
4.130000000003713, -0.43933127876636735 
4.14000000000369, -0.4391931578970764 
4.150000000003667, -0.43903428669485994 
4.1600000000036434, -0.43888454935941856 
4.17000000000362, -0.4387821107832365 
4.180000000003597, -0.4387639990564155 
4.1900000000035735, -0.43885368001763403 
4.20000000000355, -0.43905026897050814 
4.210000000003527, -0.4393241687219806 
4.220000000003504, -0.4396225420611205 
4.23000000000348, -0.4398841065639102 
4.240000000003457, -0.44005664254295124 
4.250000000003434, -0.4401079310439219 
4.26000000000341, -0.44002576240674535 
4.270000000003387, -0.4398101638561509 
4.280000000003364, -0.43946369998065693 
4.2900000000033405, -0.4389832522412367 
4.300000000003317, -0.4383531364963065 
4.310000000003294, -0.4375368993044219 
4.320000000003271, -0.43646275234810117 
4.330000000003247, -0.4349930682407238 
4.340000000003224, -0.4328595508821878 
4.350000000003201, -0.4295369022834806 
4.360000000003177, -0.4240564926061238 
4.370000000003154, -0.41494459750576784 
4.380000000003131, -0.40084621078386373 
4.390000000003107, -0.38213262037771556 
4.400000000003084, -0.3617927501071027 
4.410000000003061, -0.34356860817022444 
4.4200000000030375, -0.32946167674397625 
4.430000000003014, -0.31947148554423443 
4.440000000002991, -0.3126955410361899 
4.450000000002968, -0.3081668034274249 
4.460000000002944, -0.30514297199742707 
4.470000000002921, -0.3031207591800932 
4.480000000002898, -0.30177668256957096 
4.490000000002874, -0.3009087956308793 
4.500000000002851, -0.3003953145382298 
4.510000000002828, -0.30016875398790016 
4.520000000002804, -0.300201402798577 
4.530000000002781, -0.3004989226768495 
4.540000000002758, -0.3011002708537906 
4.5500000000027345, -0.3020832277880111 
4.560000000002711, -0.3035752358026255 
4.570000000002688, -0.305768274049955 
4.580000000002665, -0.3089319746429191 
4.590000000002641, -0.3134066139105015 
4.600000000002618, -0.31953295737403165 
4.610000000002595, -0.32745626893384217 
4.620000000002571, -0.33681030122462563 
4.630000000002548, -0.34653756778983763 
4.640000000002525, -0.35525375997787123 
4.6500000000025015, -0.36201351178798946 
4.660000000002478, -0.3666874915737348 
4.670000000002455, -0.3696849134505841 
4.6800000000024315, -0.3715240237306044 
4.690000000002408, -0.37261394921634605 
4.700000000002385, -0.3732216933336071 
4.710000000002362, -0.37350543603367015 
4.720000000002338, -0.3735519454624691 
4.730000000002315, -0.3734027195055892 
4.740000000002292, -0.37307049517939556 
4.750000000002268, -0.3725512801134633 
4.760000000002245, -0.3718367563435118 
4.770000000002222, -0.37092969811164855 
4.7800000000021985, -0.3698599564944253 
4.790000000002175, -0.36869215614716916 
4.800000000002152, -0.36751595945672616 
4.810000000002129, -0.366420924371134 
4.820000000002105, -0.36547074897382126 
4.830000000002082, -0.36469076190851135 
4.840000000002059, -0.3640706022860018 
4.850000000002035, -0.36357578341878727 
4.860000000002012, -0.3631616189131705 
4.870000000001989, -0.3627852866471831 
4.880000000001965, -0.3624134355737385 
4.890000000001942, -0.3620245596429333 
