t, s[1].omega / s[0].omega 
0, -0.9999976194117242 
0.009999999999999995, -0.9996924727264075 
0.019999999999999934, -0.9994972326203247 
0.029999999999999874, -0.9992717190346859 
0.04000000000000012, -0.9989745759230083 
0.050000000000000405, -0.9988132742257982 
0.06000000000000069, -0.998525959565019 
0.07000000000000098, -0.9983039305397707 
0.08000000000000126, -0.9981066780956879 
0.09000000000000155, -0.9978006979004593 
0.10000000000000184, -0.9976403819145628 
0.11000000000000212, -0.9973807183009816 
0.12000000000000241, -0.9971310257208933 
0.130000000000002, -0.9969611391191747 
0.1400000000000009, -0.9966610073672199 
0.1499999999999998, -0.9964914795914 
0.1599999999999987, -0.9962666678569446 
0.1699999999999976, -0.995994720764696 
0.1799999999999965, -0.9958473233796195 
0.1899999999999954, -0.9955678333976845 
0.1999999999999943, -0.9953798669818013 
0.2099999999999932, -0.9951939056492274 
0.2199999999999921, -0.9949108463057491 
0.229999999999991, -0.994777396900923 
0.2399999999999899, -0.9945317211862154 
0.2499999999999888, -0.9943199896851701 
0.2599999999999877, -0.994173205201 
0.2699999999999866, -0.9938942973858129 
0.2799999999999855, -0.9937636619075215 
0.2899999999999844, -0.9935621135699375 
0.2999999999999833, -0.9933274646469313 
0.3099999999999822, -0.993216284436742 
0.3199999999999811, -0.9929593454178479 
0.32999999999998, -0.9928192462251523 
0.3399999999999789, -0.9926688712117283 
0.3499999999999778, -0.9924189650758592 
0.35999999999997667, -0.9923360339309759 
0.36999999999997557, -0.9921193698807049 
0.37999999999997447, -0.9919590364379832 
0.38999999999997337, -0.9918635897404249 
0.39999999999997227, -0.9916130395155194 
0.40999999999997117, -0.9915468636044718 
0.41999999999997006, -0.9913869952372182 
0.42999999999996896, -0.9912006586222499 
0.43999999999996786, -0.9911603682296509 
0.44999999999996676, -0.9909312603018311 
0.45999999999996566, -0.9908654102631955 
0.46999999999996456, -0.9907764941529908 
0.47999999999996346, -0.9905660392367727 
0.48999999999996235, -0.9905765714624933 
0.49999999999996125, -0.9903964736907029 
0.5099999999999602, -0.9903117584926491 
0.519999999999959, -0.9903061578157657 
0.529999999999958, -0.990084705009067 
0.5399999999999568, -0.9901336324988356 
0.5499999999999557, -0.990031285118759 
0.5599999999999546, -0.9899114071457431 
0.5699999999999535, -0.9899988532521624 
0.5799999999999524, -0.9897954760158352 
0.5899999999999513, -0.9898576374554019 
0.5999999999999502, -0.9898618486729274 
0.6099999999999491, -0.9896993558412754 
0.619999999999948, -0.9898820466906945 
0.6299999999999469, -0.9897398582933021 
0.6399999999999458, -0.9897799964644297 
0.6499999999999447, -0.9899210858639306 
0.6599999999999436, -0.9897269057637395 
0.6699999999999425, -0.9899880037179385 
0.6799999999999414, -0.9899563698279872 
0.6899999999999403, -0.989939552766546 
0.6999999999999392, -0.990246185212877 
0.7099999999999381, -0.9900602562574181 
0.719999999999937, -0.9903529651402004 
0.7299999999999359, -0.990485190490538 
0.7399999999999348, -0.9903888522952546 
0.7499999999999337, -0.9908723297211439 
0.7599999999999326, -0.9907586971490021 
0.7699999999999315, -0.9910145505678667 
0.7799999999999304, -0.9913675261762602 
0.7899999999999293, -0.991200880472372 
0.7999999999999282, -0.9918254621457765 
0.8099999999999271, -0.9918580284520984 
0.819999999999926, -0.9920099508190683 
0.8299999999999249, -0.9926307952710071 
0.8399999999999238, -0.9924487614865489 
0.8499999999999227, -0.9931156349950244 
0.8599999999999216, -0.993371044033511 
0.8699999999999205, -0.9933778866886634 
0.8799999999999194, -0.9942661715216911 
0.8899999999999183, -0.9941504681622513 
0.8999999999999172, -0.994731264525454 
0.9099999999999161, -0.9952747602585104 
0.919999999999915, -0.9951504121511967 
0.9299999999999139, -0.9962111701349533 
0.9399999999999128, -0.9962443240377465 
0.9499999999999117, -0.996635710484264 
0.9599999999999106, -0.9974869577791434 
0.9699999999999095, -0.9973030594662768 
0.9799999999999084, -0.9983547088580317 
0.9899999999999073, -0.99860490279051 
0.9999999999999062, -0.9987656717871757 
1.0099999999999052, -0.9998580623328845 
1.019999999999904, -0.9997018518155577 
1.029999999999903, -1.0005655630897377 
1.039999999999902, -1.0010593298967836 
1.0499999999999008, -1.0010224464535438 
1.0599999999998997, -1.0021965220431717 
1.0699999999998986, -1.0021366164986858 
1.0799999999998975, -1.0027175392200465 
1.0899999999998964, -1.0034144788222834 
1.0999999999998953, -1.0032609283810283 
1.1099999999998942, -1.0043254239743051 
1.119999999999893, -1.0044008033673781 
1.129999999999892, -1.0046977177777592 
1.1399999999998909, -1.0054987172135663 
1.1499999999998898, -1.0053114610910858 
1.1599999999998887, -1.0061332099304323 
1.1699999999998876, -1.006342300155139 
1.1799999999998865, -1.006412368842795 
1.1899999999998854, -1.0071978271215114 
1.1999999999998843, -1.0070355656899668 
1.2099999999998832, -1.0075770043415284 
1.219999999999882, -1.007879223961798 
1.229999999999881, -1.007797779919993 
1.2399999999998799, -1.0084693078532223 
1.2499999999998788, -1.008362880569608 
1.2599999999998777, -1.0086546344834377 
1.2699999999998766, -1.0089922836530434 
1.2799999999998755, -1.0088271998685396 
1.2899999999998744, -1.0093319274202026 
1.2999999999998733, -1.009286565970322 
1.3099999999998722, -1.0093846562664504 
1.319999999999871, -1.0097052893879626 
1.32999999999987, -1.0095073901420237 
1.3399999999998689, -1.0098373265861686 
1.3499999999998678, -1.0098388372409128 
1.3599999999998666, -1.0097985103694023 
1.3699999999998655, -1.0100653666285246 
1.3799999999998644, -1.0098677222317665 
1.3899999999998633, -1.0100422705550058 
1.3999999999998622, -1.0100681744008144 
1.4099999999998611, -1.0099348364392227 
1.41999999999986, -1.0101284382794293 
1.429999999999859, -1.0099482125389643 
1.4399999999998578, -1.0099959880338414 
1.4499999999998567, -1.0100251048752191 
1.4599999999998556, -1.0098337631272567 
1.4699999999998545, -1.0099491163877203 
1.4799999999998534, -1.0097905656628146 
1.4899999999998523, -1.0097390390543381 
1.4999999999998512, -1.0097556439342628 
1.5099999999998501, -1.0095326592184872 
1.519999999999849, -1.0095738640296568 
1.529999999999848, -1.0094330955229662 
1.5399999999998468, -1.0093052125017514 
1.5499999999998457, -1.0092995331973058 
1.5599999999998446, -1.0090639466695273 
1.5699999999998435, -1.0090385596391638 
1.5799999999998424, -1.0089087006966477 
1.5899999999998413, -1.0087230914104635 
1.5999999999998402, -1.0086904508571337 
1.6099999999998391, -1.0084545885724703 
1.619999999999838, -1.0083700371739426 
1.629999999999837, -1.0082447552118716 
1.6399999999998358, -1.0080170672779352 
1.6499999999998347, -1.0079562669188264 
1.6599999999998336, -1.00772662741613 
1.6699999999998325, -1.007589105328172 
1.6799999999998314, -1.007464028294374 
1.6899999999998303, -1.0072080505505898 
1.6999999999998292, -1.0071191381335334 
1.709999999999828, -1.0068982354863238 
1.719999999999827, -1.006713225040714 
1.729999999999826, -1.0065859659950414 
1.7399999999998248, -1.006313994893183 
1.7499999999998237, -1.0061962681437457 
1.7599999999998226, -1.0059848797373703 
1.7699999999998215, -1.0057583159189012 
1.7799999999998204, -1.005627716010899 
1.7899999999998193, -1.0053503082015638 
1.7999999999998182, -1.0052015778037566 
1.809999999999817, -1.0050003681732225 
1.819999999999816, -1.0047397241860574 
1.8299999999998149, -1.0046045334178704 
1.8399999999998138, -1.004330270606103 
1.8499999999998127, -1.0041476984160116 
1.8599999999998116, -1.0039577008012373 
1.8699999999998105, -1.0036724881389545 
1.8799999999998094, -1.0035298695591808 
1.8899999999998083, -1.0032656002883942 
1.8999999999998072, -1.003047567801385 
1.909999999999806, -1.0028696781578474 
1.919999999999805, -1.0025710942827841 
1.9299999999998039, -1.002415821860962 
1.9399999999998028, -1.0021671897384312 
1.9499999999998017, -1.0019152524206654 
1.9599999999998006, -1.0017491317282712 
1.9699999999997995, -1.0014490408541752 
1.9799999999997984, -1.0012741649852228 
1.9899999999997973, -1.0010458312907553 
1.9999999999997962, -1.0007659247411709 
2.0099999999998173, -1.0006087338007612 
2.0199999999998384, -1.0003185145150195 
2.0299999999998595, -1.0001174745801795 
2.0399999999998806, -0.9999127023964897 
2.0499999999999017, -0.9996150675065183 
2.059999999999923, -0.9994607429811472 
2.069999999999944, -0.9991903927080783 
2.079999999999965, -0.9989597483144822 
2.089999999999986, -0.9987795223291893 
2.100000000000007, -0.9984773819429148 
2.1100000000000283, -0.9983171883968094 
2.1200000000000494, -0.9980747059405403 
2.1300000000000705, -0.9978163175651271 
2.1400000000000916, -0.9976583962369158 
2.1500000000001127, -0.9973660752445118 
2.160000000000134, -0.9971904970637183 
2.170000000000155, -0.9969813644148646 
2.180000000000176, -0.9967030343594173 
2.190000000000197, -0.9965614696980496 
2.2000000000002182, -0.996292577395663 
2.2100000000002393, -0.9960940860035317 
2.2200000000002604, -0.9959207117926464 
2.2300000000002815, -0.9956351553288539 
2.2400000000003026, -0.9955007465443247 
2.2500000000003237, -0.9952666788375673 
2.260000000000345, -0.9950425767208539 
2.270000000000366, -0.9949037689163277 
2.280000000000387, -0.9946268891392086 
2.290000000000408, -0.9944884016142896 
2.3000000000004293, -0.9942974876803677 
2.3100000000004504, -0.9940515515068082 
2.3200000000004715, -0.9939423124942538 
2.3300000000004926, -0.9936913570961806 
2.3400000000005137, -0.9935374982829351 
2.3500000000005348, -0.993394753316928 
2.360000000000556, -0.9931372586417679 
2.370000000000577, -0.9930489353083783 
2.380000000000598, -0.9928402334592897 
2.390000000000619, -0.9926627706544712 
2.4000000000006403, -0.9925697408908016 
2.4100000000006614, -0.9923172156138397 
2.4200000000006825, -0.9922373250031346 
2.4300000000007036, -0.9920845736574527 
2.4400000000007247, -0.9918813332033987 
2.450000000000746, -0.9918357996768244 
2.460000000000767, -0.9916104988783196 
2.470000000000788, -0.9915230073108531 
2.480000000000809, -0.9914371599570427 
2.49000000000083, -0.9912139614377267 
2.5000000000008513, -0.9912089790458501 
2.5100000000008724, -0.9910358949355252 
2.5200000000008935, -0.9909245597468163 
2.5300000000009146, -0.9909140794096423 
2.5400000000009357, -0.9906876428272703 
2.550000000000957, -0.9907085889880176 
2.560000000000978, -0.9906119536411354 
2.570000000000999, -0.9904654609292146 
2.58000000000102, -0.9905351269290746 
2.5900000000010412, -0.9903355789971734 
2.6000000000010624, -0.9903577245461971 
2.6100000000010835, -0.9903608455734546 
2.6200000000011046, -0.9901778286463709 
2.6300000000011257, -0.9903242667481599 
2.6400000000011468, -0.9901911657072482 
2.650000000001168, -0.9901842321110754 
2.660000000001189, -0.9903103080281301 
2.67000000000121, -0.9901076353441725 
2.680000000001231, -0.9903101406416958 
2.6900000000012523, -0.9902859694200858 
2.7000000000012734, -0.9902233115028076 
2.7100000000012945, -0.990491528050102 
2.7200000000013156, -0.9903110682126567 
2.7300000000013367, -0.9905255354590949 
2.740000000001358, -0.9906549279855698 
2.750000000001379, -0.9905238563184136 
2.7600000000014, -0.9909354206156938 
2.770000000001421, -0.9908369135887005 
2.780000000001442, -0.9910059501849782 
2.7900000000014633, -0.9913351911294448 
2.8000000000014844, -0.9911535676426702 
2.8100000000015055, -0.9916689324780055 
2.8200000000015266, -0.991718518622661 
2.8300000000015477, -0.9917899746085818 
2.840000000001569, -0.9923544705322538 
2.85000000000159, -0.9921791653533311 
2.860000000001611, -0.99271076729569 
2.870000000001632, -0.9929762082724425 
2.8800000000016532, -0.9929232583137997 
2.8900000000016743, -0.9937145098735171 
2.9000000000016954, -0.9936232869062814 
2.9100000000017165, -0.9940658982156075 
2.9200000000017377, -0.9946051547680769 
2.9300000000017588, -0.9944509250379526 
2.94000000000178, -0.9953786643093934 
2.950000000001801, -0.9954502008909817 
2.960000000001822, -0.9957216159235355 
2.970000000001843, -0.9965528564302092 
2.9800000000018643, -0.9963693136087356 
2.9900000000018854, -0.9972738218793753 
3.0000000000019065, -0.9975739570857757 
3.0100000000019276, -0.9976447878463327 
3.0200000000019487, -0.9987060212820137 
3.03000000000197, -0.998576361470082 
3.040000000001991, -0.9993047579044106 
3.050000000002012, -0.9998601888655398 
3.060000000002033, -0.9997675108541809 
3.070000000002054, -1.0009049718249508 
3.0800000000020753, -1.0008962706878797 
3.0900000000020964, -1.001366712040245 
3.1000000000021175, -1.0021391185915502 
3.1100000000021386, -1.0019632046169098 
3.1200000000021597, -1.0029893645433192 
3.130000000002181, -1.0031398720918279 
3.140000000002202, -1.0033515263831414 
3.150000000002223, -1.0042390227597362 
3.160000000002244, -1.0040592556091346 
3.1700000000022652, -1.004843283242869 
3.1800000000022863, -1.0051472771946133 
3.1900000000023074, -1.0051549576730638 
3.2000000000023285, -1.0060261727569613 
3.2100000000023496, -1.0058972533113473 
3.2200000000023707, -1.0064023547913123 
3.230000000002392, -1.0068113099007179 
3.240000000002413, -1.0066898885387012 
3.250000000002434, -1.0074320682048479 
3.260000000002455, -1.007380248717553 
3.2700000000024763, -1.007637133371017 
3.2800000000024974, -1.0080830589101795 
3.2900000000025185, -1.0079005293096468 
3.3000000000025396, -1.0084530590310965 
3.3100000000025607, -1.0084766533812235 
3.3200000000025818, -1.0085424196825257 
3.330000000002603, -1.0089623808980481 
3.340000000002624, -1.0087683945134398 
3.350000000002645, -1.0091239165626487 
3.360000000002666, -1.0092005463400269 
3.3700000000026873, -1.0091328284538434 
3.3800000000027084, -1.0094821719543543 
3.3900000000027295, -1.0093066571126161 
3.4000000000027506, -1.009489649031632 
3.4100000000027717, -1.0095897767920508 
3.420000000002793, -1.0094369039967506 
3.430000000002814, -1.0096927585824513 
3.440000000002835, -1.0095478778609137 
3.450000000002856, -1.0095928863600123 
3.460000000002877, -1.0096902997206247 
3.4700000000028983, -1.0094897834340244 
3.4800000000029194, -1.0096478201448653 
3.4900000000029405, -1.0095320978785711 
3.5000000000029616, -1.00947187761734 
3.5100000000029827, -1.0095476689240586 
3.520000000003004, -1.0093271206900194 
3.530000000003025, -1.0093942461113792 
3.540000000003046, -1.0092988830067509 
3.550000000003067, -1.0091607674151548 
3.5600000000030882, -1.0092035961436048 
3.5700000000031094, -1.0089814937863388 
3.5800000000031305, -1.0089687462771273 
3.5900000000031516, -1.0088834595993228 
3.6000000000031727, -1.008689687560352 
3.6100000000031938, -1.008694622636869 
3.620000000003215, -1.008481028224841 
3.630000000003236, -1.0083994659054711 
3.640000000003257, -1.0083157189468002 
3.650000000003278, -1.0080847755925275 
3.6600000000032993, -1.0080510921904315 
3.6700000000033204, -1.0078494313592152 
3.6800000000033415, -1.0077088954114661 
3.6900000000033626, -1.0076208280833556 
3.7000000000033837, -1.0073683296008658 
3.710000000003405, -1.0072967784563474 
3.720000000003426, -1.007106684180384 
3.730000000003447, -1.006916192253084 
3.740000000003468, -1.0068203702229626 
3.750000000003489, -1.0065591127076654 
3.7600000000035103, -1.0064499297696812 
3.7700000000035314, -1.0062699173835048 
3.7800000000035525, -1.006038620633607 
3.7900000000035736, -1.0059331266302305 
3.8000000000035947, -1.0056728080123656 
3.810000000003616, -1.005525316466233 
3.820000000003637, -1.0053542874555101 
3.830000000003658, -1.0050922686229433 
3.840000000003679, -1.0049752575351165 
3.8500000000037002, -1.0047226741983455 
3.8600000000037213, -1.0045363178832236 
3.8700000000037424, -1.0043737977107214 
3.8800000000037635, -1.0040922328286677 
3.8900000000037847, -1.0039604823179555 
3.9000000000038058, -1.0037203960473764 
3.910000000003827, -1.003496397760542 
3.920000000003848, -1.0033419152884526 
3.930000000003869, -1.0030524801138436 
3.94000000000389, -1.0029008834800373 
3.9500000000039113, -1.002676964735503 
3.9600000000039324, -1.0024197611581027 
3.9700000000039535, -1.0022717466018263 
3.9800000000039746, -1.0019856306449058 
3.9900000000039957, -1.0018082163618411 
4.000000000004016, -1.0016033652971166 
4.010000000003993, -1.0013212138627998 
4.02000000000397, -1.001175830837024 
4.030000000003946, -1.0009029101094074 
4.040000000003923, -1.0006950780034614 
4.0500000000039, -1.000510970628113 
4.0600000000038765, -1.0002154318469643 
4.070000000003853, -1.0000660731005717 
4.08000000000383, -0.9998144830043235 
4.090000000003807, -0.9995754420994324 
4.100000000003783, -0.9994116280335679 
4.11000000000376, -0.9991161364067872 
4.120000000003737, -0.9989542223335404 
4.130000000003713, -0.9987301244559601 
4.14000000000369, -0.9984644265355748 
4.150000000003667, -0.9983174284974402 
4.1600000000036434, -0.9980355444562499 
4.17000000000362, -0.9978526482432992 
4.180000000003597, -0.997659855541366 
4.1900000000035735, -0.9973773771762255 
4.20000000000355, -0.9972403450346956 
4.210000000003527, -0.9969841588781042 
4.220000000003504, -0.996774879998127 
4.23000000000348, -0.9966142688470371 
4.240000000003457, -0.9963288815646515 
4.250000000003434, -0.9961921773370493 
4.26000000000341, -0.995971193931526 
4.270000000003387, -0.9957356358938361 
4.280000000003364, -0.995604594261248 
4.2900000000033405, -0.9953323477423572 
4.300000000003317, -0.9951850149652347 
4.310000000003294, -0.9950056545169685 
4.320000000003271, -0.994750347812133 
4.330000000003247, -0.9946426214164907 
4.340000000003224, -0.9943996763994939 
4.350000000003201, -0.9942319476846714 
4.360000000003177, -0.9940973268098948 
4.370000000003154, -0.9938347822893039 
4.380000000003131, -0.9937406533945611 
4.390000000003107, -0.9935411543909157 
4.400000000003084, -0.9933476607023758 
4.410000000003061, -0.9932573255514927 
4.4200000000030375, -0.9930053787322294 
4.430000000003014, -0.9929118101047729 
4.440000000002991, -0.9927668127605955 
4.450000000002968, -0.9925488786864052 
4.460000000002944, -0.9924985166769098 
4.470000000002921, -0.9922788171074453 
4.480000000002898, -0.9921708289994124 
4.490000000002874, -0.9920884035936145 
4.500000000002851, -0.9918553957505786 
4.510000000002828, -0.991835937920041 
4.520000000002804, -0.9916705706888564 
4.530000000002781, -0.9915352191318383 
4.540000000002758, -0.9915203792370215 
4.5500000000027345, -0.9912918292884895 
4.560000000002711, -0.9912871705288442 
4.570000000002688, -0.9911962138051791 
4.580000000002665, -0.9910269391635629 
4.590000000002641, -0.9910803141831992 
4.600000000002618, -0.9908862908749624 
4.610000000002595, -0.9908729098238568 
4.620000000002571, -0.9908748096623178 
4.630000000002548, -0.9906757157685773 
4.640000000002525, -0.9907895749298127 
4.6500000000025015, -0.9906655650792993 
4.660000000002478, -0.9906181800758336 
4.670000000002455, -0.9907298611428118 
4.6800000000024315, -0.9905226146347537 
4.690000000002408, -0.9906737804237129 
4.700000000002385, -0.9906558089621341 
4.710000000002362, -0.9905551959021118 
4.720000000002338, -0.9907877613642455 
4.730000000002315, -0.9906147510060915 
4.740000000002292, -0.990762426288167 
4.750000000002268, -0.9908873076255779 
4.760000000002245, -0.9907293692285627 
4.770000000002222, -0.9910759924745031 
4.7800000000021985, -0.9909918948607803 
4.790000000002175, -0.9910884601019321 
4.800000000002152, -0.9913927509839315 
4.810000000002129, -0.9912023811563344 
4.820000000002105, -0.9916214618151465 
4.830000000002082, -0.9916844137797861 
4.840000000002059, -0.9916902984458782 
4.850000000002035, -0.9921982471242656 
4.860000000002012, -0.992033007614364 
4.870000000001989, -0.992447418111991 
4.880000000001965, -0.9927161212294772 
4.890000000001942, -0.9926168783264003 
4.900000000001919, -0.9933119331229217 
4.9100000000018955, -0.9932450460581506 
4.920000000001872, -0.9935689162227584 
