t, s[1].omega / s[0].omega 
0, -1.8599846538094524 
0.009999999999999995, -1.85800044532449 
0.019999999999999934, -1.8549141080722733 
0.029999999999999874, -1.8504478819727157 
0.04000000000000012, -1.844850519040125 
0.050000000000000405, -1.8397780872216547 
0.06000000000000069, -1.8374622114534191 
0.07000000000000098, -1.837695533232342 
0.08000000000000126, -1.8385664246318054 
0.09000000000000155, -1.8390684153211745 
0.10000000000000184, -1.8390719410615497 
0.11000000000000212, -1.83863472934931 
0.12000000000000241, -1.8377970838424411 
0.130000000000002, -1.8367415365972763 
0.1400000000000009, -1.836206383799801 
0.1499999999999998, -1.8373285607614196 
0.1599999999999987, -1.8401246635656445 
0.1699999999999976, -1.8432822590063396 
0.1799999999999965, -1.8458064016094202 
0.1899999999999954, -1.8474752766864142 
0.1999999999999943, -1.848389879968207 
0.2099999999999932, -1.8486849645747694 
0.2199999999999921, -1.8484500318391437 
0.229999999999991, -1.8477205406721935 
0.2399999999999899, -1.8464863032323435 
0.2499999999999888, -1.8447145230934776 
0.2599999999999877, -1.8424211319501087 
0.2699999999999866, -1.8398614681339975 
0.2799999999999855, -1.8377283947894643 
0.2899999999999844, -1.836718997695307 
0.2999999999999833, -1.8366643043303217 
0.3099999999999822, -1.8368475685254766 
0.3199999999999811, -1.836814260182549 
0.32999999999998, -1.8363982997947612 
0.3399999999999789, -1.835464314437673 
0.3499999999999778, -1.8338156798946599 
0.35999999999997667, -1.8315439554738326 
0.36999999999997557, -1.8302829364708821 
0.37999999999997447, -1.8333307320468353 
0.38999999999997337, -1.840729750980471 
0.39999999999997227, -1.8484179465566721 
0.40999999999997117, -1.8539363631706849 
0.41999999999997006, -1.8572534241978498 
0.42999999999996896, -1.85900778215233 
0.43999999999996786, -1.8597392722353363 
0.44999999999996676, -1.8597898961913906 
0.45999999999996566, -1.8593569015135987 
0.46999999999996456, -1.8585561511278434 
0.47999999999996346, -1.8574758157446225 
0.48999999999996235, -1.8562233430693909 
0.49999999999996125, -1.8549909150967463 
0.5099999999999602, -1.8540814005680797 
0.519999999999959, -1.853680074332947 
0.529999999999958, -1.8536026087505888 
0.5399999999999568, -1.8535012206223969 
0.5499999999999557, -1.8531188340203968 
0.5599999999999546, -1.8522247632250006 
0.5699999999999535, -1.8504115788540314 
0.5799999999999524, -1.8469414219086295 
0.5899999999999513, -1.8413264351987368 
0.5999999999999502, -1.8366466597464641 
0.6099999999999491, -1.8413330869556486 
0.619999999999948, -1.8554879564858517 
0.6299999999999469, -1.8688726078822988 
0.6399999999999458, -1.8770935288439254 
0.6499999999999447, -1.8812949166474602 
0.6599999999999436, -1.8831974586838283 
0.6699999999999425, -1.883863434870202 
0.6799999999999414, -1.8838403953918985 
0.6899999999999403, -1.8834084335431975 
0.6999999999999392, -1.8827428526289929 
0.7099999999999381, -1.8819917689371621 
0.719999999999937, -1.8812820484684418 
0.7299999999999359, -1.880726451473508 
0.7399999999999348, -1.880414652523901 
0.7499999999999337, -1.8802997040347507 
0.7599999999999326, -1.880179189631295 
0.7699999999999315, -1.879824243035788 
0.7799999999999304, -1.8789889029310793 
0.7899999999999293, -1.8772373030007068 
0.7999999999999282, -1.87362863669021 
0.8099999999999271, -1.866420499765302 
0.819999999999926, -1.8544495007069788 
0.8299999999999249, -1.844090182849533 
0.8399999999999238, -1.8487499941708474 
0.8499999999999227, -1.8638572431077063 
0.8599999999999216, -1.875807215577252 
0.8699999999999205, -1.882063699557459 
0.8799999999999194, -1.8848331763811668 
0.8899999999999183, -1.8858643039061598 
0.8999999999999172, -1.8860291990606186 
0.9099999999999161, -1.8857333270719714 
0.919999999999915, -1.8852092822738864 
0.9299999999999139, -1.884659686103055 
0.9399999999999128, -1.8842455391468562 
0.9499999999999117, -1.8840151316002285 
0.9599999999999106, -1.883939300579217 
0.9699999999999095, -1.8839474305381039 
0.9799999999999084, -1.8839027395320354 
0.9899999999999073, -1.883629946432072 
0.9999999999999062, -1.8829211569367146 
1.0099999999999052, -1.8814269220273914 
1.019999999999904, -1.878424622583471 
1.029999999999903, -1.8724632595311745 
1.039999999999902, -1.8613183951344745 
1.0499999999999008, -1.8447491894084103 
1.0599999999998997, -1.8317301389580727 
1.0699999999998986, -1.832917722286196 
1.0799999999998975, -1.8412658523241572 
1.0899999999998964, -1.8475368619183907 
1.0999999999998953, -1.8506527868710574 
1.1099999999998942, -1.8518977431853627 
1.119999999999893, -1.8521852781378896 
1.129999999999892, -1.8519625252270657 
1.1399999999998909, -1.8514758762825978 
1.1499999999998898, -1.8509703305349496 
1.1599999999998887, -1.8507204632631473 
1.1699999999998876, -1.850837179164158 
1.1799999999998865, -1.851181667733805 
1.1899999999998854, -1.8515558723115852 
1.1999999999998843, -1.851814320183499 
1.2099999999998832, -1.8518386898800632 
1.219999999999882, -1.8515081467260663 
1.229999999999881, -1.8506566218432081 
1.2399999999998799, -1.8489965233963304 
1.2499999999998788, -1.8460153153621701 
1.2599999999998777, -1.8408836901937449 
1.2699999999998766, -1.8326452910845663 
1.2799999999998755, -1.821602613996547 
1.2899999999998744, -1.811945325845614 
1.2999999999998733, -1.8089168094186294 
1.3099999999998722, -1.8108245926700186 
1.319999999999871, -1.8131934722427274 
1.32999999999987, -1.8145260678218427 
1.3399999999998689, -1.8149784755035643 
1.3499999999998678, -1.8148634432028856 
1.3599999999998666, -1.8143692868441839 
1.3699999999998655, -1.8136761903558256 
1.3799999999998644, -1.8131666605227867 
1.3899999999998633, -1.813393068002841 
1.3999999999998622, -1.8144982618044174 
1.4099999999998611, -1.8159861910730288 
1.41999999999986, -1.8173216026618406 
1.429999999999859, -1.8182678743472738 
1.4399999999998578, -1.8187714089795848 
1.4499999999998567, -1.8188248710400292 
1.4599999999998556, -1.8184069453292022 
1.4699999999998545, -1.817456002964521 
1.4799999999998534, -1.815856012973801 
1.4899999999998523, -1.813438185386523 
1.4999999999998512, -1.810046856070954 
1.5099999999998501, -1.805812653911436 
1.519999999999849, -1.801677869616561 
1.529999999999848, -1.799213194247266 
1.5399999999998468, -1.7988199688423656 
1.5499999999998457, -1.7993239547548847 
1.5599999999998446, -1.799725378631194 
1.5699999999998435, -1.799732502459276 
1.5799999999998424, -1.7993154366644561 
1.5899999999998413, -1.798440321605503 
1.5999999999998402, -1.797120070015615 
1.6099999999998391, -1.795867690504264 
1.619999999999838, -1.7962388914496497 
1.629999999999837, -1.7995100030845124 
1.6399999999998358, -1.8044537018289564 
1.6499999999998347, -1.8089633213249219 
1.6599999999998336, -1.812176190977561 
1.6699999999998325, -1.8141580296610011 
1.6799999999998314, -1.815195117292855 
1.6899999999998303, -1.8155308722113834 
1.6999999999998292, -1.8153260122243484 
1.709999999999828, -1.8146741533766249 
1.719999999999827, -1.8136285621373887 
1.729999999999826, -1.812237057979545 
1.7399999999998248, -1.810600527570984 
1.7499999999998237, -1.8089760899315266 
1.7599999999998226, -1.8077930905726745 
1.7699999999998215, -1.8073029280351214 
1.7799999999998204, -1.807260195028988 
1.7899999999998193, -1.8072367576987953 
1.7999999999998182, -1.80695667256455 
1.809999999999817, -1.806230703820488 
1.819999999999816, -1.8047656913919248 
1.8299999999998149, -1.802055422132392 
1.8399999999998138, -1.7978170162471567 
1.8499999999998127, -1.794272920928601 
1.8599999999998116, -1.7977860422859604 
1.8699999999998105, -1.8097879795630392 
1.8799999999998094, -1.8225743736370241 
1.8899999999998083, -1.8312669489497808 
1.8999999999998072, -1.8360955933598462 
1.909999999999806, -1.8384796901567229 
1.919999999999805, -1.839467312772917 
1.9299999999998039, -1.8396530027780233 
1.9399999999998028, -1.8393528763830613 
1.9499999999998017, -1.838751119650325 
1.9599999999998006, -1.8379908276302868 
1.9699999999997995, -1.83720356933262 
1.9799999999997984, -1.8365107271533812 
1.9899999999997973, -1.8360329256837555 
1.9999999999997962, -1.835816201413697 
2.0099999999998173, -1.835730373531089 
2.0199999999998384, -1.8355487721328991 
2.0299999999998595, -1.835053559977461 
2.0399999999998806, -1.8339686364379084 
2.0499999999999017, -1.8317480753596265 
2.059999999999923, -1.8272462971418029 
2.069999999999944, -1.8185978086927015 
2.079999999999965, -1.8055488755305364 
2.089999999999986, -1.7966856931905788 
2.100000000000007, -1.8035127841061125 
2.1100000000000283, -1.8182608922518237 
2.1200000000000494, -1.829132790366312 
2.1300000000000705, -1.8347536526157995 
2.1400000000000916, -1.837242174628545 
2.1500000000001127, -1.8381573894614516 
2.160000000000134, -1.8382764657047137 
2.170000000000155, -1.8379674647656632 
2.180000000000176, -1.8374531264326717 
2.190000000000197, -1.8369415977496266 
2.2000000000002182, -1.8366035106536258 
2.2100000000002393, -1.8364786111543405 
2.2200000000002604, -1.8365053553591941 
2.2300000000002815, -1.8365921084504362 
2.2400000000003026, -1.8366129973881016 
2.2500000000003237, -1.8364163035536347 
2.260000000000345, -1.8358272034231138 
2.270000000000366, -1.8345752337789218 
2.280000000000387, -1.832143542876712 
2.290000000000408, -1.8275450228820653 
2.3000000000004293, -1.8191739323773182 
2.3100000000004504, -1.8057220467721629 
2.3200000000004715, -1.7902818222317165 
2.3300000000004926, -1.782416280222818 
2.3400000000005137, -1.784871586457862 
2.3500000000005348, -1.7899933740240652 
2.360000000000556, -1.793368071144932 
2.370000000000577, -1.7949467686252354 
2.380000000000598, -1.7954594401199173 
2.390000000000619, -1.795374097429578 
2.4000000000006403, -1.7949357563742177 
2.4100000000006614, -1.7943548377363225 
2.4200000000006825, -1.7939571412973065 
2.4300000000007036, -1.794083140084203 
2.4400000000007247, -1.7947404668042235 
2.450000000000746, -1.7956065922104254 
2.460000000000767, -1.7963781717501952 
2.470000000000788, -1.7968976796036653 
2.480000000000809, -1.7970860317536084 
2.49000000000083, -1.7968799029142535 
2.5000000000008513, -1.7961921439574584 
2.5100000000008724, -1.7948785859206136 
2.5200000000008935, -1.7927104718991096 
2.5300000000009146, -1.789370139360471 
2.5400000000009357, -1.7845626942450163 
2.550000000000957, -1.7784985538146043 
2.560000000000978, -1.772753543640246 
2.570000000000999, -1.7697054908793857 
2.58000000000102, -1.7695807640835466 
2.5900000000010412, -1.7704888049861716 
2.6000000000010624, -1.7711571527341063 
2.6100000000010835, -1.7713278356409252 
2.6200000000011046, -1.7710490718790504 
2.6300000000011257, -1.7703584959899037 
2.6400000000011468, -1.7693178767730415 
2.650000000001168, -1.768330405849845 
2.660000000001189, -1.7684796968327468 
2.67000000000121, -1.7707016694431352 
2.680000000001231, -1.774308752910531 
2.6900000000012523, -1.7778268150891674 
2.7000000000012734, -1.7804888713095361 
2.7100000000012945, -1.782218663799568 
2.7200000000013156, -1.7831664146156547 
2.7300000000013367, -1.783488376578303 
2.740000000001358, -1.7832941977262107 
2.750000000001379, -1.7826462977399196 
2.7600000000014, -1.7815734591214043 
2.770000000001421, -1.780095856441978 
2.780000000001442, -1.7782770691838485 
2.7900000000014633, -1.7763331269749325 
2.8000000000014844, -1.7747220289984313 
2.8100000000015055, -1.7738808105062003 
2.8200000000015266, -1.773725237224804 
2.8300000000015477, -1.7737803029189898 
2.840000000001569, -1.7736750776469095 
2.85000000000159, -1.7732177280134653 
2.860000000001611, -1.7722137301837928 
2.870000000001632, -1.7703133966856235 
2.8800000000016532, -1.7670920323830515 
2.8900000000016743, -1.763144833641808 
2.9000000000016954, -1.7625889642377133 
2.9100000000017165, -1.7704023252259997 
2.9200000000017377, -1.783194286599435 
2.9300000000017588, -1.7940401456998187 
2.94000000000178, -1.8008456718407093 
2.950000000001801, -1.804534445289893 
2.960000000001822, -1.8063120816458986 
2.970000000001843, -1.8069789722684635 
2.9800000000018643, -1.806986001297935 
2.9900000000018854, -1.8065812847673377 
3.0000000000019065, -1.805924104469021 
3.0100000000019276, -1.8051510476445685 
3.0200000000019487, -1.8043887331657964 
3.03000000000197, -1.8037540238289171 
3.040000000001991, -1.80335203414938 
3.050000000002012, -1.8031884904675575 
3.060000000002033, -1.8031070296927936 
3.070000000002054, -1.8028894132751514 
3.0800000000020753, -1.802325854615218 
3.0900000000020964, -1.8011248236283173 
3.1000000000021175, -1.7986983266949703 
3.1100000000021386, -1.793834287051623 
3.1200000000021597, -1.7845867567268177 
3.130000000002181, -1.7705081518421 
3.140000000002202, -1.7595657637872701 
3.150000000002223, -1.7636379435101044 
3.160000000002244, -1.7769214218548677 
3.1700000000022652, -1.7875493906574653 
3.1800000000022863, -1.793252386357602 
3.1900000000023074, -1.7958329452236832 
3.2000000000023285, -1.7968120603033384 
3.2100000000023496, -1.7969763536451573 
3.2200000000023707, -1.7967003360493858 
3.230000000002392, -1.7962070897411326 
3.240000000002413, -1.7957138557962407 
3.250000000002434, -1.795425073754656 
3.260000000002455, -1.7954046041682559 
3.2700000000024763, -1.7955637022524926 
3.2800000000024974, -1.7957765728421393 
3.2900000000025185, -1.7959201921991377 
3.3000000000025396, -1.7958659944553563 
3.3100000000025607, -1.795476440516429 
3.3200000000025818, -1.794565927179418 
3.330000000002603, -1.7928173141724457 
3.340000000002624, -1.78966726068127 
3.350000000002645, -1.7842027230684316 
3.360000000002666, -1.7753416505852002 
3.3700000000026873, -1.7632072206009475 
3.3800000000027084, -1.7519296211911943 
3.3900000000027295, -1.7475426278814836 
3.4000000000027506, -1.7492540051637353 
3.4100000000027717, -1.7520757448842859 
3.420000000002793, -1.7538550274313782 
3.430000000002814, -1.7546071598059434 
3.440000000002835, -1.7546933580552129 
3.450000000002856, -1.7543454939016514 
3.460000000002877, -1.753714131441632 
3.4700000000028983, -1.753051003796336 
3.4800000000029194, -1.752853101482089 
3.4900000000029405, -1.7535696527911289 
3.5000000000029616, -1.7550373960530528 
3.5100000000029827, -1.7566634607992835 
3.520000000003004, -1.7580146578754878 
3.530000000003025, -1.7589359171246257 
3.540000000003046, -1.7594039739638716 
3.550000000003067, -1.7594238160565645 
3.5600000000030882, -1.7589866635948816 
3.5700000000031094, -1.758053737777961 
3.5800000000031305, -1.7565517185630952 
3.5900000000031516, -1.7543843748405337 
3.6000000000031727, -1.7514954124437527 
3.6100000000031938, -1.7480648510250443 
3.620000000003215, -1.7448144981645792 
3.630000000003236, -1.7428096785402107 
3.640000000003257, -1.742333477883065 
3.650000000003278, -1.7426035429511326 
3.6600000000032993, -1.7428541147607433 
3.6700000000033204, -1.7427891970176372 
3.6800000000033415, -1.7423221940482936 
3.6900000000033626, -1.7413495382543822 
3.7000000000033837, -1.7397352620466193 
3.710000000003405, -1.7376958748440239 
3.720000000003426, -1.7368269562854723 
3.730000000003447, -1.7399246091572422 
3.740000000003468, -1.7470563128584238 
3.750000000003489, -1.7548066585473747 
3.7600000000035103, -1.760737430588111 
3.7700000000035314, -1.7645382978091124 
3.7800000000035525, -1.766704829215359 
3.7900000000035736, -1.7677558764957055 
3.8000000000035947, -1.7680585306767138 
3.810000000003616, -1.7678436045804535 
3.820000000003637, -1.7672545354634892 
3.830000000003658, -1.7663960618241987 
3.840000000003679, -1.765371581431938 
3.8500000000037002, -1.7643094795537209 
3.8600000000037213, -1.7633914180428718 
3.8700000000037424, -1.7628101859586665 
3.8800000000037635, -1.7625881909484484 
3.8900000000037847, -1.7625156926410281 
3.9000000000038058, -1.762332227964532 
3.910000000003827, -1.7618268864887985 
3.920000000003848, -1.7607411518756915 
3.930000000003869, -1.758568687889343 
3.94000000000389, -1.7542990479805631 
3.9500000000039113, -1.74649557836244 
3.9600000000039324, -1.7356955030871273 
3.9700000000039535, -1.730083298429094 
3.9800000000039746, -1.7389301932254935 
3.9900000000039957, -1.7548771984707554 
4.000000000004016, -1.7670011633394194 
4.010000000003993, -1.773616207873168 
4.02000000000397, -1.7767274170062257 
4.030000000003946, -1.7780031078292058 
4.040000000003923, -1.7783349973058562 
4.0500000000039, -1.7781552462076031 
4.0600000000038765, -1.7776998066045522 
4.070000000003853, -1.777162500127331 
4.08000000000383, -1.7767310897259427 
4.090000000003807, -1.776509334667459 
4.100000000003783, -1.7764782735239666 
4.11000000000376, -1.7765614898459474 
4.120000000003737, -1.7766545100392048 
4.130000000003713, -1.7766226653228911 
4.14000000000369, -1.7763185990910533 
4.150000000003667, -1.775562344681628 
4.1600000000036434, -1.7740585946949028 
4.17000000000362, -1.771264541140399 
4.180000000003597, -1.7662310446214875 
4.1900000000035735, -1.7576144035786836 
4.20000000000355, -1.7447240722553121 
4.210000000003527, -1.7307525573484561 
4.220000000003504, -1.7232869594350706 
4.23000000000348, -1.724302101861389 
4.240000000003457, -1.7280413779922856 
4.250000000003434, -1.730758727129216 
4.26000000000341, -1.732095500561884 
4.270000000003387, -1.732526154735244 
4.280000000003364, -1.7324081122185313 
4.2900000000033405, -1.7319356134032582 
4.300000000003317, -1.7312864176718772 
4.310000000003294, -1.7307998419826827 
4.320000000003271, -1.730954324635795 
4.330000000003247, -1.7319234393891167 
4.340000000003224, -1.7333357803852736 
4.350000000003201, -1.7347015110601594 
4.360000000003177, -1.7357527945769504 
4.370000000003154, -1.7364033125858462 
4.380000000003131, -1.7366342878309702 
4.390000000003107, -1.7364339533643005 
4.400000000003084, -1.7357713990936188 
4.410000000003061, -1.7345852223298066 
4.4200000000030375, -1.7327829772467946 
4.430000000003014, -1.730265014175266 
4.440000000002991, -1.7270243831446492 
4.450000000002968, -1.723402099031209 
4.460000000002944, -1.720324929432896 
4.470000000002921, -1.7187594275992502 
4.480000000002898, -1.7185950093345403 
4.490000000002874, -1.7189266689739764 
4.500000000002851, -1.7191207822992882 
4.510000000002828, -1.7189721316905158 
4.520000000002804, -1.7184070987941045 
4.530000000002781, -1.7173080118962882 
4.540000000002758, -1.7155507288720613 
4.5500000000027345, -1.7134926203275112 
4.560000000002711, -1.7130314242643458 
4.570000000002688, -1.7169284475202218 
4.580000000002665, -1.7246737232795855 
4.590000000002641, -1.732657329055281 
4.600000000002618, -1.7386377053746735 
4.610000000002595, -1.742437226687731 
4.620000000002571, -1.7445918896587718 
4.630000000002548, -1.745632002485991 
4.640000000002525, -1.7459298550332711 
4.6500000000025015, -1.7457200924345284 
4.660000000002478, -1.7451504740776091 
4.670000000002455, -1.7443315298988065 
4.6800000000024315, -1.7433719967114656 
4.690000000002408, -1.7423973583665966 
4.700000000002385, -1.741567484447937 
4.710000000002362, -1.7410421439157702 
4.720000000002338, -1.7408349510432615 
4.730000000002315, -1.740758991615729 
4.740000000002292, -1.7405744823147085 
4.750000000002268, -1.7400770984987837 
4.760000000002245, -1.739013403447593 
4.770000000002222, -1.736892295049754 
4.7800000000021985, -1.7327145011352212 
4.790000000002175, -1.7248527017359652 
4.800000000002152, -1.7126207108668805 
4.810000000002129, -1.7018763213883503 
4.820000000002105, -1.7042127423675588 
4.830000000002082, -1.7178529303472245 
4.840000000002059, -1.7306687709117523 
4.850000000002035, -1.7382466504841976 
4.860000000002012, -1.7419375652643936 
4.870000000001989, -1.743516370078441 
4.880000000001965, -1.74401379052938 
4.890000000001942, -1.743933531435162 
4.900000000001919, -1.7435353213535074 
4.9100000000018955, -1.7430183244752837 
4.920000000001872, -1.7425981535212514 
4.930000000001849, -1.7424356472431846 
4.940000000001826, -1.7425287971314005 
