t, s[1].omega / s[0].omega 
0, -0.33999780342136277 
0.009999999999999995, -0.33991100799736557 
0.019999999999999934, -0.3400630208937886 
0.029999999999999874, -0.3403850676605978 
0.04000000000000012, -0.34077761291629177 
0.050000000000000405, -0.34113538808248667 
0.06000000000000069, -0.34137390817260704 
0.07000000000000098, -0.3414423954385689 
0.08000000000000126, -0.34131807035976724 
0.09000000000000155, -0.3409890914043122 
0.10000000000000184, -0.34043461303863387 
0.11000000000000212, -0.3396029350478408 
0.12000000000000241, -0.3383790939224952 
0.130000000000002, -0.3365201362795073 
0.1400000000000009, -0.3335101985924286 
0.1499999999999998, -0.3282408186073731 
0.1599999999999987, -0.3184195178781276 
0.1699999999999976, -0.30008234593110894 
0.1799999999999965, -0.2693650994249318 
0.1899999999999954, -0.2286650950213934 
0.1999999999999943, -0.18878573111385566 
0.2099999999999932, -0.15870863351255518 
0.2199999999999921, -0.1392820226774191 
0.229999999999991, -0.127430060884098 
0.2399999999999899, -0.12019346105816212 
0.2499999999999888, -0.11565757989701766 
0.2599999999999877, -0.11271729290685459 
0.2699999999999866, -0.1107505962486092 
0.2799999999999855, -0.1094076656517178 
0.2899999999999844, -0.10849523550142337 
0.2999999999999833, -0.10791743937026728 
0.3099999999999822, -0.10764949118684078 
0.3199999999999811, -0.10773426059679925 
0.32999999999998, -0.10830213189080458 
0.3399999999999789, -0.10962563499428155 
0.3499999999999778, -0.112237209421156 
0.35999999999997667, -0.11716110708221254 
0.36999999999997557, -0.1262863258490508 
0.37999999999997447, -0.14245062287367688 
0.38999999999997337, -0.16619575077851756 
0.39999999999997227, -0.1802221938869913 
0.40999999999997117, -0.13461109048113234 
0.41999999999997006, -0.02223653313793496 
0.42999999999996896, 0.07408724775176401 
0.43999999999996786, 0.1238140017549898 
0.44999999999996676, 0.14626476862405013 
0.45999999999996566, 0.15670204866084592 
0.46999999999996456, 0.16186397010813172 
0.47999999999996346, 0.1645340562607805 
0.48999999999996235, 0.1659173646401276 
0.49999999999996125, 0.16656766417866115 
0.5099999999999602, 0.16674579023588573 
0.519999999999959, 0.1665631666321363 
0.529999999999958, 0.16603914824660362 
0.5399999999999568, 0.16512236466636968 
0.5499999999999557, 0.16371078759334126 
0.5599999999999546, 0.16175709571672847 
0.5699999999999535, 0.15978710527718953 
0.5799999999999524, 0.1607983023875733 
0.5899999999999513, 0.17385128232135585 
0.5999999999999502, 0.20877235123298163 
0.6099999999999491, 0.25315853836719915 
0.619999999999948, 0.28501397995864275 
0.6299999999999469, 0.3019412752307847 
0.6399999999999458, 0.310190126586002 
0.6499999999999447, 0.31420843769057105 
0.6599999999999436, 0.31616509292490913 
0.6699999999999425, 0.3170624338937157 
0.6799999999999414, 0.3173882198331279 
0.6899999999999403, 0.31740663552506954 
0.6999999999999392, 0.3172826612355451 
0.7099999999999381, 0.3171359196399056 
0.719999999999937, 0.3170663863759396 
0.7299999999999359, 0.31717015124195186 
0.7399999999999348, 0.3175498600329163 
0.7499999999999337, 0.31831375159039077 
0.7599999999999326, 0.31954892392674833 
0.7699999999999315, 0.32125977487644625 
0.7799999999999304, 0.3233005778878823 
0.7899999999999293, 0.3253791081255161 
0.7999999999999282, 0.3271694750467198 
0.8099999999999271, 0.3284437846705154 
0.819999999999926, 0.3291052875739542 
0.8299999999999249, 0.3291238652106708 
0.8399999999999238, 0.32844825683161566 
0.8499999999999227, 0.3269440199383846 
0.8599999999999216, 0.3243823832953325 
0.8699999999999205, 0.32053341156084303 
0.8799999999999194, 0.3154299784725957 
0.8899999999999183, 0.30967310696538836 
0.8999999999999172, 0.30430832669768776 
0.9099999999999161, 0.30015530818407005 
0.919999999999915, 0.2973663386709197 
0.9299999999999139, 0.2956346927572029 
0.9399999999999128, 0.29457084066193306 
0.9499999999999117, 0.2938765728673586 
0.9599999999999106, 0.2933548918340766 
0.9699999999999095, 0.29286900068531774 
0.9799999999999084, 0.29229928452044784 
0.9899999999999073, 0.2915024918380854 
0.9999999999999062, 0.2902575714437706 
1.0099999999999052, 0.2881617152078653 
1.019999999999904, 0.2843881176491563 
1.029999999999903, 0.2770745414224342 
1.039999999999902, 0.26179439213027134 
1.0499999999999008, 0.2287250270914814 
1.0599999999998997, 0.16558639954576104 
1.0699999999998986, 0.09030548007489612 
1.0799999999998975, 0.052168074848496046 
1.0899999999998964, 0.04921363118594135 
1.0999999999998953, 0.05540401272330041 
1.1099999999998942, 0.06073465741335229 
1.119999999999893, 0.06405102064195883 
1.129999999999892, 0.06591476293403474 
1.1399999999998909, 0.06686411316582061 
1.1499999999998898, 0.06722346182258149 
1.1599999999998887, 0.06715682150589083 
1.1699999999998876, 0.06671827210374943 
1.1799999999998865, 0.06587041701826381 
1.1899999999998854, 0.06446868013719173 
1.1999999999998843, 0.06219783006393167 
1.2099999999998832, 0.05841524533648038 
1.219999999999882, 0.051779652381882854 
1.229999999999881, 0.039365797974716496 
1.2399999999998799, 0.014686315583510249 
1.2499999999998788, -0.03482670497969162 
1.2599999999998777, -0.1225681265848205 
1.2699999999998766, -0.22771447585100715 
1.2799999999998755, -0.2960562504777867 
1.2899999999998744, -0.31917052996301726 
1.2999999999998733, -0.32232488689058253 
1.3099999999998722, -0.3209757470275377 
1.319999999999871, -0.31957388265044184 
1.32999999999987, -0.3187659172187181 
1.3399999999998689, -0.318403578969022 
1.3499999999998678, -0.3182891071780428 
1.3599999999998666, -0.31829128416961816 
1.3699999999998655, -0.3183356055652503 
1.3799999999998644, -0.31838291600290247 
1.3899999999998633, -0.31841574864307953 
1.3999999999998622, -0.3184328035496705 
1.4099999999998611, -0.318449359396078 
1.41999999999986, -0.3185008698370327 
1.429999999999859, -0.3186461324325397 
1.4399999999998578, -0.3189662781839186 
1.4499999999998567, -0.3195575297854409 
1.4599999999998556, -0.32051731138633394 
1.4699999999998545, -0.3219215283179458 
1.4799999999998534, -0.3237885554599937 
1.4899999999998523, -0.3260348216500288 
1.4999999999998512, -0.3284535474949345 
1.5099999999998501, -0.3307608197354982 
1.519999999999849, -0.33270251031878995 
1.529999999999848, -0.33414208142203444 
1.5399999999998468, -0.3350656550078245 
1.5499999999998457, -0.33552626765146487 
1.5599999999998446, -0.33558322400884577 
1.5699999999998435, -0.3352622982344805 
1.5799999999998424, -0.33453086530069287 
1.5899999999998413, -0.3332728889694339 
1.5999999999998402, -0.33125315541487266 
1.6099999999998391, -0.32807625019227854 
1.619999999999838, -0.3231904507511912 
1.629999999999837, -0.3160659029398683 
1.6399999999998358, -0.30665930167946737 
1.6499999999998347, -0.29587574532118144 
1.6599999999998336, -0.2853109920466385 
1.6699999999998325, -0.2763008080072293 
1.6799999999998314, -0.2693338137666346 
1.6899999999998303, -0.26423418116394176 
1.6999999999998292, -0.2605800628427156 
1.709999999999828, -0.2579594480658579 
1.719999999999827, -0.25605238718854684 
1.729999999999826, -0.25463360469381435 
1.7399999999998248, -0.25355423953078154 
1.7499999999998237, -0.25272391774470576 
1.7599999999998226, -0.2520983842970348 
1.7699999999998215, -0.2516740878362568 
1.7799999999998204, -0.2514915921564643 
1.7899999999998193, -0.2516520622018684 
1.7999999999998182, -0.2523561984163135 
1.809999999999817, -0.2539859465873377 
1.819999999999816, -0.25727192428086576 
1.8299999999998149, -0.2636301677481138 
1.8399999999998138, -0.2757853880240274 
1.8499999999998127, -0.29856929969523066 
1.8599999999998116, -0.3380895992634415 
1.8699999999998105, -0.3926377869074343 
1.8799999999998094, -0.4339201965604736 
1.8899999999998083, -0.4207008045689986 
1.8999999999998072, -0.35924875959978303 
1.909999999999806, -0.2955486910514952 
1.919999999999805, -0.25318777486363975 
1.9299999999998039, -0.22947325128848894 
1.9399999999998028, -0.21672572221348702 
1.9499999999998017, -0.20978625618385455 
1.9599999999998006, -0.20590687984041006 
1.9699999999997995, -0.2036927846737293 
1.9799999999997984, -0.2024311825993909 
1.9899999999997973, -0.20175196171342624 
1.9999999999997962, -0.20146431767891998 
2.0099999999998173, -0.20147907050342048 
2.0199999999998384, -0.20177358884328603 
2.0299999999998595, -0.20238014527975962 
2.0399999999998806, -0.20339019551604537 
2.0499999999999017, -0.20497348771575608 
2.059999999999923, -0.2074153823792829 
2.069999999999944, -0.21117817915985201 
2.079999999999965, -0.21698444877229628 
2.089999999999986, -0.22587259798988324 
2.100000000000007, -0.23902622154905107 
2.1100000000000283, -0.2569671782440509 
2.1200000000000494, -0.2780950342591911 
2.1300000000000705, -0.2983938188093676 
2.1400000000000916, -0.3141280844926175 
2.1500000000001127, -0.3244181871335526 
2.160000000000134, -0.3305129662150906 
2.170000000000155, -0.3339779526063672 
2.180000000000176, -0.33591594871028796 
2.190000000000197, -0.3369620763941197 
2.2000000000002182, -0.3374524540334639 
2.2100000000002393, -0.3375541791502073 
2.2200000000002604, -0.3373396961057593 
2.2300000000002815, -0.33682817140640176 
2.2400000000003026, -0.3360144221844708 
2.2500000000003237, -0.3348984889129295 
2.260000000000345, -0.33351814873427016 
2.270000000000366, -0.3319710889921712 
2.280000000000387, -0.3304057021299103 
2.290000000000408, -0.3289781295215243 
2.3000000000004293, -0.3278039808271854 
2.3100000000004504, -0.32693486756913764 
2.3200000000004715, -0.32636216276686386 
2.3300000000004926, -0.3260326225254941 
2.3400000000005137, -0.3258657944025609 
2.3500000000005348, -0.32577241301005555 
2.360000000000556, -0.3256726437774201 
2.370000000000577, -0.32550836226391544 
2.380000000000598, -0.32524477888927084 
2.390000000000619, -0.32486301437256354 
2.4000000000006403, -0.3243487670327819 
2.4100000000006614, -0.32368005210545625 
2.4200000000006825, -0.3228116129414206 
2.4300000000007036, -0.32164512566911474 
2.4400000000007247, -0.31995448804666915 
2.450000000000746, -0.3171795342707155 
2.460000000000767, -0.31185975446051695 
2.470000000000788, -0.30029235332156035 
2.480000000000809, -0.2748038558851972 
2.49000000000083, -0.22716815611702873 
2.5000000000008513, -0.16391900974421816 
2.5100000000008724, -0.10785221953733834 
2.5200000000008935, -0.07113518539786393 
2.5300000000009146, -0.05020352380090963 
2.5400000000009357, -0.03853922400907157 
2.550000000000957, -0.031843966862072776 
2.560000000000978, -0.027823228265661398 
2.570000000000999, -0.025298872655932576 
2.58000000000102, -0.02365721260462791 
2.5900000000010412, -0.022572644596927535 
2.6000000000010624, -0.02187584002695278 
2.6100000000010835, -0.021492744306531645 
2.6200000000011046, -0.021420939252198953 
2.6300000000011257, -0.021731069139333786 
2.6400000000011468, -0.022592666335839857 
2.650000000001168, -0.024328703361203356 
2.660000000001189, -0.027482294626212794 
2.67000000000121, -0.0327113551646162 
2.680000000001231, -0.03948421612623536 
2.6900000000012523, -0.040063165776566836 
2.7000000000012734, -0.009027865963433582 
2.7100000000012945, 0.06963817136058256 
2.7200000000013156, 0.14953227024086577 
2.7300000000013367, 0.19525080726305077 
2.740000000001358, 0.21649058257591075 
2.750000000001379, 0.226307769278911 
2.7600000000014, 0.23107902888237458 
2.770000000001421, 0.23349925406858568 
2.780000000001442, 0.23474143435613914 
2.7900000000014633, 0.23535590106617402 
2.8000000000014844, 0.23562491451611836 
2.8100000000015055, 0.2357106074297537 
2.8200000000015266, 0.23572672167178163 
2.8300000000015477, 0.23578859283577863 
2.840000000001569, 0.23607350459224774 
2.85000000000159, 0.2369211595453488 
2.860000000001611, 0.2389853607874591 
2.870000000001632, 0.24330899482680465 
2.8800000000016532, 0.2508397360886495 
2.8900000000016743, 0.2610752584650661 
2.9000000000016954, 0.271542332370703 
2.9100000000017165, 0.279820374260449 
2.9200000000017377, 0.28526322585972314 
2.9300000000017588, 0.2884329042153809 
2.94000000000178, 0.29007507536388677 
2.950000000001801, 0.29072484234360224 
2.960000000001822, 0.29070154911815005 
2.970000000001843, 0.2901958582071121 
2.9800000000018643, 0.2893484326406817 
2.9900000000018854, 0.28829785228839716 
3.0000000000019065, 0.28719129142515626 
3.0100000000019276, 0.28616510721917027 
3.0200000000019487, 0.28531926189828305 
3.03000000000197, 0.2847076752273419 
3.040000000001991, 0.2843461755873277 
3.050000000002012, 0.2842249374384703 
3.060000000002033, 0.2843140381309954 
3.070000000002054, 0.2845603775521647 
3.0800000000020753, 0.2848824344668104 
3.0900000000020964, 0.2851714548430973 
3.1000000000021175, 0.2853006219387842 
3.1100000000021386, 0.28513111284366444 
3.1200000000021597, 0.2844969859530663 
3.130000000002181, 0.28315382353148355 
3.140000000002202, 0.28068098189730617 
3.150000000002223, 0.2763424402547366 
3.160000000002244, 0.2690158839248953 
3.1700000000022652, 0.25765227127856016 
3.1800000000022863, 0.24292081672698895 
3.1900000000023074, 0.22850944121508365 
3.2000000000023285, 0.2182926911957102 
3.2100000000023496, 0.21275157692619112 
3.2200000000023707, 0.21018206954025964 
3.230000000002392, 0.2090259020523749 
3.240000000002413, 0.20843709111666192 
3.250000000002434, 0.20803229102580234 
3.260000000002455, 0.20763659453954317 
3.2700000000024763, 0.20714754401879937 
3.2800000000024974, 0.20646649042837195 
3.2900000000025185, 0.2054499785344289 
3.3000000000025396, 0.2038459311741002 
3.3100000000025607, 0.2011669855742141 
3.3200000000025818, 0.19639440707848946 
3.330000000002603, 0.18723969450715733 
3.340000000002624, 0.16834483515616797 
3.350000000002645, 0.12816973758031744 
3.360000000002666, 0.05320179279691112 
3.3700000000026873, -0.03532569518608203 
3.3800000000027084, -0.08278977788969728 
3.3900000000027295, -0.08956739904857379 
3.4000000000027506, -0.08394021218953054 
3.4100000000027717, -0.07820736559351879 
3.420000000002793, -0.07436499515913328 
3.430000000002814, -0.07201504045039976 
3.440000000002835, -0.07061065135548038 
3.450000000002856, -0.0697915021855926 
3.460000000002877, -0.0693552429264452 
3.4700000000028983, -0.06920212624846014 
3.4800000000029194, -0.0693014147022775 
3.4900000000029405, -0.06967883848459316 
3.5000000000029616, -0.07042164396583658 
3.5100000000029827, -0.07170298828015992 
3.520000000003004, -0.07383570255239934 
3.530000000003025, -0.07737867486603085 
3.540000000003046, -0.08333707631145036 
3.550000000003067, -0.09349348169897316 
3.5600000000030882, -0.11072649091986857 
3.5700000000031094, -0.13835314544414729 
3.5800000000031305, -0.17630975241721542 
3.5900000000031516, -0.21612655832885488 
3.6000000000031727, -0.24634231101536944 
3.6100000000031938, -0.263946607708324 
3.620000000003215, -0.2728885067904126 
3.630000000003236, -0.2773256229910489 
3.640000000003257, -0.2796137059476206 
3.650000000003278, -0.28085280930733025 
3.6600000000032993, -0.28153580392437055 
3.6700000000033204, -0.2818878306543008 
3.6800000000033415, -0.28201502939959155 
3.6900000000033626, -0.2819689333852003 
3.7000000000033837, -0.28177765214680756 
3.710000000003405, -0.2814653715081772 
3.720000000003426, -0.2810677377447968 
3.730000000003447, -0.2806426051446766 
3.740000000003468, -0.2802715396379484 
3.750000000003489, -0.28004975552965067 
3.7600000000035103, -0.2800689585500848 
3.7700000000035314, -0.2804000339156776 
3.7800000000035525, -0.28107682142749685 
3.7900000000035736, -0.2820779397017391 
3.8000000000035947, -0.2833115490486225 
3.810000000003616, -0.28462181230781436 
3.820000000003637, -0.28583076610337704 
3.830000000003658, -0.2867961614230183 
3.840000000003679, -0.28744417227843905 
3.8500000000037002, -0.2877596997953827 
3.8600000000037213, -0.28775238973227896 
3.8700000000037424, -0.28742154796089814 
3.8800000000037635, -0.28672672785686026 
3.8900000000037847, -0.2855569582710013 
3.9000000000038058, -0.2836873748129205 
3.910000000003827, -0.28071914682857024 
3.920000000003848, -0.2760348496527128 
3.930000000003869, -0.26889934218994466 
3.94000000000389, -0.25892650201112466 
3.9500000000039113, -0.24681257249514427 
3.9600000000039324, -0.23441663669917298 
3.9700000000039535, -0.2236325481201042 
3.9800000000039746, -0.21531704936404986 
3.9900000000039957, -0.2093405259400362 
4.000000000004016, -0.20517014835960762 
4.010000000003993, -0.20226820211993063 
4.02000000000397, -0.20022127277421148 
4.030000000003946, -0.1987423577340633 
4.040000000003923, -0.1976416586325521 
4.0500000000039, -0.19679942640466935 
4.0600000000038765, -0.19614710385173628 
4.070000000003853, -0.19565637478088987 
4.08000000000383, -0.1953359815569416 
4.090000000003807, -0.19523806554212214 
4.100000000003783, -0.19547865770917053 
4.11000000000376, -0.19628147874327972 
4.120000000003737, -0.1980587897277493 
4.130000000003713, -0.20152901946348326 
4.14000000000369, -0.2077292508828808 
4.150000000003667, -0.21702836509275975 
4.1600000000036434, -0.2237543175396089 
4.17000000000362, -0.2031427796606288 
4.180000000003597, -0.12163980660007243 
4.1900000000035735, -0.010769525036779068 
4.20000000000355, 0.06500146554389027 
4.210000000003527, 0.10235838881190307 
4.220000000003504, 0.1197004715467598 
4.23000000000348, 0.1280959657217473 
4.240000000003457, 0.1323925771621529 
4.250000000003434, 0.13466973425888232 
4.26000000000341, 0.13586562516076517 
4.270000000003387, 0.13642645437035597 
4.280000000003364, 0.13656715634693906 
4.2900000000033405, 0.1363793812376913 
4.300000000003317, 0.1358756044326066 
4.310000000003294, 0.1350062625537965 
4.320000000003271, 0.13368021026125174 
4.330000000003247, 0.13187213134173856 
4.340000000003224, 0.1301315388692576 
4.350000000003201, 0.13141170830672722 
4.360000000003177, 0.1445731204568631 
4.370000000003154, 0.17972521749486414 
4.380000000003131, 0.2255044299660276 
4.390000000003107, 0.2592190962551122 
4.400000000003084, 0.2774227992412106 
4.410000000003061, 0.28637054280696594 
4.4200000000030375, 0.29076395785867837 
4.430000000003014, 0.2929352144708266 
4.440000000002991, 0.29396830006293956 
4.450000000002968, 0.2943900338113197 
4.460000000002944, 0.2944827649991293 
4.470000000002921, 0.29441916161892856 
4.480000000002898, 0.2943217632529168 
4.490000000002874, 0.29429282846250004 
4.500000000002851, 0.29443418988556624 
4.510000000002828, 0.29486291148602384 
4.520000000002804, 0.2957168084576031 
4.530000000002781, 0.2971309294964073 
4.540000000002758, 0.2991629871922224 
4.5500000000027345, 0.3016869123012291 
4.560000000002711, 0.3043590012441723 
4.570000000002688, 0.30675084870866953 
4.580000000002665, 0.3085512461172803 
4.590000000002641, 0.3096436823457154 
4.600000000002618, 0.3100339908987455 
4.610000000002595, 0.30974069625910816 
4.620000000002571, 0.30872534758653364 
4.630000000002548, 0.3068805335128314 
4.640000000002525, 0.3040914606294984 
4.6500000000025015, 0.3003910165823679 
4.660000000002478, 0.29613559651291294 
4.670000000002455, 0.29197166237216443 
4.6800000000024315, 0.28849642715110774 
4.690000000002408, 0.28594854478953063 
4.700000000002385, 0.2842303858513186 
4.710000000002362, 0.2831111745686736 
4.720000000002338, 0.2823719015958426 
4.730000000002315, 0.28184666829950256 
4.740000000002292, 0.28141103345645846 
4.750000000002268, 0.28095643743600573 
4.760000000002245, 0.2803626101568165 
4.770000000002222, 0.27946310104018257 
4.7800000000021985, 0.2779849263067455 
4.790000000002175, 0.27541747829287905 
4.800000000002152, 0.2707040167827498 
4.810000000002129, 0.26151617426564744 
4.820000000002105, 0.24281934596572569 
4.830000000002082, 0.20633466040708628 
4.840000000002059, 0.15125567647890953 
4.850000000002035, 0.10364017518549426 
4.860000000002012, 0.08438313517903365 
4.870000000001989, 0.0822399553201646 
4.880000000001965, 0.08437862287245942 
4.890000000001942, 0.08648170922412406 
