t, s[1].omega / s[0].omega 
0, -0.8999976051457119 
0.009999999999999995, -0.89970666508663 
0.019999999999999934, -0.8993106392527238 
0.029999999999999874, -0.8988036727928076 
0.04000000000000012, -0.8981857951081784 
0.050000000000000405, -0.8974709416894553 
0.06000000000000069, -0.896691369589543 
0.07000000000000098, -0.8958987562245928 
0.08000000000000126, -0.8951625356532853 
0.09000000000000155, -0.8945639765880259 
0.10000000000000184, -0.8941842299163666 
0.11000000000000212, -0.8940881294005797 
0.12000000000000241, -0.8943099260241096 
0.130000000000002, -0.8948473252359342 
0.1400000000000009, -0.8956655912966699 
0.1499999999999998, -0.8967086428010068 
0.1599999999999987, -0.89791231235493 
0.1699999999999976, -0.8992154993346532 
0.1799999999999965, -0.9005661661627773 
0.1899999999999954, -0.9019206513786665 
0.1999999999999943, -0.90323692960077 
0.2099999999999932, -0.9044655918745736 
0.2199999999999921, -0.905545525153126 
0.229999999999991, -0.9064109162727689 
0.2399999999999899, -0.907008843916908 
0.2499999999999888, -0.9073166219819336 
0.2599999999999877, -0.9073470183094463 
0.2699999999999866, -0.907140730472318 
0.2799999999999855, -0.9067562885012508 
0.2899999999999844, -0.9062673275382803 
0.2999999999999833, -0.9057694655832081 
0.3099999999999822, -0.9053907836254818 
0.3199999999999811, -0.9052938864328917 
0.32999999999998, -0.9056573105871658 
0.3399999999999789, -0.906635399272186 
0.3499999999999778, -0.9083148671129726 
0.35999999999997667, -0.9106939055854568 
0.36999999999997557, -0.9136936606376878 
0.37999999999997447, -0.9171882196737723 
0.38999999999997337, -0.9210310115653433 
0.39999999999997227, -0.9250644858668349 
0.40999999999997117, -0.9291140527697861 
0.41999999999997006, -0.9329795504785819 
0.42999999999996896, -0.9364446721641496 
0.43999999999996786, -0.939317228196631 
0.44999999999996676, -0.9414846180939216 
0.45999999999996566, -0.942943797036419 
0.46999999999996456, -0.9437815075578004 
0.47999999999996346, -0.9441244449979596 
0.48999999999996235, -0.9440966295451458 
0.49999999999996125, -0.9438034351809254 
0.5099999999999602, -0.9433416188596851 
0.519999999999959, -0.94282884796635 
0.529999999999958, -0.9424452406224694 
0.5399999999999568, -0.9424700795259964 
0.5499999999999557, -0.9432794729127814 
0.5599999999999546, -0.9452706611666232 
0.5699999999999535, -0.9487264872203303 
0.5799999999999524, -0.9536998486611097 
0.5899999999999513, -0.9599946974693575 
0.5999999999999502, -0.967235611176684 
0.6099999999999491, -0.9749551183834708 
0.619999999999948, -0.9826494848341968 
0.6299999999999469, -0.9898138169390176 
0.6399999999999458, -0.9959987388975534 
0.6499999999999447, -1.0009023908194934 
0.6599999999999436, -1.0044461208565543 
0.6699999999999425, -1.0067640557597681 
0.6799999999999414, -1.0081083262721326 
0.6899999999999403, -1.0087419876443868 
0.6999999999999392, -1.0088776676052256 
0.7099999999999381, -1.0086677360111147 
0.719999999999937, -1.0082276284978773 
0.7299999999999359, -1.0076793748447668 
0.7399999999999348, -1.0072099463564261 
0.7499999999999337, -1.0071279956038837 
0.7599999999999326, -1.0078707337499249 
0.7699999999999315, -1.0099009044389577 
0.7799999999999304, -1.0135095676554555 
0.7899999999999293, -1.0186620503635286 
0.7999999999999282, -1.0250128061957315 
0.8099999999999271, -1.0320512828800605 
0.819999999999926, -1.0392455898135404 
0.8299999999999249, -1.0461139287601477 
0.8399999999999238, -1.0522484817076476 
0.8499999999999227, -1.0573432928153554 
0.8599999999999216, -1.061240383719082 
0.8699999999999205, -1.0639571026090775 
0.8799999999999194, -1.0656543707809747 
0.8899999999999183, -1.0665582291778064 
0.8999999999999172, -1.0668858782510606 
0.9099999999999161, -1.0668106806101867 
0.919999999999915, -1.0664665698057036 
0.9299999999999139, -1.0659786302986851 
0.9399999999999128, -1.0655066020129456 
0.9499999999999117, -1.0652800675758198 
0.9599999999999106, -1.0655862235561324 
0.9699999999999095, -1.0666809563607251 
0.9799999999999084, -1.0686662106880036 
0.9899999999999073, -1.0714383240134862 
0.9999999999999062, -1.0747507107159278 
1.0099999999999052, -1.0783220506154563 
1.019999999999904, -1.0819081554689984 
1.029999999999903, -1.0853196239629646 
1.039999999999902, -1.088410032041565 
1.0499999999999008, -1.091062195230013 
1.0599999999998997, -1.0931880536427672 
1.0699999999998986, -1.0947422149197616 
1.0799999999998975, -1.0957345717998228 
1.0899999999998964, -1.0962260832255983 
1.0999999999998953, -1.0963080114474815 
1.1099999999998942, -1.096080557445229 
1.119999999999893, -1.0956455945941481 
1.129999999999892, -1.095115409262895 
1.1399999999998909, -1.0946257840422935 
1.1499999999998898, -1.0943324398890106 
1.1599999999998887, -1.0943757205909737 
1.1699999999998876, -1.0948289636375588 
1.1799999999998865, -1.0956724236268283 
1.1899999999998854, -1.0968132053767428 
1.1999999999998843, -1.0981277429028746 
1.2099999999998832, -1.0994958512615158 
1.219999999999882, -1.100817659750335 
1.229999999999881, -1.102018362027812 
1.2399999999998799, -1.103045637631747 
1.2499999999998788, -1.103863096790478 
1.2599999999998777, -1.1044436780717963 
1.2699999999998766, -1.1047670494509687 
1.2799999999998755, -1.1048225967777485 
1.2899999999998744, -1.1046152656908224 
1.2999999999998733, -1.1041696495007618 
1.3099999999998722, -1.1035308614244703 
1.319999999999871, -1.1027644283676377 
1.32999999999987, -1.1019556808566453 
1.3399999999998689, -1.101203671749258 
1.3499999999998678, -1.1006046439404913 
1.3599999999998666, -1.1002297576103428 
1.3699999999998655, -1.100109413905757 
1.3799999999998644, -1.1002296749446052 
1.3899999999998633, -1.1005367971078217 
1.3999999999998622, -1.1009480219957806 
1.4099999999998611, -1.1013690100245392 
1.41999999999986, -1.1017120691863682 
1.429999999999859, -1.101907349357847 
1.4399999999998578, -1.101906103214759 
1.4499999999998567, -1.1016799846937695 
1.4599999999998556, -1.1012185531036078 
1.4699999999998545, -1.1005247816868322 
1.4799999999998534, -1.099609800001654 
1.4899999999998523, -1.0984902725149568 
1.4999999999998512, -1.0971905899550327 
1.5099999999998501, -1.0957486029916947 
1.519999999999849, -1.0942214487237032 
1.529999999999848, -1.0926879030735608 
1.5399999999998468, -1.0912448170838784 
1.5499999999998457, -1.0899965977529995 
1.5599999999998446, -1.0890363607436913 
1.5699999999998435, -1.0884179593662333 
1.5799999999998424, -1.0881285714863238 
1.5899999999998413, -1.088084106416775 
1.5999999999998402, -1.088157142631296 
1.6099999999998391, -1.0882160690287874 
1.619999999999838, -1.0881475044687234 
1.629999999999837, -1.0878572072949013 
1.6399999999998358, -1.0872637338852809 
1.6499999999998347, -1.0862989168600836 
1.6599999999998336, -1.0849182343052426 
1.6699999999998325, -1.0831126636425121 
1.6799999999998314, -1.0809106819018868 
1.6899999999998303, -1.0783685573066881 
1.6999999999998292, -1.0755587934348871 
1.709999999999828, -1.0725672749823492 
1.719999999999827, -1.0695008925174039 
1.729999999999826, -1.0664991224628273 
1.7399999999998248, -1.0637380900746154 
1.7499999999998237, -1.0614117780134849 
1.7599999999998226, -1.0596791299979578 
1.7699999999998215, -1.0585933474950524 
1.7799999999998204, -1.0580661391485795 
1.7899999999998193, -1.0579059455150746 
1.7999999999998182, -1.0578990536122228 
1.809999999999817, -1.0578675518700384 
1.819999999999816, -1.0576772591615404 
1.8299999999998149, -1.0572148113162434 
1.8399999999998138, -1.0563620713946043 
1.8499999999998127, -1.0549863582089902 
1.8599999999998116, -1.0529560313219846 
1.8699999999998105, -1.0501791584298261 
1.8799999999998094, -1.0466442369030446 
1.8899999999998083, -1.0424339373761706 
1.8999999999998072, -1.0377047167494857 
1.909999999999806, -1.0326561301434454 
1.919999999999805, -1.0275164132566132 
1.9299999999998039, -1.022546746048502 
1.9399999999998028, -1.0180422832139215 
1.9499999999998017, -1.014299088275041 
1.9599999999998006, -1.0115331025446868 
1.9699999999997995, -1.0097867526216286 
1.9799999999997984, -1.0089004647426463 
1.9899999999997973, -1.008586842342247 
1.9999999999997962, -1.0085491773626538 
2.0099999999998173, -1.0085572383249266 
2.0199999999998384, -1.0084543429214203 
2.0299999999998595, -1.0081250403962898 
2.0399999999998806, -1.0074573957003468 
2.0499999999999017, -1.0063184044816502 
2.059999999999923, -1.0045530764462671 
2.069999999999944, -1.0020148639681765 
2.079999999999965, -0.9986215443933224 
2.089999999999986, -0.9944049892242879 
2.100000000000007, -0.9895166290798333 
2.1100000000000283, -0.984186371335624 
2.1200000000000494, -0.9786728084383393 
2.1300000000000705, -0.9732380222348607 
2.1400000000000916, -0.9681458738545583 
2.1500000000001127, -0.963658783397876 
2.160000000000134, -0.9600080373007671 
2.170000000000155, -0.9573341203367945 
2.180000000000176, -0.9556286802341709 
2.190000000000197, -0.9547280425064264 
2.2000000000002182, -0.9543750909905231 
2.2100000000002393, -0.954307614717384 
2.2200000000002604, -0.9543163515259521 
2.2300000000002815, -0.9542541517948953 
2.2400000000003026, -0.9540146769421775 
2.2500000000003237, -0.9535057204372194 
2.260000000000345, -0.9526332560573557 
2.270000000000366, -0.9513045212286825 
2.280000000000387, -0.9494514681182903 
2.290000000000408, -0.9470630246988179 
2.3000000000004293, -0.9442020098664621 
2.3100000000004504, -0.9409900795892172 
2.3200000000004715, -0.9375717890115484 
2.3300000000004926, -0.9340848852533135 
2.3400000000005137, -0.930651656184762 
2.3500000000005348, -0.9273858776699985 
2.360000000000556, -0.9244016089800023 
2.370000000000577, -0.9218127690209483 
2.380000000000598, -0.9197185854568983 
2.390000000000619, -0.9181777051043752 
2.4000000000006403, -0.9171832410962958 
2.4100000000006614, -0.9166561747405874 
2.4200000000006825, -0.916465532656432 
2.4300000000007036, -0.9164643331430445 
2.4400000000007247, -0.9165200863437726 
2.450000000000746, -0.916527468564519 
2.460000000000767, -0.916406304147363 
2.470000000000788, -0.916095641250182 
2.480000000000809, -0.9155526873645197 
2.49000000000083, -0.9147582539167963 
2.5000000000008513, -0.9137225637757517 
2.5100000000008724, -0.9124826438628448 
2.5200000000008935, -0.9110893288003666 
2.5300000000009146, -0.9095920134270564 
2.5400000000009357, -0.9080311287192874 
2.550000000000957, -0.9064409104841029 
2.560000000000978, -0.9048576328406176 
2.570000000000999, -0.9033268512257937 
2.58000000000102, -0.9019055590271362 
2.5900000000010412, -0.9006580001925168 
2.6000000000010624, -0.899646014346701 
2.6100000000010835, -0.8989164331333009 
2.6200000000011046, -0.8984891587667981 
2.6300000000011257, -0.8983500194963915 
2.6400000000011468, -0.898451881862068 
2.650000000001168, -0.898724659945547 
2.660000000001189, -0.8990903898137674 
2.67000000000121, -0.899477192670971 
2.680000000001231, -0.8998281046982607 
2.6900000000012523, -0.9001046442838456 
2.7000000000012734, -0.9002864921327186 
2.7100000000012945, -0.9003675791084381 
2.7200000000013156, -0.9003485869535378 
2.7300000000013367, -0.9002283622198066 
2.740000000001358, -0.8999992986613886 
2.750000000001379, -0.8996501807623932 
2.7600000000014, -0.8991747059098849 
2.770000000001421, -0.8985801831196903 
2.780000000001442, -0.8978924788378864 
2.7900000000014633, -0.8971574434697487 
2.8000000000014844, -0.896440424944427 
2.8100000000015055, -0.8958230739697971 
2.8200000000015266, -0.8953944522497166 
2.8300000000015477, -0.8952354524279578 
2.840000000001569, -0.8954010932128208 
2.85000000000159, -0.8959087850440726 
2.860000000001611, -0.8967377983752334 
2.870000000001632, -0.8978386770628562 
2.8800000000016532, -0.8991472128005539 
2.8900000000016743, -0.9005974938633141 
2.9000000000016954, -0.902130171893982 
2.9100000000017165, -0.9036938464759245 
2.9200000000017377, -0.9052395705051751 
2.9300000000017588, -0.9067116297716172 
2.94000000000178, -0.9080415070203163 
2.950000000001801, -0.9091530067165403 
2.960000000001822, -0.9099802500433792 
2.970000000001843, -0.9104885322387553 
2.9800000000018643, -0.9106833536113236 
2.9900000000018854, -0.9106033370549094 
3.0000000000019065, -0.9103068473079977 
3.0100000000019276, -0.9098649573062326 
3.0200000000019487, -0.9093660802648129 
3.03000000000197, -0.9089287277430398 
3.040000000001991, -0.9087116315606115 
3.050000000002012, -0.9089063124293351 
3.060000000002033, -0.9097026943669102 
3.070000000002054, -0.9112376786249898 
3.0800000000020753, -0.9135554160611292 
3.0900000000020964, -0.9166027724318887 
3.1000000000021175, -0.9202561573513487 
3.1100000000021386, -0.924355475581885 
3.1200000000021597, -0.9287237689977031 
3.130000000002181, -0.9331672952864544 
3.140000000002202, -0.9374671153409657 
3.150000000002223, -0.9413840258468984 
3.160000000002244, -0.9446953630644499 
3.1700000000022652, -0.9472551262352045 
3.1800000000022863, -0.9490360066283008 
3.1900000000023074, -0.9501183013134546 
3.2000000000023285, -0.9506377150629456 
3.2100000000023496, -0.9507332759400906 
3.2200000000023707, -0.9505222637027165 
3.230000000002392, -0.9501042434358778 
3.240000000002413, -0.9495870828120891 
3.250000000002434, -0.9491282836236833 
3.260000000002455, -0.948979314604979 
3.2700000000024763, -0.9495027467672218 
3.2800000000024974, -0.9511200373309544 
3.2900000000025185, -0.9541806491800422 
3.3000000000025396, -0.9588191651978099 
3.3100000000025607, -0.9648982428342506 
3.3200000000025818, -0.972062423073614 
3.330000000002603, -0.9798372295019258 
3.340000000002624, -0.9877037573638413 
3.350000000002645, -0.9951405596840861 
3.360000000002666, -1.0016725110904052 
3.3700000000026873, -1.0069544601626848 
3.3800000000027084, -1.0108551561193972 
3.3900000000027295, -1.013468771450364 
3.4000000000027506, -1.0150340863811957 
3.4100000000027717, -1.015822795616779 
3.420000000002793, -1.0160647997514332 
3.430000000002814, -1.015927665593404 
3.440000000002835, -1.0155340595941396 
3.450000000002856, -1.015001481819199 
3.460000000002877, -1.0144976330795341 
3.4700000000028983, -1.0142984786680471 
3.4800000000029194, -1.0148074065912058 
3.4900000000029405, -1.0164745347087867 
3.5000000000029616, -1.0196139912866529 
3.5100000000029827, -1.0242395756494092 
3.520000000003004, -1.0300559968198297 
3.530000000003025, -1.0365923434052393 
3.540000000003046, -1.0433489717870617 
3.550000000003067, -1.0498744303636156 
3.5600000000030882, -1.0557858801735673 
3.5700000000031094, -1.0607844817954892 
3.5800000000031305, -1.0646915659676242 
3.5900000000031516, -1.0674822029534772 
3.6000000000031727, -1.0692737294854424 
3.6100000000031938, -1.0702640163411856 
3.620000000003215, -1.07065982831619 
3.630000000003236, -1.0706346034728664 
3.640000000003257, -1.0703245427829426 
3.650000000003278, -1.0698529771995653 
3.6600000000032993, -1.0693696712631562 
3.6700000000033204, -1.0690850751719931 
3.6800000000033415, -1.0692639867815814 
3.6900000000033626, -1.070149411389107 
3.7000000000033837, -1.0718501290419906 
3.710000000003405, -1.0742863896289536 
3.720000000003426, -1.0772407102036146 
3.730000000003447, -1.0804566725169285 
3.740000000003468, -1.0837087952394036 
3.750000000003489, -1.086822602978847 
3.7600000000035103, -1.0896650982362157 
3.7700000000035314, -1.0921301729473176 
3.7800000000035525, -1.0941342685683335 
3.7900000000035736, -1.0956258000913575 
3.8000000000035947, -1.0965986762221145 
3.810000000003616, -1.0970945871867557 
3.820000000003637, -1.0971891221599726 
3.830000000003658, -1.0969727601003099 
3.840000000003679, -1.0965414592010605 
3.8500000000037002, -1.0960016896695726 
3.8600000000037213, -1.0954811488185636 
3.8700000000037424, -1.0951263654769188 
3.8800000000037635, -1.0950722707045883 
3.8900000000037847, -1.095395347265807 
3.9000000000038058, -1.0960871898055216 
3.910000000003827, -1.0970690724762155 
3.920000000003848, -1.0982288710602124 
3.930000000003869, -1.0994527096491464 
3.94000000000389, -1.1006425511366495 
3.9500000000039113, -1.1017231326435448 
3.9600000000039324, -1.102641661972443 
3.9700000000039535, -1.1033626654685558 
3.9800000000039746, -1.1038613179380266 
3.9900000000039957, -1.1041192548467214 
4.000000000004016, -1.104125481365877 
4.010000000003993, -1.1038813332763273 
4.02000000000397, -1.1034055295142926 
4.030000000003946, -1.1027366902449303 
4.040000000003923, -1.1019341401527034 
4.0500000000039, -1.1010775580532963 
4.0600000000038765, -1.1002617517638553 
4.070000000003853, -1.0995820723765897 
4.08000000000383, -1.0991137516879996 
4.090000000003807, -1.0988955972022467 
4.100000000003783, -1.0989234938959647 
4.11000000000376, -1.0991513977547982 
4.120000000003737, -1.0994998062190728 
4.130000000003713, -1.0998731310987773 
4.14000000000369, -1.100179569007429 
4.150000000003667, -1.1003439760315556 
4.1600000000036434, -1.1003119974400508 
4.17000000000362, -1.100050026624793 
4.180000000003597, -1.0995438451807824 
4.1900000000035735, -1.0987951998450243 
4.20000000000355, -1.0978163434463197 
4.210000000003527, -1.0966257808446473 
4.220000000003504, -1.095248634897785 
4.23000000000348, -1.093721622177981 
4.240000000003457, -1.0920994740513184 
4.250000000003434, -1.090458877045267 
4.26000000000341, -1.0888969620119437 
4.270000000003387, -1.0875225585080084 
4.280000000003364, -1.0864379192211606 
4.2900000000033405, -1.0857091609243485 
4.300000000003317, -1.085334661807738 
4.310000000003294, -1.085235625172144 
4.320000000003271, -1.0852825771425203 
4.330000000003247, -1.0853376396078434 
4.340000000003224, -1.0852810371261667 
4.350000000003201, -1.085013420506293 
4.360000000003177, -1.0844479719506999 
4.370000000003154, -1.0835084342698678 
4.380000000003131, -1.0821389108051096 
4.390000000003107, -1.0803186519005392 
4.400000000003084, -1.0780687322528313 
4.410000000003061, -1.075444619210285 
4.4200000000030375, -1.0725226526013956 
4.430000000003014, -1.0693933160659326 
4.440000000002991, -1.0661663680772437 
4.450000000002968, -1.0629826928671682 
4.460000000002944, -1.060021179961489 
4.470000000002921, -1.0574843949372388 
4.480000000002898, -1.055549089680594 
4.490000000002874, -1.0542925831896388 
4.500000000002851, -1.0536460126580596 
4.510000000002828, -1.0534224035967292 
4.520000000002804, -1.0533989223455764 
4.530000000002781, -1.0533846158862732 
4.540000000002758, -1.0532366265510584 
4.5500000000027345, -1.0528394851917526 
4.560000000002711, -1.0520769935362497 
4.570000000002688, -1.0508171787796534 
4.580000000002665, -1.0489216949835805 
4.590000000002641, -1.0462813156430504 
4.600000000002618, -1.0428610005701286 
4.610000000002595, -1.038723758701973 
4.620000000002571, -1.0340170365757586 
4.630000000002548, -1.0289396197820941 
4.640000000002525, -1.023719698356024 
4.6500000000025015, -1.018614352112142 
4.660000000002478, -1.0139134172962474 
4.670000000002455, -1.009917180708685 
4.6800000000024315, -1.0068672764800979 
4.690000000002408, -1.0048522449546224 
4.700000000002385, -1.0037581721039233 
4.710000000002362, -1.003318991330909 
4.720000000002338, -1.0032311976090194 
4.730000000002315, -1.0032448036280244 
4.740000000002292, -1.0031865206342339 
4.750000000002268, -1.0029345689240088 
4.760000000002245, -1.00238078809971 
4.770000000002222, -1.001402168954646 
4.7800000000021985, -0.9998532667449618 
4.790000000002175, -0.9975878424893689 
4.800000000002152, -0.9945084291924262 
4.810000000002129, -0.9906190040767185 
4.820000000002105, -0.9860417615682909 
4.830000000002082, -0.9809849032971325 
4.840000000002059, -0.9756918107241244 
4.850000000002035, -0.9704092966012731 
4.860000000002012, -0.9653826502953203 
4.870000000001989, -0.9608576298857727 
4.880000000001965, -0.9570638485490562 
4.890000000001942, -0.954167980705493 
4.900000000001919, -0.9522144677959947 
4.9100000000018955, -0.9510976882327024 
4.920000000001872, -0.9505975491922907 
4.930000000001849, -0.9504586773037097 
