t, s[1].omega / s[0].omega 
0, -0.6099977243891894 
0.009999999999999995, -0.6097772349129518 
0.019999999999999934, -0.6095636698994227 
0.029999999999999874, -0.6093391815464387 
0.04000000000000012, -0.6090830233339442 
0.050000000000000405, -0.6087795403935706 
0.06000000000000069, -0.6084226991726938 
0.07000000000000098, -0.6080167423478205 
0.08000000000000126, -0.6075751971938604 
0.09000000000000155, -0.6071209529779005 
0.10000000000000184, -0.6066892287299299 
0.11000000000000212, -0.6063343653312315 
0.12000000000000241, -0.6061409994773614 
0.130000000000002, -0.6062399924381526 
0.1400000000000009, -0.6068288307457796 
0.1499999999999998, -0.6081941085083307 
0.1599999999999987, -0.6107284067161589 
0.1699999999999976, -0.6149226348775604 
0.1799999999999965, -0.621296213580181 
0.1899999999999954, -0.6302125917831427 
0.1999999999999943, -0.641564382917071 
0.2099999999999932, -0.6544744846844578 
0.2199999999999921, -0.667369286678557 
0.229999999999991, -0.6786219525747115 
0.2399999999999899, -0.6873087810521498 
0.2499999999999888, -0.69340186946463 
0.2599999999999877, -0.6974039614783444 
0.2699999999999866, -0.6999211071671849 
0.2799999999999855, -0.701446799720805 
0.2899999999999844, -0.7023205398155627 
0.2999999999999833, -0.7027553244564457 
0.3099999999999822, -0.7028742288832552 
0.3199999999999811, -0.7027369423110266 
0.32999999999998, -0.7023538305305355 
0.3399999999999789, -0.7016891215414118 
0.3499999999999778, -0.7006551590461705 
0.35999999999997667, -0.6991010266121198 
0.36999999999997557, -0.6968047747292825 
0.37999999999997447, -0.693491234442803 
0.38999999999997337, -0.688909025409169 
0.39999999999997227, -0.6829789721086194 
0.40999999999997117, -0.6759422643490438 
0.41999999999997006, -0.6683635019628098 
0.42999999999996896, -0.6609354166710645 
0.43999999999996786, -0.6542287808322498 
0.44999999999996676, -0.6485627284625737 
0.45999999999996566, -0.6440214764903699 
0.46999999999996456, -0.6405371005353799 
0.47999999999996346, -0.6379682226671585 
0.48999999999996235, -0.6361511088305581 
0.49999999999996125, -0.6349267105998767 
0.5099999999999602, -0.634153110284158 
0.519999999999959, -0.6337103554112692 
0.529999999999958, -0.6335013603090883 
0.5399999999999568, -0.6334505816761808 
0.5499999999999557, -0.6335014262367802 
0.5599999999999546, -0.6336131974521095 
0.5699999999999535, -0.6337583308628895 
0.5799999999999524, -0.6339204106497639 
0.5899999999999513, -0.634092863941489 
0.5999999999999502, -0.6342773831565752 
0.6099999999999491, -0.6344805683569031 
0.619999999999948, -0.6347078833924692 
0.6299999999999469, -0.634956090791122 
0.6399999999999458, -0.635207708346548 
0.6499999999999447, -0.6354315338169235 
0.6599999999999436, -0.6355904563254842 
0.6699999999999425, -0.6356528562463737 
0.6799999999999414, -0.6356011245541044 
0.6899999999999403, -0.6354333626965061 
0.6999999999999392, -0.6351596581747335 
0.7099999999999381, -0.6347973266147452 
0.719999999999937, -0.6343688196056287 
0.7299999999999359, -0.633904096732762 
0.7399999999999348, -0.6334483046445751 
0.7499999999999337, -0.6330757965105887 
0.7599999999999326, -0.6329120074851912 
0.7699999999999315, -0.6331642706598863 
0.7799999999999304, -0.6341594458216364 
0.7899999999999293, -0.6363768659328989 
0.7999999999999282, -0.6404447141180114 
0.8099999999999271, -0.6470361818786152 
0.819999999999926, -0.6565866999962354 
0.8299999999999249, -0.6688472699662782 
0.8399999999999238, -0.6825726674631147 
0.8499999999999227, -0.6958394328866293 
0.8599999999999216, -0.7069822956437334 
0.8699999999999205, -0.715315061961821 
0.8799999999999194, -0.7210526799102217 
0.8899999999999183, -0.7248023034518902 
0.8999999999999172, -0.727170882144392 
0.9099999999999161, -0.728619459901389 
0.919999999999915, -0.7294575203482838 
0.9299999999999139, -0.7298784669603215 
0.9399999999999128, -0.7299941540679691 
0.9499999999999117, -0.7298579841559901 
0.9599999999999106, -0.7294764347722188 
0.9699999999999095, -0.7288107287134215 
0.9799999999999084, -0.7277704342138025 
0.9899999999999073, -0.7262025144371959 
0.9999999999999062, -0.7238857644491066 
1.0099999999999052, -0.7205529951775161 
1.019999999999904, -0.7159719483818872 
1.029999999999903, -0.7100894647604681 
1.039999999999902, -0.7031623470379478 
1.0499999999999008, -0.6957435449226461 
1.0599999999998997, -0.6884924028565326 
1.0699999999998986, -0.6819484014150692 
1.0799999999998975, -0.6764179391101202 
1.0899999999998964, -0.6719893964570204 
1.0999999999998953, -0.6686054542460059 
1.1099999999998942, -0.6661331005255876 
1.119999999999893, -0.6644112095792968 
1.129999999999892, -0.6632780729642568 
1.1399999999998909, -0.6625861746067787 
1.1499999999998898, -0.6622094776279639 
1.1599999999998887, -0.66204594549024 
1.1699999999998876, -0.66201675789012 
1.1799999999998865, -0.6620634282923039 
1.1899999999998854, -0.6621440929092867 
1.1999999999998843, -0.6622301623643667 
1.2099999999998832, -0.662304117114165 
1.219999999999882, -0.6623584200720158 
1.229999999999881, -0.6623944550193844 
1.2399999999998799, -0.6624197331740815 
1.2499999999998788, -0.6624423491178868 
1.2599999999998777, -0.6624639778885723 
1.2699999999998766, -0.6624749566392568 
1.2799999999998755, -0.6624548912301362 
1.2899999999998744, -0.6623791448854676 
1.2999999999998733, -0.6622276286289223 
1.3099999999998722, -0.661991010329597 
1.319999999999871, -0.6616720934942738 
1.32999999999987, -0.6612839897820859 
1.3399999999998689, -0.6608484393808783 
1.3499999999998678, -0.660396893749305 
1.3599999999998666, -0.659975555786747 
1.3699999999998655, -0.659654660370084 
1.3799999999998644, -0.6595417597325168 
1.3899999999998633, -0.6597979991027011 
1.3999999999998622, -0.6606547109088275 
1.4099999999998611, -0.662424545100057 
1.41999999999986, -0.6654960012536956 
1.429999999999859, -0.6702919905656487 
1.4399999999998578, -0.6771647932568159 
1.4499999999998567, -0.6862073496309886 
1.4599999999998556, -0.697020418655373 
1.4699999999998545, -0.7086014615012117 
1.4799999999998534, -0.719581523798894 
1.4899999999998523, -0.7287867638538633 
1.4999999999998512, -0.7356986152586363 
1.5099999999998501, -0.7404532046992486 
1.519999999999849, -0.7435194838510301 
1.529999999999848, -0.74539781642824 
1.5399999999998468, -0.7464811288865458 
1.5499999999998457, -0.7470344558087452 
1.5599999999998446, -0.7472189753071956 
1.5699999999998435, -0.7471199169429286 
1.5799999999998424, -0.74676491149312 
1.5899999999998413, -0.7461304210934255 
1.5999999999998402, -0.7451362028784578 
1.6099999999998391, -0.7436275113696222 
1.619999999999838, -0.7413462939991134 
1.629999999999837, -0.7379020125702455 
1.6399999999998358, -0.7327786484596329 
1.6499999999998347, -0.725453574470537 
1.6599999999998336, -0.7156955411398661 
1.6699999999998325, -0.7039364305035247 
1.6799999999998314, -0.6913555519248956 
1.6899999999998303, -0.6794378589695113 
1.6999999999998292, -0.6693313214237938 
1.709999999999828, -0.6615248099854993 
1.719999999999827, -0.6559424726554473 
1.729999999999826, -0.6522060716182704 
1.7399999999998248, -0.6498553924425859 
1.7499999999998237, -0.648470118602251 
1.7599999999998226, -0.647715780359034 
1.7699999999998215, -0.6473479256786256 
1.7799999999998204, -0.6471982292414229 
1.7899999999998193, -0.6471555289538959 
1.7999999999998182, -0.6471479954147036 
1.809999999999817, -0.6471289556669102 
1.819999999999816, -0.6470671097156002 
1.8299999999998149, -0.6469411487905969 
1.8399999999998138, -0.6467383767548789 
1.8499999999998127, -0.6464561616899941 
1.8599999999998116, -0.6461037235871172 
1.8699999999998105, -0.6457009542520564 
1.8799999999998094, -0.6452724478580116 
1.8899999999998083, -0.6448386492300344 
1.8999999999998072, -0.6444088912734901 
1.909999999999806, -0.6439802117420272 
1.919999999999805, -0.6435420581975437 
1.9299999999998039, -0.6430836029378293 
1.9399999999998028, -0.6425998131390371 
1.9499999999998017, -0.642094519855237 
1.9599999999998006, -0.6415813360687971 
1.9699999999997995, -0.6410844236896787 
1.9799999999997984, -0.6406406695253622 
1.9899999999997973, -0.6403038133169022 
1.9999999999997962, -0.6401502267498158 
2.0099999999998173, -0.6402854854881461 
2.0199999999998384, -0.640850441217773 
2.0299999999998595, -0.6420249630479742 
2.0399999999998806, -0.6440264695176586 
2.0499999999999017, -0.6470980596261083 
2.059999999999923, -0.6514768218864809 
2.069999999999944, -0.6573284055156529 
2.079999999999965, -0.6646381122831999 
2.089999999999986, -0.6730809816891757 
2.100000000000007, -0.6819620414737086 
2.1100000000000283, -0.690356211249385 
2.1200000000000494, -0.6974500078722964 
2.1300000000000705, -0.702849406684804 
2.1400000000000916, -0.7066139117011331 
2.1500000000001127, -0.7090615426454978 
2.160000000000134, -0.7105566702730868 
2.170000000000155, -0.7113972945982141 
2.180000000000176, -0.7117888799122185 
2.190000000000197, -0.7118561641272826 
2.2000000000002182, -0.7116612038944803 
2.2100000000002393, -0.7112151237127045 
2.2200000000002604, -0.7104800811826418 
2.2300000000002815, -0.7093602575655903 
2.2400000000003026, -0.7076809336973733 
2.2500000000003237, -0.7051573860782486 
2.260000000000345, -0.7013675858617707 
2.270000000000366, -0.6957739075595338 
2.280000000000387, -0.6878793226402984 
2.290000000000408, -0.677570008038846 
2.3000000000004293, -0.6654711766082091 
2.3100000000004504, -0.6529086179690486 
2.3200000000004715, -0.6413452289833963 
2.3300000000004926, -0.6317637664531685 
2.3400000000005137, -0.6244715754846301 
2.3500000000005348, -0.6192833974857885 
2.360000000000556, -0.6157925417207067 
2.370000000000577, -0.6135607130641738 
2.380000000000598, -0.6122081081988144 
2.390000000000619, -0.6114396809732108 
2.4000000000006403, -0.6110410346661352 
2.4100000000006614, -0.6108633733391929 
2.4200000000006825, -0.6108067190129599 
2.4300000000007036, -0.6108051936447627 
2.4400000000007247, -0.6108156782834769 
2.450000000000746, -0.6108101266443952 
2.460000000000767, -0.6107713744845482 
2.470000000000788, -0.6106918677160627 
2.480000000000809, -0.6105739519950605 
2.49000000000083, -0.6104294195298171 
2.5000000000008513, -0.6102759579464077 
2.5100000000008724, -0.6101300368997421 
2.5200000000008935, -0.609998847371593 
2.5300000000009146, -0.60987563926193 
2.5400000000009357, -0.6097414281297329 
2.550000000000957, -0.6095723321793949 
2.560000000000978, -0.6093484095129378 
2.570000000000999, -0.6090595015177488 
2.58000000000102, -0.6087065043363188 
2.5900000000010412, -0.6082998864233242 
2.6000000000010624, -0.6078585205901883 
2.6100000000010835, -0.6074111650514228 
2.6200000000011046, -0.6070018527637553 
2.6300000000011257, -0.6066999715785609 
2.6400000000011468, -0.6066157879370515 
2.650000000001168, -0.6069219038456797 
2.660000000001189, -0.6078796309361804 
2.67000000000121, -0.6098647651400306 
2.680000000001231, -0.6133766704835173 
2.6900000000012523, -0.6189946513315212 
2.7000000000012734, -0.6272219892454458 
2.7100000000012945, -0.6381713721369985 
2.7200000000013156, -0.65118532129161 
2.7300000000013367, -0.6647483507407745 
2.740000000001358, -0.6770400816927824 
2.750000000001379, -0.6868198831636523 
2.7600000000014, -0.6938318374088357 
2.770000000001421, -0.6985109386378165 
2.780000000001442, -0.7014946683663463 
2.7900000000014633, -0.7033352636765743 
2.8000000000014844, -0.7044243553667153 
2.8100000000015055, -0.7050132653453131 
2.8200000000015266, -0.7052521841610193 
2.8300000000015477, -0.7052211638195731 
2.840000000001569, -0.7049483499768828 
2.85000000000159, -0.7044169489973302 
2.860000000001611, -0.7035630625410223 
2.870000000001632, -0.702267116505841 
2.8800000000016532, -0.7003454568907097 
2.8900000000016743, -0.697558280707635 
2.9000000000016954, -0.6936618471432394 
2.9100000000017165, -0.6885251244945478 
2.9200000000017377, -0.6822721004059665 
2.9300000000017588, -0.6753326193616749 
2.94000000000178, -0.6683166263529807 
2.950000000001801, -0.6617912331886832 
2.960000000001822, -0.6561251363304117 
2.970000000001843, -0.6514665470105035 
2.9800000000018643, -0.647803102638645 
2.9900000000018854, -0.6450341990813367 
3.0000000000019065, -0.6430233089287005 
3.0100000000019276, -0.6416278691250302 
3.0200000000019487, -0.6407142673350504 
3.03000000000197, -0.6401648118104891 
3.040000000001991, -0.6398805738011996 
3.050000000002012, -0.6397818248390559 
3.060000000002033, -0.6398068703916744 
3.070000000002054, -0.6399099279287134 
3.0800000000020753, -0.640058763766403 
3.0900000000020964, -0.6402327187932059 
3.1000000000021175, -0.6404213236304398 
3.1100000000021386, -0.6406229289481031 
3.1200000000021597, -0.6408420349302935 
3.130000000002181, -0.6410841144992037 
3.140000000002202, -0.6413483207345995 
3.150000000002223, -0.6416209348990403 
3.160000000002244, -0.641873756797664 
3.1700000000022652, -0.6420698971609002 
3.1800000000022863, -0.6421747833527028 
3.1900000000023074, -0.6421662042276701 
3.2000000000023285, -0.6420381171233945 
3.2100000000023496, -0.6417980543367201 
3.2200000000023707, -0.6414621132833231 
3.230000000002392, -0.6410517637280742 
3.240000000002413, -0.640594820547878 
3.250000000002434, -0.6401315547568391 
3.260000000002455, -0.6397267972362766 
3.2700000000024763, -0.6394893438036301 
3.2800000000024974, -0.6395998669381755 
3.2900000000025185, -0.6403463230572207 
3.3000000000025396, -0.6421588591739138 
3.3100000000025607, -0.6456203076559184 
3.3200000000025818, -0.6514009346547129 
3.330000000002603, -0.6600419175252487 
3.340000000002624, -0.6715569022316263 
3.350000000002645, -0.6850364046197706 
3.360000000002666, -0.6987152766181378 
3.3700000000026873, -0.7107433087088042 
3.3800000000027084, -0.7200699572808296 
3.3900000000027295, -0.7266451748080686 
3.4000000000027506, -0.7309962994539594 
3.4100000000027717, -0.7337612937540727 
3.420000000002793, -0.7354614221529058 
3.430000000002814, -0.7364585451060315 
3.440000000002835, -0.7369830991856937 
3.450000000002856, -0.7371715593414336 
3.460000000002877, -0.7370941440944663 
3.4700000000028983, -0.736770163184403 
3.4800000000029194, -0.7361723780342275 
3.4900000000029405, -0.735221930041645 
3.5000000000029616, -0.7337761368053193 
3.5100000000029827, -0.7316161462798123 
3.520000000003004, -0.728453339608208 
3.530000000003025, -0.7239889914197624 
3.540000000003046, -0.7180548017260323 
3.550000000003067, -0.7107907824564275 
3.5600000000030882, -0.7027155583541002 
3.5700000000031094, -0.6945764171711263 
3.5800000000031305, -0.6870717741868854 
3.5900000000031516, -0.6806527024705368 
3.6000000000031727, -0.6754911202341558 
3.6100000000031938, -0.6715530929728304 
3.620000000003215, -0.6686905875778351 
3.630000000003236, -0.6667102385396764 
3.640000000003257, -0.665414746804056 
3.650000000003278, -0.6646248695528735 
3.6600000000032993, -0.6641895277547039 
3.6700000000033204, -0.6639886025032531 
3.6800000000033415, -0.6639311128360302 
3.6900000000033626, -0.6639507717106258 
3.7000000000033837, -0.6640006732694597 
3.710000000003405, -0.6640485840539953 
3.720000000003426, -0.6640738220903402 
3.730000000003447, -0.6640659199813148 
3.740000000003468, -0.664024159826868 
3.750000000003489, -0.6639560671448259 
3.7600000000035103, -0.663873111292552 
3.7700000000035314, -0.6637838735159576 
3.7800000000035525, -0.6636876595132117 
3.7900000000035736, -0.6635724417785226 
3.8000000000035947, -0.6634188139544628 
3.810000000003616, -0.6632077840647365 
3.820000000003637, -0.6629279229258616 
3.830000000003658, -0.6625786692619031 
3.840000000003679, -0.6621700619510791 
3.8500000000037002, -0.6617215734620423 
3.8600000000037213, -0.6612627199440498 
3.8700000000037424, -0.66083687441475 
3.8800000000037635, -0.6605085770617263 
3.8900000000037847, -0.6603739046448587 
3.9000000000038058, -0.6605727360294928 
3.910000000003827, -0.6613006166515499 
3.920000000003848, -0.6628160781734589 
3.930000000003869, -0.6654362510731613 
3.94000000000389, -0.6695087115463004 
3.9500000000039113, -0.675341336976616 
3.9600000000039324, -0.683071988493391 
3.9700000000039535, -0.6924882805997166 
3.9800000000039746, -0.702888896692003 
3.9900000000039957, -0.7131635992806635 
4.000000000004016, -0.7221799884000206 
4.010000000003993, -0.7292469996073537 
4.02000000000397, -0.7342802053177643 
4.030000000003946, -0.7376088689810386 
4.040000000003923, -0.7396854950631611 
4.0500000000039, -0.7409049439014183 
4.0600000000038765, -0.7415495560253191 
4.070000000003853, -0.7417981374248566 
4.08000000000383, -0.7417503976564472 
4.090000000003807, -0.7414463239170007 
4.100000000003783, -0.7408750051520603 
4.11000000000376, -0.7399719750723809 
4.120000000003737, -0.7386044014218528 
4.130000000003713, -0.7365438551443524 
4.14000000000369, -0.7334321370443055 
4.150000000003667, -0.7287656891558545 
4.1600000000036434, -0.7219648579822663 
4.17000000000362, -0.7126214138530258 
4.180000000003597, -0.7009094896923638 
4.1900000000035735, -0.6878483402946565 
4.20000000000355, -0.6750141990011345 
4.210000000003527, -0.6638272546008792 
4.220000000003504, -0.6550309193817707 
4.23000000000348, -0.648675983586193 
4.240000000003457, -0.6443979872672451 
4.250000000003434, -0.6416951974686255 
4.26000000000341, -0.6400936744350607 
4.270000000003387, -0.6392129114011539 
4.280000000003364, -0.638774968344515 
4.2900000000033405, -0.6385893363987798 
4.300000000003317, -0.6385311020126239 
4.310000000003294, -0.6385204031965978 
4.320000000003271, -0.6385061347934529 
4.330000000003247, -0.6384545653053242 
4.340000000003224, -0.6383426946871943 
4.350000000003201, -0.6381559018419982 
4.360000000003177, -0.6378889193605949 
4.370000000003154, -0.6375480090290859 
4.380000000003131, -0.6371510617156559 
4.390000000003107, -0.636723011227588 
4.400000000003084, -0.6362872599839333 
4.410000000003061, -0.6358574061715656 
4.4200000000030375, -0.6354339383044929 
4.430000000003014, -0.6350073444388182 
4.440000000002991, -0.6345651835120368 
4.450000000002968, -0.63409904094121 
4.460000000002944, -0.6336086805186774 
4.470000000002921, -0.6331034542994513 
4.480000000002898, -0.6326028317461903 
4.490000000002874, -0.632137955064716 
4.500000000002851, -0.6317552197752766 
4.510000000002828, -0.6315219697773151 
4.520000000002804, -0.6315337787342437 
4.530000000002781, -0.6319223127829493 
4.540000000002758, -0.6328621746859394 
4.5500000000027345, -0.6345740395039619 
4.560000000002711, -0.637319092230335 
4.570000000002688, -0.6413753324778944 
4.580000000002665, -0.6469801683753869 
4.590000000002641, -0.6542226084444956 
4.600000000002618, -0.6628919965398079 
4.610000000002595, -0.6723605773521317 
4.620000000002571, -0.6816531765376763 
4.630000000002548, -0.6897821265116281 
4.640000000002525, -0.6961490953798048 
4.6500000000025015, -0.7006875544130208 
4.660000000002478, -0.7036930759339375 
4.670000000002455, -0.7055686256216782 
4.6800000000024315, -0.7066656323763822 
4.690000000002408, -0.7072353795394234 
4.700000000002385, -0.7074364362154236 
4.710000000002362, -0.7073556291223027 
4.720000000002338, -0.7070243483205191 
4.730000000002315, -0.7064251148381658 
4.740000000002292, -0.7054873676425326 
4.750000000002268, -0.7040719588996587 
4.760000000002245, -0.7019454305459759 
4.770000000002222, -0.698753592398358 
4.7800000000021985, -0.6940273091350474 
4.790000000002175, -0.6872888220997486 
4.800000000002152, -0.6783193532045327 
4.810000000002129, -0.6674929451107124 
4.820000000002105, -0.6558525306436053 
4.830000000002082, -0.6447183294702529 
4.840000000002059, -0.6351222502989452 
4.850000000002035, -0.6275268683637492 
4.860000000002012, -0.6219060483089928 
4.870000000001989, -0.617967501268472 
4.880000000001965, -0.6153379302075616 
4.890000000001942, -0.6136653021449375 
4.900000000001919, -0.6126590360134476 
4.9100000000018955, -0.6120968468177049 
4.920000000001872, -0.6118171525091662 
