t, s[1].omega / s[0].omega 
0, -0.7299976803496321 
0.009999999999999995, -0.729748918562093 
0.019999999999999934, -0.7294631462566838 
0.029999999999999874, -0.7291316254927244 
0.04000000000000012, -0.7287463935376605 
0.050000000000000405, -0.7283057786234998 
0.06000000000000069, -0.7278173614804058 
0.07000000000000098, -0.7272987270400401 
0.08000000000000126, -0.7267778505097502 
0.09000000000000155, -0.7262945418842841 
0.10000000000000184, -0.7259030052341513 
0.11000000000000212, -0.7256743353199793 
0.12000000000000241, -0.7256971702871883 
0.130000000000002, -0.7260749257525236 
0.1400000000000009, -0.726919014009954 
0.1499999999999998, -0.7283386635581285 
0.1599999999999987, -0.7304283640967448 
0.1699999999999976, -0.7332527967934195 
0.1799999999999965, -0.7368269787316021 
0.1899999999999954, -0.7410889877227776 
0.1999999999999943, -0.7458685712115872 
0.2099999999999932, -0.7508698810767842 
0.2199999999999921, -0.7557010950385858 
0.229999999999991, -0.7599697319256215 
0.2399999999999899, -0.7634058614574881 
0.2499999999999888, -0.76593103057929 
0.2599999999999877, -0.7676305085487812 
0.2699999999999866, -0.7686689698793987 
0.2799999999999855, -0.7692145739458958 
0.2899999999999844, -0.7693998730845477 
0.2999999999999833, -0.769312332778014 
0.3099999999999822, -0.768998248631459 
0.3199999999999811, -0.768469299175663 
0.32999999999998, -0.7677076864390668 
0.3399999999999789, -0.76667016408662 
0.3499999999999778, -0.7652941888097448 
0.35999999999997667, -0.7635119895880093 
0.36999999999997557, -0.7612792357577342 
0.37999999999997447, -0.7586187588138681 
0.38999999999997337, -0.7556600725045298 
0.39999999999997227, -0.7526351013629557 
0.40999999999997117, -0.7498208444840906 
0.41999999999997006, -0.7475006730233099 
0.42999999999996896, -0.7459682500131465 
0.43999999999996786, -0.7454346250285455 
0.44999999999996676, -0.7458504079253634 
0.45999999999996566, -0.7468970659226953 
0.46999999999996456, -0.7481778087951857 
0.47999999999996346, -0.7493928187550687 
0.48999999999996235, -0.7503873124912893 
0.49999999999996125, -0.7511156474714091 
0.5099999999999602, -0.7515885284462838 
0.519999999999959, -0.7518340301998641 
0.529999999999958, -0.7518754695492674 
0.5399999999999568, -0.7517200001868297 
0.5499999999999557, -0.7513518925979366 
0.5599999999999546, -0.7507271346004571 
0.5699999999999535, -0.7497693501557514 
0.5799999999999524, -0.7483713916141738 
0.5899999999999513, -0.7464117401171271 
0.5999999999999502, -0.7437947950996672 
0.6099999999999491, -0.7405095614717905 
0.619999999999948, -0.7366738522425986 
0.6299999999999469, -0.7325227421255843 
0.6399999999999458, -0.7283391050479917 
0.6499999999999447, -0.7243734105078637 
0.6599999999999436, -0.7207991527341768 
0.6699999999999425, -0.7177103711017152 
0.6799999999999414, -0.7151406454178093 
0.6899999999999403, -0.7130838393107121 
0.6999999999999392, -0.7115084974675636 
0.7099999999999381, -0.7103662096274592 
0.719999999999937, -0.7095970371487696 
0.7299999999999359, -0.7091345054883662 
0.7399999999999348, -0.7089109729377893 
0.7499999999999337, -0.7088628009352959 
0.7599999999999326, -0.7089343090050668 
0.7699999999999315, -0.709079934846793 
0.7799999999999304, -0.7092647944478643 
0.7899999999999293, -0.7094643292756142 
0.7999999999999282, -0.7096635756253231 
0.8099999999999271, -0.7098558580407843 
0.819999999999926, -0.7100399932900724 
0.8299999999999249, -0.7102153628802443 
0.8399999999999238, -0.7103759144679926 
0.8499999999999227, -0.7105061646075628 
0.8599999999999216, -0.7105823817218464 
0.8699999999999205, -0.7105792481099049 
0.8799999999999194, -0.7104783566859354 
0.8899999999999183, -0.7102736773558612 
0.8999999999999172, -0.7099720338162445 
0.9099999999999161, -0.7095906367217952 
0.919999999999915, -0.7091552604063559 
0.9299999999999139, -0.7087015867811739 
0.9399999999999128, -0.7082805289933412 
0.9499999999999117, -0.7079671158107916 
0.9599999999999106, -0.7078715559154067 
0.9699999999999095, -0.7081498999570528 
0.9799999999999084, -0.7090102159362461 
0.9899999999999073, -0.7107087518794812 
0.9999999999999062, -0.7135293911378909 
1.0099999999999052, -0.7177385743982032 
1.019999999999904, -0.7235077243199961 
1.029999999999903, -0.7308026696231826 
1.039999999999902, -0.7392687994064115 
1.0499999999999008, -0.748194557303809 
1.0599999999998997, -0.7566579173203783 
1.0699999999998986, -0.7638478563224373 
1.0799999999998975, -0.7693544275186677 
1.0899999999998964, -0.7732122886315713 
1.0999999999998953, -0.7757241000911959 
1.1099999999998942, -0.7772530894234716 
1.119999999999893, -0.7781041183481892 
1.129999999999892, -0.7784910112384043 
1.1399999999998909, -0.7785454837660191 
1.1499999999998898, -0.7783350699548726 
1.1599999999998887, -0.7778761805603437 
1.1699999999998876, -0.77713840445204 
1.1799999999998865, -0.7760392844093639 
1.1899999999998854, -0.7744292261155689 
1.1999999999998843, -0.7720671378549039 
1.2099999999998832, -0.7685927663822121 
1.219999999999882, -0.7635187043921845 
1.229999999999881, -0.7563016552047762 
1.2399999999998799, -0.7465881164725378 
1.2499999999998788, -0.7346491125383374 
1.2599999999998777, -0.7216964111641532 
1.2699999999998766, -0.7095589188966297 
1.2799999999998755, -0.6997761633534121 
1.2899999999998744, -0.6929352417452834 
1.2999999999998733, -0.6887422109655864 
1.3099999999998722, -0.6864934067035029 
1.319999999999871, -0.6854746153309631 
1.32999999999987, -0.6851391406262447 
1.3399999999998689, -0.6851297523193149 
1.3499999999998678, -0.6852366936916826 
1.3599999999998666, -0.6853458241794848 
1.3699999999998655, -0.6853971349105901 
1.3799999999998644, -0.6853567754179302 
1.3899999999998633, -0.6851999498927108 
1.3999999999998622, -0.6849016008784647 
1.4099999999998611, -0.6844332863346516 
1.41999999999986, -0.6837662539995704 
1.429999999999859, -0.682880830091106 
1.4399999999998578, -0.6817794018944712 
1.4499999999998567, -0.6804955344210053 
1.4599999999998556, -0.679090799000033 
1.4699999999998545, -0.6776384941366264 
1.4799999999998534, -0.6762038420722989 
1.4899999999998523, -0.6748320566184015 
1.4999999999998512, -0.6735479804751638 
1.5099999999998501, -0.672363201380872 
1.519999999999849, -0.6712846401404761 
1.529999999999848, -0.6703209010924119 
1.5399999999998468, -0.6694854796877848 
1.5499999999998457, -0.6687974168865505 
1.5599999999998446, -0.6682802758674915 
1.5699999999998435, -0.6679601505079088 
1.5799999999998424, -0.6678633094595965 
1.5899999999998413, -0.668014091746249 
1.5999999999998402, -0.6684336109157714 
1.6099999999998391, -0.6691395231568421 
1.619999999999838, -0.6701465407075553 
1.629999999999837, -0.6714666124287364 
1.6399999999998358, -0.6731069018119002 
1.6499999999998347, -0.6750632002846252 
1.6599999999998336, -0.6773070740325385 
1.6699999999998325, -0.6797684118680974 
1.6799999999998314, -0.6823220794833819 
1.6899999999998303, -0.6847942720711676 
1.6999999999998292, -0.6869994392344767 
1.709999999999828, -0.6887953124906369 
1.719999999999827, -0.6901214390214581 
1.729999999999826, -0.6909970682502202 
1.7399999999998248, -0.6914883050884069 
1.7499999999998237, -0.691671650641495 
1.7599999999998226, -0.6916107319150353 
1.7699999999998215, -0.6913470467551559 
1.7799999999998204, -0.6908987908956635 
1.7899999999998193, -0.6902626289879803 
1.7999999999998182, -0.6894161313282278 
1.809999999999817, -0.6883209567100335 
1.819999999999816, -0.6869282068904354 
1.8299999999998149, -0.6851869615737652 
1.8399999999998138, -0.6830525186986625 
1.8499999999998127, -0.6804807895339332 
1.8599999999998116, -0.6773924808318277 
1.8699999999998105, -0.6736397926578122 
1.8799999999998094, -0.6691141699784222 
1.8899999999998083, -0.6640572603120746 
1.8999999999998072, -0.6592056914329775 
1.909999999999806, -0.6553856017967578 
1.919999999999805, -0.6529717608605242 
1.9299999999998039, -0.6518076324531554 
1.9399999999998028, -0.6514868486664575 
1.9499999999998017, -0.6516159228106809 
1.9599999999998006, -0.6519191247288758 
1.9699999999997995, -0.652236997723975 
1.9799999999997984, -0.6524898811493905 
1.9899999999997973, -0.6526424451221909 
1.9999999999997962, -0.6526788637084601 
2.0099999999998173, -0.652587675708297 
2.0199999999998384, -0.6523533239368504 
2.0299999999998595, -0.6519524503768662 
2.0399999999998806, -0.6513548867332709 
2.0499999999999017, -0.6505306245668849 
2.059999999999923, -0.6494631894466875 
2.069999999999944, -0.6481653243122941 
2.079999999999965, -0.6466871521817522 
2.089999999999986, -0.6451078985138168 
2.100000000000007, -0.6435135953330006 
2.1100000000000283, -0.6419744693591298 
2.1200000000000494, -0.6405342263791669 
2.1300000000000705, -0.6392126596772731 
2.1400000000000916, -0.6380152347884868 
2.1500000000001127, -0.6369429472972125 
2.160000000000134, -0.6359990983020425 
2.170000000000155, -0.6351926303522302 
2.180000000000176, -0.6345389831110799 
2.190000000000197, -0.6340595098624218 
2.2000000000002182, -0.6337801738566123 
2.2100000000002393, -0.6337300124493923 
2.2200000000002604, -0.6339397852850249 
2.2300000000002815, -0.6344411528497231 
2.2400000000003026, -0.6352664830808886 
2.2500000000003237, -0.6364488467887353 
2.260000000000345, -0.6380209075987981 
2.270000000000366, -0.6400103276678735 
2.280000000000387, -0.6424284571224532 
2.290000000000408, -0.6452498611528965 
2.3000000000004293, -0.6483853723121065 
2.3100000000004504, -0.6516626277548777 
2.3200000000004715, -0.6548387258925109 
2.3300000000004926, -0.657659804770103 
2.3400000000005137, -0.6599428170787779 
2.3500000000005348, -0.6616243011277172 
2.360000000000556, -0.6627468946695767 
2.370000000000577, -0.6634077484666323 
2.380000000000598, -0.6637096511822129 
2.390000000000619, -0.6637337381699951 
2.4000000000006403, -0.6635303799295014 
2.4100000000006614, -0.6631183316022905 
2.4200000000006825, -0.6624846330943794 
2.4300000000007036, -0.661581035632161 
2.4400000000007247, -0.6603142213802109 
2.450000000000746, -0.658527022037682 
2.460000000000767, -0.6559677813902216 
2.470000000000788, -0.6522498458908044 
2.480000000000809, -0.6468270079343319 
2.49000000000083, -0.6390734400781822 
2.5000000000008513, -0.6286155819494734 
2.5100000000008724, -0.6158898012404704 
2.5200000000008935, -0.6023874122043386 
2.5300000000009146, -0.5900246842203452 
2.5400000000009357, -0.5801282598785853 
2.550000000000957, -0.5730250944409331 
2.560000000000978, -0.5683384727905199 
2.570000000000999, -0.5654460615650483 
2.58000000000102, -0.5637639649619067 
2.5900000000010412, -0.5628457157024204 
2.6000000000010624, -0.5623838281226987 
2.6100000000010835, -0.5621790248805498 
2.6200000000011046, -0.5621068264699387 
2.6300000000011257, -0.5620909229355038 
2.6400000000011468, -0.5620845047803776 
2.650000000001168, -0.5620583065131207 
2.660000000001189, -0.561993900724902 
2.67000000000121, -0.5618810883956201 
2.680000000001231, -0.5617182257406924 
2.6900000000012523, -0.5615136633300866 
2.7000000000012734, -0.5612856022247046 
2.7100000000012945, -0.5610579615486289 
2.7200000000013156, -0.5608522682669601 
2.7300000000013367, -0.5606788397162976 
2.740000000001358, -0.5605318797783426 
2.750000000001379, -0.5603913193802053 
2.7600000000014, -0.5602305142551111 
2.770000000001421, -0.560025644705865 
2.780000000001442, -0.559762182744836 
2.7900000000014633, -0.5594365230330576 
2.8000000000014844, -0.5590543236748056 
2.8100000000015055, -0.5586285750219424 
2.8200000000015266, -0.5581798353302928 
2.8300000000015477, -0.5577400586886447 
2.840000000001569, -0.5573610946885383 
2.85000000000159, -0.557129275375913 
2.860000000001611, -0.5571878981411674 
2.870000000001632, -0.5577686210540693 
2.8800000000016532, -0.5592280485257699 
2.8900000000016743, -0.5620713595789945 
2.9000000000016954, -0.5669132620983091 
2.9100000000017165, -0.5742858656128365 
2.9200000000017377, -0.5842291075791695 
2.9300000000017588, -0.595849716413533 
2.94000000000178, -0.6074115332544967 
2.950000000001801, -0.6172356801169394 
2.960000000001822, -0.6245923996636028 
2.970000000001843, -0.6296915094327418 
2.9800000000018643, -0.6331111750210796 
2.9900000000018854, -0.6353837891556771 
3.0000000000019065, -0.6368847721525783 
3.0100000000019276, -0.6378574870507451 
3.0200000000019487, -0.6384569309941306 
3.03000000000197, -0.6387804535677081 
3.040000000001991, -0.6388856142252978 
3.050000000002012, -0.6387997872590743 
3.060000000002033, -0.6385247400143834 
3.070000000002054, -0.6380384281312541 
3.0800000000020753, -0.6372966437841787 
3.0900000000020964, -0.6362387732488826 
3.1000000000021175, -0.634803378023147 
3.1100000000021386, -0.6329566120259852 
3.1200000000021597, -0.6307252757823056 
3.130000000002181, -0.6282122478040004 
3.140000000002202, -0.6255752923678658 
3.150000000002223, -0.6229783982218713 
3.160000000002244, -0.6205479341017714 
3.1700000000022652, -0.6183563280248475 
3.1800000000022863, -0.6164305707939886 
3.1900000000023074, -0.6147703987345876 
3.2000000000023285, -0.6133644396586009 
3.2100000000023496, -0.6122001948090234 
3.2200000000023707, -0.6112684494429257 
3.230000000002392, -0.6105641539467612 
3.240000000002413, -0.6100856345710391 
3.250000000002434, -0.6098334021624405 
3.260000000002455, -0.6098093116561116 
3.2700000000024763, -0.6100164428082422 
3.2800000000024974, -0.6104597537648638 
3.2900000000025185, -0.6111472342532005 
3.3000000000025396, -0.6120908901612008 
3.3100000000025607, -0.613306354611185 
3.3200000000025818, -0.6148092528459815 
3.330000000002603, -0.6166060148699557 
3.340000000002624, -0.6186777499522104 
3.350000000002645, -0.6209599450298747 
3.360000000002666, -0.6233288101363269 
3.3700000000026873, -0.6256114642639649 
3.3800000000027084, -0.6276284849604384 
3.3900000000027295, -0.629250103902489 
3.4000000000027506, -0.630428938134565 
3.4100000000027717, -0.631190862565304 
3.420000000002793, -0.6316002090573484 
3.430000000002814, -0.6317259691291734 
3.440000000002835, -0.6316217779176027 
3.450000000002856, -0.6313179562793965 
3.460000000002877, -0.6308191368547644 
3.4700000000028983, -0.6301021061775167 
3.4800000000029194, -0.6291103270589787 
3.4900000000029405, -0.6277421594903327 
3.5000000000029616, -0.6258290276994755 
3.5100000000029827, -0.6230992813678531 
3.520000000003004, -0.6191302662587107 
3.530000000003025, -0.6133254971711641 
3.540000000003046, -0.6050370572766949 
3.550000000003067, -0.5939962173642136 
3.5600000000030882, -0.5809104213835847 
3.5700000000031094, -0.567513964348976 
3.5800000000031305, -0.5556859672333737 
3.5900000000031516, -0.546487981556093 
3.6000000000031727, -0.5400002450679985 
3.6100000000031938, -0.5357408108365758 
3.620000000003215, -0.5330931406573309 
3.630000000003236, -0.5315236164952338 
3.640000000003257, -0.5306386872234999 
3.650000000003278, -0.5301711040313398 
3.6600000000032993, -0.5299477010457546 
3.6700000000033204, -0.5298593267613849 
3.6800000000033415, -0.5298381970359701 
3.6900000000033626, -0.5298424901911598 
3.7000000000033837, -0.5298467316057965 
3.710000000003405, -0.5298365984425666 
3.720000000003426, -0.5298069932546627 
3.730000000003447, -0.5297620479642188 
3.740000000003468, -0.5297150966504629 
3.750000000003489, -0.5296862749642094 
3.7600000000035103, -0.52969634345265 
3.7700000000035314, -0.5297577991100504 
3.7800000000035525, -0.5298668979696023 
3.7900000000035736, -0.5300009726463129 
3.8000000000035947, -0.5301234999311186 
3.810000000003616, -0.5301951845965848 
3.820000000003637, -0.5301853396051459 
3.830000000003658, -0.5300777856729578 
3.840000000003679, -0.5298698259988058 
3.8500000000037002, -0.5295672875004817 
3.8600000000037213, -0.5291796101309959 
3.8700000000037424, -0.528717360803585 
3.8800000000037635, -0.5281929001664579 
3.8900000000037847, -0.5276243860099357 
3.9000000000038058, -0.5270434889545694 
3.910000000003827, -0.5265070561386396 
3.920000000003848, -0.5261105388045719 
3.930000000003869, -0.525992337745298 
3.94000000000389, -0.5262979448061567 
3.9500000000039113, -0.5270477266711473 
3.9600000000039324, -0.5278876249663884 
3.9700000000039535, -0.5279335509877188 
3.9800000000039746, -0.5261991771887073 
3.9900000000039957, -0.5225608862003894 
4.000000000004016, -0.5180516503761787 
4.010000000003993, -0.5139586291416305 
4.02000000000397, -0.5109569027064762 
4.030000000003946, -0.5090707146071292 
4.040000000003923, -0.50802689821997 
4.0500000000039, -0.5075223028121367 
4.0600000000038765, -0.5073245206238023 
4.070000000003853, -0.5072810874664913 
4.08000000000383, -0.5072997498480943 
4.090000000003807, -0.5073268108452069 
4.100000000003783, -0.5073309816738762 
4.11000000000376, -0.5072931392417834 
4.120000000003737, -0.5072008430252541 
4.130000000003713, -0.5070466092415788 
4.14000000000369, -0.5068291350377555 
4.150000000003667, -0.5065561801257947 
4.1600000000036434, -0.5062466827050778 
4.17000000000362, -0.5059290850471303 
4.180000000003597, -0.5056344019412091 
4.1900000000035735, -0.5053860817323428 
4.20000000000355, -0.5051914066900262 
4.210000000003527, -0.5050387600803341 
4.220000000003504, -0.504902115118113 
4.23000000000348, -0.5047504681106527 
4.240000000003457, -0.5045574928380073 
4.250000000003434, -0.5043071490579937 
4.26000000000341, -0.5039941632125471 
4.270000000003387, -0.5036214632919482 
4.280000000003364, -0.5031975478472946 
4.2900000000033405, -0.5027358734905805 
4.300000000003317, -0.5022573181763106 
4.310000000003294, -0.5017964775243945 
4.320000000003271, -0.5014127738925502 
4.330000000003247, -0.501207175985855 
4.340000000003224, -0.5013426546404148 
4.350000000003201, -0.5020566519777366 
4.360000000003177, -0.5036294179127514 
4.370000000003154, -0.5062363915157782 
4.380000000003131, -0.5096333125270867 
4.390000000003107, -0.5128697446939049 
4.400000000003084, -0.5146130929581456 
4.410000000003061, -0.514223689433268 
4.4200000000030375, -0.5123417381762188 
4.430000000003014, -0.5101480442103162 
4.440000000002991, -0.5084195759997544 
4.450000000002968, -0.5073473500897469 
4.460000000002944, -0.5068077730181865 
4.470000000002921, -0.5066075577207113 
4.480000000002898, -0.506587965938559 
4.490000000002874, -0.5066436240685819 
4.500000000002851, -0.5067114636080488 
4.510000000002828, -0.5067553568605356 
4.520000000002804, -0.5067541611197726 
4.530000000002781, -0.5066941939858393 
4.540000000002758, -0.5065655649661196 
4.5500000000027345, -0.5063618019025828 
4.560000000002711, -0.5060822279039836 
4.570000000002688, -0.5057357996058292 
4.580000000002665, -0.5053437185034844 
4.590000000002641, -0.5049375216508472 
4.600000000002618, -0.5045513565311492 
4.610000000002595, -0.5042111591128773 
4.620000000002571, -0.5039260514115059 
4.630000000002548, -0.5036861777687093 
4.640000000002525, -0.5034676903137829 
4.6500000000025015, -0.503242087021861 
4.660000000002478, -0.502985282841869 
4.670000000002455, -0.502682725292998 
4.6800000000024315, -0.5023299290505194 
4.690000000002408, -0.5019305096808873 
4.700000000002385, -0.5014944450531763 
4.710000000002362, -0.501038494106954 
4.720000000002338, -0.5005898994333993 
4.730000000002315, -0.5001943733868852 
4.740000000002292, -0.4999296895498519 
4.750000000002268, -0.4999260574600015 
4.760000000002245, -0.50039166976914 
4.770000000002222, -0.5016313218931534 
4.7800000000021985, -0.5040194705152964 
4.790000000002175, -0.507848161418406 
4.800000000002152, -0.5129820030350561 
4.810000000002129, -0.5184978092255523 
4.820000000002105, -0.522912242322071 
4.830000000002082, -0.5252440871936382 
4.840000000002059, -0.5257582698633714 
4.850000000002035, -0.5254234639412877 
4.860000000002012, -0.5250084596018524 
4.870000000001989, -0.524808745473155 
4.880000000001965, -0.5248257487441231 
4.890000000001942, -0.5249694412939696 
4.900000000001919, -0.5251546300458505 
4.9100000000018955, -0.5253246186215541 
4.920000000001872, -0.5254470941320561 
