t, s[1].omega / s[0].omega 
0, -0.7600186241264713 
0.009999999999999995, -0.7618248294552011 
0.019999999999999934, -0.7634379126461613 
0.029999999999999874, -0.7647546060574142 
0.04000000000000012, -0.7657186244606242 
0.050000000000000405, -0.7663285738411931 
0.06000000000000069, -0.7666228897315447 
0.07000000000000098, -0.7666559603559618 
0.08000000000000126, -0.7664799025182567 
0.09000000000000155, -0.7661372902008288 
0.10000000000000184, -0.7656637897504102 
0.11000000000000212, -0.765099257570636 
0.12000000000000241, -0.7645084769343848 
0.130000000000002, -0.7640151961059582 
0.1400000000000009, -0.7638527581469825 
0.1499999999999998, -0.7644275316953912 
0.1599999999999987, -0.7663725981549536 
0.1699999999999976, -0.7705370019953907 
0.1799999999999965, -0.7778231319641085 
0.1899999999999954, -0.7887980922933485 
0.1999999999999943, -0.8031512315481244 
0.2099999999999932, -0.819370447326851 
0.2199999999999921, -0.8351422080791175 
0.229999999999991, -0.8484212826270372 
0.2399999999999899, -0.8582931136042455 
0.2499999999999888, -0.8649593704460778 
0.2599999999999877, -0.8691630263893234 
0.2699999999999866, -0.8716813396576834 
0.2799999999999855, -0.8731094959602593 
0.2899999999999844, -0.8738392695538485 
0.2999999999999833, -0.8741046654636483 
0.3099999999999822, -0.8740300571091136 
0.3199999999999811, -0.8736620699387865 
0.32999999999998, -0.8729839357320367 
0.3399999999999789, -0.8719146513059405 
0.3499999999999778, -0.8702951623967822 
0.35999999999997667, -0.8678653783112361 
0.36999999999997557, -0.8642438294393369 
0.37999999999997447, -0.8589415185944013 
0.38999999999997337, -0.8514720312530217 
0.39999999999997227, -0.8416306498721638 
0.40999999999997117, -0.8299172140310533 
0.41999999999997006, -0.8177960299604111 
0.42999999999996896, -0.8072889578631642 
0.43999999999996786, -0.7999234228585475 
0.44999999999996676, -0.7959655153781137 
0.45999999999996566, -0.794625426290714 
0.46999999999996456, -0.7947939721001146 
0.47999999999996346, -0.7955820211342711 
0.48999999999996235, -0.796464659972896 
0.49999999999996125, -0.7972022103706565 
0.5099999999999602, -0.7977172251693337 
0.519999999999959, -0.7980027489702035 
0.529999999999958, -0.7980697132934311 
0.5399999999999568, -0.797920064405693 
0.5499999999999557, -0.7975322092279292 
0.5599999999999546, -0.7968505938042665 
0.5699999999999535, -0.7957768764190556 
0.5799999999999524, -0.7941667269778476 
0.5899999999999513, -0.7918443690899566 
0.5999999999999502, -0.7886509963496883 
0.6099999999999491, -0.7845278493876571 
0.619999999999948, -0.7795937185609432 
0.6299999999999469, -0.7741503991291003 
0.6399999999999458, -0.768595380124929 
0.6499999999999447, -0.763302196242406 
0.6599999999999436, -0.758543406359595 
0.6699999999999425, -0.7544753575926727 
0.6799999999999414, -0.7511582924958907 
0.6899999999999403, -0.7485828996881974 
0.6999999999999392, -0.7466911085866673 
0.7099999999999381, -0.7453914611897547 
0.719999999999937, -0.7445728093854063 
0.7299999999999359, -0.7441180497694748 
0.7399999999999348, -0.743916613675141 
0.7499999999999337, -0.7438732676548497 
0.7599999999999326, -0.7439118758743362 
0.7699999999999315, -0.7439748067790182 
0.7799999999999304, -0.7440201078054756 
0.7899999999999293, -0.744018773066262 
0.7999999999999282, -0.7439534910783185 
0.8099999999999271, -0.7438185573613894 
0.819999999999926, -0.7436189671999556 
0.8299999999999249, -0.7433665378491503 
0.8399999999999238, -0.7430731740676152 
0.8499999999999227, -0.7427444987176697 
0.8599999999999216, -0.7423778032094981 
0.8699999999999205, -0.7419655319118388 
0.8799999999999194, -0.7415017968534349 
0.8899999999999183, -0.7409880978465646 
0.8999999999999172, -0.740436277950835 
0.9099999999999161, -0.7398694649740736 
0.919999999999915, -0.7393228134283529 
0.9299999999999139, -0.7388449784679585 
0.9399999999999128, -0.7384997101110478 
0.9499999999999117, -0.7383659232695076 
0.9599999999999106, -0.7385346175275875 
0.9699999999999095, -0.7391021339091706 
0.9799999999999084, -0.7401608749957502 
0.9899999999999073, -0.7417895931187476 
0.9999999999999062, -0.7440445854541519 
1.0099999999999052, -0.7469506809509878 
1.019999999999904, -0.7504883601612921 
1.029999999999903, -0.7545735812939968 
1.039999999999902, -0.7590334146747323 
1.0499999999999008, -0.7635945634716316 
1.0599999999998997, -0.7679134249756129 
1.0699999999998986, -0.7716609584979157 
1.0799999999998975, -0.7746253009103484 
1.0899999999998964, -0.7767619189638889 
1.0999999999998953, -0.7781614925715268 
1.1099999999998942, -0.7789748012368813 
1.119999999999893, -0.7793490814710534 
1.129999999999892, -0.7793969255094113 
1.1399999999998909, -0.7791899819159588 
1.1499999999998898, -0.7787638501267657 
1.1599999999998887, -0.778126219080176 
1.1699999999998876, -0.7772670047830448 
1.1799999999998865, -0.7761746347060481 
1.1899999999998854, -0.7748675202946063 
1.1999999999998843, -0.7734531169312847 
1.2099999999998832, -0.7722210098222411 
1.219999999999882, -0.7717427372764095 
1.229999999999881, -0.7728739075213358 
1.2399999999998799, -0.7764866359365425 
1.2499999999998788, -0.782899771177856 
1.2599999999998777, -0.7914236643913072 
1.2699999999998766, -0.8006088162430324 
1.2799999999998755, -0.8090465518793474 
1.2899999999998744, -0.8159325777834645 
1.2999999999998733, -0.8210851590958438 
1.3099999999998722, -0.824698907825702 
1.319999999999871, -0.8271062692410069 
1.32999999999987, -0.8286328043480948 
1.3399999999998689, -0.8295366779523109 
1.3499999999998678, -0.8299976974898474 
1.3599999999998666, -0.8301261028998935 
1.3699999999998655, -0.8299736711526459 
1.3799999999998644, -0.8295390277945536 
1.3899999999998633, -0.8287635364326803 
1.3999999999998622, -0.8275158143690486 
1.4099999999998611, -0.8255653168260702 
1.41999999999986, -0.822554202713893 
1.429999999999859, -0.817999256920684 
1.4399999999998578, -0.8113883694300951 
1.4499999999998567, -0.8024300820255534 
1.4599999999998556, -0.7913820195776757 
1.4699999999998545, -0.7791813294680752 
1.4799999999998534, -0.767156939892189 
1.4899999999998523, -0.7565046712068803 
1.4999999999998512, -0.7479230524653386 
1.5099999999998501, -0.7415712027423926 
1.519999999999849, -0.7372277487485955 
1.529999999999848, -0.7344858872402644 
1.5399999999998468, -0.7329022271985937 
1.5499999999998457, -0.7320839609355324 
1.5599999999998446, -0.7317252478931582 
1.5699999999998435, -0.7316096297258639 
1.5799999999998424, -0.7315943807356975 
1.5899999999998413, -0.7315889775931053 
1.5999999999998402, -0.7315351383155924 
1.6099999999998391, -0.7313918956860839 
1.619999999999838, -0.7311268941664769 
1.629999999999837, -0.7307141905501399 
1.6399999999998358, -0.7301379576950515 
1.6499999999998347, -0.7293993174260911 
1.6599999999998336, -0.7285207157263067 
1.6699999999998325, -0.7275423580552525 
1.6799999999998314, -0.7265106884118064 
1.6899999999998303, -0.7254655288235354 
1.6999999999998292, -0.7244332947526195 
1.709999999999828, -0.7234284156114291 
1.719999999999827, -0.7224597585620943 
1.729999999999826, -0.7215375395157344 
1.7399999999998248, -0.7206780352662879 
1.7499999999998237, -0.7199056256931672 
1.7599999999998226, -0.7192526855275824 
1.7699999999998215, -0.7187577806847204 
1.7799999999998204, -0.7184624202837331 
1.7899999999998193, -0.7184068236031973 
1.7999999999998182, -0.7186256468426856 
1.809999999999817, -0.7191448698104477 
1.819999999999816, -0.7199806771256985 
1.8299999999998149, -0.7211402068702052 
1.8399999999998138, -0.7226228471604866 
1.8499999999998127, -0.7244197735237143 
1.8599999999998116, -0.7265090824577329 
1.8699999999998105, -0.7288449589140329 
1.8799999999998094, -0.7313430741744644 
1.8899999999998083, -0.7338711968661896 
1.8999999999998072, -0.7362593869836989 
1.909999999999806, -0.7383375121110932 
1.919999999999805, -0.7399852507774152 
1.9299999999998039, -0.741162298032448 
1.9399999999998028, -0.7419002952710282 
1.9499999999998017, -0.7422693903504162 
1.9599999999998006, -0.742344828330099 
1.9699999999997995, -0.7421874985529268 
1.9799999999997984, -0.7418382224089395 
1.9899999999997973, -0.7413207919372643 
1.9999999999997962, -0.7406509252525163 
2.0099999999998173, -0.7398525562967773 
2.0199999999998384, -0.7389871054068139 
2.0299999999998595, -0.7382042944087199 
2.0399999999998806, -0.7378205052482544 
2.0499999999999017, -0.7384119403220656 
2.059999999999923, -0.7408591471546637 
2.069999999999944, -0.746200943815863 
2.079999999999965, -0.755145030589328 
2.089999999999986, -0.7673563176975682 
2.100000000000007, -0.7811729257932811 
2.1100000000000283, -0.7943407146190118 
2.1200000000000494, -0.8052118376416789 
2.1300000000000705, -0.8132684463737545 
2.1400000000000916, -0.8188092670609495 
2.1500000000001127, -0.8224308095798329 
2.160000000000134, -0.8247063506787345 
2.170000000000155, -0.8260741157678388 
2.180000000000176, -0.8268321288687478 
2.190000000000197, -0.8271663888378015 
2.2000000000002182, -0.8271796839230976 
2.2100000000002393, -0.8269104062368442 
2.2200000000002604, -0.8263389194868063 
2.2300000000002815, -0.8253806749165922 
2.2400000000003026, -0.8238651053343478 
2.2500000000003237, -0.8215016145773836 
2.260000000000345, -0.8178457648587234 
2.270000000000366, -0.8123095369548821 
2.280000000000387, -0.8043019366037019 
2.290000000000408, -0.7935670765376536 
2.3000000000004293, -0.780588310874297 
2.3100000000004504, -0.766668459130805 
2.3200000000004715, -0.7534546684147617 
2.3300000000004926, -0.7422525222938834 
2.3400000000005137, -0.7336583385828773 
2.3500000000005348, -0.7276242226461581 
2.360000000000556, -0.7237254184633916 
2.370000000000577, -0.721412615633665 
2.380000000000598, -0.7201703557297924 
2.390000000000619, -0.719587631168042 
2.4000000000006403, -0.7193706525674276 
2.4100000000006614, -0.7193257887769404 
2.4200000000006825, -0.7193322925486244 
2.4300000000007036, -0.7193159817093575 
2.4400000000007247, -0.7192286954662783 
2.450000000000746, -0.7190347577724275 
2.460000000000767, -0.7187044140278653 
2.470000000000788, -0.7182139905844961 
2.480000000000809, -0.717551656004081 
2.49000000000083, -0.71672507731318 
2.5000000000008513, -0.7157645814629487 
2.5100000000008724, -0.7147169227256074 
2.5200000000008935, -0.7136316701634982 
2.5300000000009146, -0.7125483518063734 
2.5400000000009357, -0.7114913057744794 
2.550000000000957, -0.7104728315179603 
2.560000000000978, -0.7095004675180427 
2.570000000000999, -0.7085839099814842 
2.58000000000102, -0.7077393700228743 
2.5900000000010412, -0.7069912758516951 
2.6000000000010624, -0.7063719718303628 
2.6100000000010835, -0.7059198853898345 
2.6200000000011046, -0.7056764271722058 
2.6300000000011257, -0.7056820907886474 
2.6400000000011468, -0.7059726358752514 
2.650000000001168, -0.7065764022094434 
2.660000000001189, -0.7075133874249795 
2.67000000000121, -0.7087957635793398 
2.680000000001231, -0.7104283256564751 
2.6900000000012523, -0.7124063635449781 
2.7000000000012734, -0.7147081783835858 
2.7100000000012945, -0.7172810014749122 
2.7200000000013156, -0.7200240079541561 
2.7300000000013367, -0.7227803575486779 
2.740000000001358, -0.7253549952329998 
2.750000000001379, -0.727563224264205 
2.7600000000014, -0.7292867779474105 
2.770000000001421, -0.7304997081603081 
2.780000000001442, -0.7312504294134345 
2.7900000000014633, -0.7316212265023465 
2.8000000000014844, -0.731693247880874 
2.8100000000015055, -0.7315283389210098 
2.8200000000015266, -0.7311646587164399 
2.8300000000015477, -0.7306198426152254 
2.840000000001569, -0.7298985463290719 
2.85000000000159, -0.7290055468215226 
2.860000000001611, -0.7279696439573069 
2.870000000001632, -0.7268865872660555 
2.8800000000016532, -0.7259871886691924 
2.8900000000016743, -0.7257186641319789 
2.9000000000016954, -0.7267772209284007 
2.9100000000017165, -0.7299591271009653 
2.9200000000017377, -0.7357231641614658 
2.9300000000017588, -0.7436732376205616 
2.94000000000178, -0.7525547994212514 
2.950000000001801, -0.7609630352879868 
2.960000000001822, -0.7680297339180658 
2.970000000001843, -0.7735072199124792 
2.9800000000018643, -0.7775143866585057 
2.9900000000018854, -0.7803134489937953 
3.0000000000019065, -0.7821876017230225 
3.0100000000019276, -0.7833828195973369 
3.0200000000019487, -0.7840867773823186 
3.03000000000197, -0.7844279888082946 
3.040000000001991, -0.7844825139854049 
3.050000000002012, -0.7842801082226392 
3.060000000002033, -0.7838055096725622 
3.070000000002054, -0.7829929279866801 
3.0800000000020753, -0.7817139537730275 
3.0900000000020964, -0.7797639383364733 
3.1000000000021175, -0.7768629670975885 
3.1100000000021386, -0.7727032265848962 
3.1200000000021597, -0.7670733588514105 
3.130000000002181, -0.7600323748708261 
3.140000000002202, -0.7520076311975681 
3.150000000002223, -0.7436945135782099 
3.160000000002244, -0.7358088700438282 
3.1700000000022652, -0.7288756463388995 
3.1800000000022863, -0.7231603611809543 
3.1900000000023074, -0.718710278073688 
3.2000000000023285, -0.7154298061665576 
3.2100000000023496, -0.7131464752719804 
3.2200000000023707, -0.7116578648305428 
3.230000000002392, -0.7107630470296915 
3.240000000002413, -0.710282557961921 
3.250000000002434, -0.7100688381674203 
3.260000000002455, -0.7100085710561843 
3.2700000000024763, -0.7100191407384321 
3.2800000000024974, -0.7100421319305938 
3.2900000000025185, -0.7100367101370951 
3.3000000000025396, -0.7099749779334819 
3.3100000000025607, -0.7098402415759166 
3.3200000000025818, -0.7096275294743634 
3.330000000002603, -0.7093439595328246 
3.340000000002624, -0.709005972548758 
3.350000000002645, -0.7086324961201764 
3.360000000002666, -0.7082368365189349 
3.3700000000026873, -0.7078220110007083 
3.3800000000027084, -0.7073822100002836 
3.3900000000027295, -0.7069089789289186 
3.4000000000027506, -0.7063981652758321 
3.4100000000027717, -0.7058544916700418 
3.420000000002793, -0.7052934031068773 
3.430000000002814, -0.7047418430607256 
3.440000000002835, -0.7042395956963278 
3.450000000002856, -0.703841572956204 
3.460000000002877, -0.7036201528766984 
3.4700000000028983, -0.7036660349240885 
3.4800000000029194, -0.7040862407833582 
3.4900000000029405, -0.7049987338493009 
3.5000000000029616, -0.706524102857488 
3.5100000000029827, -0.7087748897436771 
3.520000000003004, -0.7118416617173511 
3.530000000003025, -0.7157722109902386 
3.540000000003046, -0.7205388339007088 
3.550000000003067, -0.7259938784697366 
3.5600000000030882, -0.7318317069556987 
3.5700000000031094, -0.7376002999642447 
3.5800000000031305, -0.7428028411200962 
3.5900000000031516, -0.7470611589000568 
3.6000000000031727, -0.7502317752775097 
3.6100000000031938, -0.7523933141712293 
3.620000000003215, -0.753742365996082 
3.630000000003236, -0.7544896734522795 
3.640000000003257, -0.7548042115591322 
3.650000000003278, -0.7547987081615379 
3.6600000000032993, -0.7545341598350674 
3.6700000000033204, -0.7540276942142539 
3.6800000000033415, -0.753257181576547 
3.6900000000033626, -0.7521611842675406 
3.7000000000033837, -0.7506353149286091 
3.710000000003405, -0.7485277805350329 
3.720000000003426, -0.7456383467681709 
3.730000000003447, -0.7417250409155091 
3.740000000003468, -0.7365231935485677 
3.750000000003489, -0.7298003943177862 
3.7600000000035103, -0.7215290395378291 
3.7700000000035314, -0.7122261036028753 
3.7800000000035525, -0.7031331320582656 
3.7900000000035736, -0.6957043430139124 
3.8000000000035947, -0.6907336859304435 
3.810000000003616, -0.6880748642421286 
3.820000000003637, -0.6870528342650057 
3.830000000003658, -0.6869557762569826 
3.840000000003679, -0.6872667782207315 
3.8500000000037002, -0.6876823883125444 
3.8600000000037213, -0.6880509716583604 
3.8700000000037424, -0.6883073946446797 
3.8800000000037635, -0.6884268912692757 
3.8900000000037847, -0.6883973833596292 
3.9000000000038058, -0.6882040364666338 
3.910000000003827, -0.6878211199382112 
3.920000000003848, -0.687209286047458 
3.930000000003869, -0.6863194951352918 
3.94000000000389, -0.6851064341239839 
3.9500000000039113, -0.6835513771677073 
3.9600000000039324, -0.6816853452314598 
3.9700000000039535, -0.6795953437331177 
3.9800000000039746, -0.6774036241459488 
3.9900000000039957, -0.675231362727694 
4.000000000004016, -0.6731700785191874 
4.010000000003993, -0.671273584339497 
4.02000000000397, -0.6695661840388013 
4.030000000003946, -0.6680561852366413 
4.040000000003923, -0.6667469735143172 
4.0500000000039, -0.6656431179605519 
4.0600000000038765, -0.6647521293358326 
4.070000000003853, -0.664083470508674 
4.08000000000383, -0.6636463464096387 
4.090000000003807, -0.6634474778814352 
4.100000000003783, -0.6634897272197905 
4.11000000000376, -0.6637720531559846 
4.120000000003737, -0.6642907988511249 
4.130000000003713, -0.6650418150187806 
4.14000000000369, -0.6660224528897184 
4.150000000003667, -0.6672320202171985 
4.1600000000036434, -0.6686689038028466 
4.17000000000362, -0.670322599912464 
4.180000000003597, -0.6721603721010829 
4.1900000000035735, -0.6741124190326695 
4.20000000000355, -0.6760656222675532 
4.210000000003527, -0.6778781785309563 
4.220000000003504, -0.679416613802211 
4.23000000000348, -0.6805959735932239 
4.240000000003457, -0.6813966799272846 
4.250000000003434, -0.6818507621238847 
4.26000000000341, -0.6820134071025683 
4.270000000003387, -0.6819386706248867 
4.280000000003364, -0.6816666558042922 
4.2900000000033405, -0.6812201888646439 
4.300000000003317, -0.680607115048544 
4.310000000003294, -0.6798264881208339 
4.320000000003271, -0.67887993823415 
4.330000000003247, -0.6777920711109245 
4.340000000003224, -0.6766443022744959 
4.350000000003201, -0.675620097735623 
4.360000000003177, -0.6750360319321004 
4.370000000003154, -0.675288112497609 
4.380000000003131, -0.6766274259197659 
4.390000000003107, -0.67884410193307 
4.400000000003084, -0.6812697343725597 
4.410000000003061, -0.6833337622812364 
4.4200000000030375, -0.6850114770798306 
4.430000000003014, -0.6865665260432993 
4.440000000002991, -0.68812273823082 
4.450000000002968, -0.6896073641323814 
4.460000000002944, -0.690899828197569 
4.470000000002921, -0.691928726161087 
4.480000000002898, -0.6926816224709582 
4.490000000002874, -0.6931799504501854 
4.500000000002851, -0.6934540664689943 
4.510000000002828, -0.6935274625518313 
4.520000000002804, -0.6934081633436999 
4.530000000002781, -0.6930837490463416 
4.540000000002758, -0.6925181685610189 
4.5500000000027345, -0.6916513596346673 
4.560000000002711, -0.6904061331732414 
4.570000000002688, -0.6887088560003551 
4.580000000002665, -0.6865257350202756 
4.590000000002641, -0.6839008250727396 
4.600000000002618, -0.6809668864851354 
4.610000000002595, -0.6779118074976542 
4.620000000002571, -0.6749202306684221 
4.630000000002548, -0.6721291751163136 
4.640000000002525, -0.6696167398565808 
4.6500000000025015, -0.6674149456607218 
4.660000000002478, -0.6655291862152118 
4.670000000002455, -0.6639533538075482 
4.6800000000024315, -0.6626779017312431 
4.690000000002408, -0.6616923661240213 
4.700000000002385, -0.6609848959088126 
4.710000000002362, -0.660540949540964 
4.720000000002338, -0.6603425612525351 
4.730000000002315, -0.6603688202418164 
4.740000000002292, -0.6605975574752783 
4.750000000002268, -0.661007779946632 
4.760000000002245, -0.661582165005726 
4.770000000002222, -0.6623088308581068 
4.7800000000021985, -0.6631814461804703 
4.790000000002175, -0.6641964865139047 
4.800000000002152, -0.665346493224199 
4.810000000002129, -0.666609444718875 
4.820000000002105, -0.6679375466207493 
4.830000000002082, -0.6692528537405302 
4.840000000002059, -0.6704577499425071 
4.850000000002035, -0.6714602402938279 
4.860000000002012, -0.6722007478935534 
4.870000000001989, -0.6726634096984814 
4.880000000001965, -0.6728674529541282 
4.890000000001942, -0.6728487838783489 
4.900000000001919, -0.6726440098621063 
4.9100000000018955, -0.6722822756339308 
4.920000000001872, -0.671784592170992 
