t, s[1].omega / s[0].omega 
0, -1.220126115060211 
0.009999999999999995, -1.2344661653289213 
0.019999999999999934, -1.2485472155273754 
0.029999999999999874, -1.2590713871141226 
0.04000000000000012, -1.2657190280235828 
0.050000000000000405, -1.2695017074512167 
0.06000000000000069, -1.2714860676212247 
0.07000000000000098, -1.2724070130609242 
0.08000000000000126, -1.272692315331767 
0.09000000000000155, -1.2725694467974429 
0.10000000000000184, -1.2721565787388351 
0.11000000000000212, -1.2715385279479272 
0.12000000000000241, -1.270854195223252 
0.130000000000002, -1.2704016054469924 
0.1400000000000009, -1.2706784810917011 
0.1499999999999998, -1.2721953005804336 
0.1599999999999987, -1.2750969861224366 
0.1699999999999976, -1.2789976453438807 
0.1799999999999965, -1.2832386096522412 
0.1899999999999954, -1.2872421968429382 
0.1999999999999943, -1.2906594382196872 
0.2099999999999932, -1.2933446373906605 
0.2199999999999921, -1.2952857395571251 
0.229999999999991, -1.2965487302153669 
0.2399999999999899, -1.2972391410104964 
0.2499999999999888, -1.2974736357028123 
0.2599999999999877, -1.2973613947655052 
0.2699999999999866, -1.2969985045485526 
0.2799999999999855, -1.2964751384093378 
0.2899999999999844, -1.2958881602065366 
0.2999999999999833, -1.2953445022021737 
0.3099999999999822, -1.2949431488980092 
0.3199999999999811, -1.2947447835589392 
0.32999999999998, -1.294755141704736 
0.3399999999999789, -1.2949309407700136 
0.3499999999999778, -1.2951956437293204 
0.35999999999997667, -1.2954575916854425 
0.36999999999997557, -1.2956279465660603 
0.37999999999997447, -1.2956309458752295 
0.38999999999997337, -1.2954037456082363 
0.39999999999997227, -1.294892328608895 
0.40999999999997117, -1.2940502820859394 
0.41999999999997006, -1.292841751778439 
0.42999999999996896, -1.2912465662302446 
0.43999999999996786, -1.289266975300385 
0.44999999999996676, -1.2869389832273979 
0.45999999999996566, -1.2843524033566305 
0.46999999999996456, -1.2816779798108453 
0.47999999999996346, -1.279180865867412 
0.48999999999996235, -1.27717202987887 
0.49999999999996125, -1.2758681138023482 
0.5099999999999602, -1.275251269864548 
0.519999999999959, -1.275088758437985 
0.529999999999958, -1.2750949106243863 
0.5399999999999568, -1.275055446387943 
0.5499999999999557, -1.2748353055123065 
0.5599999999999546, -1.2743229246024548 
0.5699999999999535, -1.2733631480745902 
0.5799999999999524, -1.2716869399882067 
0.5899999999999513, -1.2688312989771817 
0.5999999999999502, -1.2640681589167806 
0.6099999999999491, -1.25643784273274 
0.619999999999948, -1.2451008228035414 
0.6299999999999469, -1.2302077405778964 
0.6399999999999458, -1.2139124660817582 
0.6499999999999447, -1.2000918329444186 
0.6599999999999436, -1.1918631980748793 
0.6699999999999425, -1.1892524332210106 
0.6799999999999414, -1.1899401198796218 
0.6899999999999403, -1.1916211990611887 
0.6999999999999392, -1.1931095200595327 
0.7099999999999381, -1.194079762715218 
0.719999999999937, -1.1945587816137315 
0.7299999999999359, -1.1946385874191887 
0.7399999999999348, -1.1943729863713226 
0.7499999999999337, -1.1937484433197512 
0.7599999999999326, -1.1926727415401974 
0.7699999999999315, -1.190973128420425 
0.7799999999999304, -1.188445477427234 
0.7899999999999293, -1.185076292467215 
0.7999999999999282, -1.1816072950736851 
0.8099999999999271, -1.1802609618991662 
0.819999999999926, -1.1843757538658246 
0.8299999999999249, -1.1957087532993458 
0.8399999999999238, -1.2118526636858211 
0.8499999999999227, -1.227900675095969 
0.8599999999999216, -1.2403813449372598 
0.8699999999999205, -1.248608233716382 
0.8799999999999194, -1.2534747889116564 
0.8899999999999183, -1.2561358658166815 
0.8999999999999172, -1.2574651434203454 
0.9099999999999161, -1.2580036976783655 
0.919999999999915, -1.2580544268640215 
0.9299999999999139, -1.2577796783248492 
0.9399999999999128, -1.2572788219478823 
0.9499999999999117, -1.2566625073692597 
0.9599999999999106, -1.2561370181991491 
0.9699999999999095, -1.2560619085906684 
0.9799999999999084, -1.2568710017752793 
0.9899999999999073, -1.2588138567993867 
0.9999999999999062, -1.2617426673105625 
1.0099999999999052, -1.265199475303222 
1.019999999999904, -1.2686852961399258 
1.029999999999903, -1.2718388473885756 
1.039999999999902, -1.2744627608696253 
1.0499999999999008, -1.2764820952666258 
1.0599999999998997, -1.2779010353248557 
1.0699999999998986, -1.2787731051329327 
1.0799999999998975, -1.2791792655542034 
1.0899999999998964, -1.2792097419227448 
1.0999999999998953, -1.2789520016851184 
1.1099999999998942, -1.2784888124006595 
1.119999999999893, -1.2779055966972308 
1.129999999999892, -1.277298490869671 
1.1399999999998909, -1.27676952051083 
1.1499999999998898, -1.2764038042579484 
1.1599999999998887, -1.2762441376746787 
1.1699999999998876, -1.2762823007536037 
1.1799999999998865, -1.2764665248648417 
1.1899999999998854, -1.2767159402529704 
1.1999999999998843, -1.2769391798892977 
1.2099999999998832, -1.2770513802905668 
1.219999999999882, -1.276981277108268 
1.229999999999881, -1.2766691900785792 
1.2399999999998799, -1.276063696658165 
1.2499999999998788, -1.275122176395723 
1.2599999999998777, -1.273814847521559 
1.2699999999998766, -1.2721300056242222 
1.2799999999998755, -1.2700806333264147 
1.2899999999998744, -1.2677157833769575 
1.2999999999998733, -1.2651398685535569 
1.3099999999998722, -1.2625354630256882 
1.319999999999871, -1.2601661391375318 
1.32999999999987, -1.258315678218323 
1.3399999999998689, -1.257152962937052 
1.3499999999998678, -1.2566229625469436 
1.3599999999998666, -1.2564908079297568 
1.3699999999998655, -1.256492206062385 
1.3799999999998644, -1.256433096603995 
1.3899999999998633, -1.2561874513619051 
1.3999999999998622, -1.2556441858634475 
1.4099999999998611, -1.2546456605902248 
1.41999999999986, -1.2529241445471926 
1.429999999999859, -1.2500342193274259 
1.4399999999998578, -1.2453053645031535 
1.4499999999998567, -1.237902485467028 
1.4599999999998556, -1.2271563845093039 
1.4699999999998545, -1.2132699577382566 
1.4799999999998534, -1.198067578617431 
1.4899999999998523, -1.1847707608152527 
1.4999999999998512, -1.1761518246570986 
1.5099999999998501, -1.1726050499294134 
1.519999999999849, -1.172404140692571 
1.529999999999848, -1.1735123417324373 
1.5399999999998468, -1.1747082101674065 
1.5499999999998457, -1.17555195292588 
1.5599999999998446, -1.1759854821933249 
1.5699999999998435, -1.1760552642873632 
1.5799999999998424, -1.1757930205357574 
1.5899999999998413, -1.1751720134008814 
1.5999999999998402, -1.174082578356247 
1.6099999999998391, -1.1723080257949727 
1.619999999999838, -1.1695208282414602 
1.629999999999837, -1.1653908435897278 
1.6399999999998358, -1.160003846903169 
1.6499999999998347, -1.1547051016236758 
1.6599999999998336, -1.1526441444157318 
1.6699999999998325, -1.1572134819239215 
1.6799999999998314, -1.1685846766459917 
1.6899999999998303, -1.1828437342061529 
1.6999999999998292, -1.1954980644962911 
1.709999999999828, -1.2045193071278435 
1.719999999999827, -1.210119587194801 
1.729999999999826, -1.213297034947192 
1.7399999999998248, -1.2149616922952542 
1.7499999999998237, -1.2157189004700713 
1.7599999999998226, -1.215917367172095 
1.7699999999998215, -1.2157394912798511 
1.7799999999998204, -1.2152742174594164 
1.7899999999998193, -1.2145796076553568 
1.7999999999998182, -1.213764339067191 
1.809999999999817, -1.2131112581661356 
1.819999999999816, -1.2131931381314531 
1.8299999999998149, -1.2147856628451617 
1.8399999999998138, -1.2184219854719005 
1.8499999999998127, -1.223912245722484 
1.8599999999998116, -1.2303937545741666 
1.8699999999998105, -1.236844256856322 
1.8799999999998094, -1.2425099194715878 
1.8899999999998083, -1.2470182600293345 
1.8999999999998072, -1.2503042580591102 
1.909999999999806, -1.2524938447353948 
1.919999999999805, -1.2537998457181887 
1.9299999999998039, -1.2544450436110814 
1.9399999999998028, -1.2546187077436164 
1.9499999999998017, -1.254465208949371 
1.9599999999998006, -1.254096059421594 
1.9699999999997995, -1.253614537552659 
1.9799999999997984, -1.253139320093684 
1.9899999999997973, -1.252806567435066 
1.9999999999997962, -1.2527349790170104 
2.0099999999998173, -1.2529741131000942 
2.0199999999998384, -1.2534850812966445 
2.0299999999998595, -1.2541691927844398 
2.0399999999998806, -1.2549110969917578 
2.0499999999999017, -1.2556071595359142 
2.059999999999923, -1.2561768314001016 
2.069999999999944, -1.2565637253856268 
2.079999999999965, -1.2567316587472042 
2.089999999999986, -1.256659684295602 
2.100000000000007, -1.2563384875050272 
2.1100000000000283, -1.2557687456523052 
2.1200000000000494, -1.254961404708602 
2.1300000000000705, -1.2539399878318203 
2.1400000000000916, -1.252745001233146 
2.1500000000001127, -1.2514394750440496 
2.160000000000134, -1.2501127921448982 
2.170000000000155, -1.2488781513470593 
2.180000000000176, -1.2478566369071382 
2.190000000000197, -1.2471407603659945 
2.2000000000002182, -1.2467477531614315 
2.2100000000002393, -1.2466016780450073 
2.2200000000002604, -1.2465687959968834 
2.2300000000002815, -1.2465122735286274 
2.2400000000003026, -1.246317776712352 
2.2500000000003237, -1.2458824859641378 
2.260000000000345, -1.2450883053559252 
2.270000000000366, -1.2437781863032695 
2.280000000000387, -1.2417478886547737 
2.290000000000408, -1.2387644751510947 
2.3000000000004293, -1.234620030041655 
2.3100000000004504, -1.2292195583609105 
2.3200000000004715, -1.222692120634012 
2.3300000000004926, -1.215501646923786 
2.3400000000005137, -1.2084861347018268 
2.3500000000005348, -1.202677346494998 
2.360000000000556, -1.1988313214477164 
2.370000000000577, -1.196984641192446 
2.380000000000598, -1.196526922451405 
2.390000000000619, -1.1967037603980286 
2.4000000000006403, -1.1969944543256799 
2.4100000000006614, -1.1971506062155102 
2.4200000000006825, -1.1970759368032622 
2.4300000000007036, -1.196712605145148 
2.4400000000007247, -1.1959666375473177 
2.450000000000746, -1.1946478291959153 
2.460000000000767, -1.192397344788572 
2.470000000000788, -1.1885974544650237 
2.480000000000809, -1.182320290292147 
2.49000000000083, -1.1725194869343638 
2.5000000000008513, -1.158818164175487 
2.5100000000008724, -1.142854881272089 
2.5200000000008935, -1.1286918569613233 
2.5300000000009146, -1.1204095923820572 
2.5400000000009357, -1.1187850798437247 
2.550000000000957, -1.1213019822789696 
2.560000000000978, -1.1249518671270315 
2.570000000000999, -1.128055065646891 
2.58000000000102, -1.1301727529710786 
2.5900000000010412, -1.131424586104742 
2.6000000000010624, -1.1320425623399841 
2.6100000000010835, -1.132207313263951 
2.6200000000011046, -1.1320166487479122 
2.6300000000011257, -1.1314902273506002 
2.6400000000011468, -1.1305758696273511 
2.650000000001168, -1.1291572573780602 
2.660000000001189, -1.1270929729031582 
2.67000000000121, -1.124364921676635 
2.680000000001231, -1.1214532360249958 
2.6900000000012523, -1.1198979950044 
2.7000000000012734, -1.1223846561491826 
2.7100000000012945, -1.131238119768142 
2.7200000000013156, -1.1459081058584044 
2.7300000000013367, -1.162627657874734 
2.740000000001358, -1.1772625602369204 
2.750000000001379, -1.1878564378950274 
2.7600000000014, -1.1945878783861381 
2.770000000001421, -1.1985028126072272 
2.780000000001442, -1.20061999989742 
2.7900000000014633, -1.2016515588294534 
2.8000000000014844, -1.20202550024703 
2.8100000000015055, -1.201977481865226 
2.8200000000015266, -1.2016312877892856 
2.8300000000015477, -1.201063225422557 
2.840000000001569, -1.2003709422750986 
2.85000000000159, -1.1997650173480225 
2.860000000001611, -1.1996562336265966 
2.870000000001632, -1.2006184225988168 
2.8800000000016532, -1.2031105097100894 
2.8900000000016743, -1.207123019783616 
2.9000000000016954, -1.2121300314936858 
2.9100000000017165, -1.217393630631427 
2.9200000000017377, -1.222286386049268 
2.9300000000017588, -1.226420894344923 
2.94000000000178, -1.229634476981945 
2.950000000001801, -1.231929360541834 
2.960000000001822, -1.2334115080521255 
2.970000000001843, -1.2342352579961842 
2.9800000000018643, -1.234558877180228 
2.9900000000018854, -1.2345188040202455 
3.0000000000019065, -1.2342252046817137 
3.0100000000019276, -1.233774416662505 
3.0200000000019487, -1.2332687931001818 
3.03000000000197, -1.232828353057928 
3.040000000001991, -1.2325759579510485 
3.050000000002012, -1.2325958194613424 
3.060000000002033, -1.2328982310247496 
3.070000000002054, -1.233422847692051 
3.0800000000020753, -1.2340713245151405 
3.0900000000020964, -1.2347397233411435 
3.1000000000021175, -1.2353376479824387 
3.1100000000021386, -1.235795856728022 
3.1200000000021597, -1.2360662652652328 
3.130000000002181, -1.236118241163397 
3.140000000002202, -1.2359346266435354 
3.150000000002223, -1.2355091387624997 
3.160000000002244, -1.2348454436461838 
3.1700000000022652, -1.2339579994058654 
3.1800000000022863, -1.2328748722383887 
3.1900000000023074, -1.2316423301065158 
3.2000000000023285, -1.2303296883024968 
3.2100000000023496, -1.229031077666721 
3.2200000000023707, -1.22785935302752 
3.230000000002392, -1.2269258097495745 
3.240000000002413, -1.226302430164014 
3.250000000002434, -1.2259829057744762 
3.260000000002455, -1.2258781398147296 
3.2700000000024763, -1.225856456259201 
3.2800000000024974, -1.2257906488489034 
3.2900000000025185, -1.2255746450350065 
3.3000000000025396, -1.2251103448489222 
3.3100000000025607, -1.2242845836695544 
3.3200000000025818, -1.2229526156244668 
3.330000000002603, -1.220938707617219 
3.340000000002624, -1.2180611435510909 
3.350000000002645, -1.2141822246553935 
3.360000000002666, -1.209274779357457 
3.3700000000026873, -1.203494245079554 
3.3800000000027084, -1.1972438181012073 
3.3900000000027295, -1.191190239875628 
3.4000000000027506, -1.1861334522435727 
3.4100000000027717, -1.182676286793488 
3.420000000002793, -1.1808908304627066 
3.430000000002814, -1.18033019448089 
3.440000000002835, -1.1803825621707649 
3.450000000002856, -1.1805860031882751 
3.460000000002877, -1.1806953547340664 
3.4700000000028983, -1.1806010190601408 
3.4800000000029194, -1.1802332381106253 
3.4900000000029405, -1.1794916960373933 
3.5000000000029616, -1.178186219258292 
3.5100000000029827, -1.1759668609116478 
3.520000000003004, -1.1722383150611493 
3.530000000003025, -1.1661050279782288 
3.540000000003046, -1.1565077931995345 
3.550000000003067, -1.142829398120667 
3.5600000000030882, -1.1260057802328267 
3.5700000000031094, -1.1091865892344708 
3.5800000000031305, -1.0963900473157862 
3.5900000000031516, -1.0897128999018608 
3.6000000000031727, -1.088196049413625 
3.6100000000031938, -1.089389615203681 
3.620000000003215, -1.091283374472279 
3.630000000003236, -1.0929043257878068 
3.640000000003257, -1.0939947527602887 
3.650000000003278, -1.0945909228488058 
3.6600000000032993, -1.0947879161525669 
3.6700000000033204, -1.0946500922914435 
3.6800000000033415, -1.0941832851568394 
3.6900000000033626, -1.093320136268088 
3.7000000000033837, -1.0918989252815474 
3.710000000003405, -1.0896353333254634 
3.720000000003426, -1.086115331701834 
3.730000000003447, -1.080898999330871 
3.740000000003468, -1.073900750293271 
3.750000000003489, -1.0661035967168309 
3.7600000000035103, -1.0600220408288508 
3.7700000000035314, -1.0586574375489577 
3.7800000000035525, -1.0630395024381842 
3.7900000000035736, -1.0711392755116882 
3.8000000000035947, -1.079717047709493 
3.810000000003616, -1.0866417815730756 
3.820000000003637, -1.09139044800328 
3.830000000003658, -1.0943228029778345 
3.840000000003679, -1.0959885291194291 
3.8500000000037002, -1.0968302704380588 
3.8600000000037213, -1.0971323743895673 
3.8700000000037424, -1.0970498142116492 
3.8800000000037635, -1.0966437214659874 
3.8900000000037847, -1.095905983386576 
3.9000000000038058, -1.0947799678034578 
3.910000000003827, -1.0932036190459962 
3.920000000003848, -1.0912300838006552 
3.930000000003869, -1.0893003145814228 
3.94000000000389, -1.088639393192465 
3.9500000000039113, -1.0913619053965644 
3.9600000000039324, -1.0995236230218095 
3.9700000000039535, -1.113231357290774 
3.9800000000039746, -1.1298014262984144 
3.9900000000039957, -1.1454311218559543 
4.000000000004016, -1.1576095657180718 
4.010000000003993, -1.1658535038341722 
4.02000000000397, -1.1709050607021896 
4.030000000003946, -1.1737766983152154 
4.040000000003923, -1.1752840042225252 
4.0500000000039, -1.175960683455518 
4.0600000000038765, -1.1761190919489988 
4.070000000003853, -1.1759298065315666 
4.08000000000383, -1.1754868803810061 
4.090000000003807, -1.1748665469220352 
4.100000000003783, -1.1741987165064633 
4.11000000000376, -1.173755765372492 
4.120000000003737, -1.174003242364539 
4.130000000003713, -1.1754874855976205 
4.14000000000369, -1.178525602827047 
4.150000000003667, -1.182945003441656 
4.1600000000036434, -1.1881544380649016 
4.17000000000362, -1.1934525731625414 
4.180000000003597, -1.1982795566905726 
4.1900000000035735, -1.2023000912972344 
4.20000000000355, -1.2053833124808766 
4.210000000003527, -1.20755179925447 
4.220000000003504, -1.2089250547859531 
4.23000000000348, -1.2096641923199833 
4.240000000003457, -1.2099279261816827 
4.250000000003434, -1.2098494353133862 
4.26000000000341, -1.2095352806793518 
4.270000000003387, -1.2090804416695593 
4.280000000003364, -1.208589451837434 
4.2900000000033405, -1.2081877279412716 
4.300000000003317, -1.2080044406950068 
4.310000000003294, -1.2081271663396833 
4.320000000003271, -1.2085633472538353 
4.330000000003247, -1.2092438089415833 
4.340000000003224, -1.2100595368491303 
4.350000000003201, -1.2108985852271144 
4.360000000003177, -1.211666755409777 
4.370000000003154, -1.2122942283115063 
4.380000000003131, -1.2127341559582212 
4.390000000003107, -1.2129580017439836 
4.400000000003084, -1.2129509836910004 
4.410000000003061, -1.2127092562366375 
4.4200000000030375, -1.2122390672596899 
4.430000000003014, -1.2115575004241737 
4.440000000002991, -1.2106944760847727 
4.450000000002968, -1.2096957738537628 
4.460000000002944, -1.208625782610064 
4.470000000002921, -1.207566789684353 
4.480000000002898, -1.2066114201750886 
4.490000000002874, -1.2058467512832904 
4.500000000002851, -1.2053304845412345 
4.510000000002828, -1.2050657177845616 
4.520000000002804, -1.2049923866223375 
4.530000000002781, -1.2050081103676669 
4.540000000002758, -1.2050028247676732 
4.5500000000027345, -1.2048794477782672 
4.560000000002711, -1.204552435069102 
4.570000000002688, -1.2039359929284674 
4.580000000002665, -1.2029362257857843 
4.590000000002641, -1.2014552437696393 
4.600000000002618, -1.199407901927206 
4.610000000002595, -1.1967452506847067 
4.620000000002571, -1.1934770502058156 
4.630000000002548, -1.1896916854826234 
4.640000000002525, -1.1855777556587872 
4.6500000000025015, -1.1814431101417828 
4.660000000002478, -1.177699518951598 
4.670000000002455, -1.1747618579154266 
4.6800000000024315, -1.172865957772222 
4.690000000002408, -1.1719388761451852 
4.700000000002385, -1.1716650581278696 
4.710000000002362, -1.171684618233753 
4.720000000002338, -1.1717341387585942 
4.730000000002315, -1.1716609364580266 
4.740000000002292, -1.1713700434007723 
4.750000000002268, -1.1707633310613192 
4.760000000002245, -1.1696857400759288 
4.770000000002222, -1.167871931881236 
4.7800000000021985, -1.1648924752637 
4.790000000002175, -1.1601282465615828 
4.800000000002152, -1.1528532495455706 
4.810000000002129, -1.1425404443588385 
4.820000000002105, -1.1294078994266505 
4.830000000002082, -1.1149016421727513 
4.840000000002059, -1.1015002031752803 
4.850000000002035, -1.0915536200505496 
4.860000000002012, -1.085953537162257 
4.870000000001989, -1.0839026400323835 
4.880000000001965, -1.0838620740722853 
4.890000000001942, -1.0845502430431646 
4.900000000001919, -1.0852702995218542 
4.9100000000018955, -1.0857607083998755 
4.920000000001872, -1.0859649544513983 
4.930000000001849, -1.0858828609358713 
4.940000000001826, -1.085497762838013 
