t, s[1].omega / s[0].omega 
0, -0.9999529391694681 
0.009999999999999995, -0.9949729535695855 
0.019999999999999934, -0.9896638661820443 
0.029999999999999874, -0.9843865520260306 
0.04000000000000012, -0.9795155577611598 
0.050000000000000405, -0.9753819059944574 
0.06000000000000069, -0.9722080789555536 
0.07000000000000098, -0.9700518991480136 
0.08000000000000126, -0.9687963053389799 
0.09000000000000155, -0.9682043286481861 
0.10000000000000184, -0.9680096432188959 
0.11000000000000212, -0.9679886190111044 
0.12000000000000241, -0.9679854381782524 
0.130000000000002, -0.9678998378132949 
0.1400000000000009, -0.9676605716176633 
0.1499999999999998, -0.9672004689567111 
0.1599999999999987, -0.9664396472016881 
0.1699999999999976, -0.9652804035254153 
0.1799999999999965, -0.9636181802032878 
0.1899999999999954, -0.9613706336705665 
0.1999999999999943, -0.958515972264013 
0.2099999999999932, -0.9551191374783968 
0.2199999999999921, -0.9513279238869525 
0.229999999999991, -0.9473434632676987 
0.2399999999999899, -0.9433860722758413 
0.2499999999999888, -0.9396708329127869 
0.2599999999999877, -0.936390360602967 
0.2699999999999866, -0.9336948265214643 
0.2799999999999855, -0.9316663160264822 
0.2899999999999844, -0.9302982035334111 
0.2999999999999833, -0.9294966696836078 
0.3099999999999822, -0.929110612269214 
0.3199999999999811, -0.9289756758591947 
0.32999999999998, -0.928949204729574 
0.3399999999999789, -0.9289234936998142 
0.3499999999999778, -0.9288207156798226 
0.35999999999997667, -0.9285802022368055 
0.36999999999997557, -0.9281473488917868 
0.37999999999997447, -0.9274696749733149 
0.38999999999997337, -0.9265022867216098 
0.39999999999997227, -0.925220747250734 
0.40999999999997117, -0.923633803854101 
0.41999999999997006, -0.9217864184899769 
0.42999999999996896, -0.9197500529981877 
0.43999999999996786, -0.91760723703871 
0.44999999999996676, -0.9154402783193032 
0.45999999999996566, -0.913327861867622 
0.46999999999996456, -0.9113462101876463 
0.47999999999996346, -0.9095691431569108 
0.48999999999996235, -0.9080631794458618 
0.49999999999996125, -0.9068773212415551 
0.5099999999999602, -0.9060309527869886 
0.519999999999959, -0.9055060214725387 
0.529999999999958, -0.9052490578562276 
0.5399999999999568, -0.9051834989962257 
0.5499999999999557, -0.9052264754236645 
0.5599999999999546, -0.9053022963076733 
0.5699999999999535, -0.9053486908725249 
0.5799999999999524, -0.9053172383843 
0.5899999999999513, -0.9051720201384544 
0.5999999999999502, -0.9048895474363718 
0.6099999999999491, -0.9044600561757207 
0.619999999999948, -0.9038877128508547 
0.6299999999999469, -0.9031874885895397 
0.6399999999999458, -0.9023795456490349 
0.6499999999999447, -0.9014846643076773 
0.6599999999999436, -0.9005234655807517 
0.6699999999999425, -0.8995190977541043 
0.6799999999999414, -0.8985009737689301 
0.6899999999999403, -0.8975072227104531 
0.6999999999999392, -0.8965844237194179 
0.7099999999999381, -0.895783848851454 
0.719999999999937, -0.8951542375600201 
0.7299999999999359, -0.8947325780360911 
0.7399999999999348, -0.8945358314774013 
0.7499999999999337, -0.8945567673162994 
0.7599999999999326, -0.8947656443142721 
0.7699999999999315, -0.8951170807033797 
0.7799999999999304, -0.8955593846656239 
0.7899999999999293, -0.8960430406469188 
0.7999999999999282, -0.8965261604243004 
0.8099999999999271, -0.8969763880121533 
0.819999999999926, -0.897369763245303 
0.8299999999999249, -0.8976874572810754 
0.8399999999999238, -0.8979119833004392 
0.8499999999999227, -0.8980253421874471 
0.8599999999999216, -0.8980110152778226 
0.8699999999999205, -0.8978590591365719 
0.8799999999999194, -0.8975710206588559 
0.8899999999999183, -0.8971619348317782 
0.8999999999999172, -0.8966597656044811 
0.9099999999999161, -0.8961047330104591 
0.919999999999915, -0.8955500077971003 
0.9299999999999139, -0.8950624659997397 
0.9399999999999128, -0.894720020781343 
0.9499999999999117, -0.8946025264710314 
0.9599999999999106, -0.894777029966676 
0.9699999999999095, -0.8952829568592466 
0.9799999999999084, -0.8961242246572514 
0.9899999999999073, -0.8972713791468309 
0.9999999999999062, -0.898671022804111 
1.0099999999999052, -0.9002567075249797 
1.019999999999904, -0.9019562995773424 
1.029999999999903, -0.90369392276375 
1.039999999999902, -0.905388302702922 
1.0499999999999008, -0.9069525640346454 
1.0599999999998997, -0.9083011955995486 
1.0699999999998986, -0.909365298727862 
1.0799999999998975, -0.9101088188881196 
1.0899999999998964, -0.9105346916057439 
1.0999999999998953, -0.9106768853924221 
1.1099999999998942, -0.9105852314342757 
1.119999999999893, -0.910313409589674 
1.129999999999892, -0.9099160039162486 
1.1399999999998909, -0.9094550905181021 
1.1499999999998898, -0.9090136388498582 
1.1599999999998887, -0.9087102281223907 
1.1699999999998876, -0.9087055907949335 
1.1799999999998865, -0.9091894649116041 
1.1899999999998854, -0.9103430373159233 
1.1999999999998843, -0.9122886606685803 
1.2099999999998832, -0.9150508630199988 
1.219999999999882, -0.9185457185923738 
1.229999999999881, -0.9225953226963514 
1.2399999999998799, -0.926952156490656 
1.2499999999998788, -0.9313247258133883 
1.2599999999998777, -0.935410257816992 
1.2699999999998766, -0.938943425672677 
1.2799999999998755, -0.9417524457275566 
1.2899999999998744, -0.9437919862667872 
1.2999999999998733, -0.945128817945531 
1.3099999999998722, -0.9458913364461126 
1.319999999999871, -0.9462169234954112 
1.32999999999987, -0.9462207341441943 
1.3399999999998689, -0.9459881942434907 
1.3499999999998678, -0.9455837868973076 
1.3599999999998666, -0.9450707117425878 
1.3699999999998655, -0.9445405724238836 
1.3799999999998644, -0.9441519635560354 
1.3899999999998633, -0.9441668568916409 
1.3999999999998622, -0.9449557630945652 
1.4099999999998611, -0.9469353046503899 
1.41999999999986, -0.950433131575086 
1.429999999999859, -0.9555371018107361 
1.4399999999998578, -0.9620141126318698 
1.4499999999998567, -0.9693400077556058 
1.4599999999998556, -0.9768186462182913 
1.4699999999998545, -0.9837466728867146 
1.4799999999998534, -0.9895818746747128 
1.4899999999998523, -0.9940591420966752 
1.4999999999998512, -0.9971991792350445 
1.5099999999998501, -0.9992138279031693 
1.519999999999849, -1.0003784990606401 
1.529999999999848, -1.0009409853174742 
1.5399999999998468, -1.0010853684147119 
1.5499999999998457, -1.0009336858476312 
1.5599999999998446, -1.000564778404097 
1.5699999999998435, -1.0000412590374768 
1.5799999999998424, -0.9994459726710667 
1.5899999999998413, -0.9989317694015669 
1.5999999999998402, -0.9987765710204141 
1.6099999999998391, -0.9994063623643534 
1.619999999999838, -1.0013249455697601 
1.629999999999837, -1.0049277898430655 
1.6399999999998358, -1.010287448597654 
1.6499999999998347, -1.0170599194657977 
1.6599999999998336, -1.0245740518495767 
1.6699999999998325, -1.0320336412303601 
1.6799999999998314, -1.0387284809694493 
1.6899999999998303, -1.0441900899309027 
1.6999999999998292, -1.0482553644642267 
1.709999999999828, -1.0510237523263561 
1.719999999999827, -1.0527419602014592 
1.729999999999826, -1.0536855341237739 
1.7399999999998248, -1.0540866629626005 
1.7499999999998237, -1.0541125144822066 
1.7599999999998226, -1.0538747487803866 
1.7699999999998215, -1.0534534855379882 
1.7799999999998204, -1.0529299596719233 
1.7899999999998193, -1.052427548430548 
1.7999999999998182, -1.0521530632145317 
1.809999999999817, -1.0524082486166189 
1.819999999999816, -1.0535283767965953 
1.8299999999998149, -1.055746311814004 
1.8399999999998138, -1.0590656647687238 
1.8499999999998127, -1.0632432499216815 
1.8599999999998116, -1.0678827740145482 
1.8699999999998105, -1.0725562808995117 
1.8799999999998094, -1.076889284943928 
1.8899999999998083, -1.080605276649634 
1.8999999999998072, -1.0835478236924598 
1.909999999999806, -1.085684623071456 
1.919999999999805, -1.0870861201100595 
1.9299999999998039, -1.0878817911853116 
1.9399999999998028, -1.0882136030796445 
1.9499999999998017, -1.0882059360571512 
1.9599999999998006, -1.0879577826434568 
1.9699999999997995, -1.087552773430513 
1.9799999999997984, -1.0870801640472842 
1.9899999999997973, -1.0866581598696612 
1.9999999999997962, -1.0864440411470213 
2.0099999999998173, -1.0866109848418533 
2.0199999999998384, -1.0872891729363339 
2.0299999999998595, -1.088507084593941 
2.0399999999998806, -1.0901799952534783 
2.0499999999999017, -1.0921505288774294 
2.059999999999923, -1.0942437519827082 
2.069999999999944, -1.096303686661152 
2.079999999999965, -1.0982058080485113 
2.089999999999986, -1.0998562726565084 
2.100000000000007, -1.101189305834027 
2.1100000000000283, -1.1021680204361952 
2.1200000000000494, -1.1027867696956535 
2.1300000000000705, -1.1030695641410069 
2.1400000000000916, -1.1030621431067502 
2.1500000000001127, -1.102821644151247 
2.160000000000134, -1.1024104673909894 
2.170000000000155, -1.1018976358662613 
2.180000000000176, -1.1013647033540637 
2.190000000000197, -1.1009074984382483 
2.2000000000002182, -1.1006241451670598 
2.2100000000002393, -1.1005892776687851 
2.2200000000002604, -1.100829428815873 
2.2300000000002815, -1.101316959707494 
2.2400000000003026, -1.1019842310548713 
2.2500000000003237, -1.1027458812684716 
2.260000000000345, -1.1035179266432609 
2.270000000000366, -1.1042293030722776 
2.280000000000387, -1.104825993933329 
2.290000000000408, -1.1052700165517384 
2.3000000000004293, -1.105536249662298 
2.3100000000004504, -1.1056096310500019 
2.3200000000004715, -1.105484168386384 
2.3300000000004926, -1.1051637903627176 
2.3400000000005137, -1.104663912380755 
2.3500000000005348, -1.1040127285534855 
2.360000000000556, -1.103252288558687 
2.370000000000577, -1.102439296553234 
2.380000000000598, -1.1016435376613372 
2.390000000000619, -1.1009405511715877 
2.4000000000006403, -1.100397866038164 
2.4100000000006614, -1.1000591758480265 
2.4200000000006825, -1.0999327536005408 
2.4300000000007036, -1.0999884373726618 
2.4400000000007247, -1.1001650287156595 
2.450000000000746, -1.100385941537285 
2.460000000000767, -1.1005757001432073 
2.470000000000788, -1.100670008302667 
2.480000000000809, -1.1006184949057707 
2.49000000000083, -1.1003842665662185 
2.5000000000008513, -1.099943787440274 
2.5100000000008724, -1.0992872671817868 
2.5200000000008935, -1.0984181061989593 
2.5300000000009146, -1.0973512563130452 
2.5400000000009357, -1.0961122226567368 
2.550000000000957, -1.094738305728653 
2.560000000000978, -1.0932817706165912 
2.570000000000999, -1.091812632238945 
2.58000000000102, -1.0904175949344976 
2.5900000000010412, -1.0891915690862566 
2.6000000000010624, -1.0882195333114812 
2.6100000000010835, -1.0875510962762702 
2.6200000000011046, -1.087178961042522 
2.6300000000011257, -1.0870374624266967 
2.6400000000011468, -1.0870254991248898 
2.650000000001168, -1.087037576933033 
2.660000000001189, -1.0869826233129507 
2.67000000000121, -1.0867853681330077 
2.680000000001231, -1.0863789039908547 
2.6900000000012523, -1.0856992536945242 
2.7000000000012734, -1.0846881507631074 
2.7100000000012945, -1.0833038472198195 
2.7200000000013156, -1.0815338499479683 
2.7300000000013367, -1.0794018836328498 
2.740000000001358, -1.0769666915815916 
2.750000000001379, -1.0743175123167412 
2.7600000000014, -1.0715721412828103 
2.770000000001421, -1.068877384733864 
2.780000000001442, -1.0664038526416102 
2.7900000000014633, -1.0643233202561149 
2.8000000000014844, -1.0627639789369123 
2.8100000000015055, -1.0617606320911588 
2.8200000000015266, -1.06123646111253 
2.8300000000015477, -1.0610371229132016 
2.840000000001569, -1.0609924161995932 
2.85000000000159, -1.0609610139925643 
2.860000000001611, -1.060839390623422 
2.870000000001632, -1.0605463895224658 
2.8800000000016532, -1.0600017960067984 
2.8900000000016743, -1.0591108170019443 
2.9000000000016954, -1.0577614329174818 
2.9100000000017165, -1.055839612114045 
2.9200000000017377, -1.0532618056253265 
2.9300000000017588, -1.0500125802597498 
2.94000000000178, -1.0461680752770852 
2.950000000001801, -1.041895420709566 
2.960000000001822, -1.0374357324751986 
2.970000000001843, -1.0330817507516241 
2.9800000000018643, -1.0291472151822876 
2.9900000000018854, -1.0259140784318714 
3.0000000000019065, -1.0235573447064987 
3.0100000000019276, -1.0220831686289864 
3.0200000000019487, -1.0213319180758744 
3.03000000000197, -1.0210545728945815 
3.040000000001991, -1.02100791974452 
3.050000000002012, -1.0210092273096938 
3.060000000002033, -1.0209389357703624 
3.070000000002054, -1.020715059607469 
3.0800000000020753, -1.0202630062536957 
3.0900000000020964, -1.019491780768653 
3.1000000000021175, -1.018280969955768 
3.1100000000021386, -1.0164842270366226 
3.1200000000021597, -1.0139566991954398 
3.130000000002181, -1.0106058906387143 
3.140000000002202, -1.0064463384774118 
3.150000000002223, -1.0016269895940046 
3.160000000002244, -0.9964165914213229 
3.1700000000022652, -0.9911611252234014 
3.1800000000022863, -0.986233437726827 
3.1900000000023074, -0.9819781330919616 
3.2000000000023285, -0.9786461247132301 
3.2100000000023496, -0.9763314193868602 
3.2200000000023707, -0.9749475945110746 
3.230000000002392, -0.9742717793488843 
3.240000000002413, -0.9740347277640756 
3.250000000002434, -0.9740011075175093 
3.260000000002455, -0.9740033330540759 
3.2700000000024763, -0.9739335393210581 
3.2800000000024974, -0.9737172956560235 
3.2900000000025185, -0.9732871456200607 
3.3000000000025396, -0.9725637164328317 
3.3100000000025607, -0.9714479965407852 
3.3200000000025818, -0.9698292955338692 
3.330000000002603, -0.9676123884341502 
3.340000000002624, -0.9647576943875336 
3.350000000002645, -0.9613139394652693 
3.360000000002666, -0.9574216539183225 
3.3700000000026873, -0.9532866374998447 
3.3800000000027084, -0.9491433990790398 
3.3900000000027295, -0.945226204159456 
3.4000000000027506, -0.9417479886070504 
3.4100000000027717, -0.9388773499469499 
3.420000000002793, -0.9367098002473749 
3.430000000002814, -0.935244273079965 
3.440000000002835, -0.9343838234953277 
3.450000000002856, -0.9339680056044445 
3.460000000002877, -0.9338213713627349 
3.4700000000028983, -0.9337921382744186 
3.4800000000029194, -0.9337668080370198 
3.4900000000029405, -0.9336644830266311 
3.5000000000029616, -0.9334226524073695 
3.5100000000029827, -0.9329844401567152 
3.520000000003004, -0.9322931811818153 
3.530000000003025, -0.9312970909133353 
3.540000000003046, -0.9299629578768032 
3.550000000003067, -0.9282917944266977 
3.5600000000030882, -0.9263255878784671 
3.5700000000031094, -0.9241394726154845 
3.5800000000031305, -0.921825063030626 
3.5900000000031516, -0.919476174924727 
3.6000000000031727, -0.917182865775113 
3.6100000000031938, -0.9150313696196536 
3.620000000003215, -0.91310378308219 
3.630000000003236, -0.9114727790703915 
3.640000000003257, -0.9101905621112444 
3.650000000003278, -0.9092758360613671 
3.6600000000032993, -0.9087058486080405 
3.6700000000033204, -0.9084196999893394 
3.6800000000033415, -0.9083329321741231 
3.6900000000033626, -0.9083562718498195 
3.7000000000033837, -0.9084097981625737 
3.710000000003405, -0.908428645335565 
3.720000000003426, -0.9083623741082073 
3.730000000003447, -0.9081727659137095 
3.740000000003468, -0.907833593508184 
3.750000000003489, -0.9073326671881438 
3.7600000000035103, -0.9066733804148825 
3.7700000000035314, -0.9058725942468555 
3.7800000000035525, -0.9049548423708185 
3.7900000000035736, -0.9039464429421311 
3.8000000000035947, -0.9028731928032148 
3.810000000003616, -0.901762169786829 
3.820000000003637, -0.9006453721564149 
3.830000000003658, -0.8995624385028437 
3.840000000003679, -0.8985605702289087 
3.8500000000037002, -0.8976907507903695 
3.8600000000037213, -0.8970004254535233 
3.8700000000037424, -0.8965242897985235 
3.8800000000037635, -0.8962761787663933 
3.8900000000037847, -0.896245224155237 
3.9000000000038058, -0.8963980262438442 
3.910000000003827, -0.8966860971027264 
3.920000000003848, -0.897055608379218 
3.930000000003869, -0.8974559640310016 
3.94000000000389, -0.8978451265102907 
3.9500000000039113, -0.8981915086824325 
3.9600000000039324, -0.898473124301854 
3.9700000000039535, -0.898674697212676 
3.9800000000039746, -0.8987837941690646 
3.9900000000039957, -0.89878804282768 
4.000000000004016, -0.8986756003055565 
4.010000000003993, -0.8984390135221721 
4.02000000000397, -0.8980799850478063 
4.030000000003946, -0.8976122576902877 
4.040000000003923, -0.8970621711537333 
4.0500000000039, -0.8964685209289482 
4.0600000000038765, -0.8958828816133403 
4.070000000003853, -0.8953692616894319 
4.08000000000383, -0.895000198308112 
4.090000000003807, -0.894847205775281 
4.100000000003783, -0.8949671062813295 
4.11000000000376, -0.8953896333582188 
4.120000000003737, -0.8961120545417669 
4.130000000003713, -0.897102654414283 
4.14000000000369, -0.8983101333729746 
4.150000000003667, -0.8996738213908447 
4.1600000000036434, -0.9011305156551854 
4.17000000000362, -0.9026162576736512 
4.180000000003597, -0.9040643228909804 
4.1900000000035735, -0.9054034657623935 
4.20000000000355, -0.9065615896987973 
4.210000000003527, -0.9074770689162497 
4.220000000003504, -0.9081130460460765 
4.23000000000348, -0.908465325064492 
4.240000000003457, -0.9085585308945616 
4.250000000003434, -0.90843456067655 
4.26000000000341, -0.9081421358197327 
4.270000000003387, -0.9077336369496504 
4.280000000003364, -0.9072703960369857 
4.2900000000033405, -0.9068338995025329 
4.300000000003317, -0.9065372448068887 
4.310000000003294, -0.9065279145769196 
4.320000000003271, -0.9069726114471038 
4.330000000003247, -0.9080226552699285 
4.340000000003224, -0.9097725584339749 
4.350000000003201, -0.9122320263438153 
4.360000000003177, -0.9153226224591459 
4.370000000003154, -0.9188930667122701 
4.380000000003131, -0.9227391489603715 
4.390000000003107, -0.9266212866155221 
4.400000000003084, -0.9302856120079299 
4.410000000003061, -0.9334990081695673 
4.4200000000030375, -0.936095801085861 
4.430000000003014, -0.9380129356388915 
4.440000000002991, -0.9392884493590117 
4.450000000002968, -0.9400244400461908 
4.460000000002944, -0.9403407927451142 
4.470000000002921, -0.9403436849214604 
4.480000000002898, -0.9401152461030169 
4.490000000002874, -0.9397196232770246 
4.500000000002851, -0.9392204272984763 
4.510000000002828, -0.9387078855365111 
4.520000000002804, -0.9383335914692384 
4.530000000002781, -0.9383419482569751 
4.540000000002758, -0.939072443686757 
4.5500000000027345, -0.9409024098519005 
4.560000000002711, -0.944128537429928 
4.570000000002688, -0.9488373435257005 
4.580000000002665, -0.954835572126664 
4.590000000002641, -0.961672398554199 
4.600000000002618, -0.9687337863637195 
4.610000000002595, -0.9753761111012935 
4.620000000002571, -0.981072030417528 
4.630000000002548, -0.985526935780998 
4.640000000002525, -0.9887110356670534 
4.6500000000025015, -0.9907918867337695 
4.660000000002478, -0.9920195555118985 
4.670000000002455, -0.9926331205958856 
4.6800000000024315, -0.9928169824738315 
4.690000000002408, -0.9926964337953257 
4.700000000002385, -0.9923529932776033 
4.710000000002362, -0.9918489778501302 
4.720000000002338, -0.9912611846588119 
4.730000000002315, -0.9907274025281618 
4.740000000002292, -0.990500726913765 
4.750000000002268, -0.9909808948284237 
4.760000000002245, -0.9926652418357109 
4.770000000002222, -0.9959848804077686 
4.7800000000021985, -1.001088925802787 
4.790000000002175, -1.0077182723169213 
4.800000000002152, -1.0152550028083087 
4.810000000002129, -1.0229044765347868 
4.820000000002105, -1.0299115005198094 
4.830000000002082, -1.0357374903437981 
4.840000000002059, -1.0401517245000709 
4.850000000002035, -1.0432103132201647 
4.860000000002012, -1.0451467074533807 
4.870000000001989, -1.0462444397736612 
4.880000000001965, -1.0467519613719611 
4.890000000001942, -1.0468518697039773 
4.900000000001919, -1.0466661391462364 
4.9100000000018955, -1.0462780885492216 
4.920000000001872, -1.0457631736374076 
4.930000000001849, -1.0452287519444399 
