t, s[1].omega / s[0].omega 
0, -1.499997250658179 
0.009999999999999995, -1.4994674793652762 
0.019999999999999934, -1.4984285467852356 
0.029999999999999874, -1.496868622371642 
0.04000000000000012, -1.494774464520671 
0.050000000000000405, -1.4921466357824267 
0.06000000000000069, -1.489054443388129 
0.07000000000000098, -1.4857855590044642 
0.08000000000000126, -1.4829863194612074 
0.09000000000000155, -1.4813467683089354 
0.10000000000000184, -1.4808867920335993 
0.11000000000000212, -1.4809655482317672 
0.12000000000000241, -1.4809569596787624 
0.130000000000002, -1.4804751858593077 
0.1400000000000009, -1.4791127280058405 
0.1499999999999998, -1.4759809479331332 
0.1599999999999987, -1.468804869759744 
0.1699999999999976, -1.4516986550452375 
0.1799999999999965, -1.4103885795195426 
0.1899999999999954, -1.3187036983163882 
0.1999999999999943, -1.1616150717995055 
0.2099999999999932, -0.9835384595415658 
0.2199999999999921, -0.8493490668801035 
0.229999999999991, -0.7748983612174104 
0.2399999999999899, -0.7425203783555806 
0.2499999999999888, -0.7318083379422142 
0.2599999999999877, -0.7300178251967148 
0.2699999999999866, -0.7311054449295822 
0.2799999999999855, -0.7326954427290558 
0.2899999999999844, -0.7340208702558508 
0.2999999999999833, -0.7349137490546137 
0.3099999999999822, -0.7353836392987354 
0.3199999999999811, -0.7354583973258332 
0.32999999999998, -0.7351250058330896 
0.3399999999999789, -0.7343021887614607 
0.3499999999999778, -0.732823593394275 
0.35999999999997667, -0.7304411637103401 
0.36999999999997557, -0.7268852684306841 
0.37999999999997447, -0.7220136995762457 
0.38999999999997337, -0.7159893943926203 
0.39999999999997227, -0.7093085909635093 
0.40999999999997117, -0.7025944681144743 
0.41999999999997006, -0.6963363949133056 
0.42999999999996896, -0.690784602969745 
0.43999999999996786, -0.6859997612293466 
0.44999999999996676, -0.6819469203966521 
0.45999999999996566, -0.6785645263826614 
0.46999999999996456, -0.6757971022077363 
0.47999999999996346, -0.673602717129759 
0.48999999999996235, -0.6719477859679882 
0.49999999999996125, -0.6707980241350397 
0.5099999999999602, -0.6701109935846059 
0.519999999999959, -0.6698331543492145 
0.529999999999958, -0.6699021791174807 
0.5399999999999568, -0.6702534062633636 
0.5499999999999557, -0.6708281936471246 
0.5599999999999546, -0.671581950917376 
0.5699999999999535, -0.6724902459180522 
0.5799999999999524, -0.673551432184646 
0.5899999999999513, -0.6747832450590613 
0.5999999999999502, -0.6762100469590911 
0.6099999999999491, -0.6778391609596844 
0.619999999999948, -0.6796306982971657 
0.6299999999999469, -0.6814757370370886 
0.6399999999999458, -0.6832062313477492 
0.6499999999999447, -0.6846472775262958 
0.6599999999999436, -0.6856827522385268 
0.6699999999999425, -0.6862847230869276 
0.6799999999999414, -0.6864927273324695 
0.6899999999999403, -0.6863736804535561 
0.6999999999999392, -0.6859952731284432 
0.7099999999999381, -0.685424830994307 
0.719999999999937, -0.6847562447166821 
0.7299999999999359, -0.6841755706867622 
0.7399999999999348, -0.6840948580197984 
0.7499999999999337, -0.6854097918029506 
0.7599999999999326, -0.6899625472768919 
0.7699999999999315, -0.7012809276736885 
0.7799999999999304, -0.7254770220396711 
0.7899999999999293, -0.7713958025813318 
0.7999999999999282, -0.8471755946466264 
0.8099999999999271, -0.9500398243109567 
0.819999999999926, -1.0578130621308044 
0.8299999999999249, -1.1429181952136274 
0.8399999999999238, -1.1957140771933055 
0.8499999999999227, -1.223584609956323 
0.8599999999999216, -1.2370780038053668 
0.8699999999999205, -1.2433444776737816 
0.8799999999999194, -1.2461343948790409 
0.8899999999999183, -1.2472130954983063 
0.8999999999999172, -1.2473744906056903 
0.9099999999999161, -1.246978695404665 
0.919999999999915, -1.2462553554745825 
0.9299999999999139, -1.2455665257598048 
0.9399999999999128, -1.24565944427896 
0.9499999999999117, -1.2475887001818708 
0.9599999999999106, -1.251962472611191 
0.9699999999999095, -1.2582578573942667 
0.9799999999999084, -1.265259085601245 
0.9899999999999073, -1.2719466894706166 
0.9999999999999062, -1.2778067572082235 
1.0099999999999052, -1.2826732982614588 
1.019999999999904, -1.2865292004548603 
1.029999999999903, -1.289408064833995 
1.039999999999902, -1.2913735544813414 
1.0499999999999008, -1.2925260400106398 
1.0599999999998997, -1.2929998856532974 
1.0699999999998986, -1.2929449063968064 
1.0799999999998975, -1.292511248805571 
1.0899999999998964, -1.2918529912077905 
1.0999999999998953, -1.291137016842276 
1.1099999999998942, -1.2905236823306205 
1.119999999999893, -1.2901188520893523 
1.129999999999892, -1.2899540124309512 
1.1399999999998909, -1.290013623138663 
1.1499999999998898, -1.2902487750647298 
1.1599999999998887, -1.2905607738485925 
1.1699999999998876, -1.2908082175332225 
1.1799999999998865, -1.2908430946332237 
1.1899999999998854, -1.2905327308583865 
1.1999999999998843, -1.2897591780336723 
1.2099999999998832, -1.2884186392590733 
1.219999999999882, -1.2864300801901458 
1.229999999999881, -1.2837416061149443 
1.2399999999998799, -1.2803250495359988 
1.2499999999998788, -1.2761682094021651 
1.2599999999998777, -1.2712882879785439 
1.2699999999998766, -1.2657942901542631 
1.2799999999998755, -1.260016662562116 
1.2899999999998744, -1.2546364893520947 
1.2999999999998733, -1.2505512260999119 
1.3099999999998722, -1.2482955235406632 
1.319999999999871, -1.2475800309504517 
1.32999999999987, -1.2476237358441231 
1.3399999999998689, -1.2477644462869186 
1.3499999999998678, -1.2476311814437377 
1.3599999999998666, -1.2469778291175504 
1.3699999999998655, -1.2454533975238913 
1.3799999999998644, -1.2423347075674802 
1.3899999999998633, -1.2361036072201663 
1.3999999999998622, -1.223768315633722 
1.4099999999998611, -1.2001719153314132 
1.41999999999986, -1.1585914902195869 
1.429999999999859, -1.0950206251949546 
1.4399999999998578, -1.0154424786345342 
1.4499999999998567, -0.9367745973258258 
1.4599999999998556, -0.8753682931136434 
1.4699999999998545, -0.8364819864152385 
1.4799999999998534, -0.8159505114362158 
1.4899999999998523, -0.8069047414425784 
1.4999999999998512, -0.8037992027671836 
1.5099999999998501, -0.8032665875845512 
1.519999999999849, -0.8036040085745408 
1.529999999999848, -0.8040666278420212 
1.5399999999998468, -0.8043651026947335 
1.5499999999998457, -0.804385961871451 
1.5599999999998446, -0.8040534513596928 
1.5699999999998435, -0.803262157646413 
1.5799999999998424, -0.8018448844315897 
1.5899999999998413, -0.7995748296345192 
1.5999999999998402, -0.7962266240142318 
1.6099999999998391, -0.7917071965428164 
1.619999999999838, -0.7861846205723272 
1.629999999999837, -0.7800780399483246 
1.6399999999998358, -0.7738836661612646 
1.6499999999998347, -0.7679901758099109 
1.6599999999998336, -0.7626149619984891 
1.6699999999998325, -0.7578437971837295 
1.6799999999998314, -0.7536966243189962 
1.6899999999998303, -0.7501738237042455 
1.6999999999998292, -0.7472749224826382 
1.709999999999828, -0.7449973171197531 
1.719999999999827, -0.743325182776479 
1.729999999999826, -0.7422177452761708 
1.7399999999998248, -0.7416041254249159 
1.7499999999998237, -0.7413882836678952 
1.7599999999998226, -0.741462316911084 
1.7699999999998215, -0.7417223050427251 
1.7799999999998204, -0.7420810022529409 
1.7899999999998193, -0.7424752482217867 
1.7999999999998182, -0.7428691830340991 
1.809999999999817, -0.7432541365044086 
1.819999999999816, -0.7436433108581803 
1.8299999999998149, -0.7440585039064079 
1.8399999999998138, -0.7445103641364761 
1.8499999999998127, -0.744980354765874 
1.8599999999998116, -0.7454157105823317 
1.8699999999998105, -0.7457439954696224 
1.8799999999998094, -0.7459011221084493 
1.8899999999998083, -0.745855280880536 
1.8999999999998072, -0.7456138344893154 
1.909999999999806, -0.7452174373584705 
1.919999999999805, -0.7447355532833417 
1.9299999999998039, -0.7442734178318865 
1.9399999999998028, -0.7439913432534303 
1.9499999999998017, -0.7441293353089264 
1.9599999999998006, -0.7450235397175701 
1.9699999999997995, -0.7470985867326773 
1.9799999999997984, -0.7508276506168043 
1.9899999999997973, -0.756669852012522 
1.9999999999997962, -0.7650075836165996 
2.0099999999998173, -0.7760958680084875 
2.0199999999998384, -0.7900023097840252 
2.0299999999998595, -0.8064858763958985 
2.0399999999998806, -0.8247854870409861 
2.0499999999999017, -0.843433752234367 
2.059999999999923, -0.8604362945362435 
2.069999999999944, -0.8740443948116345 
2.079999999999965, -0.8835972305814359 
2.089999999999986, -0.8895828130893653 
2.100000000000007, -0.8929987183161057 
2.1100000000000283, -0.8947628497532207 
2.1200000000000494, -0.895501180729706 
2.1300000000000705, -0.8955716471207934 
2.1400000000000916, -0.895147312489066 
2.1500000000001127, -0.8942923800508447 
2.160000000000134, -0.8930424557586206 
2.170000000000155, -0.8915546387718822 
2.180000000000176, -0.8904640678377025 
2.190000000000197, -0.891653532257704 
2.2000000000002182, -0.8995092966240373 
2.2100000000002393, -0.9219005879549184 
2.2200000000002604, -0.9682891434980396 
2.2300000000002815, -1.0417825352792318 
2.2400000000003026, -1.129668375701131 
2.2500000000003237, -1.2087466918688141 
2.260000000000345, -1.264347878057644 
2.270000000000366, -1.296985770289007 
2.280000000000387, -1.3140575135434367 
2.290000000000408, -1.3223949642030601 
2.3000000000004293, -1.3262603907092363 
2.3100000000004504, -1.3278886520090636 
2.3200000000004715, -1.328358144289502 
2.3300000000004926, -1.3281829832797538 
2.3400000000005137, -1.3276647868709281 
2.3500000000005348, -1.3271355607089272 
2.360000000000556, -1.3270957204102443 
2.370000000000577, -1.3280609407665236 
2.380000000000598, -1.330137249553974 
2.390000000000619, -1.3329028011771602 
2.4000000000006403, -1.3357963136011461 
2.4100000000006614, -1.3384461716104794 
2.4200000000006825, -1.3406870067797907 
2.4300000000007036, -1.3424643017495594 
2.4400000000007247, -1.3437691233880624 
2.450000000000746, -1.3446092183657827 
2.460000000000767, -1.3449973977531546 
2.470000000000788, -1.344949667227352 
2.480000000000809, -1.3444895163463748 
2.49000000000083, -1.3436542367511044 
2.5000000000008513, -1.3425009415183125 
2.5100000000008724, -1.3411103817989585 
2.5200000000008935, -1.339585116157401 
2.5300000000009146, -1.338049913045437 
2.5400000000009357, -1.3366697815553878 
2.550000000000957, -1.3356446178603512 
2.560000000000978, -1.3350999237295917 
2.570000000000999, -1.3349523217441304 
2.58000000000102, -1.3349440861006394 
2.5900000000010412, -1.3347919205952508 
2.6000000000010624, -1.3342420287622292 
2.6100000000010835, -1.3329999935450345 
2.6200000000011046, -1.3306143606510095 
2.6300000000011257, -1.3263720933346947 
2.6400000000011468, -1.3192615100285328 
2.650000000001168, -1.3080709187837836 
2.660000000001189, -1.2916562391684472 
2.67000000000121, -1.2694072828595706 
2.680000000001231, -1.2420856199749162 
2.6900000000012523, -1.2130225301671844 
2.7000000000012734, -1.1881772456628152 
2.7100000000012945, -1.1726843516531087 
2.7200000000013156, -1.166563995904233 
2.7300000000013367, -1.1658414572763296 
2.740000000001358, -1.1668431718024577 
2.750000000001379, -1.1678428131038876 
2.7600000000014, -1.1683571233717263 
2.770000000001421, -1.1683050252504863 
2.780000000001442, -1.167594341274579 
2.7900000000014633, -1.165907862107227 
2.8000000000014844, -1.1624277380071184 
2.8100000000015055, -1.155230655543888 
2.8200000000015266, -1.139940666274397 
2.8300000000015477, -1.107243543868227 
2.840000000001569, -1.0407330912907595 
2.85000000000159, -0.9233407188195313 
2.860000000001611, -0.7618758671380276 
2.870000000001632, -0.6014146341892258 
2.8800000000016532, -0.48499099448058614 
2.8900000000016743, -0.4167040345354887 
2.9000000000016954, -0.38017014912448716 
2.9100000000017165, -0.3609171345903335 
2.9200000000017377, -0.35060405516103715 
2.9300000000017588, -0.3449577819530362 
2.94000000000178, -0.34182273774776156 
2.950000000001801, -0.34008970594102916 
2.960000000001822, -0.33917166978225277 
2.970000000001843, -0.3387510704988178 
2.9800000000018643, -0.33865617547521343 
2.9900000000018854, -0.33880001347586974 
3.0000000000019065, -0.33915125527475265 
3.0100000000019276, -0.3397227360387548 
3.0200000000019487, -0.34057048150036334 
3.03000000000197, -0.3417989149038234 
3.040000000001991, -0.34356849263032757 
3.050000000002012, -0.3460999190552976 
3.060000000002033, -0.3496601233261229 
3.070000000002054, -0.35449528895636373 
3.0800000000020753, -0.36066413932978436 
3.0900000000020964, -0.3677977863204932 
3.1000000000021175, -0.3750213827336056 
3.1100000000021386, -0.38131285661028125 
3.1200000000021597, -0.38606191418031066 
3.130000000002181, -0.38924702873065115 
3.140000000002202, -0.3911808698784438 
3.150000000002223, -0.39221588910881294 
3.160000000002244, -0.39260767747310876 
3.1700000000022652, -0.3924909651132919 
3.1800000000022863, -0.3918885489316837 
3.1900000000023074, -0.3907144571951694 
3.2000000000023285, -0.3887660330910316 
3.2100000000023496, -0.38572850554442567 
3.2200000000023707, -0.38125585790061606 
3.230000000002392, -0.3752036539832812 
3.240000000002413, -0.36793627583231026 
3.250000000002434, -0.36035207282073983 
3.260000000002455, -0.3534298874210758 
3.2700000000024763, -0.34773752115307577 
3.2800000000024974, -0.3433555309873034 
3.2900000000025185, -0.34008895396797467 
3.3000000000025396, -0.33767097467908597 
3.3100000000025607, -0.33586264855478026 
3.3200000000025818, -0.3344819539900247 
3.330000000002603, -0.33340435108269034 
3.340000000002624, -0.3325558220281071 
3.350000000002645, -0.3319064221058606 
3.360000000002666, -0.33146845752584053 
3.3700000000026873, -0.3313032994915153 
3.3800000000027084, -0.3315427990254137 
3.3900000000027295, -0.3324367138333885 
3.4000000000027506, -0.33445048680030387 
3.4100000000027717, -0.3384669709063103 
3.420000000002793, -0.3462102336480555 
3.430000000002814, -0.3611387074234286 
3.440000000002835, -0.3902131746493365 
3.450000000002856, -0.4464999461858411 
3.460000000002877, -0.548588353534558 
3.4700000000028983, -0.7039025615345916 
3.4800000000029194, -0.8806799911267861 
3.4900000000029405, -1.0252797862397036 
3.5000000000029616, -1.1141799391062461 
3.5100000000029827, -1.1592751082821695 
3.520000000003004, -1.1800968590317633 
3.530000000003025, -1.1894444841179126 
3.540000000003046, -1.1936037894024545 
3.550000000003067, -1.1953533016206772 
3.5600000000030882, -1.1958769384311492 
3.5700000000031094, -1.1956543221850633 
3.5800000000031305, -1.1948506005106094 
3.5900000000031516, -1.1935479738784767 
3.6000000000031727, -1.1920860650874716 
3.6100000000031938, -1.1917495311198394 
3.620000000003215, -1.1954626844274598 
3.630000000003236, -1.2066983746633788 
3.640000000003257, -1.2259307680252665 
3.650000000003278, -1.2492807040943088 
3.6600000000032993, -1.2718498654297745 
3.6700000000033204, -1.2907230222212152 
3.6800000000033415, -1.3050518411590548 
3.6900000000033626, -1.3151046830295747 
3.7000000000033837, -1.3216207770730672 
3.710000000003405, -1.3254867081469894 
3.720000000003426, -1.327530317637761 
3.730000000003447, -1.3283966486536312 
3.740000000003468, -1.3285265814134282 
3.750000000003489, -1.3282152246929724 
3.7600000000035103, -1.3277040802896198 
3.7700000000035314, -1.327251928532284 
3.7800000000035525, -1.3271101876034328 
3.7900000000035736, -1.3273998940166836 
3.8000000000035947, -1.328051500504696 
3.810000000003616, -1.3289001286756064 
3.820000000003637, -1.3297920490865998 
3.830000000003658, -1.3306016629442128 
3.840000000003679, -1.3312179781108724 
3.8500000000037002, -1.331547533392553 
3.8600000000037213, -1.3315204202723199 
3.8700000000037424, -1.33108890271789 
3.8800000000037635, -1.3302227329234617 
3.8900000000037847, -1.3289033248986886 
3.9000000000038058, -1.3271178605067495 
3.910000000003827, -1.3248577526688667 
3.920000000003848, -1.3221263825994376 
3.930000000003869, -1.3189616726061406 
3.94000000000389, -1.3154876887052067 
3.9500000000039113, -1.3120035474400742 
3.9600000000039324, -1.3090246970654966 
3.9700000000039535, -1.3070691191907797 
3.9800000000039746, -1.3062355459104984 
3.9900000000039957, -1.306114652876756 
4.000000000004016, -1.3061670091836577 
4.010000000003993, -1.3060061413269184 
4.02000000000397, -1.3053526765794266 
4.030000000003946, -1.3038366671540638 
4.040000000003923, -1.3007337398836796 
4.0500000000039, -1.2945664739726164 
4.0600000000038765, -1.2825144811108746 
4.070000000003853, -1.2598944830790269 
4.08000000000383, -1.2208050904795036 
4.090000000003807, -1.1618046100175536 
4.100000000003783, -1.0882968052340516 
4.11000000000376, -1.0162021443277756 
4.120000000003737, -0.9617512265236521 
4.130000000003713, -0.9300281009561258 
4.14000000000369, -0.9158578071993644 
4.150000000003667, -0.9114456989976927 
4.1600000000036434, -0.9111245635553433 
4.17000000000362, -0.9119814760754141 
4.180000000003597, -0.9128611568739627 
4.1900000000035735, -0.9134110188883122 
4.20000000000355, -0.913549037780677 
4.210000000003527, -0.9132264072264579 
4.220000000003504, -0.9123179795387115 
4.23000000000348, -0.9105414169089188 
4.240000000003457, -0.9073645436212207 
4.250000000003434, -0.9019252449156288 
4.26000000000341, -0.8931015778343241 
4.270000000003387, -0.879959307778731 
4.280000000003364, -0.8625367082941005 
4.2900000000033405, -0.8422617388681385 
4.300000000003317, -0.8213664993483665 
4.310000000003294, -0.801852851836786 
4.320000000003271, -0.7849517146302339 
4.330000000003247, -0.7711776487911656 
4.340000000003224, -0.7605747619494669 
4.350000000003201, -0.7529029687079485 
4.360000000003177, -0.7477419662590006 
4.370000000003154, -0.7445661965823269 
4.380000000003131, -0.7428239882576337 
4.390000000003107, -0.742014349666178 
4.400000000003084, -0.7417377062568442 
4.410000000003061, -0.7417084469617814 
4.4200000000030375, -0.7417374532205605 
4.430000000003014, -0.7417027116076119 
4.440000000002991, -0.7415238167627746 
4.450000000002968, -0.7411492654547138 
4.460000000002944, -0.7405580364790503 
4.470000000002921, -0.7397680572949792 
4.480000000002898, -0.7388365653606466 
4.490000000002874, -0.737841630618098 
4.500000000002851, -0.7368519195869714 
4.510000000002828, -0.735904008456985 
4.520000000002804, -0.7349995094316433 
4.530000000002781, -0.7341193765280184 
4.540000000002758, -0.7332445320785638 
4.5500000000027345, -0.7323726025576178 
4.560000000002711, -0.7315265089185424 
4.570000000002688, -0.730756484488258 
4.580000000002665, -0.7301383375438881 
4.590000000002641, -0.7297683834042823 
4.600000000002618, -0.7297538202142843 
4.610000000002595, -0.7301989363057969 
4.620000000002571, -0.7311910498043808 
4.630000000002548, -0.7327919301127649 
4.640000000002525, -0.7350384172743679 
4.6500000000025015, -0.7379512702545841 
4.660000000002478, -0.7415467762041634 
4.670000000002455, -0.7458425582334346 
4.6800000000024315, -0.7508467127334788 
4.690000000002408, -0.7565188005455306 
4.700000000002385, -0.7626997721544408 
4.710000000002362, -0.7690403567949547 
4.720000000002338, -0.775009336146278 
4.730000000002315, -0.7800554082776766 
4.740000000002292, -0.7838452330936616 
4.750000000002268, -0.7863693017675214 
4.760000000002245, -0.7878420454128124 
4.770000000002222, -0.7885329622878243 
4.7800000000021985, -0.7886603316226726 
4.790000000002175, -0.7883632577976724 
4.800000000002152, -0.7877174808075649 
4.810000000002129, -0.7867759422116847 
4.820000000002105, -0.7856495236664195 
4.830000000002082, -0.7846863326827902 
4.840000000002059, -0.7848667313725414 
4.850000000002035, -0.7885866077028514 
4.860000000002012, -0.8009272553020794 
4.870000000001989, -0.83090855055497 
4.880000000001965, -0.8902824549481589 
4.890000000001942, -0.9847124581566636 
4.900000000001919, -1.0987666869405166 
4.9100000000018955, -1.1995162476231565 
4.920000000001872, -1.2665890152494743 
