t, s[1].omega / s[0].omega 
0, -0.34011448904629266 
0.009999999999999995, -0.3521738708636895 
0.019999999999999934, -0.3641897402644886 
0.029999999999999874, -0.37433527197879285 
0.04000000000000012, -0.38170786016360225 
0.050000000000000405, -0.38651985549944373 
0.06000000000000069, -0.3894828963981335 
0.07000000000000098, -0.39126713748865893 
0.08000000000000126, -0.3923310787021883 
0.09000000000000155, -0.3929490783790524 
0.10000000000000184, -0.39327623073945034 
0.11000000000000212, -0.39339722523202736 
0.12000000000000241, -0.3933554475101876 
0.130000000000002, -0.3931694626968355 
0.1400000000000009, -0.392843487804322 
0.1499999999999998, -0.39237644184671355 
0.1599999999999987, -0.3917720656119999 
0.1699999999999976, -0.3910495284309621 
0.1799999999999965, -0.3902500460804455 
0.1899999999999954, -0.3894336216088815 
0.1999999999999943, -0.3886648126543205 
0.2099999999999932, -0.38799446375994673 
0.2199999999999921, -0.38744701506811674 
0.229999999999991, -0.38701800843726863 
0.2399999999999899, -0.38668034487956454 
0.2499999999999888, -0.38639531969872387 
0.2599999999999877, -0.38612414500699993 
0.2699999999999866, -0.38583615260771575 
0.2799999999999855, -0.38551174962713636 
0.2899999999999844, -0.38514094781030056 
0.2999999999999833, -0.3847199044670075 
0.3099999999999822, -0.38424760549018117 
0.3199999999999811, -0.38372353286121624 
0.32999999999998, -0.3831458240453744 
0.3399999999999789, -0.38250780338408874 
0.3499999999999778, -0.38178717851289645 
0.35999999999997667, -0.3809131951231145 
0.36999999999997557, -0.37967859016225136 
0.37999999999997447, -0.37754594233672256 
0.38999999999997337, -0.3733682955188236 
0.39999999999997227, -0.3654095137151871 
0.40999999999997117, -0.3524878591665237 
0.41999999999997006, -0.33586422129037424 
0.42999999999996896, -0.3190448573362023 
0.43999999999996786, -0.3050451310011005 
0.44999999999996676, -0.29479843664851046 
0.45999999999996566, -0.28780079649983753 
0.46999999999996456, -0.28315996262025644 
0.47999999999996346, -0.2801054296022767 
0.48999999999996235, -0.27809446098759283 
0.49999999999996125, -0.2767750386780454 
0.5099999999999602, -0.27592765703574795 
0.519999999999959, -0.27541988402176154 
0.529999999999958, -0.27517692195188753 
0.5399999999999568, -0.2751645212113524 
0.5499999999999557, -0.27538063580565325 
0.5599999999999546, -0.27585353926647066 
0.5699999999999535, -0.27664525944079266 
0.5799999999999524, -0.2778597166640032 
0.5899999999999513, -0.27965428501100204 
0.5999999999999502, -0.2822500574597265 
0.6099999999999491, -0.28592654128513295 
0.619999999999948, -0.29096781800304006 
0.6299999999999469, -0.2975114704388565 
0.6399999999999458, -0.3052988978108169 
0.6499999999999447, -0.3135107954971209 
0.6599999999999436, -0.321011487967127 
0.6699999999999425, -0.3269527565236202 
0.6799999999999414, -0.3311400117854409 
0.6899999999999403, -0.33386499945457915 
0.6999999999999392, -0.3355543775192261 
0.7099999999999381, -0.33656400673808895 
0.719999999999937, -0.33713364990944944 
0.7299999999999359, -0.3374087275952913 
0.7399999999999348, -0.3374714064417665 
0.7499999999999337, -0.337363933613791 
0.7599999999999326, -0.337103995743841 
0.7699999999999315, -0.33669589273131834 
0.7799999999999304, -0.3361411296137259 
0.7899999999999293, -0.335450081449777 
0.7999999999999282, -0.33465272511665606 
0.8099999999999271, -0.33380262844865455 
0.819999999999926, -0.332968989861955 
0.8299999999999249, -0.3322187992979615 
0.8399999999999238, -0.33159865140668693 
0.8499999999999227, -0.3311249563160405 
0.8599999999999216, -0.3307843901634725 
0.8699999999999205, -0.33054166204621316 
0.8799999999999194, -0.3303510103445993 
0.8899999999999183, -0.3301678863864653 
0.8999999999999172, -0.3299571365182067 
0.9099999999999161, -0.32969547126006593 
0.919999999999915, -0.32936886822156275 
0.9299999999999139, -0.3289673025150669 
0.9399999999999128, -0.32847867521226115 
0.9499999999999117, -0.32788194930102665 
0.9599999999999106, -0.32713723428350544 
0.9699999999999095, -0.32616752750907313 
0.9799999999999084, -0.3248218451748849 
0.9899999999999073, -0.32280338625717814 
0.9999999999999062, -0.3195531016531355 
1.0099999999999052, -0.31415213455432395 
1.019999999999904, -0.30551720014956907 
1.029999999999903, -0.2932609419173829 
1.039999999999902, -0.27871686667872975 
1.0499999999999008, -0.2644977414391628 
1.0599999999998997, -0.25268041629840415 
1.0699999999998986, -0.243868204999497 
1.0799999999998975, -0.23766295804798795 
1.0899999999998964, -0.23338553052325367 
1.0999999999998953, -0.23043942397439174 
1.1099999999998942, -0.22839514418958257 
1.119999999999893, -0.22696876527891194 
1.129999999999892, -0.22598159145780183 
1.1399999999998909, -0.2253275043648805 
1.1499999999998898, -0.22495198207601647 
1.1599999999998887, -0.22484122813796223 
1.1699999999998876, -0.22501979536742386 
1.1799999999998865, -0.2255564803346494 
1.1899999999998854, -0.22658003792362907 
1.1999999999998843, -0.22830802265211178 
1.2099999999998832, -0.2310923800460476 
1.219999999999882, -0.23547840414746743 
1.229999999999881, -0.2422410627179783 
1.2399999999998799, -0.252267977854495 
1.2499999999998788, -0.2660128912042776 
1.2599999999998777, -0.28241153933196955 
1.2699999999998766, -0.2983430692140026 
1.2799999999998755, -0.31043558372233093 
1.2899999999998744, -0.3176836260764687 
1.2999999999998733, -0.32133282860046397 
1.3099999999998722, -0.3230230963335015 
1.319999999999871, -0.3238176883268918 
1.32999999999987, -0.3242282213167891 
1.3399999999998689, -0.32446688348910363 
1.3499999999998678, -0.3246160601080917 
1.3599999999998666, -0.3247075303099046 
1.3699999999998655, -0.3247543211880872 
1.3799999999998644, -0.32476292708900034 
1.3899999999998633, -0.3247385217664024 
1.3999999999998622, -0.32468829094772744 
1.4099999999998611, -0.3246247252041635 
1.41999999999986, -0.3245689498283121 
1.429999999999859, -0.3245528534863275 
1.4399999999998578, -0.32461806370675966 
1.4499999999998567, -0.32481029267048517 
1.4599999999998556, -0.3251690404102631 
1.4699999999998545, -0.32571409275465046 
1.4799999999998534, -0.32643182535939114 
1.4899999999998523, -0.32726736629835856 
1.4999999999998512, -0.3281310610818863 
1.5099999999998501, -0.3289222483781747 
1.519999999999849, -0.32955939455241606 
1.529999999999848, -0.32999811630633974 
1.5399999999998468, -0.33022879989938553 
1.5499999999998457, -0.33026105098235453 
1.5599999999998446, -0.3301064421617917 
1.5699999999998435, -0.32976515750552166 
1.5799999999998424, -0.3292158390328044 
1.5899999999998413, -0.32840549573314903 
1.5999999999998402, -0.3272372282838709 
1.6099999999998391, -0.3255579391657465 
1.619999999999838, -0.3231590745129671 
1.629999999999837, -0.319821110433588 
1.6399999999998358, -0.3154350147644715 
1.6499999999998347, -0.31016682038696924 
1.6599999999998336, -0.3045078326823335 
1.6699999999998325, -0.29908407452559366 
1.6799999999998314, -0.29436711301293234 
1.6899999999998303, -0.29054091273916954 
1.6999999999998292, -0.2875629373509192 
1.709999999999828, -0.2852866536398902 
1.719999999999827, -0.2835495435775458 
1.729999999999826, -0.28221317706167376 
1.7399999999998248, -0.28117395745764967 
1.7499999999998237, -0.28036157551274504 
1.7599999999998226, -0.27973436345137404 
1.7699999999998215, -0.2792756536628037 
1.7799999999998204, -0.27899303247916407 
1.7899999999998193, -0.2789218066643524 
1.7999999999998182, -0.2791343608732755 
1.809999999999817, -0.2797580557292177 
1.819999999999816, -0.28100536377552277 
1.8299999999998149, -0.28321887567757154 
1.8399999999998138, -0.2869226161838308 
1.8499999999998127, -0.2928267604668676 
1.8599999999998116, -0.3016164068419286 
1.8699999999998105, -0.3132207319078564 
1.8799999999998094, -0.32564809567198677 
1.8899999999998083, -0.33506830925074904 
1.8999999999998072, -0.3388146087730086 
1.909999999999806, -0.33785541011590514 
1.919999999999805, -0.3349884554368246 
1.9299999999998039, -0.3321804761780362 
1.9399999999998028, -0.33009920296955436 
1.9499999999998017, -0.3287373911330448 
1.9599999999998006, -0.3279039286481566 
1.9699999999997995, -0.3274170393901981 
1.9799999999997984, -0.3271470495861781 
1.9899999999997973, -0.3270112366807424 
1.9999999999997962, -0.3269603222465594 
2.0099999999998173, -0.326967555874606 
2.0199999999998384, -0.32702204209149077 
2.0299999999998595, -0.32712566874822585 
2.0399999999998806, -0.3272925901175433 
2.0499999999999017, -0.3275499962258857 
2.059999999999923, -0.3279384785645937 
2.069999999999944, -0.32850984382981874 
2.079999999999965, -0.3293199644053334 
2.089999999999986, -0.3304143130184737 
2.100000000000007, -0.33180521354171794 
2.1100000000000283, -0.3334456097101793 
2.1200000000000494, -0.33521543936545933 
2.1300000000000705, -0.3369420862190521 
2.1400000000000916, -0.3384561686748252 
2.1500000000001127, -0.3396481419720199 
2.160000000000134, -0.34048683377220823 
2.170000000000155, -0.3409978374540493 
2.180000000000176, -0.3412285144012523 
2.190000000000197, -0.34122124552502725 
2.2000000000002182, -0.34099919419821667 
2.2100000000002393, -0.3405596843294755 
2.2200000000002604, -0.33987004973809093 
2.2300000000002815, -0.33886431600531924 
2.2400000000003026, -0.3374443890313365 
2.2500000000003237, -0.33549644550506474 
2.260000000000345, -0.33293701598319714 
2.270000000000366, -0.32978779403092945 
2.280000000000387, -0.3262337241100422 
2.290000000000408, -0.32259253864678095 
2.3000000000004293, -0.31919098875301577 
2.3100000000004504, -0.31624432799771196 
2.3200000000004715, -0.31382264993130016 
2.3300000000004926, -0.3118908430726196 
2.3400000000005137, -0.31036545615826083 
2.3500000000005348, -0.3091551934739798 
2.360000000000556, -0.30818121173756097 
2.370000000000577, -0.307384235533679 
2.380000000000598, -0.3067252752281929 
2.390000000000619, -0.30618429605830066 
2.4000000000006403, -0.30575945069017163 
2.4100000000006614, -0.30546861146203175 
2.4200000000006825, -0.3053547261695009 
2.4300000000007036, -0.3054968665300659 
2.4400000000007247, -0.30602947600596275 
2.450000000000746, -0.30717211779961107 
2.460000000000767, -0.30926679898810844 
2.470000000000788, -0.3127969287520821 
2.480000000000809, -0.31829333633636 
2.49000000000083, -0.32591004089325687 
2.5000000000008513, -0.3345101465644662 
2.5100000000008724, -0.3410637974216101 
2.5200000000008935, -0.34240143938911166 
2.5300000000009146, -0.3384851502353932 
2.5400000000009357, -0.33225325115390875 
2.550000000000957, -0.3264412163725374 
2.560000000000978, -0.32211047824944095 
2.570000000000999, -0.3192190514126497 
2.58000000000102, -0.31739127510119525 
2.5900000000010412, -0.3162698502483589 
2.6000000000010624, -0.3155986667425775 
2.6100000000010835, -0.3152127651086526 
2.6200000000011046, -0.31501150998874416 
2.6300000000011257, -0.31493649963649883 
2.6400000000011468, -0.31495721243402447 
2.650000000001168, -0.31506295140043583 
2.660000000001189, -0.31525925665705745 
2.67000000000121, -0.31556725238796635 
2.680000000001231, -0.3160244365490642 
2.6900000000012523, -0.31668504362692274 
2.7000000000012734, -0.31761735774828553 
2.7100000000012945, -0.318894234817382 
2.7200000000013156, -0.3205720797196615 
2.7300000000013367, -0.32265561143352056 
2.740000000001358, -0.3250574129689314 
2.750000000001379, -0.32758260403991807 
2.7600000000014, -0.32997376424748115 
2.770000000001421, -0.33200587398194464 
2.780000000001442, -0.3335629074964604 
2.7900000000014633, -0.3346432809186226 
2.8000000000014844, -0.3353124572397063 
2.8100000000015055, -0.3356513827864405 
2.8200000000015266, -0.3357258272208625 
2.8300000000015477, -0.33557479888771435 
2.840000000001569, -0.3352083292256346 
2.85000000000159, -0.3346080906027954 
2.860000000001611, -0.33372958942745645 
2.870000000001632, -0.33250963494964225 
2.8800000000016532, -0.33088655384329047 
2.8900000000016743, -0.32883831883493053 
2.9000000000016954, -0.32642735913091375 
2.9100000000017165, -0.3238168096941224 
2.9200000000017377, -0.3212277034292376 
2.9300000000017588, -0.3188581179915776 
2.94000000000178, -0.3168237290055026 
2.950000000001801, -0.3151510415341959 
2.960000000001822, -0.31380573389707517 
2.970000000001843, -0.3127262015706824 
2.9800000000018643, -0.31184735957995374 
2.9900000000018854, -0.31111341396514286 
3.0000000000019065, -0.31048291021617824 
3.0100000000019276, -0.309929461547638 
3.0200000000019487, -0.3094408370342656 
3.03000000000197, -0.3090184377418472 
3.040000000001991, -0.30867866255639104 
3.050000000002012, -0.30845736541533564 
3.060000000002033, -0.3084184767440403 
3.070000000002054, -0.3086671677838396 
3.0800000000020753, -0.3093640589954757 
3.0900000000020964, -0.31072232516679754 
3.1000000000021175, -0.3129274803570824 
3.1100000000021386, -0.31584068751805344 
3.1200000000021597, -0.31835749506057265 
3.130000000002181, -0.31790735311963536 
3.140000000002202, -0.31177673353691093 
3.150000000002223, -0.30029389348611185 
3.160000000002244, -0.2871773126501875 
3.1700000000022652, -0.27592910215607636 
3.1800000000022863, -0.2677411639631833 
3.1900000000023074, -0.26225201112461505 
3.2000000000023285, -0.2586959783877679 
3.2100000000023496, -0.25641610665327524 
3.2200000000023707, -0.2549594337569616 
3.230000000002392, -0.2540391152880276 
3.240000000002413, -0.25348098367103394 
3.250000000002434, -0.253183655542459 
3.260000000002455, -0.2530936512500793 
3.2700000000024763, -0.2531916612236722 
3.2800000000024974, -0.253486574671703 
3.2900000000025185, -0.25401519180634746 
3.3000000000025396, -0.25484644917915616 
3.3100000000025607, -0.2560890938325661 
3.3200000000025818, -0.25790031974467287 
3.330000000002603, -0.26048811657317794 
3.340000000002624, -0.26408921633251675 
3.350000000002645, -0.26888945470539755 
3.360000000002666, -0.2748597254752854 
3.3700000000026873, -0.2815693224140966 
3.3800000000027084, -0.28819470328825025 
3.3900000000027295, -0.2938797886785113 
3.4000000000027506, -0.2981721519259029 
3.4100000000027717, -0.3011097245488818 
3.420000000002793, -0.30299066404938024 
3.430000000002814, -0.30413831130356056 
3.440000000002835, -0.30479929317970017 
3.450000000002856, -0.30513405301269014 
3.460000000002877, -0.3052376739746014 
3.4700000000028983, -0.30516167149898804 
3.4800000000029194, -0.3049300702744968 
3.4900000000029405, -0.3045512937828553 
3.5000000000029616, -0.30402894729515983 
3.5100000000029827, -0.30337336275906346 
3.520000000003004, -0.3026125724713065 
3.530000000003025, -0.30179755635995614 
3.540000000003046, -0.3009963060926389 
3.550000000003067, -0.30027746213765305 
3.5600000000030882, -0.299691982270925 
3.5700000000031094, -0.29926179506100115 
3.5800000000031305, -0.29897812437146787 
3.5900000000031516, -0.2988072604743285 
3.6000000000031727, -0.29870096629528553 
3.6100000000031938, -0.2986087632402813 
3.620000000003215, -0.29848823904008065 
3.630000000003236, -0.2983097778190396 
3.640000000003257, -0.29805498625581844 
3.650000000003278, -0.2977109446084375 
3.6600000000032993, -0.2972627245037475 
3.6700000000033204, -0.29668478360848327 
3.6800000000033415, -0.2959293597732887 
3.6900000000033626, -0.29490734711404215 
3.7000000000033837, -0.2934543701010685 
3.710000000003405, -0.29127491064481553 
3.720000000003426, -0.2878750989697675 
3.730000000003447, -0.2825646481718425 
3.740000000003468, -0.27472656298622267 
3.750000000003489, -0.2644575219263238 
3.7600000000035103, -0.2530167882118848 
3.7700000000035314, -0.24223068056468455 
3.7800000000035525, -0.2333558842166971 
3.7900000000035736, -0.22667775363568574 
3.8000000000035947, -0.22187963977720063 
3.810000000003616, -0.21848577289918106 
3.820000000003637, -0.2160796677965214 
3.830000000003658, -0.21435670784067046 
3.840000000003679, -0.21311205989866355 
3.8500000000037002, -0.2122157267832073 
3.8600000000037213, -0.21159182762227197 
3.8700000000037424, -0.21120552019971234 
3.8800000000037635, -0.2110574032889107 
3.8900000000037847, -0.21118526378220231 
3.9000000000038058, -0.2116742954727548 
3.910000000003827, -0.21267874625302735 
3.920000000003848, -0.21445970403737163 
3.930000000003869, -0.21744237489129675 
3.94000000000389, -0.22227970917333403 
3.9500000000039113, -0.22984211658994838 
3.9600000000039324, -0.2408808387480502 
3.9700000000039535, -0.25497212974804234 
3.9800000000039746, -0.26916622380139443 
3.9900000000039957, -0.2789473288297394 
4.000000000004016, -0.2823244760465866 
4.010000000003993, -0.2812947081463545 
4.02000000000397, -0.2787975366808175 
4.030000000003946, -0.27647199933183225 
4.040000000003923, -0.2747715041539897 
4.0500000000039, -0.27364847866511377 
4.0600000000038765, -0.27294416684154027 
4.070000000003853, -0.2725192575952342 
4.08000000000383, -0.272277477003929 
4.090000000003807, -0.27215926328386647 
4.100000000003783, -0.2721316906278815 
4.11000000000376, -0.27218121596006356 
4.120000000003737, -0.2723099954806998 
4.130000000003713, -0.27253514463850226 
4.14000000000369, -0.27288998818687227 
4.150000000003667, -0.2734260106777849 
4.1600000000036434, -0.2742135870893444 
4.17000000000362, -0.275338425479861 
4.180000000003597, -0.27688866584275523 
4.1900000000035735, -0.27892573531728304 
4.20000000000355, -0.28143618003403437 
4.210000000003527, -0.2842818473646348 
4.220000000003504, -0.2871959341936926 
4.23000000000348, -0.2898642506130517 
4.240000000003457, -0.29205144030395763 
4.250000000003434, -0.2936721414412731 
4.26000000000341, -0.29476663539551196 
4.270000000003387, -0.29543162545918844 
4.280000000003364, -0.2957646726909061 
4.2900000000033405, -0.29583852972047764 
4.300000000003317, -0.2956954198208155 
4.310000000003294, -0.2953493904121477 
4.320000000003271, -0.29479110695403926 
4.330000000003247, -0.29399505598208653 
4.340000000003224, -0.2929324284144829 
4.350000000003201, -0.29159259940644716 
4.360000000003177, -0.29000913594606026 
4.370000000003154, -0.28827428965453683 
4.380000000003131, -0.2865235968981866 
4.390000000003107, -0.28489314301114405 
4.400000000003084, -0.2834775298280631 
4.410000000003061, -0.2823134585886699 
4.4200000000030375, -0.2813887003246978 
4.430000000003014, -0.28066146172784606 
4.440000000002991, -0.2800784992195824 
4.450000000002968, -0.27958803333677146 
4.460000000002944, -0.2791472012659711 
4.470000000002921, -0.2787246684211264 
4.480000000002898, -0.27829959988403685 
4.490000000002874, -0.2778586360334036 
4.500000000002851, -0.2773922003830579 
4.510000000002828, -0.27689038494386464 
4.520000000002804, -0.2763369553316569 
4.530000000002781, -0.2756970219146048 
4.540000000002758, -0.27488756908736667 
4.5500000000027345, -0.2737075468239337 
4.560000000002711, -0.2716907959830456 
4.570000000002688, -0.2678826919714915 
4.580000000002665, -0.26078808007080395 
4.590000000002641, -0.2491750768017254 
4.600000000002618, -0.2338021957115656 
4.610000000002595, -0.21776207262567943 
4.620000000002571, -0.20411328734797896 
4.630000000002548, -0.19398793560152067 
4.640000000002525, -0.18699837938284428 
4.6500000000025015, -0.18229770427075456 
4.660000000002478, -0.1791369485126159 
4.670000000002455, -0.17698890775960108 
4.6800000000024315, -0.17551454078556752 
4.690000000002408, -0.1745056926987383 
4.700000000002385, -0.17384100982055858 
4.710000000002362, -0.17345863582962068 
4.720000000002338, -0.1733423492795672 
4.730000000002315, -0.17351840395916115 
4.740000000002292, -0.17406256696227945 
4.750000000002268, -0.17511944448720423 
4.760000000002245, -0.1769387825437945 
4.770000000002222, -0.17993398085491136 
4.7800000000021985, -0.1847569392684946 
4.790000000002175, -0.1923286557341818 
4.800000000002152, -0.20360336492706138 
4.810000000002129, -0.21863352156125834 
4.820000000002105, -0.23504598545133848 
4.830000000002082, -0.24826921966756146 
4.840000000002059, -0.25532382343532756 
4.850000000002035, -0.2572406700987754 
