t, s[1].omega / s[0].omega 
0, -0.24000680335213836 
0.009999999999999995, -0.24080896241556374 
0.019999999999999934, -0.24182122027714295 
0.029999999999999874, -0.24295684991759664 
0.04000000000000012, -0.24409114102396398 
0.050000000000000405, -0.2450989923349122 
0.06000000000000069, -0.24589319171325924 
0.07000000000000098, -0.24643873366752295 
0.08000000000000126, -0.2467405771938916 
0.09000000000000155, -0.24682065681459506 
0.10000000000000184, -0.24669837552328824 
0.11000000000000212, -0.24637861760397284 
0.12000000000000241, -0.24584527672054768 
0.130000000000002, -0.24505821653652315 
0.1400000000000009, -0.24395496807992795 
0.1499999999999998, -0.24246328659944835 
0.1599999999999987, -0.2405330060664967 
0.1699999999999976, -0.23818588173688865 
0.1799999999999965, -0.23555480671268553 
0.1899999999999954, -0.23286622677056612 
0.1999999999999943, -0.23035847343277008 
0.2099999999999932, -0.22819547889999145 
0.2199999999999921, -0.22643594673650655 
0.229999999999991, -0.22505642247581092 
0.2399999999999899, -0.22399101798077745 
0.2499999999999888, -0.22316226619687046 
0.2599999999999877, -0.22249837957914198 
0.2699999999999866, -0.22194079392730134 
0.2799999999999855, -0.22144593475468288 
0.2899999999999844, -0.22098364432092402 
0.2999999999999833, -0.22053389914415678 
0.3099999999999822, -0.22008286049363854 
0.3199999999999811, -0.2196183452787935 
0.32999999999998, -0.2191231673179332 
0.3399999999999789, -0.21856166120321768 
0.3499999999999778, -0.2178479972806115 
0.35999999999997667, -0.2167720694136066 
0.36999999999997557, -0.21484669095291326 
0.37999999999997447, -0.21108760497440815 
0.38999999999997337, -0.20401110643083845 
0.39999999999997227, -0.19255079837379263 
0.40999999999997117, -0.17775981225965273 
0.41999999999997006, -0.1628001719644212 
0.42999999999996896, -0.15042523340567013 
0.43999999999996786, -0.14142992439622343 
0.44999999999996676, -0.13529275874135221 
0.45999999999996566, -0.13118321415480763 
0.46999999999996456, -0.12841550672468066 
0.47999999999996346, -0.12652200235974356 
0.48999999999996235, -0.12520739750751422 
0.49999999999996125, -0.12429301167971998 
0.5099999999999602, -0.12367701931552308 
0.519999999999959, -0.12331104662397621 
0.529999999999958, -0.12318949031980571 
0.5399999999999568, -0.12334935452694942 
0.5499999999999557, -0.12388086298758094 
0.5599999999999546, -0.1249515284156352 
0.5699999999999535, -0.12684711459016876 
0.5799999999999524, -0.1300242867004101 
0.5899999999999513, -0.13512337123031062 
0.5999999999999502, -0.14273616722733345 
0.6099999999999491, -0.15246283167680724 
0.619999999999948, -0.1612336076245058 
0.6299999999999469, -0.1637247075362759 
0.6399999999999458, -0.15784783541175257 
0.6499999999999447, -0.14764331868285804 
0.6599999999999436, -0.13801382894062625 
0.6699999999999425, -0.130883663847144 
0.6799999999999414, -0.1261092660689621 
0.6899999999999403, -0.12301551011814413 
0.6999999999999392, -0.12101861277864703 
0.7099999999999381, -0.11972798941810125 
0.719999999999937, -0.1189059063350125 
0.7299999999999359, -0.11841651970390117 
0.7399999999999348, -0.1181911294095569 
0.7499999999999337, -0.11820946503747416 
0.7599999999999326, -0.11849339470894807 
0.7699999999999315, -0.11911129056085246 
0.7799999999999304, -0.12019393110702874 
0.7899999999999293, -0.12196529021744018 
0.7999999999999282, -0.12479202073049615 
0.8099999999999271, -0.12924582945735874 
0.819999999999926, -0.1361276452876961 
0.8299999999999249, -0.1462753912251552 
0.8399999999999238, -0.15982999940469106 
0.8499999999999227, -0.17507457672515114 
0.8599999999999216, -0.1885408745891483 
0.8699999999999205, -0.19761576627435623 
0.8799999999999194, -0.20240757219537087 
0.8899999999999183, -0.20451165012516698 
0.8999999999999172, -0.20532345063732796 
0.9099999999999161, -0.20560553581415753 
0.919999999999915, -0.20569109489839765 
0.9299999999999139, -0.20570957318167832 
0.9399999999999128, -0.20570854040560635 
0.9499999999999117, -0.20570631516233479 
0.9599999999999106, -0.20571300359368525 
0.9699999999999095, -0.205739348965774 
0.9799999999999084, -0.20580158711527446 
0.9899999999999073, -0.20592540062465609 
0.9999999999999062, -0.20614976320846382 
1.0099999999999052, -0.20653024352271182 
1.019999999999904, -0.2071405171491203 
1.029999999999903, -0.20806983908987137 
1.039999999999902, -0.20941215692055368 
1.0499999999999008, -0.21123972582567233 
1.0599999999998997, -0.2135562106032296 
1.0699999999998986, -0.21624304049057477 
1.0799999999998975, -0.21904615159587987 
1.0899999999998964, -0.221649947819181 
1.0999999999998953, -0.22380652091524986 
1.1099999999998942, -0.22541654059653427 
1.119999999999893, -0.2265112524378447 
1.129999999999892, -0.227183550451943 
1.1399999999998909, -0.2275304818873376 
1.1499999999998898, -0.22762639135905344 
1.1599999999998887, -0.2275173254053025 
1.1699999999998876, -0.2272245912178051 
1.1799999999998865, -0.2267515605993046 
1.1899999999998854, -0.22609298846562229 
1.1999999999998843, -0.22524805221851968 
1.2099999999998832, -0.22423634440319812 
1.219999999999882, -0.22311048566447012 
1.229999999999881, -0.221954979309703 
1.2399999999998799, -0.22086686952955734 
1.2499999999998788, -0.2199280823290089 
1.2599999999998777, -0.2191858554154297 
1.2699999999998766, -0.2186485226887978 
1.2799999999998755, -0.2182921266513361 
1.2899999999998744, -0.2180710348476625 
1.2999999999998733, -0.21792946648766334 
1.3099999999998722, -0.21781266781613642 
1.319999999999871, -0.21767535693512857 
1.32999999999987, -0.21748483259095117 
1.3399999999998689, -0.21721834450552033 
1.3499999999998678, -0.2168565229411974 
1.3599999999998666, -0.2163746615744418 
1.3699999999998655, -0.21573184849604116 
1.3799999999998644, -0.21485579827992018 
1.3899999999998633, -0.21362003640202634 
1.3999999999998622, -0.21181269206218906 
1.4099999999998611, -0.2091111159328992 
1.41999999999986, -0.20511642419204543 
1.429999999999859, -0.19954356602459142 
1.4399999999998578, -0.1925651798575579 
1.4499999999998567, -0.18498302243437312 
1.4599999999998556, -0.1778623248912105 
1.4699999999998545, -0.17193588434319068 
1.4799999999998534, -0.16739012246194993 
1.4899999999998523, -0.1640528385484448 
1.4999999999998512, -0.16163901150935406 
1.5099999999998501, -0.15988521730036756 
1.519999999999849, -0.15858987742706035 
1.529999999999848, -0.15761177897829992 
1.5399999999998468, -0.15685754198229052 
1.5499999999998457, -0.15626954608810067 
1.5599999999998446, -0.1558173458180878 
1.5699999999998435, -0.15549297405044277 
1.5799999999998424, -0.15530999141551277 
1.5899999999998413, -0.15530590904456892 
1.5999999999998402, -0.15554628412862834 
1.6099999999998391, -0.1561231069164017 
1.619999999999838, -0.15712105881708527 
1.629999999999837, -0.15847446555519143 
1.6399999999998358, -0.1595584423143 
1.6499999999998347, -0.1584795698169944 
1.6599999999998336, -0.15207543783085684 
1.6699999999998325, -0.13872108372939967 
1.6799999999998314, -0.12160047292263884 
1.6899999999998303, -0.10597277971861396 
1.6999999999998292, -0.0944172970082225 
1.709999999999828, -0.08671182093542842 
1.719999999999827, -0.08174474958763474 
1.729999999999826, -0.07853544127209114 
1.7399999999998248, -0.07642770304347259 
1.7499999999998237, -0.07502220403773731 
1.7599999999998226, -0.07408600812019286 
1.7699999999998215, -0.0734900471300834 
1.7799999999998204, -0.07317354433800119 
1.7899999999998193, -0.07312763564075932 
1.7999999999998182, -0.07339344668156543 
1.809999999999817, -0.07407400135757411 
1.819999999999816, -0.075363126167073 
1.8299999999998149, -0.07759628922258639 
1.8399999999998138, -0.08131834601991242 
1.8499999999998127, -0.08730292635284358 
1.8599999999998116, -0.09625026179706836 
1.8699999999998105, -0.10755294041453065 
1.8799999999998094, -0.11729797963380229 
1.8899999999998083, -0.11954350329217026 
1.8999999999998072, -0.11316973826347503 
1.909999999999806, -0.10327280569328712 
1.919999999999805, -0.09450419446626875 
1.9299999999998039, -0.0882313885967056 
1.9399999999998028, -0.0840939142235376 
1.9499999999998017, -0.08142291128028932 
1.9599999999998006, -0.07969709786763027 
1.9699999999997995, -0.07858259758167804 
1.9799999999997984, -0.07788243664617694 
1.9899999999997973, -0.0774895995820182 
1.9999999999997962, -0.07735826014585885 
2.0099999999998173, -0.07749080306639164 
2.0199999999998384, -0.07793779696364357 
2.0299999999998595, -0.07881103245397794 
2.0399999999998806, -0.08031336771494166 
2.0499999999999017, -0.082792254487715 
2.059999999999923, -0.08682062987108916 
2.069999999999944, -0.0932746707634076 
2.079999999999965, -0.10324332925995401 
2.089999999999986, -0.11731962531223283 
2.100000000000007, -0.13395816568289415 
2.1100000000000283, -0.1487428091975569 
2.1200000000000494, -0.15771636888340226 
2.1300000000000705, -0.16101876653120117 
2.1400000000000916, -0.1612399639278345 
2.1500000000001127, -0.1604545118090078 
2.160000000000134, -0.1595853229422793 
2.170000000000155, -0.15889678555163744 
2.180000000000176, -0.1584116009018351 
2.190000000000197, -0.15809284083592115 
2.2000000000002182, -0.15790309539918423 
2.2100000000002393, -0.15781903602268468 
2.2200000000002604, -0.15783345688683467 
2.2300000000002815, -0.15795557933150167 
2.2400000000003026, -0.1582128944741339 
2.2500000000003237, -0.15865549858805322 
2.260000000000345, -0.15936314617423217 
2.270000000000366, -0.1604545905629064 
2.280000000000387, -0.16209674754240203 
2.290000000000408, -0.16450503603332595 
2.3000000000004293, -0.16791250956755796 
2.3100000000004504, -0.17246965291577085 
2.3200000000004715, -0.17805922891187903 
2.3300000000004926, -0.18413826237775743 
2.3400000000005137, -0.1898588618833717 
2.3500000000005348, -0.1945065269802648 
2.360000000000556, -0.1978395191255264 
2.370000000000577, -0.2000241472414288 
2.380000000000598, -0.20137316505916636 
2.390000000000619, -0.20216644596633054 
2.4000000000006403, -0.20259926243294593 
2.4100000000006614, -0.20279287123887038 
2.4200000000006825, -0.20281825067587528 
2.4300000000007036, -0.20271601611285428 
2.4400000000007247, -0.20251078752005439 
2.450000000000746, -0.20222213386123053 
2.460000000000767, -0.2018736656425074 
2.470000000000788, -0.20149986713639287 
2.480000000000809, -0.20114852637385536 
2.49000000000083, -0.20087692840948584 
2.5000000000008513, -0.20074266979454855 
2.5100000000008724, -0.2007923080709646 
2.5200000000008935, -0.20105038021165447 
2.5300000000009146, -0.20150957869229105 
2.5400000000009357, -0.2021244488883393 
2.550000000000957, -0.202815009280429 
2.560000000000978, -0.20348518555668155 
2.570000000000999, -0.20404978512471222 
2.58000000000102, -0.204454203900808 
2.5900000000010412, -0.20467655200071996 
2.6000000000010624, -0.20471584544064853 
2.6100000000010835, -0.20457635845370153 
2.6200000000011046, -0.20425471250137842 
2.6300000000011257, -0.2037308780275847 
2.6400000000011468, -0.20296230260092404 
2.650000000001168, -0.20188229295661086 
2.660000000001189, -0.2004084999785894 
2.67000000000121, -0.19847167763525603 
2.680000000001231, -0.19606879767148255 
2.6900000000012523, -0.19331643077375274 
2.7000000000012734, -0.19044976593652072 
2.7100000000012945, -0.18774059919992994 
2.7200000000013156, -0.18539110524184899 
2.7300000000013367, -0.1834843625080175 
2.740000000001358, -0.1820040599004474 
2.750000000001379, -0.18088053549680688 
2.7600000000014, -0.18002806183521675 
2.770000000001421, -0.17936542472362932 
2.780000000001442, -0.17882472277544498 
2.7900000000014633, -0.1783536737829028 
2.8000000000014844, -0.177914212575879 
2.8100000000015055, -0.17747880048162182 
2.8200000000015266, -0.17702529788093962 
2.8300000000015477, -0.17653040345027407 
2.840000000001569, -0.17596000833622263 
2.85000000000159, -0.1752518680348948 
2.860000000001611, -0.17428091448475194 
2.870000000001632, -0.1727911712380249 
2.8800000000016532, -0.17028401049284445 
2.8900000000016743, -0.16592377797389346 
2.9000000000016954, -0.15873115472246466 
2.9100000000017165, -0.14841937834745023 
2.9200000000017377, -0.13631448812901786 
2.9300000000017588, -0.12477361694336235 
2.94000000000178, -0.1154650585183559 
2.950000000001801, -0.10870751613476912 
2.960000000001822, -0.10404075875998042 
2.970000000001843, -0.10085683810134713 
2.9800000000018643, -0.0986639384281481 
2.9900000000018854, -0.09712357730583011 
3.0000000000019065, -0.09601807773840712 
3.0100000000019276, -0.09521292598902015 
3.0200000000019487, -0.09462955286441259 
3.03000000000197, -0.09422883131074408 
3.040000000001991, -0.09400296125883471 
3.050000000002012, -0.09397397556628295 
3.060000000002033, -0.09419767211585771 
3.070000000002054, -0.0947702903122614 
3.0800000000020753, -0.0958265561639201 
3.0900000000020964, -0.09748690707972471 
3.1000000000021175, -0.09963036092535481 
3.1100000000021386, -0.10127041931330842 
3.1200000000021597, -0.09968619009719785 
3.130000000002181, -0.09126789155502216 
3.140000000002202, -0.07594409300551358 
3.150000000002223, -0.05891044191223652 
3.160000000002244, -0.045059485095667054 
3.1700000000022652, -0.035547365403460617 
3.1800000000022863, -0.02944139840577243 
3.1900000000023074, -0.02556260315107146 
3.2000000000023285, -0.023060520975649076 
3.2100000000023496, -0.02141076952077765 
3.2200000000023707, -0.020307447356093702 
3.230000000002392, -0.019578272653077686 
3.240000000002413, -0.01913398531498216 
3.250000000002434, -0.0189424762528354 
3.260000000002455, -0.01901970048103802 
3.2700000000024763, -0.01943380650489071 
3.2800000000024974, -0.020321991516172998 
3.2900000000025185, -0.021918320925949294 
3.3000000000025396, -0.024572841284480194 
3.3100000000025607, -0.0286661347397002 
3.3200000000025818, -0.034111660446236564 
3.330000000002603, -0.0389878925535411 
3.340000000002624, -0.03841234078809893 
3.350000000002645, -0.02841232804479212 
3.360000000002666, -0.012481682391258677 
3.3700000000026873, 0.002267308258502972 
3.3800000000027084, 0.012424235747440731 
3.3900000000027295, 0.018775222907511567 
3.4000000000027506, 0.022577556494116514 
3.4100000000027717, 0.02481946570776446 
3.420000000002793, 0.026114123000654244 
3.430000000002814, 0.0268145616732809 
3.440000000002835, 0.027116614702008525 
3.450000000002856, 0.02712099004398062 
3.460000000002877, 0.0268650358062181 
3.4700000000028983, 0.0263346125409962 
3.4800000000029194, 0.025461300787786016 
3.4900000000029405, 0.024106949423040345 
3.5000000000029616, 0.022040969743699713 
3.5100000000029827, 0.01894289246667176 
3.520000000003004, 0.01456642883874247 
3.530000000003025, 0.009444360482805784 
3.540000000003046, 0.00642619569408452 
3.550000000003067, 0.010775152222511516 
3.5600000000030882, 0.024202269555344085 
3.5700000000031094, 0.04066077421539505 
3.5800000000031305, 0.053896149829975405 
3.5900000000031516, 0.06254539796082793 
3.6000000000031727, 0.0677472034237094 
3.6100000000031938, 0.07079824995231497 
3.620000000003215, 0.07256995316136346 
3.630000000003236, 0.07357240522614236 
3.640000000003257, 0.07409215164916765 
3.650000000003278, 0.07428621730754417 
3.6600000000032993, 0.07423446933336669 
3.6700000000033204, 0.0739660598844948 
3.6800000000033415, 0.0734710836926094 
3.6900000000033626, 0.0727054124491648 
3.7000000000033837, 0.07160078767298947 
3.710000000003405, 0.07011455462028324 
3.720000000003426, 0.06841742699878042 
3.730000000003447, 0.06740839427757196 
3.740000000003468, 0.06946623110541743 
3.750000000003489, 0.07770671082273461 
3.7600000000035103, 0.09182961467437586 
3.7700000000035314, 0.10669385589885294 
3.7800000000035525, 0.11803260579125616 
3.7900000000035736, 0.1253000267028083 
3.8000000000035947, 0.12962955416382144 
3.810000000003616, 0.13214785202869034 
3.820000000003637, 0.1335966324712205 
3.830000000003658, 0.13441201817140863 
3.840000000003679, 0.1348451702369936 
3.8500000000037002, 0.13504304015350282 
3.8600000000037213, 0.13509517736944454 
3.8700000000037424, 0.1350617164385398 
3.8800000000037635, 0.13499417052998858 
3.8900000000037847, 0.1349589768481399 
3.9000000000038058, 0.1350758276758879 
3.910000000003827, 0.13558504159977175 
3.920000000003848, 0.1369395352679136 
3.930000000003869, 0.13981894858537242 
3.94000000000389, 0.14478800100521527 
3.9500000000039113, 0.15153542812653611 
3.9600000000039324, 0.15864180927399157 
3.9700000000039535, 0.16462191420061553 
3.9800000000039746, 0.16889438720805255 
3.9900000000039957, 0.17164239413571034 
4.000000000004016, 0.17328690697502855 
4.010000000003993, 0.17420038186834136 
4.02000000000397, 0.17464694579073603 
4.030000000003946, 0.17480362953404371 
4.040000000003923, 0.17479089561236158 
4.0500000000039, 0.17469437752433598 
4.0600000000038765, 0.1745784352989012 
4.070000000003853, 0.17449564770949014 
4.08000000000383, 0.1744951769672442 
4.090000000003807, 0.1746307761889203 
4.100000000003783, 0.17496674140495966 
4.11000000000376, 0.17557664610682847 
4.120000000003737, 0.17652586092221248 
4.130000000003713, 0.1778314061264327 
4.14000000000369, 0.17941367293327554 
4.150000000003667, 0.18108578023461447 
4.1600000000036434, 0.18261505835591413 
4.17000000000362, 0.1838173505808026 
4.180000000003597, 0.18460620371783426 
4.1900000000035735, 0.1849764504137495 
4.20000000000355, 0.1849629467102017 
4.210000000003527, 0.18461292815861077 
4.220000000003504, 0.1839810613419514 
4.23000000000348, 0.18313733859787554 
4.240000000003457, 0.18217200210281706 
4.250000000003434, 0.18118599393216733 
4.26000000000341, 0.1802694218628747 
4.270000000003387, 0.17948289593469788 
4.280000000003364, 0.1788533904794503 
4.2900000000033405, 0.17838274570552512 
4.300000000003317, 0.17805926122395035 
4.310000000003294, 0.17786511912341557 
4.320000000003271, 0.17777770313759778 
4.330000000003247, 0.17776641027554355 
4.340000000003224, 0.17778815267675713 
4.350000000003201, 0.17778494065800066 
4.360000000003177, 0.17768505752068736 
4.370000000003154, 0.17740558276938412 
4.380000000003131, 0.17685151769003546 
4.390000000003107, 0.17590929185383988 
4.400000000003084, 0.17444094053478992 
4.410000000003061, 0.17229870310478815 
4.4200000000030375, 0.1693917168415566 
4.430000000003014, 0.1658148203510155 
4.440000000002991, 0.16194784314073757 
4.450000000002968, 0.15834686910570234 
4.460000000002944, 0.15544019216734395 
4.470000000002921, 0.15333603204854931 
4.480000000002898, 0.1518989144761257 
4.490000000002874, 0.15092186849914282 
4.500000000002851, 0.15022857620123403 
4.510000000002828, 0.1496955729706994 
4.520000000002804, 0.1492395301245229 
4.530000000002781, 0.14879825683693698 
4.540000000002758, 0.14831399157918762 
4.5500000000027345, 0.147718655134384 
4.560000000002711, 0.14691779095279525 
4.570000000002688, 0.14576820223212475 
4.580000000002665, 0.14404256554116562 
4.590000000002641, 0.14137607617305087 
4.600000000002618, 0.1372115291080436 
4.610000000002595, 0.13084453429923135 
4.620000000002571, 0.1218483224139765 
4.630000000002548, 0.11106262672461434 
4.640000000002525, 0.10103377187068467 
4.6500000000025015, 0.09414550238810401 
4.660000000002478, 0.09058818165802142 
4.670000000002455, 0.08911728056347935 
4.6800000000024315, 0.0885820320666745 
4.690000000002408, 0.08836121645697376 
4.700000000002385, 0.0881930035404008 
4.710000000002362, 0.0879789370348579 
4.720000000002338, 0.08767881954410425 
4.730000000002315, 0.08726407698453094 
4.740000000002292, 0.08669542975709893 
4.750000000002268, 0.08590643341856866 
4.760000000002245, 0.08478239862842767 
4.770000000002222, 0.08312521614045416 
4.7800000000021985, 0.08059184987656201 
4.790000000002175, 0.07659512849362345 
4.800000000002152, 0.07019254022931279 
4.810000000002129, 0.06017059524712744 
4.820000000002105, 0.04597043120375221 
4.830000000002082, 0.029846002071202797 
4.840000000002059, 0.01712925300530588 
4.850000000002035, 0.011072810238271646 
