t, s[1].omega / s[0].omega 
0, -1.199989010585594 
0.009999999999999995, -1.1987405063889458 
0.019999999999999934, -1.1971964930058268 
0.029999999999999874, -1.1953581651089684 
0.04000000000000012, -1.1932270196501527 
0.050000000000000405, -1.1908048814979488 
0.06000000000000069, -1.188093939292033 
0.07000000000000098, -1.1850967903561604 
0.08000000000000126, -1.1818164932642363 
0.09000000000000155, -1.1782566264718173 
0.10000000000000184, -1.1744213513102184 
0.11000000000000212, -1.1703154775876976 
0.12000000000000241, -1.1659445300419524 
0.130000000000002, -1.1613148139273073 
0.1400000000000009, -1.1564334780837742 
0.1499999999999998, -1.1513085739099105 
0.1599999999999987, -1.1459491087362992 
0.1699999999999976, -1.1403650921653328 
0.1799999999999965, -1.1345675740052965 
0.1899999999999954, -1.1285686724876756 
0.1999999999999943, -1.1223815915262199 
0.2099999999999932, -1.1160206258681562 
0.2199999999999921, -1.1095011531162127 
0.229999999999991, -1.102839611777815 
0.2399999999999899, -1.096053464733163 
0.2499999999999888, -1.0891611478087375 
0.2599999999999877, -1.0821820034908776 
0.2699999999999866, -1.0751362002005502 
0.2799999999999855, -1.0680446379527893 
0.2899999999999844, -1.0609288416144607 
0.2999999999999833, -1.0538108433211935 
0.3099999999999822, -1.0467130558890942 
0.3199999999999811, -1.0396581392345907 
0.32999999999998, -1.032668861880568 
0.3399999999999789, -1.0257679595736948 
0.3499999999999778, -1.018977992873805 
0.35999999999997667, -1.012321205320299 
0.36999999999997557, -1.005819383461589 
0.37999999999997447, -0.9994937196873429 
0.38999999999997337, -0.9933646784678817 
0.39999999999997227, -0.9874518663172798 
0.40999999999997117, -0.9817739055876642 
0.41999999999997006, -0.9763483120939483 
0.42999999999996896, -0.9711913765719347 
0.43999999999996786, -0.9663180500875208 
0.44999999999996676, -0.9617418337282497 
0.45999999999996566, -0.9574746731984372 
0.46999999999996456, -0.9535268592757955 
0.47999999999996346, -0.94990693543669 
0.48999999999996235, -0.9466216142833551 
0.49999999999996125, -0.9436757046758 
0.5099999999999602, -0.9410720516543422 
0.519999999999959, -0.9388114913128458 
0.529999999999958, -0.9368928227327925 
0.5399999999999568, -0.93531279890804 
0.5499999999999557, -0.9340661382820179 
0.5599999999999546, -0.9331455580942006 
0.5699999999999535, -0.9325418302093433 
0.5799999999999524, -0.9322438595060549 
0.5899999999999513, -0.932238784260155 
0.5999999999999502, -0.9325120973055551 
0.6099999999999491, -0.933047786124763 
0.619999999999948, -0.9338284894455581 
0.6299999999999469, -0.9348356674303335 
0.6399999999999458, -0.9360497821661155 
0.6499999999999447, -0.9374504849163589 
0.6599999999999436, -0.9390168064932166 
0.6699999999999425, -0.9407273471556384 
0.6799999999999414, -0.9425604626305439 
0.6899999999999403, -0.9444944431791066 
0.6999999999999392, -0.9465076830677952 
0.7099999999999381, -0.9485788383277924 
0.719999999999937, -0.9506869712653782 
0.7299999999999359, -0.9528116807857266 
0.7399999999999348, -0.9549332181786515 
0.7499999999999337, -0.9570325885538773 
0.7599999999999326, -0.9590916385758783 
0.7699999999999315, -0.9610931315099188 
0.7799999999999304, -0.963020810833986 
0.7899999999999293, -0.9648594537859757 
0.7999999999999282, -0.9665949162000327 
0.8099999999999271, -0.9682141698469722 
0.819999999999926, -0.9697053332460837 
0.8299999999999249, -0.9710576965814083 
0.8399999999999238, -0.9722617409635118 
0.8499999999999227, -0.9733091518612966 
0.8599999999999216, -0.9741928261241765 
0.8699999999999205, -0.974906871660389 
0.8799999999999194, -0.9754465985678701 
0.8899999999999183, -0.975808500361102 
0.8999999999999172, -0.975990223924093 
0.9099999999999161, -0.9759905269599293 
0.919999999999915, -0.9758092220028329 
0.9299999999999139, -0.9754471064983549 
0.9399999999999128, -0.9749058790172459 
0.9499999999999117, -0.9741880423135392 
0.9599999999999106, -0.9732967946234062 
0.9699999999999095, -0.9722359112794041 
0.9799999999999084, -0.9710096193349388 
0.9899999999999073, -0.9696224684099115 
0.9999999999999062, -0.9680792013419862 
1.0099999999999052, -0.9663846284308568 
1.019999999999904, -0.9645435090802864 
1.029999999999903, -0.9625604444727759 
1.039999999999902, -0.9604397845654682 
1.0499999999999008, -0.9581855521952037 
1.0599999999998997, -0.9558013864558869 
1.0699999999998986, -0.953290506798523 
1.0799999999998975, -0.9506556985423108 
1.0899999999998964, -0.947899319713163 
1.0999999999998953, -0.9450233283813239 
1.1099999999998942, -0.9420293289860673 
1.119999999999893, -0.9389186355416987 
1.129999999999892, -0.9356923491383254 
1.1399999999998909, -0.9323514467996251 
1.1499999999998898, -0.9288968785476124 
1.1599999999998887, -0.9253296694533251 
1.1699999999998876, -0.9216510235171892 
1.1799999999998865, -0.917862426411407 
1.1899999999998854, -0.9139657444105663 
1.1999999999998843, -0.9099633172123477 
1.2099999999998832, -0.9058580427808512 
1.219999999999882, -0.901653452802271 
1.229999999999881, -0.897353777798702 
1.2399999999998799, -0.8929640013754157 
1.2499999999998788, -0.8884899034590678 
1.2599999999998777, -0.8839380927033821 
1.2699999999998766, -0.8793160284856105 
1.2799999999998755, -0.874632033088413 
1.2899999999998744, -0.8698952947604797 
1.2999999999998733, -0.8651158623829123 
1.3099999999998722, -0.8603046324483395 
1.319999999999871, -0.8554733289995198 
1.32999999999987, -0.8506344770881135 
1.3399999999998689, -0.8458013702163215 
1.3499999999998678, -0.8409880321264918 
1.3599999999998666, -0.8362091732168143 
1.3699999999998655, -0.8314801417921597 
1.3799999999998644, -0.826816870312491 
1.3899999999998633, -0.8222358167788096 
1.3999999999998622, -0.8177539013975034 
1.4099999999998611, -0.8133884386854775 
1.41999999999986, -0.8091570652162936 
1.429999999999859, -0.8050776632567122 
1.4399999999998578, -0.8011682805979856 
1.4499999999998567, -0.7974470469419542 
1.4599999999998556, -0.7939320872538382 
1.4699999999998545, -0.7906414325380676 
1.4799999999998534, -0.7875929285282116 
1.4899999999998523, -0.7848041428058627 
1.4999999999998512, -0.7822922708763653 
1.5099999999998501, -0.7800740417327162 
1.519999999999849, -0.7781656234349001 
1.529999999999848, -0.7765825292230663 
1.5399999999998468, -0.7753395246723516 
1.5499999999998457, -0.7744505363878939 
1.5599999999998446, -0.7739285627334435 
1.5699999999998435, -0.773785587088304 
1.5799999999998424, -0.7740324941366434 
1.5899999999998413, -0.7746789897112112 
1.5999999999998402, -0.7757335247397981 
1.6099999999998391, -0.7772032238761496 
1.619999999999838, -0.7790938194350633 
1.629999999999837, -0.7814095912909791 
1.6399999999998358, -0.7841533134365519 
1.6499999999998347, -0.7873262079281326 
1.6599999999998336, -0.7909279069641217 
1.6699999999998325, -0.7949564238452079 
1.6799999999998314, -0.7994081335483122 
1.6899999999998303, -0.8042777636049686 
1.6999999999998292, -0.80955839590713 
1.709999999999828, -0.8152414799672936 
1.719999999999827, -0.821316858035041 
1.729999999999826, -0.8277728023194532 
1.7399999999998248, -0.8345960643887793 
1.7499999999998237, -0.8417719366187512 
1.7599999999998226, -0.8492843253438792 
1.7699999999998215, -0.857115835137694 
1.7799999999998204, -0.8652478634147073 
1.7899999999998193, -0.8736607043159549 
1.7999999999998182, -0.8823336606185979 
1.809999999999817, -0.8912451622056144 
1.819999999999816, -0.9003728894513578 
1.8299999999998149, -0.9096938997296475 
1.8399999999998138, -0.9191847551396977 
1.8499999999998127, -0.9288216494776103 
1.8599999999998116, -0.9385805324628477 
1.8699999999998105, -0.9484372292646108 
1.8799999999998094, -0.9583675534661151 
1.8899999999998083, -0.9683474117577231 
1.8999999999998072, -0.9783528988636525 
1.909999999999806, -0.9883603814805174 
1.919999999999805, -0.998346570336049 
1.9299999999998039, -1.0082885798571943 
1.9399999999998028, -1.0181639753598368 
1.9499999999998017, -1.0279508081260365 
1.9599999999998006, -1.0376276392043888 
1.9699999999997995, -1.0471735532372655 
1.9799999999997984, -1.0565681640653648 
1.9899999999997973, -1.0657916142628403 
1.9999999999997962, -1.0748245710919042 
2.0099999999998173, -1.0836482216105103 
2.0199999999998384, -1.0922442697977501 
2.0299999999998595, -1.1005949385589646 
2.0399999999998806, -1.1086829793207245 
2.0499999999999017, -1.116491691615554 
2.059999999999923, -1.1240049545868331 
2.069999999999944, -1.131207271725153 
2.079999999999965, -1.1380838293994175 
2.089999999999986, -1.144620568902366 
2.100000000000007, -1.150804270835641 
2.1100000000000283, -1.1566226497690053 
2.1200000000000494, -1.1620644562834612 
2.1300000000000705, -1.1671195828130942 
2.1400000000000916, -1.1717791691964354 
2.1500000000001127, -1.1760357035866715 
2.160000000000134, -1.1798831143873647 
2.170000000000155, -1.1833168491919759 
2.180000000000176, -1.1863339373030408 
2.190000000000197, -1.188933033256632 
2.2000000000002182, -1.1911144398228555 
2.2100000000002393, -1.1928801101178206 
2.2200000000002604, -1.1942336296584855 
2.2300000000002815, -1.1951801803272142 
2.2400000000003026, -1.1957264891997446 
2.2500000000003237, -1.1958807659533404 
2.260000000000345, -1.1956526330538966 
2.270000000000366, -1.195053053086879 
2.280000000000387, -1.194094257436162 
2.290000000000408, -1.1927896800389455 
2.3000000000004293, -1.1911538991864123 
2.3100000000004504, -1.1892025893480982 
2.3200000000004715, -1.1869524838354855 
2.3300000000004926, -1.1844213478591934 
2.3400000000005137, -1.181627960252308 
2.3500000000005348, -1.178592100911503 
2.360000000000556, -1.1753345399300614 
2.370000000000577, -1.171877023543232 
2.380000000000598, -1.1682422514516513 
2.390000000000619, -1.1644538398976905 
2.4000000000006403, -1.1605362650918487 
2.4100000000006614, -1.156514782247933 
2.4200000000006825, -1.1524153165840303 
2.4300000000007036, -1.1482643241428083 
2.4400000000007247, -1.1440886221028572 
2.450000000000746, -1.1399151902773816 
2.460000000000767, -1.135770947579793 
2.470000000000788, -1.1316825092071234 
2.480000000000809, -1.1276759319743428 
2.49000000000083, -1.123776456459367 
2.5000000000008513, -1.1200082552548691 
2.5100000000008724, -1.1163941965824287 
2.5200000000008935, -1.1129556317824234 
2.5300000000009146, -1.1097122137927522 
2.5400000000009357, -1.1066817517802998 
2.550000000000957, -1.1038801047563942 
2.560000000000978, -1.1013211144958577 
2.570000000000999, -1.099016575610695 
2.58000000000102, -1.0969762384206256 
2.5900000000010412, -1.095207838502731 
2.6000000000010624, -1.0937171456352028 
2.6100000000010835, -1.0925080243611602 
2.6200000000011046, -1.0915824986094962 
2.6300000000011257, -1.0909408136787977 
2.6400000000011468, -1.0905814903183213 
2.650000000001168, -1.0905013674815596 
2.660000000001189, -1.0906956324056423 
2.67000000000121, -1.0911578387907166 
2.680000000001231, -1.0918799158255932 
2.6900000000012523, -1.092852172454848 
2.7000000000012734, -1.0940633024654114 
2.7100000000012945, -1.0955003965887486 
2.7200000000013156, -1.0971489678209692 
2.7300000000013367, -1.0989929955667475 
2.740000000001358, -1.1010149930776207 
2.750000000001379, -1.1031961010937124 
2.7600000000014, -1.105516208760368 
2.770000000001421, -1.1079541009506761 
2.780000000001442, -1.1104876292595411 
2.7900000000014633, -1.1130939023104833 
2.8000000000014844, -1.1157494897689129 
2.8100000000015055, -1.118430633679464 
2.8200000000015266, -1.1211134604843687 
2.8300000000015477, -1.1237741873271732 
2.840000000001569, -1.1263893169462929 
2.85000000000159, -1.1289358165221508 
2.860000000001611, -1.1313912771407002 
2.870000000001632, -1.1337340519440156 
2.8800000000016532, -1.1359433724273171 
2.8900000000016743, -1.1379994435975966 
2.9000000000016954, -1.1398835197421044 
2.9100000000017165, -1.1415779633041723 
2.9200000000017377, -1.1430662897988546 
2.9300000000017588, -1.1443332018204475 
2.94000000000178, -1.145364615022792 
2.950000000001801, -1.1461476785367692 
2.960000000001822, -1.1466707916879664 
2.970000000001843, -1.1469236181609106 
2.9800000000018643, -1.1468970979978814 
2.9900000000018854, -1.1465834570920317 
3.0000000000019065, -1.1459762132020217 
3.0100000000019276, -1.145070177033809 
3.0200000000019487, -1.1438614466458423 
3.03000000000197, -1.1423473933610349 
3.040000000001991, -1.1405266375183483 
3.050000000002012, -1.1383990127553005 
3.060000000002033, -1.1359655180489363 
3.070000000002054, -1.1332282574101997 
3.0800000000020753, -1.1301903678672722 
3.0900000000020964, -1.126855937123805 
3.1000000000021175, -1.1232299129740433 
3.1100000000021386, -1.1193180071412638 
3.1200000000021597, -1.1151265966315898 
3.130000000002181, -1.1106626259307453 
3.140000000002202, -1.1059335134015686 
3.150000000002223, -1.1009470650679831 
3.160000000002244, -1.095711398614886 
3.1700000000022652, -1.0902348799243133 
3.1800000000022863, -1.0845260738466733 
3.1900000000023074, -1.0785937102167598 
3.2000000000023285, -1.07244666541328 
3.2100000000023496, -1.0660939590704321 
3.2200000000023707, -1.0595447649171454 
3.230000000002392, -1.0528084341729436 
3.240000000002413, -1.045894529489088 
3.250000000002434, -1.0388128671009167 
3.260000000002455, -1.0315735646551976 
3.2700000000024763, -1.024187092090836 
3.2800000000024974, -1.0166643229726184 
3.2900000000025185, -1.0090165837922704 
3.3000000000025396, -1.0012556989427348 
3.3100000000025607, -0.9933940293232848 
3.3200000000025818, -0.9854445028279966 
3.330000000002603, -0.9774206352927576 
3.340000000002624, -0.9693365408125011 
3.350000000002645, -0.9612069306791373 
3.360000000002666, -0.9530471005221386 
3.3700000000026873, -0.9448729055503124 
3.3800000000027084, -0.9367007240890735 
3.3900000000027295, -0.9285474098778662 
3.4000000000027506, -0.9204302338337188 
3.4100000000027717, -0.9123668161963746 
3.420000000002793, -0.9043750501458764 
3.430000000002814, -0.8964730181232365 
3.440000000002835, -0.8886789021879825 
3.450000000002856, -0.8810108898126502 
3.460000000002877, -0.8734870765443459 
3.4700000000028983, -0.8661253669588217 
3.4800000000029194, -0.8589433752955902 
3.4900000000029405, -0.8519583270968025 
3.5000000000029616, -0.8451869630820649 
3.5100000000029827, -0.8386454463808284 
3.520000000003004, -0.8323492741184642 
3.530000000003025, -0.8263131942169181 
3.540000000003046, -0.8205511281308892 
3.550000000003067, -0.8150761001004966 
3.5600000000030882, -0.8099001733655913 
3.5700000000031094, -0.8050343936586808 
3.5800000000031305, -0.8004887401756547 
3.5900000000031516, -0.7962720841181834 
3.6000000000031727, -0.7923921548100689 
3.6100000000031938, -0.7888555133126265 
3.620000000003215, -0.7856675334013711 
3.630000000003236, -0.782832389717368 
3.640000000003257, -0.7803530528706571 
3.650000000003278, -0.778231291248856 
3.6600000000032993, -0.7764676792698304 
3.6700000000033204, -0.7750616118113743 
3.6800000000033415, -0.7740113245512853 
3.6900000000033626, -0.773313919956026 
3.7000000000033837, -0.7729653986633674 
3.710000000003405, -0.772960696012095 
3.720000000003426, -0.7732937234781851 
3.730000000003447, -0.7739574147802979 
3.740000000003468, -0.7749437764165441 
3.750000000003489, -0.7762439423882992 
3.7600000000035103, -0.7778482328545647 
3.7700000000035314, -0.7797462164417374 
3.7800000000035525, -0.7819267759086114 
3.7900000000035736, -0.7843781768354338 
3.8000000000035947, -0.7870881389695317 
3.810000000003616, -0.79004390981947 
3.820000000003637, -0.7932323400459992 
3.830000000003658, -0.7966399601525415 
3.840000000003679, -0.8002530579319339 
3.8500000000037002, -0.8040577560808305 
3.8600000000037213, -0.808040089349598 
3.8700000000037424, -0.8121860805546581 
3.8800000000037635, -0.8164818147426073 
3.8900000000037847, -0.8209135107616035 
3.9000000000038058, -0.8254675894657764 
3.910000000003827, -0.8301307377531731 
3.920000000003848, -0.8348899676176401 
3.930000000003869, -0.8397326693809155 
3.94000000000389, -0.8446466582648088 
3.9500000000039113, -0.8496202134668603 
3.9600000000039324, -0.8546421089196408 
3.9700000000039535, -0.8597016349479448 
3.9800000000039746, -0.8647886100945069 
3.9900000000039957, -0.869893382468996 
4.000000000004016, -0.875006820092613 
4.010000000003993, -0.8801202898668951 
4.02000000000397, -0.885225624994658 
4.030000000003946, -0.8903150809260387 
4.040000000003923, -0.8953812801935622 
4.0500000000039, -0.9004171468344845 
4.0600000000038765, -0.9054158314701275 
4.070000000003853, -0.9103706285108273 
4.08000000000383, -0.9152748873678564 
4.090000000003807, -0.9201219199632449 
4.100000000003783, -0.9249049072146649 
4.11000000000376, -0.9296168075130492 
4.120000000003737, -0.9342502704813948 
4.130000000003713, -0.9387975594800468 
4.14000000000369, -0.9432504863832467 
4.150000000003667, -0.9476003620728715 
4.1600000000036434, -0.9518379658610802 
4.17000000000362, -0.9559535366528469 
4.180000000003597, -0.9599367880886354 
4.1900000000035735, -0.9637769491729737 
4.20000000000355, -0.9674628310140049 
4.210000000003527, -0.9709829193022054 
4.220000000003504, -0.9743254910862934 
4.23000000000348, -0.9774787533155619 
4.240000000003457, -0.9804309995745779 
4.250000000003434, -0.9831707805078961 
4.26000000000341, -0.9856870826884824 
4.270000000003387, -0.9879695101865729 
4.280000000003364, -0.9900084628948719 
4.2900000000033405, -0.9917953057905473 
4.300000000003317, -0.9933225237693115 
4.310000000003294, -0.9945838574498606 
4.320000000003271, -0.9955744163700844 
4.330000000003247, -0.9962907672092053 
4.340000000003224, -0.9967309959860838 
4.350000000003201, -0.9968947445093755 
4.360000000003177, -0.9967832225976959 
4.370000000003154, -0.9963991986651367 
4.380000000003131, -0.995746972114233 
4.390000000003107, -0.9948323315513428 
4.400000000003084, -0.9936625031186257 
4.410000000003061, -0.9922460932254333 
4.4200000000030375, -0.9905930296829483 
4.430000000003014, -0.9887145047378074 
4.440000000002991, -0.9866229228119257 
4.450000000002968, -0.984331854940822 
4.460000000002944, -0.9818560010161136 
4.470000000002921, -0.9792111600315256 
4.480000000002898, -0.9764142076527211 
4.490000000002874, -0.9734830796199923 
4.500000000002851, -0.9704367587832439 
4.510000000002828, -0.9672952629875947 
4.520000000002804, -0.9640796305961237 
4.530000000002781, -0.9608119001683171 
4.540000000002758, -0.9575150807175974 
4.5500000000027345, -0.954213109052101 
4.560000000002711, -0.950930790956937 
4.570000000002688, -0.9476937233947349 
4.580000000002665, -0.9445281954693222 
4.590000000002641, -0.9414610665936125 
4.600000000002618, -0.9385196211001159 
4.610000000002595, -0.9357313993989452 
4.620000000002571, -0.933124006688117 
4.630000000002548, -0.9307249011168118 
4.640000000002525, -0.9285611641566234 
4.6500000000025015, -0.9266592567133491 
4.660000000002478, -0.92504476518118 
4.670000000002455, -0.9237421421763987 
4.6800000000024315, -0.9227744470695787 
4.690000000002408, -0.9221630916514832 
4.700000000002385, -0.9219275963130245 
4.710000000002362, -0.9220853619948235 
4.720000000002338, -0.9226514628738102 
4.730000000002315, -0.9236384643143425 
4.740000000002292, -0.925056270034936 
4.750000000002268, -0.9269120017475156 
4.760000000002245, -0.9292099137358953 
4.770000000002222, -0.9319513439782637 
4.7800000000021985, -0.9351347025121094 
4.790000000002175, -0.9387554968188272 
4.800000000002152, -0.9428063931011558 
4.810000000002129, -0.9472773114726797 
4.820000000002105, -0.9521555523080716 
4.830000000002082, -0.957425950346663 
4.840000000002059, -0.9630710526274382 
4.850000000002035, -0.9690713159810695 
4.860000000002012, -0.9754053196258881 
4.870000000001989, -0.982049988410857 
4.880000000001965, -0.9889808224094863 
4.890000000001942, -0.9961721288728302 
4.900000000001919, -1.0035972529662038 
4.9100000000018955, -1.0112288042049524 
4.920000000001872, -1.0190388760279434 
4.930000000001849, -1.0269992564624735 
