t, s[1].omega / s[0].omega 
0, -1.9199968387539266 
0.009999999999999995, -1.9194104957272926 
0.019999999999999934, -1.9182553833035023 
0.029999999999999874, -1.9164373897670424 
0.04000000000000012, -1.9138497373850103 
0.050000000000000405, -1.9105819766810253 
0.06000000000000069, -1.9073747841000603 
0.07000000000000098, -1.9055168547241454 
0.08000000000000126, -1.9052910979178628 
0.09000000000000155, -1.9056767311948017 
0.10000000000000184, -1.9058796226236905 
0.11000000000000212, -1.9056818064476946 
0.12000000000000241, -1.9050310412257674 
0.130000000000002, -1.9038724364154305 
0.1400000000000009, -1.9024164061638573 
0.1499999999999998, -1.9018927166165593 
0.1599999999999987, -1.9041057806241717 
0.1699999999999976, -1.908536599252745 
0.1799999999999965, -1.9128713656883825 
0.1899999999999954, -1.9159527720580638 
0.1999999999999943, -1.917795764768417 
0.2099999999999932, -1.9186986461374638 
0.2199999999999921, -1.9189033535284565 
0.229999999999991, -1.9185511394901547 
0.2399999999999899, -1.9177019503035933 
0.2499999999999888, -1.9163630562835692 
0.2599999999999877, -1.9145370407899922 
0.2699999999999866, -1.9123484624449858 
0.2799999999999855, -1.9102766576736911 
0.2899999999999844, -1.9090517794900201 
0.2999999999999833, -1.9088132245863623 
0.3099999999999822, -1.9089498555710598 
0.3199999999999811, -1.9089310676849973 
0.32999999999998, -1.9085404761742208 
0.3399999999999789, -1.907627797146486 
0.3499999999999778, -1.9059836480100625 
0.35999999999997667, -1.9037113289146368 
0.36999999999997557, -1.9026096017176304 
0.37999999999997447, -1.906003181603543 
0.38999999999997337, -1.9132399642932743 
0.39999999999997227, -1.92012430541679 
0.40999999999997117, -1.9247590122821099 
0.41999999999997006, -1.9274006000225423 
0.42999999999996896, -1.9286915804234923 
0.43999999999996786, -1.9291002023702668 
0.44999999999996676, -1.9288997572534232 
0.45999999999996566, -1.928235026791235 
0.46999999999996456, -1.927184334951218 
0.47999999999996346, -1.9258163342094847 
0.48999999999996235, -1.9242747814743897 
0.49999999999996125, -1.9229034215256395 
0.5099999999999602, -1.9221286021976354 
0.519999999999959, -1.9219552957077521 
0.529999999999958, -1.9219540788208391 
0.5399999999999568, -1.9217550421013623 
0.5499999999999557, -1.9211415792549507 
0.5599999999999546, -1.9198477750841711 
0.5699999999999535, -1.9174397059999546 
0.5799999999999524, -1.9138651785425231 
0.5899999999999513, -1.9118845903170687 
0.5999999999999502, -1.9170449591613141 
0.6099999999999491, -1.9277982463789023 
0.619999999999948, -1.937231606122619 
0.6299999999999469, -1.9430417876056132 
0.6399999999999458, -1.9460919826250394 
0.6499999999999447, -1.947475576720025 
0.6599999999999436, -1.9478787689228565 
0.6699999999999425, -1.947669686023127 
0.6799999999999414, -1.9470412481850103 
0.6899999999999403, -1.9461127211852862 
0.6999999999999392, -1.9449934000656441 
0.7099999999999381, -1.9438441059919218 
0.719999999999937, -1.9429403956540614 
0.7299999999999359, -1.9425076270004813 
0.7399999999999348, -1.9424096425498523 
0.7499999999999337, -1.9422936787121319 
0.7599999999999326, -1.9418825911564053 
0.7699999999999315, -1.940921216924464 
0.7799999999999304, -1.9389536760521509 
0.7899999999999293, -1.9352325057639561 
0.7999999999999282, -1.9299059523870814 
0.8099999999999271, -1.9282087005651534 
0.819999999999926, -1.9371530261135264 
0.8299999999999249, -1.9508076487599482 
0.8399999999999238, -1.9607538440348908 
0.8499999999999227, -1.966159575739356 
0.8599999999999216, -1.9687187931835648 
0.8699999999999205, -1.9697255933571598 
0.8799999999999194, -1.9698728153687974 
0.8899999999999183, -1.969503563144027 
0.8999999999999172, -1.968802866672838 
0.9099999999999161, -1.9679055802111471 
0.919999999999915, -1.9669427005813624 
0.9299999999999139, -1.9660893808710753 
0.9399999999999128, -1.9655586808767775 
0.9499999999999117, -1.9653725713348102 
0.9599999999999106, -1.9652731616253998 
0.9699999999999095, -1.9649667865954394 
0.9799999999999084, -1.9641983121409925 
0.9899999999999073, -1.9625602039207544 
0.9999999999999062, -1.95923453493046 
1.0099999999999052, -1.9532941883597086 
1.019999999999904, -1.9472351709487932 
1.029999999999903, -1.9508978554873457 
1.039999999999902, -1.9652315147588193 
1.0499999999999008, -1.9782835956656808 
1.0599999999998997, -1.9857469494849826 
1.0699999999998986, -1.9893013756936206 
1.0799999999998975, -1.9907698101769846 
1.0899999999998964, -1.99115213763498 
1.0999999999998953, -1.9909275913271558 
1.1099999999998942, -1.990336412953987 
1.119999999999893, -1.9895372711748667 
1.129999999999892, -1.9886669264994201 
1.1399999999998909, -1.987869408348842 
1.1499999999998898, -1.9873255406060502 
1.1599999999998887, -1.987102324940604 
1.1699999999998876, -1.987000757471663 
1.1799999999998865, -1.9867321996543226 
1.1899999999998854, -1.9860379102299888 
1.1999999999998843, -1.984529462156247 
1.2099999999998832, -1.9813967777119341 
1.219999999999882, -1.9754412523961455 
1.229999999999881, -1.967987328330155 
1.2399999999998799, -1.968874533594419 
1.2499999999998788, -1.9826267366764472 
1.2599999999998777, -1.9967687773461928 
1.2699999999998766, -2.005041786262601 
1.2799999999998755, -2.0089595375447318 
1.2899999999998744, -2.0105741570938735 
1.2999999999998733, -2.011018455592503 
1.3099999999998722, -2.0108255057514985 
1.319999999999871, -2.0102556165889203 
1.32999999999987, -2.00947605112375 
1.3399999999998689, -2.008627280848564 
1.3499999999998678, -2.0078497477941113 
1.3599999999998666, -2.007317943174533 
1.3699999999998655, -2.00709819814032 
1.3799999999998644, -2.0069928557830585 
1.3899999999998633, -2.00671274469006 
1.3999999999998622, -2.0059939194406304 
1.4099999999998611, -2.0044299139282393 
1.41999999999986, -2.001171518292846 
1.429999999999859, -1.9950337918478553 
1.4399999999998578, -1.98786149090139 
1.4499999999998567, -1.9901259198541648 
1.4599999999998556, -2.0044740217213337 
1.4699999999998545, -2.0179116556603662 
1.4799999999998534, -2.0254550150574895 
1.4899999999998523, -2.0289485850917233 
1.4999999999998512, -2.0303409098403766 
1.5099999999998501, -2.030661724488013 
1.519999999999849, -2.0303895849772826 
1.529999999999848, -2.0297614317005266 
1.5399999999998468, -2.028935241612621 
1.5499999999998457, -2.028047744861525 
1.5599999999998446, -2.027255895680455 
1.5699999999998435, -2.0267551075953105 
1.5799999999998424, -2.026572443701785 
1.5899999999998413, -2.0264567542650314 
1.5999999999998402, -2.0261116000388375 
1.6099999999998391, -2.02526197544751 
1.619999999999838, -2.0234393204336807 
1.629999999999837, -2.019720916598537 
1.6399999999998358, -2.013415621723981 
1.6499999999998347, -2.0089291983010398 
1.6599999999998336, -2.016340716998316 
1.6699999999998325, -2.0309969444536047 
1.6799999999998314, -2.0417655355323543 
1.6899999999998303, -2.0473431984925416 
1.6999999999998292, -2.0498306571599496 
1.709999999999828, -2.050726655481898 
1.719999999999827, -2.0507754006899894 
1.729999999999826, -2.0503235584033863 
1.7399999999998248, -2.0495539265761593 
1.7499999999998237, -2.04860111303301 
1.7599999999998226, -2.047607157454654 
1.7699999999998215, -2.046795584831723 
1.7799999999998204, -2.0463836241836706 
1.7899999999998193, -2.0462689701364796 
1.7999999999998182, -2.046111511082431 
1.809999999999817, -2.0456215548157717 
1.819999999999816, -2.044495457895028 
1.8299999999998149, -2.042164446784077 
1.8399999999998138, -2.0378596500988615 
1.8499999999998127, -2.0330016372414237 
1.8599999999998116, -2.0353742915692186 
1.8699999999998105, -2.047282244237453 
1.8799999999998094, -2.0587332248298438 
1.8899999999998083, -2.0654335525957985 
1.8999999999998072, -2.0686675555172416 
1.909999999999806, -2.0699970502062746 
1.919999999999805, -2.0702938384084772 
1.9299999999998039, -2.0699758021777157 
1.9399999999998028, -2.069242787155318 
1.9499999999998017, -2.0682138331895272 
1.9599999999998006, -2.0670094375865444 
1.9699999999997995, -2.0658630619443668 
1.9799999999997984, -2.065140218820395 
1.9899999999997973, -2.0649299347544074 
1.9999999999997962, -2.064870913596225 
2.0099999999998173, -2.064590341860089 
2.0199999999998384, -2.063832353402999 
2.0299999999998595, -2.0622407378911065 
2.0399999999998806, -2.059319172671662 
2.0499999999999017, -2.055782796752509 
2.059999999999923, -2.0567047508480565 
2.069999999999944, -2.065261484492813 
2.079999999999965, -2.074824061470749 
2.089999999999986, -2.0809756386965357 
2.100000000000007, -2.0841542221042504 
2.1100000000000283, -2.08554988155959 
2.1200000000000494, -2.0859126611749774 
2.1300000000000705, -2.0856194872843923 
2.1400000000000916, -2.084841856288851 
2.1500000000001127, -2.0836589452428096 
2.160000000000134, -2.0821509037295725 
2.170000000000155, -2.0805681651918073 
2.180000000000176, -2.0794544456718778 
2.190000000000197, -2.0791158169416204 
2.2000000000002182, -2.079141039549286 
2.2100000000002393, -2.0790179478917876 
2.2200000000002604, -2.078487231507682 
2.2300000000002815, -2.0773256081858515 
2.2400000000003026, -2.07528332564436 
2.2500000000003237, -2.0729998645588656 
2.260000000000345, -2.0738041263783678 
2.270000000000366, -2.0796507387094114 
2.280000000000387, -2.0863960580425616 
2.290000000000408, -2.090989388476609 
2.3000000000004293, -2.093488819074662 
2.3100000000004504, -2.094609103014677 
2.3200000000004715, -2.094844016625731 
2.3300000000004926, -2.0944439328464854 
2.3400000000005137, -2.0935013694444335 
2.3500000000005348, -2.0920200420113706 
2.360000000000556, -2.0900119603258434 
2.370000000000577, -2.0877669794926237 
2.380000000000598, -2.086125598857678 
2.390000000000619, -2.0856745532824483 
2.4000000000006403, -2.0858401497658305 
2.4100000000006614, -2.0858849584353054 
2.4200000000006825, -2.085531004704718 
2.4300000000007036, -2.0846586415852633 
2.4400000000007247, -2.083197343717159 
2.450000000000746, -2.0817565179448643 
2.460000000000767, -2.0824725363895444 
2.470000000000788, -2.086257771084191 
2.480000000000809, -2.0906017183515475 
2.49000000000083, -2.093671371463798 
2.5000000000008513, -2.0953919197475273 
2.5100000000008724, -2.0961256111471886 
2.5200000000008935, -2.096135359646764 
2.5300000000009146, -2.095533137303554 
2.5400000000009357, -2.09430494854922 
2.550000000000957, -2.0923389483952373 
2.560000000000978, -2.0895347838585128 
2.570000000000999, -2.0862516403762053 
2.58000000000102, -2.083848245565355 
2.5900000000010412, -2.083326616869681 
2.6000000000010624, -2.0837469795541272 
2.6100000000010835, -2.0840154322377304 
2.6200000000011046, -2.0838369911897257 
2.6300000000011257, -2.083189744749311 
2.6400000000011468, -2.082116392558872 
2.650000000001168, -2.081124991538341 
2.660000000001189, -2.0815608865230204 
2.67000000000121, -2.0838920392925253 
2.680000000001231, -2.0866382552295293 
2.6900000000012523, -2.088655699838894 
2.7000000000012734, -2.0897992532237093 
2.7100000000012945, -2.090218037312736 
2.7200000000013156, -2.0900178716696787 
2.7300000000013367, -2.089195992934413 
2.740000000001358, -2.087622522073412 
2.750000000001379, -2.085029096726568 
2.7600000000014, -2.081129120000061 
2.770000000001421, -2.076325863531303 
2.780000000001442, -2.072761500208791 
2.7900000000014633, -2.0721521232411053 
2.8000000000014844, -2.07297565597821 
2.8100000000015055, -2.073569435630618 
2.8200000000015266, -2.0736045119249855 
2.8300000000015477, -2.073160061185831 
2.840000000001569, -2.072347452397607 
2.85000000000159, -2.0715422646352613 
2.860000000001611, -2.071618495096477 
2.870000000001632, -2.072974430123053 
2.8800000000016532, -2.074764392334564 
2.8900000000016743, -2.0761711948271437 
2.9000000000016954, -2.076987254123079 
2.9100000000017165, -2.0772365138488103 
2.9200000000017377, -2.0769291144600484 
2.9300000000017588, -2.0759822903266327 
2.94000000000178, -2.0741661587294153 
2.950000000001801, -2.0710455605661187 
2.960000000001822, -2.0660613118216724 
2.970000000001843, -2.059421418333396 
2.9800000000018643, -2.0540022786384524 
2.9900000000018854, -2.0529218528284163 
3.0000000000019065, -2.054251671408479 
3.0100000000019276, -2.0553437305013005 
3.0200000000019487, -2.0556896089531485 
3.03000000000197, -2.055471172849871 
3.040000000001991, -2.054863100456496 
3.050000000002012, -2.054128601316682 
3.060000000002033, -2.053855616359914 
3.070000000002054, -2.054517287940823 
3.0800000000020753, -2.0557252936995174 
3.0900000000020964, -2.056819220419475 
3.1000000000021175, -2.05751467084331 
3.1100000000021386, -2.0577535330261667 
3.1200000000021597, -2.0574960465847942 
3.130000000002181, -2.0566289864110985 
3.140000000002202, -2.0548886133397364 
3.150000000002223, -2.051760911993027 
3.160000000002244, -2.0464464898991395 
3.1700000000022652, -2.038522807498409 
3.1800000000022863, -2.03046555049235 
3.1900000000023074, -2.0274510224072984 
3.2000000000023285, -2.0289441684160505 
3.2100000000023496, -2.0307814946249816 
3.2200000000023707, -2.031651395214241 
3.230000000002392, -2.031760554861538 
3.240000000002413, -2.0313846270973386 
3.250000000002434, -2.030735253837837 
3.260000000002455, -2.0301865393453964 
3.2700000000024763, -2.0302619466501617 
3.2800000000024974, -2.0310181368989495 
3.2900000000025185, -2.03195657293729 
3.3000000000025396, -2.0326815162938 
3.3100000000025607, -2.033050711307193 
3.3200000000025818, -2.032998856623831 
3.330000000002603, -2.032428836466665 
3.340000000002624, -2.0311331852825445 
3.350000000002645, -2.02868960382652 
3.360000000002666, -2.0243366251025865 
3.3700000000026873, -2.0170978607606846 
3.3800000000027084, -2.00736127745853 
3.3900000000027295, -1.9999754488418375 
3.4000000000027506, -1.9993317329274838 
3.4100000000027717, -2.0017476274813175 
3.420000000002793, -2.003516403137799 
3.430000000002814, -2.0042081982273867 
3.440000000002835, -2.004197696385874 
3.450000000002856, -2.0037559256717516 
3.460000000002877, -2.0031138003342805 
3.4700000000028983, -2.0026776579027703 
3.4800000000029194, -2.0028810576188443 
3.4900000000029405, -2.0036349048896236 
3.5000000000029616, -2.0044719493928427 
3.5100000000029827, -2.0050849349282247 
3.520000000003004, -2.0053565401533007 
3.530000000003025, -2.0052125598227906 
3.540000000003046, -2.004537117727525 
3.550000000003067, -2.0030950421333213 
3.5600000000030882, -2.000425403039392 
3.5700000000031094, -1.9957294751551118 
3.5800000000031305, -1.9880788984629656 
3.5900000000031516, -1.9781842079089127 
3.6000000000031727, -1.9711617246799473 
3.6100000000031938, -1.9708118454267218 
3.620000000003215, -1.9732181930329689 
3.630000000003236, -1.974936491754887 
3.640000000003257, -1.9756074512223674 
3.650000000003278, -1.9755925447247815 
3.6600000000032993, -1.9751502020146243 
3.6700000000033204, -1.9745006352361831 
3.6800000000033415, -1.974043459306009 
3.6900000000033626, -1.9742407220710014 
3.7000000000033837, -1.9750475742199847 
3.710000000003405, -1.9759816149560911 
3.720000000003426, -1.9766968214635974 
3.730000000003447, -1.9770644460954514 
3.740000000003468, -1.9770207213710038 
3.750000000003489, -1.9764762505591051 
3.7600000000035103, -1.9752506177278222 
3.7700000000035314, -1.9729933517264144 
3.7800000000035525, -1.96909932448501 
3.7900000000035736, -1.9627985697678223 
3.8000000000035947, -1.9542009508501377 
3.810000000003616, -1.946674095761481 
3.820000000003637, -1.9445912111964425 
3.830000000003658, -1.9462280474676654 
3.840000000003679, -1.9479282037420045 
3.8500000000037002, -1.948722018004506 
3.8600000000037213, -1.9488107120490252 
3.8700000000037424, -1.9484317871758141 
3.8800000000037635, -1.947764475491952 
3.8900000000037847, -1.9471482369205877 
3.9000000000038058, -1.9471590829396326 
3.910000000003827, -1.9480269641672425 
3.920000000003848, -1.9492694994192088 
3.930000000003869, -1.9503474768128968 
3.94000000000389, -1.951042296268911 
3.9500000000039113, -1.9513016990034113 
3.9600000000039324, -1.9510910236521783 
3.9700000000039535, -1.9503264451220321 
3.9800000000039746, -1.948826688181877 
3.9900000000039957, -1.946263856000526 
4.000000000004016, -1.9421564230242194 
4.010000000003993, -1.9361730634409855 
4.02000000000397, -1.929340475347137 
4.030000000003946, -1.9249209301029009 
4.040000000003923, -1.9245409816073042 
4.0500000000039, -1.9258127469888275 
4.0600000000038765, -1.9267534572253902 
4.070000000003853, -1.9270372423604525 
4.08000000000383, -1.926804350279935 
4.090000000003807, -1.926178479561185 
4.100000000003783, -1.9253506490148098 
4.11000000000376, -1.924872706772637 
4.120000000003737, -1.9254924140118903 
4.130000000003713, -1.9271435988003618 
4.14000000000369, -1.9289711056442431 
4.150000000003667, -1.9303835434267445 
4.1600000000036434, -1.9312408742054779 
4.17000000000362, -1.9315635364669437 
4.180000000003597, -1.931370970924376 
4.1900000000035735, -1.9306292796135502 
4.20000000000355, -1.9292272122138414 
4.210000000003527, -1.9269620092529074 
4.220000000003504, -1.9235799113134449 
4.23000000000348, -1.919071051589859 
4.240000000003457, -1.9144491804447015 
4.250000000003434, -1.9117830711496904 
4.26000000000341, -1.911610350280603 
4.270000000003387, -1.9123320460275188 
4.280000000003364, -1.9127951844520457 
4.2900000000033405, -1.912777350698574 
4.300000000003317, -1.912310956822027 
4.310000000003294, -1.9114314246891446 
4.320000000003271, -1.91036321094702 
4.330000000003247, -1.9099754197469032 
4.340000000003224, -1.9113808539235069 
4.350000000003201, -1.9142247067533984 
4.360000000003177, -1.9170814908356621 
4.370000000003154, -1.9191749177815716 
4.380000000003131, -1.9204380959987464 
4.390000000003107, -1.9210043387659668 
4.400000000003084, -1.9209868489203572 
4.410000000003061, -1.9204336327766758 
4.4200000000030375, -1.9193254224714213 
4.430000000003014, -1.9175855723570314 
4.440000000002991, -1.915128524191496 
4.450000000002968, -1.9120563953951322 
4.460000000002944, -1.9090710984589159 
4.470000000002921, -1.9073524693198327 
4.480000000002898, -1.90713638875703 
4.490000000002874, -1.9074755438491557 
4.500000000002851, -1.9076336520700994 
4.510000000002828, -1.907398049153444 
4.520000000002804, -1.9067019086531438 
4.530000000002781, -1.905472108422929 
4.540000000002758, -1.9039252330147818 
4.5500000000027345, -1.903399470654459 
4.560000000002711, -1.9058500612060503 
4.570000000002688, -1.9106481625193745 
4.580000000002665, -1.9152677767196764 
4.590000000002641, -1.918509129403624 
4.600000000002618, -1.9204290134513688 
4.610000000002595, -1.9213655047605624 
4.620000000002571, -1.9215851461916873 
4.630000000002548, -1.9212438634144582 
4.640000000002525, -1.9204118995096355 
4.6500000000025015, -1.919106545619669 
4.660000000002478, -1.9173422353159744 
4.670000000002455, -1.9152542256552736 
4.6800000000024315, -1.9133131940372596 
4.690000000002408, -1.9121953445805304 
4.700000000002385, -1.9119891426787685 
4.710000000002362, -1.9121044142565613 
4.720000000002338, -1.9120486525131604 
4.730000000002315, -1.9116130836816652 
4.740000000002292, -1.9106318794110482 
4.750000000002268, -1.9088716313929783 
4.760000000002245, -1.9064600453047535 
4.770000000002222, -1.905411924003499 
4.7800000000021985, -1.9092488732011077 
4.790000000002175, -1.9169635049211649 
4.800000000002152, -1.9240716187052271 
4.810000000002129, -1.9287569104959281 
4.820000000002105, -1.931384072655669 
4.830000000002082, -1.9326443494747814 
4.840000000002059, -1.933023282565101 
4.850000000002035, -1.9327996960143572 
4.860000000002012, -1.93212089380152 
4.870000000001989, -1.9310690331799978 
4.880000000001965, -1.9297196896447026 
4.890000000001942, -1.9282274096993803 
4.900000000001919, -1.9269405884949815 
4.9100000000018955, -1.9262510209494845 
4.920000000001872, -1.9261118055954498 
4.930000000001849, -1.9260941617421015 
4.940000000001826, -1.9258527697767605 
4.950000000001802, -1.9251721919778215 
