t, s[1].omega / s[0].omega 
0, -0.6401310766296826 
0.009999999999999995, -0.6531054361334119 
0.019999999999999934, -0.6647532422592455 
0.029999999999999874, -0.6739766339281166 
0.04000000000000012, -0.6805499130385493 
0.050000000000000405, -0.6848867628399321 
0.06000000000000069, -0.6875999484834631 
0.07000000000000098, -0.6892236469671167 
0.08000000000000126, -0.6901346826098571 
0.09000000000000155, -0.6905700600816956 
0.10000000000000184, -0.6906649458860568 
0.11000000000000212, -0.690482277791846 
0.12000000000000241, -0.6900283123284136 
0.130000000000002, -0.6892548566771576 
0.1400000000000009, -0.6880495552233183 
0.1499999999999998, -0.6862168654464735 
0.1599999999999987, -0.6834598053277863 
0.1699999999999976, -0.6793918959776357 
0.1799999999999965, -0.6736336052456008 
0.1899999999999954, -0.6660298245004732 
0.1999999999999943, -0.6568949882477402 
0.2099999999999932, -0.647041925043789 
0.2199999999999921, -0.6374765195219767 
0.229999999999991, -0.6289954868923455 
0.2399999999999899, -0.6219948062068699 
0.2499999999999888, -0.6165223871964813 
0.2599999999999877, -0.6124243337639574 
0.2699999999999866, -0.609468484072075 
0.2799999999999855, -0.6074157338984448 
0.2899999999999844, -0.6060518626335544 
0.2999999999999833, -0.6051978717069638 
0.3099999999999822, -0.6047105889154302 
0.3199999999999811, -0.6044793519565224 
0.32999999999998, -0.6044212864841615 
0.3399999999999789, -0.6044763287423444 
0.3499999999999778, -0.604602703629477 
0.35999999999997667, -0.6047733879274562 
0.36999999999997557, -0.6049737921865084 
0.37999999999997447, -0.605200288000324 
0.38999999999997337, -0.6054583540797551 
0.39999999999997227, -0.6057585720342055 
0.40999999999997117, -0.6061093858212523 
0.41999999999997006, -0.6065078134840559 
0.42999999999996896, -0.6069321100184587 
0.43999999999996786, -0.6073415131293555 
0.44999999999996676, -0.6076855238847407 
0.45999999999996566, -0.6079189702107591 
0.46999999999996456, -0.6080142950077764 
0.47999999999996346, -0.6079646875276296 
0.48999999999996235, -0.6077789446650412 
0.49999999999996125, -0.6074737851869091 
0.5099999999999602, -0.607068712530564 
0.519999999999959, -0.6065857042815028 
0.529999999999958, -0.6060544615268457 
0.5399999999999568, -0.6055243267880857 
0.5499999999999557, -0.6050853805621308 
0.5599999999999546, -0.6049023797522224 
0.5699999999999535, -0.605263789817621 
0.5799999999999524, -0.6066386062557766 
0.5899999999999513, -0.6097048848936735 
0.5999999999999502, -0.6152565841891569 
0.6099999999999491, -0.6238486358298828 
0.619999999999948, -0.6351824476029748 
0.6299999999999469, -0.6477365222362816 
0.6399999999999458, -0.659395040251444 
0.6499999999999447, -0.6687273204808095 
0.6599999999999436, -0.6755113555354204 
0.6699999999999425, -0.6802275134352043 
0.6799999999999414, -0.683455599029049 
0.6899999999999403, -0.6856436544912061 
0.6999999999999392, -0.6871010495076686 
0.7099999999999381, -0.6880379531973303 
0.719999999999937, -0.6885956947301485 
0.7299999999999359, -0.688865189589851 
0.7399999999999348, -0.6888978608573416 
0.7499999999999337, -0.6887114410827512 
0.7599999999999326, -0.6882917133684321 
0.7699999999999315, -0.687591510226892 
0.7799999999999304, -0.6865302275609257 
0.7899999999999293, -0.6850009134005074 
0.7999999999999282, -0.6828955223296311 
0.8099999999999271, -0.6801542476811739 
0.819999999999926, -0.6768229163612227 
0.8299999999999249, -0.6730759893957333 
0.8399999999999238, -0.6691733931949054 
0.8499999999999227, -0.6653752847643135 
0.8599999999999216, -0.6618740711897029 
0.8699999999999205, -0.6587755727183757 
0.8799999999999194, -0.6561168411489221 
0.8899999999999183, -0.6538941066146593 
0.8999999999999172, -0.6520846551962592 
0.9099999999999161, -0.6506589513608803 
0.919999999999915, -0.6495854045644467 
0.9299999999999139, -0.6488313345424648 
0.9399999999999128, -0.6483628595867571 
0.9499999999999117, -0.6481452211844188 
0.9599999999999106, -0.6481440320435959 
0.9699999999999095, -0.6483272546028711 
0.9799999999999084, -0.648667411559184 
0.9899999999999073, -0.6491435063352399 
0.9999999999999062, -0.6497421666564704 
1.0099999999999052, -0.6504573727122629 
1.019999999999904, -0.6512877701172222 
1.029999999999903, -0.6522304549824306 
1.039999999999902, -0.6532711459105386 
1.0499999999999008, -0.6543734692635563 
1.0599999999998997, -0.6554737489680902 
1.0699999999998986, -0.6564885345341727 
1.0799999999998975, -0.6573356663878303 
1.0899999999998964, -0.6579582604344003 
1.0999999999998953, -0.658336648923411 
1.1099999999998942, -0.6584829773945962 
1.119999999999893, -0.6584260783888377 
1.129999999999892, -0.6581973572771549 
1.1399999999998909, -0.6578231931052348 
1.1499999999998898, -0.6573242555087384 
1.1599999999998887, -0.6567208810492716 
1.1699999999998876, -0.6560451478111828 
1.1799999999998865, -0.6553626957113299 
1.1899999999998854, -0.6548091664372427 
1.1999999999998843, -0.654644602438966 
1.2099999999998832, -0.6553173076212346 
1.219999999999882, -0.6574940882423135 
1.229999999999881, -0.6619519828636136 
1.2399999999998799, -0.6691994996976818 
1.2499999999998788, -0.6788977169067991 
1.2599999999998777, -0.6896390731197556 
1.2699999999998766, -0.6996434233756353 
1.2799999999998755, -0.7077951331510166 
1.2899999999998744, -0.7139120382009907 
1.2999999999998733, -0.7183092343287828 
1.3099999999998722, -0.7213901797663257 
1.319999999999871, -0.7234978535994451 
1.32999999999987, -0.724896081706788 
1.3399999999998689, -0.7257791881654959 
1.3499999999998678, -0.7262832834657761 
1.3599999999998666, -0.7264961342825109 
1.3699999999998655, -0.7264646836849733 
1.3799999999998644, -0.726199039314021 
1.3899999999998633, -0.7256722512824647 
1.3999999999998622, -0.7248164887245829 
1.4099999999998611, -0.7235191029922043 
1.41999999999986, -0.7216276989727006 
1.429999999999859, -0.7189798882205445 
1.4399999999998578, -0.715469994210362 
1.4499999999998567, -0.7111353162627794 
1.4599999999998556, -0.7062009917108794 
1.4699999999998545, -0.7010285204486111 
1.4799999999998534, -0.6959942272786777 
1.4899999999998523, -0.6913849860919907 
1.4999999999998512, -0.6873636696086812 
1.5099999999998501, -0.6839895235864728 
1.519999999999849, -0.6812553147913778 
1.529999999999848, -0.6791175701232463 
1.5399999999998468, -0.6775145898315442 
1.5499999999998457, -0.6763756518185188 
1.5599999999998446, -0.6756260987394793 
1.5699999999998435, -0.6751913261858695 
1.5799999999998424, -0.675000678033421 
1.5899999999998413, -0.6749909628382258 
1.5999999999998402, -0.6751089640071062 
1.6099999999998391, -0.6753126636583348 
1.619999999999838, -0.6755714221243759 
1.629999999999837, -0.6758655561918449 
1.6399999999998358, -0.6761853836646055 
1.6499999999998347, -0.6765290286865575 
1.6599999999998336, -0.676897858957162 
1.6699999999998325, -0.6772893251794667 
1.6799999999998314, -0.6776893221549385 
1.6899999999998303, -0.6780684199078562 
1.6999999999998292, -0.6783858479732942 
1.709999999999828, -0.6786007254473241 
1.719999999999827, -0.678684469936398 
1.729999999999826, -0.6786272294358169 
1.7399999999998248, -0.6784362752216556 
1.7499999999998237, -0.6781302285000742 
1.7599999999998226, -0.6777345481302504 
1.7699999999998215, -0.6772816912007757 
1.7799999999998204, -0.6768172609870292 
1.7899999999998193, -0.6764128000287711 
1.7999999999998182, -0.6761859940152783 
1.809999999999817, -0.6763285635017473 
1.819999999999816, -0.6771396321541033 
1.8299999999998149, -0.6790562738035856 
1.8399999999998138, -0.6826612488847342 
1.8499999999998127, -0.6886293400013332 
1.8599999999998116, -0.6975548293742392 
1.8699999999998105, -0.7096187512424308 
1.8799999999998094, -0.7241825322572532 
1.8899999999998083, -0.7396447256419516 
1.8999999999998072, -0.7539452300617884 
1.909999999999806, -0.7655212210352975 
1.919999999999805, -0.7738910110205712 
1.9299999999998039, -0.7794541510237154 
1.9399999999998028, -0.782943317053082 
1.9499999999998017, -0.7850362886103874 
1.9599999999998006, -0.7862251729757274 
1.9699999999997995, -0.7868254298325456 
1.9799999999997984, -0.7870219059389579 
1.9899999999997973, -0.7869086214173773 
1.9999999999997962, -0.786512122734514 
2.0099999999998173, -0.7857984475290839 
2.0199999999998384, -0.7846643676925766 
2.0299999999998595, -0.7829119813534062 
2.0399999999998806, -0.7802067007094716 
2.0499999999999017, -0.7760301829063476 
2.059999999999923, -0.76967594430218 
2.069999999999944, -0.7603986500541028 
2.079999999999965, -0.7478364243719948 
2.089999999999986, -0.7325798817300593 
2.100000000000007, -0.7163285380399862 
2.1100000000000283, -0.7012146036232183 
2.1200000000000494, -0.6888048590305028 
2.1300000000000705, -0.6796416469184552 
2.1400000000000916, -0.6734525193840835 
2.1500000000001127, -0.669588719732482 
2.160000000000134, -0.6673568392477347 
2.170000000000155, -0.6661776205281208 
2.180000000000176, -0.6656266220868239 
2.190000000000197, -0.6654183533310755 
2.2000000000002182, -0.6653720944381398 
2.2100000000002393, -0.6653777453253432 
2.2200000000002604, -0.6653685112478432 
2.2300000000002815, -0.6653017089365496 
2.2400000000003026, -0.6651469903794451 
2.2500000000003237, -0.6648810629187261 
2.260000000000345, -0.6644881126828189 
2.270000000000366, -0.6639643535253774 
2.280000000000387, -0.6633230309012486 
2.290000000000408, -0.6625946421695341 
2.3000000000004293, -0.6618193529853128 
2.3100000000004504, -0.661034547486615 
2.3200000000004715, -0.6602646705656066 
2.3300000000004926, -0.6595186405551893 
2.3400000000005137, -0.6587946013337429 
2.3500000000005348, -0.6580878988673204 
2.360000000000556, -0.6573980855323394 
2.370000000000577, -0.6567331417883582 
2.380000000000598, -0.656111476919061 
2.390000000000619, -0.6555631180832874 
2.4000000000006403, -0.6551309846343346 
2.4100000000006614, -0.6548722476968981 
2.4200000000006825, -0.6548592107470235 
2.4300000000007036, -0.6551791033908477 
2.4400000000007247, -0.6559324947319769 
2.450000000000746, -0.657230311483045 
2.460000000000767, -0.6591891289383123 
2.470000000000788, -0.6619229516578027 
2.480000000000809, -0.6655270240367669 
2.49000000000083, -0.6700465668312815 
2.5000000000008513, -0.675425087052728 
2.5100000000008724, -0.6814415725138229 
2.5200000000008935, -0.6876779476450168 
2.5300000000009146, -0.693581559183187 
2.5400000000009357, -0.6986394341937265 
2.550000000000957, -0.7025627072652559 
2.560000000000978, -0.7053412933567466 
2.570000000000999, -0.7071534929711244 
2.58000000000102, -0.7082348421930342 
2.5900000000010412, -0.7087918266132937 
2.6000000000010624, -0.7089712668496265 
2.6100000000010835, -0.7088603588362714 
2.6200000000011046, -0.7084948106226209 
2.6300000000011257, -0.7078636423013553 
2.6400000000011468, -0.7069059065493326 
2.650000000001168, -0.705496418935161 
2.660000000001189, -0.7034170940392868 
2.67000000000121, -0.7003110669711429 
2.680000000001231, -0.695626563975577 
2.6900000000012523, -0.6885963216903301 
2.7000000000012734, -0.6783858556485225 
2.7100000000012945, -0.6645954763562797 
2.7200000000013156, -0.6479969265775747 
2.7300000000013367, -0.6307107834995267 
2.740000000001358, -0.615216556807144 
2.750000000001379, -0.6030608464972586 
2.7600000000014, -0.5944882324647027 
2.770000000001421, -0.5889189833462706 
2.780000000001442, -0.5855328044463108 
2.7900000000014633, -0.5835959319251178 
2.8000000000014844, -0.5825609186754066 
2.8100000000015055, -0.5820566692587967 
2.8200000000015266, -0.5818457143048812 
2.8300000000015477, -0.581781490548939 
2.840000000001569, -0.5817751949782564 
2.85000000000159, -0.5817728288426882 
2.860000000001611, -0.5817405951958305 
2.870000000001632, -0.5816567592868453 
2.8800000000016532, -0.5815085644179929 
2.8900000000016743, -0.5812928492038214 
2.9000000000016954, -0.5810181859271625 
2.9100000000017165, -0.5807052100092698 
2.9200000000017377, -0.5803821270081392 
2.9300000000017588, -0.5800754229084336 
2.94000000000178, -0.5797997879501444 
2.950000000001801, -0.5795526238792637 
2.960000000001822, -0.5793160514968001 
2.970000000001843, -0.5790650828897793 
2.9800000000018643, -0.5787773991624193 
2.9900000000018854, -0.578440075083894 
3.0000000000019065, -0.5780515872182964 
3.0100000000019276, -0.5776208762638109 
3.0200000000019487, -0.5771665842013031 
3.03000000000197, -0.5767189668449001 
3.040000000001991, -0.5763260074026721 
3.050000000002012, -0.576064920714596 
3.060000000002033, -0.57606046768239 
3.070000000002054, -0.5765116340553124 
3.0800000000020753, -0.5777270600240587 
3.0900000000020964, -0.5801645531668818 
3.1000000000021175, -0.5844556554881498 
3.1100000000021386, -0.5913647601252652 
3.1200000000021597, -0.6015872350636606 
3.130000000002181, -0.6152963678342698 
3.140000000002202, -0.631571774173657 
3.150000000002223, -0.6482954511177228 
3.160000000002244, -0.6630534919671578 
3.1700000000022652, -0.6744132034231833 
3.1800000000022863, -0.6823067222693433 
3.1900000000023074, -0.6874523427179987 
3.2000000000023285, -0.6906904061473481 
3.2100000000023496, -0.6926810535825931 
3.2200000000023707, -0.6938665080938723 
3.230000000002392, -0.6945214135075348 
3.240000000002413, -0.6948071911000973 
3.250000000002434, -0.6948094926880943 
3.260000000002455, -0.6945590310318732 
3.2700000000024763, -0.6940396727020846 
3.2800000000024974, -0.6931871729346886 
3.2900000000025185, -0.691882492882285 
3.3000000000025396, -0.6899480976088109 
3.3100000000025607, -0.6871651601184765 
3.3200000000025818, -0.6833369736441048 
3.330000000002603, -0.6784046857581915 
3.340000000002624, -0.6725575009744118 
3.350000000002645, -0.6662303573189108 
3.360000000002666, -0.6599559342323181 
3.3700000000026873, -0.6541797672491014 
3.3800000000027084, -0.6491646778195709 
3.3900000000027295, -0.645001635303655 
3.4000000000027506, -0.6416685953350336 
3.4100000000027717, -0.639086418779579 
3.420000000002793, -0.6371545995715063 
3.430000000002814, -0.6357694805328239 
3.440000000002835, -0.6348323540386301 
3.450000000002856, -0.6342530771186292 
3.460000000002877, -0.633952057175565 
3.4700000000028983, -0.633861540400358 
3.4800000000029194, -0.6339262785682062 
3.4900000000029405, -0.6341035429106342 
3.5000000000029616, -0.634362651478898 
3.5100000000029827, -0.6346842730384944 
3.520000000003004, -0.6350594952647944 
3.530000000003025, -0.6354879890864028 
3.540000000003046, -0.6359740060517888 
3.550000000003067, -0.6365192779099587 
3.5600000000030882, -0.6371137906135584 
3.5700000000031094, -0.6377283020258414 
3.5800000000031305, -0.6383141526567171 
3.5900000000031516, -0.6388134763315982 
3.6000000000031727, -0.6391759769581389 
3.6100000000031938, -0.6393725646057798 
3.620000000003215, -0.639398373107507 
3.630000000003236, -0.6392661892550566 
3.640000000003257, -0.6389970603848962 
3.650000000003278, -0.6386140016180477 
3.6600000000032993, -0.6381412577231347 
3.6700000000033204, -0.6376096866021175 
3.6800000000033415, -0.6370692334337063 
3.6900000000033626, -0.6366110325703277 
3.7000000000033837, -0.6364029995585433 
3.710000000003405, -0.636741665771767 
3.720000000003426, -0.638114547151909 
3.730000000003447, -0.6412418781770227 
3.740000000003468, -0.647014333792937 
3.750000000003489, -0.6561884471889823 
3.7600000000035103, -0.6687808617035129 
3.7700000000035314, -0.6835171784412021 
3.7800000000035525, -0.6981140780655306 
3.7900000000035736, -0.7105119942835934 
3.8000000000035947, -0.7198542765361146 
3.810000000003616, -0.72636555942191 
3.820000000003637, -0.730704970326842 
3.830000000003658, -0.7335200635032826 
3.840000000003679, -0.7353027257304511 
3.8500000000037002, -0.7363896525637443 
3.8600000000037213, -0.7369986290982327 
3.8700000000037424, -0.7372624415636099 
3.8800000000037635, -0.7372522531734051 
3.8900000000037847, -0.7369904611781145 
3.9000000000038058, -0.7364543749747094 
3.910000000003827, -0.7355721672903902 
3.920000000003848, -0.7342140457871071 
3.930000000003869, -0.7321869803921438 
3.94000000000389, -0.7292519342279508 
3.9500000000039113, -0.725190764504933 
3.9600000000039324, -0.7199298547864018 
3.9700000000039535, -0.7136599806073397 
3.9800000000039746, -0.7068394715318439 
3.9900000000039957, -0.700043035736788 
4.000000000004016, -0.693766043474047 
4.010000000003993, -0.6883161658184213 
4.02000000000397, -0.6838151669645748 
4.030000000003946, -0.6802542867478535 
4.040000000003923, -0.6775510289316082 
4.0500000000039, -0.6755882326670223 
4.0600000000038765, -0.6742369166864413 
4.070000000003853, -0.6733694875896623 
4.08000000000383, -0.6728680631634376 
4.090000000003807, -0.6726298501534883 
4.100000000003783, -0.6725699380661448 
4.11000000000376, -0.6726216527379147 
4.120000000003737, -0.6727350824537924 
4.130000000003713, -0.6728748307510976 
4.14000000000369, -0.6730180352600896 
4.150000000003667, -0.6731530743084492 
4.1600000000036434, -0.6732782951170332 
4.17000000000362, -0.6733991719276735 
4.180000000003597, -0.6735226364625275 
4.1900000000035735, -0.6736494474723824 
4.20000000000355, -0.6737681026956766 
4.210000000003527, -0.6738544328324849 
4.220000000003504, -0.6738782219726743 
4.23000000000348, -0.6738134967846098 
4.240000000003457, -0.6736465827206835 
4.250000000003434, -0.6733783554117987 
4.26000000000341, -0.6730219622497093 
4.270000000003387, -0.6726000517354341 
4.280000000003364, -0.6721449823459626 
4.2900000000033405, -0.6717036934937974 
4.300000000003317, -0.6713477028636488 
4.310000000003294, -0.6711880877026186 
4.320000000003271, -0.6713944951825846 
4.330000000003247, -0.6722154428973608 
4.340000000003224, -0.6739938616031179 
4.350000000003201, -0.6771663309056757 
4.360000000003177, -0.6822258773107583 
4.370000000003154, -0.6896179172264654 
4.380000000003131, -0.6995401246643728 
4.390000000003107, -0.7116680883428759 
4.400000000003084, -0.7249664022880176 
4.410000000003061, -0.7378657779995688 
4.4200000000030375, -0.7488837655693404 
4.430000000003014, -0.7572529459487922 
4.440000000002991, -0.763031775293906 
4.450000000002968, -0.7667505905469737 
4.460000000002944, -0.7690188282600353 
4.470000000002921, -0.7703259000984363 
4.480000000002898, -0.7710035307120131 
4.490000000002874, -0.7712536051439415 
4.500000000002851, -0.7711842652723239 
4.510000000002828, -0.7708346533905506 
4.520000000002804, -0.770184825656972 
4.530000000002781, -0.7691507855559079 
4.540000000002758, -0.7675636008006959 
4.5500000000027345, -0.7651311330456574 
4.560000000002711, -0.7613874138909492 
4.570000000002688, -0.7556612675645636 
4.580000000002665, -0.7471563607898494 
4.590000000002641, -0.7352891709538082 
4.600000000002618, -0.7202910917459813 
4.610000000002595, -0.7036142698025866 
4.620000000002571, -0.687490902419853 
4.630000000002548, -0.6738410873383416 
4.640000000002525, -0.6635322174191153 
4.6500000000025015, -0.6564453490553753 
4.660000000002478, -0.6519456154765392 
4.670000000002455, -0.6492918783158854 
4.6800000000024315, -0.6478464696959734 
4.690000000002408, -0.6471358778677344 
4.700000000002385, -0.6468387817985417 
4.710000000002362, -0.6467501988859758 
4.720000000002338, -0.6467446111263827 
4.730000000002315, -0.6467462399225987 
4.740000000002292, -0.6467079433883905 
4.750000000002268, -0.6465978582087141 
4.760000000002245, -0.6463926040094399 
4.770000000002222, -0.6460761208755601 
4.7800000000021985, -0.6456428274557734 
4.790000000002175, -0.6451021605669971 
4.800000000002152, -0.6444798182078729 
4.810000000002129, -0.6438120735609509 
4.820000000002105, -0.643134461194179 
4.830000000002082, -0.6424709839031558 
4.840000000002059, -0.6418297865190392 
4.850000000002035, -0.6412065450607242 
4.860000000002012, -0.6405922840921675 
4.870000000001989, -0.6399810983799268 
4.880000000001965, -0.6393751086337465 
4.890000000001942, -0.6387867376914881 
4.900000000001919, -0.6382399556817859 
4.9100000000018955, -0.6377720239487362 
4.920000000001872, -0.6374363168691763 
