t, s[1].omega / s[0].omega 
0, -0.8998642163087581 
0.009999999999999995, -0.8861135490924458 
0.019999999999999934, -0.8731861015099444 
0.029999999999999874, -0.8624980695352853 
0.04000000000000012, -0.8547191190430627 
0.050000000000000405, -0.8497507178767775 
0.06000000000000069, -0.8470064816918417 
0.07000000000000098, -0.8457535112958278 
0.08000000000000126, -0.8453513056902034 
0.09000000000000155, -0.8453467373595748 
0.10000000000000184, -0.845465184963896 
0.11000000000000212, -0.845557970378844 
0.12000000000000241, -0.8455474112638146 
0.130000000000002, -0.8453854909512832 
0.1400000000000009, -0.845026956648167 
0.1499999999999998, -0.8444133365334725 
0.1599999999999987, -0.843466396206056 
0.1699999999999976, -0.8420938001185394 
0.1799999999999965, -0.8402116412891969 
0.1899999999999954, -0.8377819549009384 
0.1999999999999943, -0.8348477045467245 
0.2099999999999932, -0.8315389312462338 
0.2199999999999921, -0.8280410404967087 
0.229999999999991, -0.8245465602692935 
0.2399999999999899, -0.8212198069556245 
0.2499999999999888, -0.8181850505508766 
0.2599999999999877, -0.8155296252883053 
0.2699999999999866, -0.813309540398742 
0.2799999999999855, -0.8115511853261447 
0.2899999999999844, -0.8102496626546761 
0.2999999999999833, -0.8093680368142607 
0.3099999999999822, -0.8088416261150831 
0.3199999999999811, -0.8085882263523633 
0.32999999999998, -0.8085212344489909 
0.3399999999999789, -0.8085609601275229 
0.3499999999999778, -0.8086409890400368 
0.35999999999997667, -0.8087096072358427 
0.36999999999997557, -0.8087285856993587 
0.37999999999997447, -0.8086719101040536 
0.38999999999997337, -0.8085255865113122 
0.39999999999997227, -0.8082875044988727 
0.40999999999997117, -0.8079651735119274 
0.41999999999997006, -0.8075704647328923 
0.42999999999996896, -0.8071135276678831 
0.43999999999996786, -0.8065996208661442 
0.44999999999996676, -0.8060307284900465 
0.45999999999996566, -0.8054104143746971 
0.46999999999996456, -0.8047487767669805 
0.47999999999996346, -0.8040655674593561 
0.48999999999996235, -0.8033915204528341 
0.49999999999996125, -0.8027685560715161 
0.5099999999999602, -0.8022487111859112 
0.519999999999959, -0.8018907919620893 
0.529999999999958, -0.8017540619022601 
0.5399999999999568, -0.8018898376835896 
0.5499999999999557, -0.8023335452180215 
0.5599999999999546, -0.8031001052684749 
0.5699999999999535, -0.8041839739474813 
0.5799999999999524, -0.8055627405197384 
0.5899999999999513, -0.8072013739525309 
0.5999999999999502, -0.8090538591179678 
0.6099999999999491, -0.8110602493867874 
0.619999999999948, -0.8131401925103725 
0.6299999999999469, -0.8151884739588141 
0.6399999999999458, -0.8170814388562183 
0.6499999999999447, -0.8186995608900801 
0.6599999999999436, -0.8199584945004526 
0.6699999999999425, -0.8208295089273326 
0.6799999999999414, -0.8213360776753282 
0.6899999999999403, -0.8215323126203815 
0.6999999999999392, -0.8214795967834057 
0.7099999999999381, -0.8212328610600064 
0.719999999999937, -0.8208387755769314 
0.7299999999999359, -0.8203441265466764 
0.7399999999999348, -0.8198135528790325 
0.7499999999999337, -0.8193574947380851 
0.7599999999999326, -0.819169872040802 
0.7699999999999315, -0.8195677624997874 
0.7799999999999304, -0.8210119297434277 
0.7899999999999293, -0.8240740346453291 
0.7999999999999282, -0.829317824051891 
0.8099999999999271, -0.8370899731955446 
0.819999999999926, -0.8472718742210026 
0.8299999999999249, -0.85911389871941 
0.8399999999999238, -0.8713167237463887 
0.8499999999999227, -0.8824383799622849 
0.8599999999999216, -0.8914406682483283 
0.8699999999999205, -0.897994170901061 
0.8799999999999194, -0.9023636692375587 
0.8899999999999183, -0.905074722210756 
0.8999999999999172, -0.9066421980405025 
0.9099999999999161, -0.9074550855094332 
0.919999999999915, -0.9077672808139428 
0.9299999999999139, -0.9077264374957675 
0.9399999999999128, -0.9074047196917215 
0.9499999999999117, -0.9068212734040436 
0.9599999999999106, -0.905958856888188 
0.9699999999999095, -0.9047841425749894 
0.9799999999999084, -0.9032894401773754 
0.9899999999999073, -0.9015835852950609 
0.9999999999999062, -0.9000573455967393 
1.0099999999999052, -0.8995925294459456 
1.019999999999904, -0.9016288568606786 
1.029999999999903, -0.9077394081717942 
1.039999999999902, -0.918579181533382 
1.0499999999999008, -0.9329168199938355 
1.0599999999998997, -0.947970931600126 
1.0699999999998986, -0.9610412603207781 
1.0799999999998975, -0.9708218451648841 
1.0899999999998964, -0.9773927997200476 
1.0999999999998953, -0.9814897019442042 
1.1099999999998942, -0.9839032170240489 
1.119999999999893, -0.9852364194636648 
1.129999999999892, -0.9858815642149559 
1.1399999999998909, -0.9860680844472729 
1.1499999999998898, -0.9859123504108581 
1.1599999999998887, -0.9854502219926404 
1.1699999999998876, -0.984652665572011 
1.1799999999998865, -0.9834310508190018 
1.1899999999998854, -0.981645467163865 
1.1999999999998843, -0.9791451848287418 
1.2099999999998832, -0.9758962018312356 
1.219999999999882, -0.9722546792325397 
1.229999999999881, -0.969323391341476 
1.2399999999998799, -0.9689961508099181 
1.2499999999998788, -0.9731067749208027 
1.2599999999998777, -0.9819008128935579 
1.2699999999998766, -0.9934079682760315 
1.2799999999998755, -1.0047283983954345 
1.2899999999998744, -1.0138535547164131 
1.2999999999998733, -1.0202548065930315 
1.3099999999998722, -1.024340257037938 
1.319999999999871, -1.0267738683162206 
1.32999999999987, -1.0281233143557489 
1.3399999999998689, -1.0287757314238206 
1.3499999999998678, -1.0289620708058382 
1.3599999999998666, -1.0287998224990633 
1.3699999999998655, -1.0283241114601815 
1.3799999999998644, -1.0275038109235122 
1.3899999999998633, -1.0262499750101632 
1.3999999999998622, -1.0244351353368102 
1.4099999999998611, -1.021964804841203 
1.41999999999986, -1.0189726385814555 
1.429999999999859, -1.0161865134564134 
1.4399999999998578, -1.0152806585397722 
1.4499999999998567, -1.0185801361311855 
1.4599999999998556, -1.0275677711012001 
1.4699999999998545, -1.0411740240800678 
1.4799999999998534, -1.0560494233542606 
1.4899999999998523, -1.0688987151547724 
1.4999999999998512, -1.0782489476687225 
1.5099999999998501, -1.0842937171627125 
1.519999999999849, -1.0878996665925942 
1.529999999999848, -1.0899140639180065 
1.5399999999998468, -1.090940155503574 
1.5499999999998457, -1.091347467597778 
1.5599999999998446, -1.0913392110786826 
1.5699999999998435, -1.091010577340667 
1.5799999999998424, -1.090388902345401 
1.5899999999998413, -1.0894686390595318 
1.5999999999998402, -1.0882684251332533 
1.6099999999998391, -1.086953182738383 
1.619999999999838, -1.086053872957687 
1.629999999999837, -1.0866968403433623 
1.6399999999998358, -1.0904912774941797 
1.6499999999998347, -1.098688183410558 
1.6599999999998336, -1.1109995913323614 
1.6699999999998325, -1.1253356798612704 
1.6799999999998314, -1.13896429487036 
1.6899999999998303, -1.149967188457219 
1.6999999999998292, -1.1577766647736007 
1.709999999999828, -1.1627932916723553 
1.719999999999827, -1.1657651632302013 
1.729999999999826, -1.167384328369432 
1.7399999999998248, -1.1681493283334432 
1.7499999999998237, -1.168374312862218 
1.7599999999998226, -1.1682429788576523 
1.7699999999998215, -1.167864415426537 
1.7799999999998204, -1.1673263356517227 
1.7899999999998193, -1.1667545711693617 
1.7999999999998182, -1.1663759669739477 
1.809999999999817, -1.1665403665372949 
1.819999999999816, -1.1676253886860284 
1.8299999999998149, -1.169829209936014 
1.8399999999998138, -1.1730231055647637 
1.8499999999998127, -1.176815129136775 
1.8599999999998116, -1.1807438454761783 
1.8699999999998105, -1.1844279675088025 
1.8799999999998094, -1.1876149205405324 
1.8899999999998083, -1.1901713162226986 
1.8999999999998072, -1.1920602746118207 
1.909999999999806, -1.1933189117738183 
1.919999999999805, -1.1940329709372368 
1.9299999999998039, -1.1943088914277673 
1.9399999999998028, -1.1942511720737867 
1.9499999999998017, -1.1939527500640776 
1.9599999999998006, -1.1934997130247935 
1.9699999999997995, -1.1929846388750174 
1.9799999999997984, -1.1925162195845656 
1.9899999999997973, -1.1922095779997997 
1.9999999999997962, -1.1921533930539874 
2.0099999999998173, -1.1923758283062917 
2.0199999999998384, -1.192838196256853 
2.0299999999998595, -1.193457469914471 
2.0399999999998806, -1.1941358631830794 
2.0499999999999017, -1.1947822286871665 
2.059999999999923, -1.1953230298882205 
2.069999999999944, -1.1957050959505635 
2.079999999999965, -1.195893409710838 
2.089999999999986, -1.1958673793441366 
2.100000000000007, -1.195617802596011 
2.1100000000000283, -1.1951453185753806 
2.1200000000000494, -1.1944604949486457 
2.1300000000000705, -1.1935854849651457 
2.1400000000000916, -1.1925570184673566 
2.1500000000001127, -1.1914298655393496 
2.160000000000134, -1.1902784506712478 
2.170000000000155, -1.1891931710427472 
2.180000000000176, -1.1882685859013344 
2.190000000000197, -1.1875821281650345 
2.2000000000002182, -1.1871663618784472 
2.2100000000002393, -1.1869894561951593 
2.2200000000002604, -1.1869631930377964 
2.2300000000002815, -1.1869757922303115 
2.2400000000003026, -1.1869223218236198 
2.2500000000003237, -1.1867132723338103 
2.260000000000345, -1.186265787632695 
2.270000000000366, -1.1854923619120923 
2.280000000000387, -1.184298324701202 
2.290000000000408, -1.1825924758041437 
2.3000000000004293, -1.180307984500068 
2.3100000000004504, -1.1774253121704261 
2.3200000000004715, -1.173990631438794 
2.3300000000004926, -1.1701311806406043 
2.3400000000005137, -1.1660715291826276 
2.3500000000005348, -1.1621405946194225 
2.360000000000556, -1.158733693059769 
2.370000000000577, -1.1561936570569216 
2.380000000000598, -1.154649944822636 
2.390000000000619, -1.1539521377616093 
2.4000000000006403, -1.1537779221840165 
2.4100000000006614, -1.1538090668486947 
2.4200000000006825, -1.153826403163116 
2.4300000000007036, -1.1537015550612142 
2.4400000000007247, -1.1533446172997583 
2.450000000000746, -1.1526503443892409 
2.460000000000767, -1.1514504319123873 
2.470000000000788, -1.1494677793696488 
2.480000000000809, -1.1462797471839143 
2.49000000000083, -1.1413266921378005 
2.5000000000008513, -1.1340361916591313 
2.5100000000008724, -1.124123418783911 
2.5200000000008935, -1.112004820307742 
2.5300000000009146, -1.099046919565755 
2.5400000000009357, -1.0872775962447254 
2.550000000000957, -1.078496424606396 
2.560000000000978, -1.0733617555021149 
2.570000000000999, -1.071250964423257 
2.58000000000102, -1.0709408247605796 
2.5900000000010412, -1.0713622577070177 
2.6000000000010624, -1.0718906616742179 
2.6100000000010835, -1.072261235505717 
2.6200000000011046, -1.072393351173064 
2.6300000000011257, -1.0722639726413685 
2.6400000000011468, -1.071838500855155 
2.650000000001168, -1.071028949381894 
2.660000000001189, -1.0696529357140487 
2.67000000000121, -1.067377900955276 
2.680000000001231, -1.0636519631672798 
2.6900000000012523, -1.0576646666654748 
2.7000000000012734, -1.048466015091553 
2.7100000000012945, -1.0354423513004805 
2.7200000000013156, -1.0191530916283484 
2.7300000000013367, -1.0018799373072018 
2.740000000001358, -0.9868852369837524 
2.750000000001379, -0.9765654537844819 
2.7600000000014, -0.9712304971614237 
2.770000000001421, -0.9695472408451111 
2.780000000001442, -0.9697932208973109 
2.7900000000014633, -0.9707012228534151 
2.8000000000014844, -0.971611058635396 
2.8100000000015055, -0.9722766953801807 
2.8200000000015266, -0.9726493724204804 
2.8300000000015477, -0.9727423386311882 
2.840000000001569, -0.9725649451697909 
2.85000000000159, -0.9720909082624368 
2.860000000001611, -0.9712348617424619 
2.870000000001632, -0.9698222006737234 
2.8800000000016532, -0.9675458054935939 
2.8900000000016743, -0.9639177446300501 
2.9000000000016954, -0.9582583213843197 
2.9100000000017165, -0.9498205947583065 
2.9200000000017377, -0.938161428266944 
2.9300000000017588, -0.9236880647537585 
2.94000000000178, -0.9079426386197467 
2.950000000001801, -0.8931488250006835 
2.960000000001822, -0.881211545535239 
2.970000000001843, -0.8729598157843299 
2.9800000000018643, -0.8681164188028374 
2.9900000000018854, -0.8657832411137963 
3.0000000000019065, -0.8649741839312071 
3.0100000000019276, -0.8649213684526839 
3.0200000000019487, -0.8651433603462365 
3.03000000000197, -0.8653847805536922 
3.040000000001991, -0.8655268196649223 
3.050000000002012, -0.8655154722644113 
3.060000000002033, -0.8653153953637356 
3.070000000002054, -0.8648821446489368 
3.0800000000020753, -0.864144703116968 
3.0900000000020964, -0.862995235296404 
3.1000000000021175, -0.8612903753388439 
3.1100000000021386, -0.8588749878941784 
3.1200000000021597, -0.8556365814758289 
3.130000000002181, -0.8515761489939584 
3.140000000002202, -0.8468510855187134 
3.150000000002223, -0.8417504907439011 
3.160000000002244, -0.836615518209622 
3.1700000000022652, -0.8317583857773437 
3.1800000000022863, -0.8274175770863217 
3.1900000000023074, -0.82374720361726 
3.2000000000023285, -0.8208211789985047 
3.2100000000023496, -0.8186398426805264 
3.2200000000023707, -0.8171387359418102 
3.230000000002392, -0.8162040588351982 
3.240000000002413, -0.8156957078781467 
3.250000000002434, -0.8154723520809053 
3.260000000002455, -0.8154105152985676 
3.2700000000024763, -0.8154130549329499 
3.2800000000024974, -0.8154080836553297 
3.2900000000025185, -0.8153429204335831 
3.3000000000025396, -0.8151779940868892 
3.3100000000025607, -0.8148840463675493 
3.3200000000025818, -0.8144435621697854 
3.330000000002603, -0.8138544030198818 
3.340000000002624, -0.8131313066229019 
3.350000000002645, -0.8123017658439899 
3.360000000002666, -0.8113973663139118 
3.3700000000026873, -0.8104458058118575 
3.3800000000027084, -0.8094681438892708 
3.3900000000027295, -0.8084815329117363 
3.4000000000027506, -0.8075043806590895 
3.4100000000027717, -0.806560759133671 
3.420000000002793, -0.8056824693403571 
3.430000000002814, -0.8049084104171863 
3.440000000002835, -0.8042812986483415 
3.450000000002856, -0.8038421069521483 
3.460000000002877, -0.8036233808096658 
3.4700000000028983, -0.803643418694761 
3.4800000000029194, -0.8039033535276179 
3.4900000000029405, -0.8043881328336013 
3.5000000000029616, -0.8050708100807707 
3.5100000000029827, -0.8059182961268899 
3.520000000003004, -0.8068962910456076 
3.530000000003025, -0.8079714730556443 
3.540000000003046, -0.8091099092184286 
3.550000000003067, -0.8102721266689761 
3.5600000000030882, -0.8114075685475 
3.5700000000031094, -0.8124534504345405 
3.5800000000031305, -0.8133425734205403 
3.5900000000031516, -0.8140190244664615 
3.6000000000031727, -0.8144531431195381 
3.6100000000031938, -0.814646164491944 
3.620000000003215, -0.814623132826994 
3.630000000003236, -0.8144212468898283 
3.640000000003257, -0.8140818552288147 
3.650000000003278, -0.8136501402326559 
3.6600000000032993, -0.8131828529838506 
3.6700000000033204, -0.8127628641147547 
3.6800000000033415, -0.8125178416877523 
3.6900000000033626, -0.812637165420437 
3.7000000000033837, -0.8133768333547533 
3.710000000003405, -0.8150404669821105 
3.720000000003426, -0.8179300275605366 
3.730000000003447, -0.8222715665236201 
3.740000000003468, -0.828131369585696 
3.750000000003489, -0.8353413778274199 
3.7600000000035103, -0.8434578236655964 
3.7700000000035314, -0.8517920158758466 
3.7800000000035525, -0.8595539479180483 
3.7900000000035736, -0.8660874992057621 
3.8000000000035947, -0.8710701357240291 
3.810000000003616, -0.8745415886850241 
3.820000000003637, -0.8767695111191702 
3.830000000003658, -0.8780802204935064 
3.840000000003679, -0.878752501862712 
3.8500000000037002, -0.8789837601760541 
3.8600000000037213, -0.8788958996341625 
3.8700000000037424, -0.8785530050930808 
3.8800000000037635, -0.8779790879054016 
3.8900000000037847, -0.8771760660742661 
3.9000000000038058, -0.8761501757359449 
3.910000000003827, -0.8749624222815784 
3.920000000003848, -0.873823662587478 
3.930000000003869, -0.8732430510551511 
3.94000000000389, -0.8741791119630126 
3.9500000000039113, -0.8780183503998403 
3.9600000000039324, -0.8861135234518354 
3.9700000000039535, -0.8988358696169685 
3.9800000000039746, -0.9147757826039389 
3.9900000000039957, -0.9311150987605343 
4.000000000004016, -0.9451672883649103 
4.010000000003993, -0.9556468465089919 
4.02000000000397, -0.9626772506841308 
4.030000000003946, -0.9670575057073952 
4.040000000003923, -0.9696396423503671 
4.0500000000039, -0.9710727611733161 
4.0600000000038765, -0.9717792867693438 
4.070000000003853, -0.972007688763511 
4.08000000000383, -0.9718872456230372 
4.090000000003807, -0.9714646234549248 
4.100000000003783, -0.9707228202524861 
4.11000000000376, -0.9695894467350819 
4.120000000003737, -0.9679470352356286 
4.130000000003713, -0.9656712851843251 
4.14000000000369, -0.9627450579808711 
4.150000000003667, -0.9595009290190047 
4.1600000000036434, -0.9569474993135876 
4.17000000000362, -0.9568499291837147 
4.180000000003597, -0.9610213426607972 
4.1900000000035735, -0.96989155007 
4.20000000000355, -0.9817188896505638 
4.210000000003527, -0.9936261298614373 
4.220000000003504, -1.0034301406617574 
4.23000000000348, -1.0104265816920588 
4.240000000003457, -1.0149527363685074 
4.250000000003434, -1.0176832196096792 
4.26000000000341, -1.0192251232185388 
4.270000000003387, -1.020003902149576 
4.280000000003364, -1.0202794436034632 
4.2900000000033405, -1.020189935341095 
4.300000000003317, -1.0197862698617883 
4.310000000003294, -1.0190506185781536 
4.320000000003271, -1.0179042873406874 
4.330000000003247, -1.0162188964927006 
4.340000000003224, -1.0138631365509996 
4.350000000003201, -1.0108475139006656 
4.360000000003177, -1.0076350206582458 
4.370000000003154, -1.0055403491512587 
4.380000000003131, -1.0067367273242984 
4.390000000003107, -1.0131769314020658 
4.400000000003084, -1.0247785822906288 
4.410000000003061, -1.0388803718483337 
4.4200000000030375, -1.0520361596167027 
4.430000000003014, -1.062164224452162 
4.440000000002991, -1.0689811260463342 
4.450000000002968, -1.0731717864007984 
4.460000000002944, -1.075580475986717 
4.470000000002921, -1.0768631624346043 
4.480000000002898, -1.0774417773982987 
4.490000000002874, -1.0775578346449568 
4.500000000002851, -1.0773313736339953 
4.510000000002828, -1.0768023121717838 
4.520000000002804, -1.075959728605637 
4.530000000002781, -1.0747786472466134 
4.540000000002758, -1.073301114120989 
4.5500000000027345, -1.071814211691365 
4.560000000002711, -1.0711359659488517 
4.570000000002688, -1.0728094275337952 
4.580000000002665, -1.0786964011156122 
4.590000000002641, -1.0897011629776556 
4.600000000002618, -1.1045692807944112 
4.610000000002595, -1.120289850810868 
4.620000000002571, -1.133934350669611 
4.630000000002548, -1.1440727254221321 
4.640000000002525, -1.1507728990676724 
4.6500000000025015, -1.154830555063441 
4.660000000002478, -1.1571125035883956 
4.670000000002455, -1.158278971383218 
4.6800000000024315, -1.15875495903971 
4.690000000002408, -1.158788678061075 
4.700000000002385, -1.1585177434669485 
4.710000000002362, -1.1580257554952877 
4.720000000002338, -1.1573992016217345 
4.730000000002315, -1.1567988945397047 
4.740000000002292, -1.1565357563981773 
4.750000000002268, -1.157079386627259 
4.760000000002245, -1.1588976002634646 
4.770000000002222, -1.1621684145424431 
4.7800000000021985, -1.1666220681780404 
4.790000000002175, -1.1716769132532288 
4.800000000002152, -1.1767111056336939 
4.810000000002129, -1.181246606916294 
4.820000000002105, -1.1849999322270373 
4.830000000002082, -1.18786299365634 
4.840000000002059, -1.1898630330745004 
4.850000000002035, -1.1911148213175804 
4.860000000002012, -1.191770573256672 
4.870000000001989, -1.1919793431776038 
4.880000000001965, -1.1918662260983217 
4.890000000001942, -1.1915325700592496 
4.900000000001919, -1.191071340116502 
4.9100000000018955, -1.190587680896578 
4.920000000001872, -1.190208785804524 
4.930000000001849, -1.1900649841309237 
