t, s[1].omega / s[0].omega 
0, -0.25983196387414403 
0.009999999999999995, -0.24299278322889903 
0.019999999999999934, -0.22849616808869527 
0.029999999999999874, -0.21785338200270843 
0.04000000000000012, -0.2106498507721478 
0.050000000000000405, -0.2059200764337045 
0.06000000000000069, -0.20282532748093535 
0.07000000000000098, -0.20078755360680187 
0.08000000000000126, -0.1994419904192013 
0.09000000000000155, -0.19856804035743025 
0.10000000000000184, -0.19803810409354666 
0.11000000000000212, -0.19778626778590483 
0.12000000000000241, -0.1977917988523093 
0.130000000000002, -0.19807340199514734 
0.1400000000000009, -0.19869244005133468 
0.1499999999999998, -0.19976540174349194 
0.1599999999999987, -0.20148741403335108 
0.1699999999999976, -0.20416816619380723 
0.1799999999999965, -0.20827387044275772 
0.1899999999999954, -0.21443896068039164 
0.1999999999999943, -0.223336160146069 
0.2099999999999932, -0.23520940694760667 
0.2199999999999921, -0.24908491417717746 
0.229999999999991, -0.26254317771161806 
0.2399999999999899, -0.27311475807050417 
0.2499999999999888, -0.2799994631651629 
0.2599999999999877, -0.2839545181365879 
0.2699999999999866, -0.286107764528045 
0.2799999999999855, -0.28728186606559125 
0.2899999999999844, -0.28793945045303243 
0.2999999999999833, -0.28831462520683526 
0.3099999999999822, -0.2885228389433069 
0.3199999999999811, -0.28862200452467934 
0.32999999999998, -0.2886425028719919 
0.3399999999999789, -0.28860196548751477 
0.3499999999999778, -0.2885136335784664 
0.35999999999997667, -0.28839242554883493 
0.36999999999997557, -0.28826006648975205 
0.37999999999997447, -0.28814868669071775 
0.38999999999997337, -0.28810114743494586 
0.39999999999997227, -0.2881666158020109 
0.40999999999997117, -0.288391431949572 
0.41999999999997006, -0.28880667358015377 
0.42999999999996896, -0.2894145155982829 
0.43999999999996786, -0.29017743173376936 
0.44999999999996676, -0.29101788146411295 
0.45999999999996566, -0.2918352606982505 
0.46999999999996456, -0.2925355836710789 
0.47999999999996346, -0.29305662515021313 
0.48999999999996235, -0.29337407246564073 
0.49999999999996125, -0.29349012349220877 
0.5099999999999602, -0.29341591249414395 
0.519999999999959, -0.2931563958100074 
0.529999999999958, -0.29269938629396325 
0.5399999999999568, -0.292006575782049 
0.5499999999999557, -0.2910045743134016 
0.5599999999999546, -0.28957769554735246 
0.5699999999999535, -0.28757241894554664 
0.5799999999999524, -0.2848348307760863 
0.5899999999999513, -0.2813005536368532 
0.5999999999999502, -0.2771082038968463 
0.6099999999999491, -0.27262858775361865 
0.619999999999948, -0.26832875090107366 
0.6299999999999469, -0.2645670816957791 
0.6399999999999458, -0.26149249487198944 
0.6499999999999447, -0.2590813415541203 
0.6599999999999436, -0.2572246120404488 
0.6699999999999425, -0.2557950757390381 
0.6799999999999414, -0.25468048980817537 
0.6899999999999403, -0.25379432367982124 
0.6999999999999392, -0.25307608532769504 
0.7099999999999381, -0.2524882541090186 
0.719999999999937, -0.2520132586536954 
0.7299999999999359, -0.2516522785686019 
0.7399999999999348, -0.2514270523829431 
0.7499999999999337, -0.2513858172831586 
0.7599999999999326, -0.2516145305540541 
0.7699999999999315, -0.25225335337238636 
0.7799999999999304, -0.25351177367568817 
0.7899999999999293, -0.2556514171761374 
0.7999999999999282, -0.2588388423006319 
0.8099999999999271, -0.2626678717782123 
0.819999999999926, -0.2653014227829608 
0.8299999999999249, -0.2633529174536441 
0.8399999999999238, -0.25461882076244957 
0.8499999999999227, -0.24134303858433884 
0.8599999999999216, -0.22815847193247613 
0.8699999999999205, -0.2178488123330416 
0.8799999999999194, -0.2107235421586553 
0.8899999999999183, -0.20605150698162497 
0.8999999999999172, -0.20303349417044628 
0.9099999999999161, -0.2010829867337171 
0.919999999999915, -0.1998226142941685 
0.9299999999999139, -0.19902293867965196 
0.9399999999999128, -0.1985504175466584 
0.9499999999999117, -0.1983339703075812 
0.9599999999999106, -0.1983464561891609 
0.9699999999999095, -0.19859679542061642 
0.9799999999999084, -0.19913028134778787 
0.9899999999999073, -0.20003639645797572 
0.9999999999999062, -0.2014645805329355 
1.0099999999999052, -0.20364794173432296 
1.019999999999904, -0.20692949775267772 
1.029999999999903, -0.21176655084518553 
1.039999999999902, -0.21864433827400376 
1.0499999999999008, -0.22778225247106132 
1.0599999999998997, -0.23862729821676149 
1.0699999999998986, -0.24961113371049995 
1.0799999999998975, -0.2588767234829448 
1.0899999999998964, -0.265477249239632 
1.0999999999998953, -0.269637719635019 
1.1099999999998942, -0.27209287657700576 
1.119999999999893, -0.27350949642968747 
1.129999999999892, -0.27432351487499707 
1.1399999999998909, -0.27478361997964285 
1.1499999999998898, -0.27502464566650997 
1.1599999999998887, -0.27511890401482325 
1.1699999999998876, -0.2751055172714735 
1.1799999999998865, -0.2750067757840603 
1.1899999999998854, -0.2748383537686917 
1.1999999999998843, -0.27461707587758305 
1.2099999999998832, -0.27436730859642 
1.219999999999882, -0.2741248941567954 
1.229999999999881, -0.2739365211392177 
1.2399999999998799, -0.2738534768750934 
1.2499999999998788, -0.2739211282259619 
1.2599999999998777, -0.27416685436694477 
1.2699999999998766, -0.2745889530257263 
1.2799999999998755, -0.27514978339585533 
1.2899999999998744, -0.275778630297351 
1.2999999999998733, -0.27638815379548876 
1.3099999999998722, -0.2768990298761103 
1.319999999999871, -0.2772588702858199 
1.32999999999987, -0.277445470568726 
1.3399999999998689, -0.2774566743911909 
1.3499999999998678, -0.27729569004205235 
1.3599999999998666, -0.27695801914932383 
1.3699999999998655, -0.27642087815020977 
1.3799999999998644, -0.2756332259998613 
1.3899999999998633, -0.274505161348367 
1.3999999999998622, -0.27290002321964446 
1.4099999999998611, -0.2706428147389584 
1.41999999999986, -0.26757152480948637 
1.429999999999859, -0.2636492638527858 
1.4399999999998578, -0.2590857562068951 
1.4499999999998567, -0.25433266371719354 
1.4599999999998556, -0.249894014869016 
1.4699999999998545, -0.24610742647355668 
1.4799999999998534, -0.24307489838906263 
1.4899999999998523, -0.24073212967766314 
1.4999999999998512, -0.23894627689917938 
1.5099999999998501, -0.23757980962023123 
1.519999999999849, -0.23651781628101184 
1.529999999999848, -0.23567451805787565 
1.5399999999998468, -0.23499132432880562 
1.5499999999998457, -0.23443274903063357 
1.5599999999998446, -0.2339830533849498 
1.5699999999998435, -0.23364503479616783 
1.5799999999998424, -0.23344189595159434 
1.5899999999998413, -0.23342300078462017 
1.5999999999998402, -0.23367384049945975 
1.6099999999998391, -0.23432760341864167 
1.619999999999838, -0.23556393472055456 
1.629999999999837, -0.23754355735039812 
1.6399999999998358, -0.24014519824260785 
1.6499999999998347, -0.24232453840192086 
1.6599999999998336, -0.24142038595904003 
1.6699999999998325, -0.23423696847985864 
1.6799999999998314, -0.2207830813763672 
1.6899999999998303, -0.20535348199104492 
1.6999999999998292, -0.192213949824077 
1.709999999999828, -0.1827561538697453 
1.719999999999827, -0.1764614514926171 
1.729999999999826, -0.17237791167317262 
1.7399999999998248, -0.1697292549734605 
1.7499999999998237, -0.1679993517568097 
1.7599999999998226, -0.1668707253826741 
1.7699999999998215, -0.1661562426343902 
1.7799999999998204, -0.16575226491098555 
1.7899999999998193, -0.1656116263521227 
1.7999999999998182, -0.16573094852246079 
1.809999999999817, -0.1661487757798228 
1.819999999999816, -0.1669536460807657 
1.8299999999998149, -0.16830357400306156 
1.8399999999998138, -0.17045992450683686 
1.8499999999998127, -0.17383627445292166 
1.8599999999998116, -0.1790455816462297 
1.8699999999998105, -0.18686936579275254 
1.8799999999998094, -0.197948049545347 
1.8899999999998083, -0.21196845831258743 
1.8999999999998072, -0.22681918993072253 
1.909999999999806, -0.23934143674679867 
1.919999999999805, -0.24771622200740623 
1.9299999999998039, -0.2523804705977209 
1.9399999999998028, -0.25471812736742067 
1.9499999999998017, -0.2558567018431354 
1.9599999999998006, -0.25642698792286656 
1.9699999999997995, -0.2567278238705165 
1.9799999999997984, -0.2568922245561788 
1.9899999999997973, -0.2569796021072814 
1.9999999999997962, -0.2570182863210607 
2.0099999999998173, -0.25702426487961444 
2.0199999999998384, -0.25701014115193016 
2.0299999999998595, -0.2569906001196492 
2.0399999999998806, -0.25698679985167433 
2.0499999999999017, -0.25703000332101616 
2.059999999999923, -0.2571634723039793 
2.069999999999944, -0.2574411140655305 
2.079999999999965, -0.2579215646832585 
2.089999999999986, -0.25865664306412334 
2.100000000000007, -0.25967329526406735 
2.1100000000000283, -0.2609508694952047 
2.1200000000000494, -0.26240404464568984 
2.1300000000000705, -0.26389020269143687 
2.1400000000000916, -0.2652505505937809 
2.1500000000001127, -0.2663638512990823 
2.160000000000134, -0.26717566000505755 
2.170000000000155, -0.26768959393798275 
2.180000000000176, -0.26793854488371754 
2.190000000000197, -0.26795804951184304 
2.2000000000002182, -0.26777026497733836 
2.2100000000002393, -0.2673764568361462 
2.2200000000002604, -0.26675398372708 
2.2300000000002815, -0.2658566152174687 
2.2400000000003026, -0.2646215200444878 
2.2500000000003237, -0.26299012028474444 
2.260000000000345, -0.26094733134120757 
2.270000000000366, -0.25856610677130915 
2.280000000000387, -0.2560198574410857 
2.290000000000408, -0.25353348199169984 
2.3000000000004293, -0.2512995451652583 
2.3100000000004504, -0.24942203242531108 
2.3200000000004715, -0.24791520931960406 
2.3300000000004926, -0.2467351775425694 
2.3400000000005137, -0.2458134026996516 
2.3500000000005348, -0.24507915344371095 
2.360000000000556, -0.24447116770682933 
2.370000000000577, -0.24394212671751214 
2.380000000000598, -0.2434587619023206 
2.390000000000619, -0.24299959899956508 
2.4000000000006403, -0.24255184164178667 
2.4100000000006614, -0.24210819634867936 
2.4200000000006825, -0.2416633173311491 
2.4300000000007036, -0.24120760993333784 
2.4400000000007247, -0.24071192160987423 
2.450000000000746, -0.24008686334458643 
2.460000000000767, -0.23908157772048805 
2.470000000000788, -0.23707292893157642 
2.480000000000809, -0.23278993849900256 
2.49000000000083, -0.22445017252641014 
2.5000000000008513, -0.21118212401420994 
2.5100000000008724, -0.19489282106226724 
2.5200000000008935, -0.1793333681425168 
2.5300000000009146, -0.16703962332550742 
2.5400000000009357, -0.15835857189038788 
2.550000000000957, -0.15252599899636632 
2.560000000000978, -0.14864927642566095 
2.570000000000999, -0.14605025216336942 
2.58000000000102, -0.14428294134645753 
2.5900000000010412, -0.14307134136053115 
2.6000000000010624, -0.1422516143101549 
2.6100000000010835, -0.1417338386296633 
2.6200000000011046, -0.1414807413676346 
2.6300000000011257, -0.14149932452545833 
2.6400000000011468, -0.14184353597402272 
2.650000000001168, -0.14262902227844762 
2.660000000001189, -0.14406400541444292 
2.67000000000121, -0.14650210559650043 
2.680000000001231, -0.1505159514094323 
2.6900000000012523, -0.15694597068439514 
2.7000000000012734, -0.16672463007116348 
2.7100000000012945, -0.17999638189312311 
2.7200000000013156, -0.19437670810445112 
2.7300000000013367, -0.20474894027107085 
2.740000000001358, -0.20770238529842427 
2.750000000001379, -0.20505103944852515 
2.7600000000014, -0.20063535742904887 
2.770000000001421, -0.19672081293903215 
2.780000000001442, -0.19387838627148496 
2.7900000000014633, -0.1919720880955657 
2.8000000000014844, -0.19073450983231105 
2.8100000000015055, -0.18994673773007478 
2.8200000000015266, -0.18946243365657153 
2.8300000000015477, -0.1891932565343452 
2.840000000001569, -0.1890921723743329 
2.85000000000159, -0.18914248867199643 
2.860000000001611, -0.1893529049992026 
2.870000000001632, -0.18975769334970086 
2.8800000000016532, -0.19042138776421835 
2.8900000000016743, -0.19144755889233117 
2.9000000000016954, -0.19299043712016195 
2.9100000000017165, -0.195264409874982 
2.9200000000017377, -0.19853586866533723 
2.9300000000017588, -0.20306185680371533 
2.94000000000178, -0.20892821581399978 
2.950000000001801, -0.2158081829817126 
2.960000000001822, -0.22286440587237055 
2.970000000001843, -0.2290794576852205 
2.9800000000018643, -0.23382109853736047 
2.9900000000018854, -0.23705505454716774 
3.0000000000019065, -0.2391040445132279 
3.0100000000019276, -0.24034404475138152 
3.0200000000019487, -0.24106377062863138 
3.03000000000197, -0.241449569092687 
3.040000000001991, -0.24161200283915343 
3.050000000002012, -0.24161364938662394 
3.060000000002033, -0.24148900106289384 
3.070000000002054, -0.24125808466076992 
3.0800000000020753, -0.2409369307541665 
3.0900000000020964, -0.24054659999263758 
3.1000000000021175, -0.24012009685089764 
3.1100000000021386, -0.23970453790794805 
3.1200000000021597, -0.23935637581705144 
3.130000000002181, -0.23913077102611902 
3.140000000002202, -0.23906922294387645 
3.150000000002223, -0.23918912040308812 
3.160000000002244, -0.23947679557667034 
3.1700000000022652, -0.23988603652500276 
3.1800000000022863, -0.24034572167295493 
3.1900000000023074, -0.2407773781955081 
3.2000000000023285, -0.24111544202439816 
3.2100000000023496, -0.24131906969156938 
3.2200000000023707, -0.2413706370816823 
3.230000000002392, -0.24126517340742856 
3.240000000002413, -0.24099759919322145 
3.250000000002434, -0.24055132717827904 
3.260000000002455, -0.2398880549701639 
3.2700000000024763, -0.23893751642507605 
3.2800000000024974, -0.23758847330443475 
3.2900000000025185, -0.23568968358470505 
3.3000000000025396, -0.23308161606433267 
3.3100000000025607, -0.22968202990776826 
3.3200000000025818, -0.22560531770343104 
3.330000000002603, -0.22120936957297918 
3.340000000002624, -0.21697016005146494 
3.350000000002645, -0.21326559602546888 
3.360000000002666, -0.21025760286503759 
3.3700000000026873, -0.20792439054511935 
3.3800000000027084, -0.20615233467688054 
3.3900000000027295, -0.2048078369201832 
3.4000000000027506, -0.20377242121839684 
3.4100000000027717, -0.20295364578264316 
3.420000000002793, -0.20228505783355338 
3.430000000002814, -0.2017224297921175 
3.440000000002835, -0.20123948124438745 
3.450000000002856, -0.20082448076427378 
3.460000000002877, -0.20047825575788808 
3.4700000000028983, -0.20021334866786855 
3.4800000000029194, -0.20005246214269956 
3.4900000000029405, -0.20001982555227973 
3.5000000000029616, -0.20010641461339235 
3.5100000000029827, -0.2001598047009409 
3.520000000003004, -0.19960772120308373 
3.530000000003025, -0.19700098505498936 
3.540000000003046, -0.1899656857369607 
3.550000000003067, -0.176980004864275 
3.5600000000030882, -0.1601085195034334 
3.5700000000031094, -0.1438959134804297 
3.5800000000031305, -0.13130310675064755 
3.5900000000031516, -0.12261368381747037 
3.6000000000031727, -0.11689841168665971 
3.6100000000031938, -0.11316530823503845 
3.620000000003215, -0.1106975854168409 
3.630000000003236, -0.10904027163416301 
3.640000000003257, -0.10791954965425472 
3.650000000003278, -0.10717725099244804 
3.6600000000032993, -0.10673023544212748 
3.6700000000033204, -0.10654912753873132 
3.6800000000033415, -0.10665128309761487 
3.6900000000033626, -0.10710613506218392 
3.7000000000033837, -0.10805458878455179 
3.710000000003405, -0.10974732387247144 
3.720000000003426, -0.11260664525780602 
3.730000000003447, -0.11729779521349877 
3.740000000003468, -0.12470676182855789 
3.750000000003489, -0.1354676551005549 
3.7600000000035103, -0.14846940690133315 
3.7700000000035314, -0.1592336879208885 
3.7800000000035525, -0.16249551190557948 
3.7900000000035736, -0.1582671924316821 
3.8000000000035947, -0.15113692607329138 
3.810000000003616, -0.14470357045010804 
3.820000000003637, -0.14002137181421567 
3.830000000003658, -0.13688619144787922 
3.840000000003679, -0.13484384179630235 
3.8500000000037002, -0.1335236645357373 
3.8600000000037213, -0.1326808057051222 
3.8700000000037424, -0.13216785617345253 
3.8800000000037635, -0.13190409691803764 
3.8900000000037847, -0.1318555498327769 
3.9000000000038058, -0.13202556549687125 
3.910000000003827, -0.13245425696098287 
3.920000000003848, -0.133226392230485 
3.930000000003869, -0.13448898783727634 
3.94000000000389, -0.13648065007012777 
3.9500000000039113, -0.13957143860827684 
3.9600000000039324, -0.1442942688759037 
3.9700000000039535, -0.15129409962013857 
3.9800000000039746, -0.16102446955359428 
3.9900000000039957, -0.1730610184333048 
4.000000000004016, -0.18554326073954663 
4.010000000003993, -0.19597626162598475 
4.02000000000397, -0.20305101286117616 
4.030000000003946, -0.20714925965357184 
4.040000000003923, -0.20932479197087966 
4.0500000000039, -0.21044939795176615 
4.0600000000038765, -0.21103599886460142 
4.070000000003853, -0.2113460217194048 
4.08000000000383, -0.21150666689373848 
4.090000000003807, -0.21158076753223715 
4.100000000003783, -0.21160187019082222 
4.11000000000376, -0.21159150226220874 
4.120000000003737, -0.21156862965647277 
4.130000000003713, -0.21155602940496107 
4.14000000000369, -0.2115852488675034 
4.150000000003667, -0.21170002749556577 
4.1600000000036434, -0.21195714081228215 
4.17000000000362, -0.21242342114593327 
4.180000000003597, -0.21316746918149493 
4.1900000000035735, -0.2142435855858822 
4.20000000000355, -0.2156657414111583 
4.210000000003527, -0.21737679532132206 
4.220000000003504, -0.21923413350858909 
4.23000000000348, -0.22103895171507962 
4.240000000003457, -0.22260600002732525 
4.250000000003434, -0.22382603340699667 
4.26000000000341, -0.22467799296144944 
4.270000000003387, -0.22519813189979568 
4.280000000003364, -0.22544080699665922 
4.2900000000033405, -0.22545254990550928 
4.300000000003317, -0.22526095510565666 
4.310000000003294, -0.22487247677864025 
4.320000000003271, -0.22427494697076583 
4.330000000003247, -0.2234446064124686 
4.340000000003224, -0.22236013268187374 
4.350000000003201, -0.2210247243843427 
4.360000000003177, -0.2194891445640772 
4.370000000003154, -0.2178583153199621 
4.380000000003131, -0.21626766762052316 
4.390000000003107, -0.21483961327669238 
4.400000000003084, -0.2136491806919795 
4.410000000003061, -0.2127162302205968 
4.4200000000030375, -0.21201775890718538 
4.430000000003014, -0.21150569209305664 
4.440000000002991, -0.21112211486555252 
4.450000000002968, -0.21081052270672807 
4.460000000002944, -0.2105230963843478 
4.470000000002921, -0.21022350334007361 
4.480000000002898, -0.20988527341841934 
4.490000000002874, -0.20948686943005906 
4.500000000002851, -0.20900458806473815 
4.510000000002828, -0.2084030553674038 
4.520000000002804, -0.20762084711316145 
4.530000000002781, -0.20654609220172696 
4.540000000002758, -0.2049752326336433 
4.5500000000027345, -0.20255511027353063 
4.560000000002711, -0.19874764510516216 
4.570000000002688, -0.19295096031026587 
4.580000000002665, -0.18494543125427415 
4.590000000002641, -0.1754430080330007 
4.600000000002618, -0.16594752951334102 
4.610000000002595, -0.157804482200385 
4.620000000002571, -0.15153954529507335 
4.630000000002548, -0.1470051178692104 
4.640000000002525, -0.14380097046251342 
4.6500000000025015, -0.1415364354224837 
4.660000000002478, -0.13991350912580133 
4.670000000002455, -0.1387270748274075 
4.6800000000024315, -0.13784358921390263 
4.690000000002408, -0.1371807478823254 
4.700000000002385, -0.13669331450595462 
4.710000000002362, -0.13636517680570925 
4.720000000002338, -0.13620695457681775 
4.730000000002315, -0.13625880787372552 
4.740000000002292, -0.1365979499772245 
4.750000000002268, -0.13734736557304628 
4.760000000002245, -0.1386691148351513 
4.770000000002222, -0.14068304654535518 
4.7800000000021985, -0.1431536628607511 
4.790000000002175, -0.14473690105787337 
4.800000000002152, -0.14226825699511306 
4.810000000002129, -0.132491702908002 
4.820000000002105, -0.11661769809986015 
4.830000000002082, -0.10017911669992707 
