t, s[1].omega / s[0].omega 
0, -0.9699982834504671 
0.009999999999999995, -0.9697559656245893 
0.019999999999999934, -0.9693647185490775 
0.029999999999999874, -0.9688292900904244 
0.04000000000000012, -0.9682157926092323 
0.050000000000000405, -0.9676591184839108 
0.06000000000000069, -0.9673134187088953 
0.07000000000000098, -0.9672675809743015 
0.08000000000000126, -0.9675011306443078 
0.09000000000000155, -0.9679035073225974 
0.10000000000000184, -0.9683339908069174 
0.11000000000000212, -0.9686891565962804 
0.12000000000000241, -0.9689263811645813 
0.130000000000002, -0.9690312584705102 
0.1400000000000009, -0.9689737441393961 
0.1499999999999998, -0.968721445340502 
0.1599999999999987, -0.968295503808426 
0.1699999999999976, -0.9677985426604134 
0.1799999999999965, -0.9674019024006335 
0.1899999999999954, -0.9672770639051741 
0.1999999999999943, -0.9674923910381942 
0.2099999999999932, -0.9679870055002923 
0.2199999999999921, -0.9686293498890752 
0.229999999999991, -0.9692885945935233 
0.2399999999999899, -0.9698811025774454 
0.2499999999999888, -0.9703630437541717 
0.2599999999999877, -0.9706834421080826 
0.2699999999999866, -0.9707736128292721 
0.2799999999999855, -0.9706068221527375 
0.2899999999999844, -0.9702445937606836 
0.2999999999999833, -0.9698347062598661 
0.3099999999999822, -0.969592075906274 
0.3199999999999811, -0.9697096071871102 
0.32999999999998, -0.9702296268705621 
0.3399999999999789, -0.9710434794920206 
0.3499999999999778, -0.9719942989096987 
0.35999999999997667, -0.9729545533337303 
0.36999999999997557, -0.9738433688971837 
0.37999999999997447, -0.9745874949738257 
0.38999999999997337, -0.9750849809464311 
0.39999999999997227, -0.9752542072296586 
0.40999999999997117, -0.9751121522704784 
0.41999999999997006, -0.9747747264599316 
0.42999999999996896, -0.9744389714228442 
0.43999999999996786, -0.9743705673555461 
0.44999999999996676, -0.974778346400558 
0.45999999999996566, -0.9756594382136613 
0.46999999999996456, -0.9768460870016825 
0.47999999999996346, -0.9781542137229213 
0.48999999999996235, -0.9794522271706979 
0.49999999999996125, -0.9806394873187511 
0.5099999999999602, -0.981589685058677 
0.519999999999959, -0.9821650204713964 
0.529999999999958, -0.9823220677412717 
0.5399999999999568, -0.9821486175115209 
0.5499999999999557, -0.9818135830590052 
0.5599999999999546, -0.9815679012120513 
0.5699999999999535, -0.981728273227872 
0.5799999999999524, -0.9824865896208258 
0.5899999999999513, -0.9837585736059913 
0.5999999999999502, -0.9853136843943914 
0.6099999999999491, -0.9869497507217321 
0.619999999999948, -0.9885257715617054 
0.6299999999999469, -0.9899017488885891 
0.6399999999999458, -0.9909029016975747 
0.6499999999999447, -0.9914116436606056 
0.6599999999999436, -0.9914687821491105 
0.6699999999999425, -0.991227622797043 
0.6799999999999414, -0.9909025376586988 
0.6899999999999403, -0.990805372597921 
0.6999999999999392, -0.9912719681716421 
0.7099999999999381, -0.9924015380012083 
0.719999999999937, -0.9939986105973493 
0.7299999999999359, -0.9957965562160612 
0.7399999999999348, -0.9975996112107606 
0.7499999999999337, -0.9992574925518765 
0.7599999999999326, -1.000593801966681 
0.7699999999999315, -1.0014357451684415 
0.7799999999999304, -1.001747983976852 
0.7899999999999293, -1.0016532042517068 
0.7999999999999282, -1.0013437435002912 
0.8099999999999271, -1.0010831761445689 
0.819999999999926, -1.0012293705455637 
0.8299999999999249, -1.0020387679505631 
0.8399999999999238, -1.0034393853775978 
0.8499999999999227, -1.0051581813381685 
0.8599999999999216, -1.0069522339279584 
0.8699999999999205, -1.0086579331600458 
0.8799999999999194, -1.010123756968488 
0.8899999999999183, -1.0111731465738136 
0.8999999999999172, -1.0116986230161686 
0.9099999999999161, -1.011756052996399 
0.919999999999915, -1.0115097383620408 
0.9299999999999139, -1.011181770612611 
0.9399999999999128, -1.011086227117869 
0.9499999999999117, -1.0115362846477796 
0.9599999999999106, -1.0125878693077528 
0.9699999999999095, -1.0140269729191504 
0.9799999999999084, -1.0155996705139672 
0.9899999999999073, -1.0171307514400139 
0.9999999999999062, -1.0184956961204021 
1.0099999999999052, -1.0195571563559336 
1.019999999999904, -1.0201833132153133 
1.029999999999903, -1.0203518831658327 
1.039999999999902, -1.0201719898024735 
1.0499999999999008, -1.0198275382798876 
1.0599999999998997, -1.0195790918505752 
1.0699999999998986, -1.0197258722651081 
1.0799999999998975, -1.0203996467819954 
1.0899999999998964, -1.0214697888466182 
1.0999999999998953, -1.0227100376866578 
1.1099999999998942, -1.0239428721216808 
1.119999999999893, -1.0250572622088432 
1.129999999999892, -1.0259612820798227 
1.1399999999998909, -1.026548352028409 
1.1499999999998898, -1.0267507516213912 
1.1599999999998887, -1.0266087256619363 
1.1699999999998876, -1.0262579487368775 
1.1799999999998865, -1.025909924971457 
1.1899999999998854, -1.0258252367433078 
1.1999999999998843, -1.0261646017034374 
1.2099999999998832, -1.0268718850374956 
1.219999999999882, -1.027769043583879 
1.229999999999881, -1.0286857208088793 
1.2399999999998799, -1.0295092776858583 
1.2499999999998788, -1.0301732834449542 
1.2599999999998777, -1.0306133733819565 
1.2699999999998766, -1.0307626428187096 
1.2799999999998755, -1.030610267368603 
1.2899999999998744, -1.0302370317592746 
1.2999999999998733, -1.0298069410723871 
1.3099999999998722, -1.0295393841167 
1.319999999999871, -1.0296004586321903 
1.32999999999987, -1.0299920277823713 
1.3399999999998689, -1.0305887612338367 
1.3499999999998678, -1.031232549361351 
1.3599999999998666, -1.0317983016899162 
1.3699999999998655, -1.0322197245948626 
1.3799999999998644, -1.032462984224065 
1.3899999999998633, -1.0324893641081563 
1.3999999999998622, -1.0322715896722368 
1.4099999999998611, -1.0318443899279264 
1.41999999999986, -1.0313252216000113 
1.429999999999859, -1.0308951488172493 
1.4399999999998578, -1.0307176165515184 
1.4499999999998567, -1.0308404385957763 
1.4599999999998556, -1.0311893011553503 
1.4699999999998545, -1.031620411507422 
1.4799999999998534, -1.0319900474176373 
1.4899999999998523, -1.0322116850379919 
1.4999999999998512, -1.0322583982522735 
1.5099999999998501, -1.0321221913229015 
1.519999999999849, -1.0317890244090262 
1.529999999999848, -1.0312692488853232 
1.5399999999998468, -1.0306396352555136 
1.5499999999998457, -1.0300460620079903 
1.5599999999998446, -1.0296472033137756 
1.5699999999998435, -1.0295300187928027 
1.5799999999998424, -1.0296700349856645 
1.5899999999998413, -1.0299403855577935 
1.5999999999998402, -1.0301766344581464 
1.6099999999998391, -1.0302592974014453 
1.619999999999838, -1.030143891712009 
1.629999999999837, -1.029837852226732 
1.6399999999998358, -1.0293546567298064 
1.6499999999998347, -1.0287054636677933 
1.6599999999998336, -1.0279391070535397 
1.6699999999998325, -1.0271698169173038 
1.6799999999998314, -1.0265497118534088 
1.6899999999998303, -1.0262001422171771 
1.6999999999998292, -1.0261480384514443 
1.709999999999828, -1.0262902135792205 
1.719999999999827, -1.02644372765336 
1.729999999999826, -1.0264508461008814 
1.7399999999998248, -1.0262311088302125 
1.7499999999998237, -1.0257821608220345 
1.7599999999998226, -1.0251410972515984 
1.7699999999998215, -1.024339985352686 
1.7799999999998204, -1.0234178973460515 
1.7899999999998193, -1.022462860745637 
1.7999999999998182, -1.0216165804555253 
1.809999999999817, -1.0210278011101916 
1.819999999999816, -1.0207773899060857 
1.8299999999998149, -1.0207996923504163 
1.8399999999998138, -1.0209021830704776 
1.8499999999998127, -1.0208893219126849 
1.8599999999998116, -1.0206367510892846 
1.8699999999998105, -1.020107598328985 
1.8799999999998094, -1.0193411426925696 
1.8899999999998083, -1.0183972271325044 
1.8999999999998072, -1.0173245902075796 
1.909999999999806, -1.016193844275816 
1.919999999999805, -1.0151304878755267 
1.9299999999998039, -1.0142976072939474 
1.9399999999998028, -1.0138273695634556 
1.9499999999998017, -1.0137118902650668 
1.9599999999998006, -1.0137704967354162 
1.9699999999997995, -1.0137755883579969 
1.9799999999997984, -1.013559963013492 
1.9899999999997973, -1.0130401224223682 
1.9999999999997962, -1.0122280180638927 
2.0099999999998173, -1.0111980687737747 
2.0199999999998384, -1.0100213127608497 
2.0299999999998595, -1.0087629382444996 
2.0399999999998806, -1.0075273527843864 
2.0499999999999017, -1.006472865573525 
2.059999999999923, -1.0057670343467033 
2.069999999999944, -1.0054754952187737 
2.079999999999965, -1.0054678070849743 
2.089999999999986, -1.005502319049162 
2.100000000000007, -1.0053729316878122 
2.1100000000000283, -1.004952314976322 
2.1200000000000494, -1.0042060096828975 
2.1300000000000705, -1.0031939367999994 
2.1400000000000916, -1.0020053938878326 
2.1500000000001127, -1.000711173005258 
2.160000000000134, -0.999394459834495 
2.170000000000155, -0.9981901937443445 
2.180000000000176, -0.9972721031669848 
2.190000000000197, -0.9967706076652526 
2.2000000000002182, -0.9966472268890462 
2.2100000000002393, -0.9966895855646754 
2.2200000000002604, -0.9966622922720657 
2.2300000000002815, -0.9964003463303633 
2.2400000000003026, -0.9958233069110797 
2.2500000000003237, -0.9949510750913353 
2.260000000000345, -0.9938694542982107 
2.270000000000366, -0.9926572322351548 
2.280000000000387, -0.9913813425347818 
2.290000000000408, -0.9901435945304231 
2.3000000000004293, -0.9890962594436175 
2.3100000000004504, -0.9883975726668603 
2.3200000000004715, -0.9881079188812242 
2.3300000000004926, -0.9881047127947921 
2.3400000000005137, -0.9881581291399002 
2.3500000000005348, -0.988069841701651 
2.360000000000556, -0.9877210321980937 
2.370000000000577, -0.9870846504623335 
2.380000000000598, -0.9862180046503791 
2.390000000000619, -0.9851980108815952 
2.4000000000006403, -0.9840806303169743 
2.4100000000006614, -0.9829344760516648 
2.4200000000006825, -0.9818774036034944 
2.4300000000007036, -0.9810602677525276 
2.4400000000007247, -0.9806010536813978 
2.450000000000746, -0.9804919739048489 
2.460000000000767, -0.9805722409582474 
2.470000000000788, -0.9806329504179239 
2.480000000000809, -0.9805201141101778 
2.49000000000083, -0.9801640397919235 
2.5000000000008513, -0.9795806096486855 
2.5100000000008724, -0.9788292142384589 
2.5200000000008935, -0.9779556601307331 
2.5300000000009146, -0.9769997661579983 
2.5400000000009357, -0.9760415531056774 
2.550000000000957, -0.975211065957284 
2.560000000000978, -0.9746436528100171 
2.570000000000999, -0.9744098726797751 
2.58000000000102, -0.9744544451686374 
2.5900000000010412, -0.974611920321919 
2.6000000000010624, -0.9747074122949252 
2.6100000000010835, -0.9746314656001982 
2.6200000000011046, -0.9743566016497083 
2.6300000000011257, -0.9739127774269616 
2.6400000000011468, -0.9733319899411252 
2.650000000001168, -0.972630135766569 
2.660000000001189, -0.9718482520752041 
2.67000000000121, -0.9710872322984814 
2.680000000001231, -0.970487632542737 
2.6900000000012523, -0.9701638788235095 
2.7000000000012734, -0.9701425901589459 
2.7100000000012945, -0.970338786634489 
2.7200000000013156, -0.9705970385298459 
2.7300000000013367, -0.9707779253715819 
2.740000000001358, -0.9708108941396681 
2.750000000001379, -0.9706901838565101 
2.7600000000014, -0.9704287227515782 
2.770000000001421, -0.9700218493899583 
2.780000000001442, -0.969473237895784 
2.7900000000014633, -0.9688437629751319 
2.8000000000014844, -0.9682630958378776 
2.8100000000015055, -0.967884147555121 
2.8200000000015266, -0.9678005664145756 
2.8300000000015477, -0.9679991708654729 
2.840000000001569, -0.9683733724793142 
2.85000000000159, -0.9687807024975986 
2.860000000001611, -0.9691129654901978 
2.870000000001632, -0.9693246094562182 
2.8800000000016532, -0.9694039929477285 
2.8900000000016743, -0.9693270408930944 
2.9000000000016954, -0.9690627808387938 
2.9100000000017165, -0.9686274440365502 
2.9200000000017377, -0.9681167571975249 
2.9300000000017588, -0.9676959945740925 
2.94000000000178, -0.9675348792953817 
2.950000000001801, -0.9677068740226638 
2.960000000001822, -0.9681586354194832 
2.970000000001843, -0.9687622429178652 
2.9800000000018643, -0.9693853081878054 
2.9900000000018854, -0.9699413693868788 
3.0000000000019065, -0.9703880130905893 
3.0100000000019276, -0.9706810894188549 
3.0200000000019487, -0.9707566457232892 
3.03000000000197, -0.9705840812508948 
3.040000000001991, -0.9702168408939253 
3.050000000002012, -0.9697949124983368 
3.060000000002033, -0.9695259317527123 
3.070000000002054, -0.9696005323130958 
3.0800000000020753, -0.9700673981898899 
3.0900000000020964, -0.9708266086613094 
3.1000000000021175, -0.9717252831975977 
3.1100000000021386, -0.9726353322214947 
3.1200000000021597, -0.9734764351538684 
3.130000000002181, -0.9741818869314834 
3.140000000002202, -0.9746579988234473 
3.150000000002223, -0.9748221055210292 
3.160000000002244, -0.9746813826180876 
3.1700000000022652, -0.974342460959683 
3.1800000000022863, -0.9739939839333044 
3.1900000000023074, -0.9738929083355253 
3.2000000000023285, -0.9742469683055639 
3.2100000000023496, -0.975063071152445 
3.2200000000023707, -0.976183874022633 
3.230000000002392, -0.9774294199888378 
3.240000000002413, -0.9786691647913945 
3.250000000002434, -0.9798075553478768 
3.260000000002455, -0.9807284575804388 
3.2700000000024763, -0.9812977401653714 
3.2800000000024974, -0.9814618009825896 
3.2900000000025185, -0.981295803127699 
3.3000000000025396, -0.9809602767343854 
3.3100000000025607, -0.9806964995409646 
3.3200000000025818, -0.9808125445199309 
3.330000000002603, -0.9815053539860071 
3.340000000002624, -0.982706103060015 
3.350000000002645, -0.9841945674273893 
3.360000000002666, -0.9857712636612017 
3.3700000000026873, -0.9872979227980049 
3.3800000000027084, -0.9886431950332009 
3.3900000000027295, -0.9896398837765533 
3.4000000000027506, -0.9901631062442255 
3.4100000000027717, -0.9902377077704111 
3.420000000002793, -0.9900068944088114 
3.430000000002814, -0.9896773061351873 
3.440000000002835, -0.9895497151499384 
3.450000000002856, -0.9899582230417371 
3.460000000002877, -0.9910198520286531 
3.4700000000028983, -0.9925572658957137 
3.4800000000029194, -0.9943087281591335 
3.4900000000029405, -0.9960778325251776 
3.5000000000029616, -0.9977178148144459 
3.5100000000029827, -0.9990594891296888 
3.520000000003004, -0.9999273779343023 
3.530000000003025, -1.0002700826971687 
3.540000000003046, -1.0001973911057485 
3.550000000003067, -0.9998954498488472 
3.5600000000030882, -0.9996184590111168 
3.5700000000031094, -0.9997177497111476 
3.5800000000031305, -1.0004662895280372 
3.5900000000031516, -1.0018190307732315 
3.6000000000031727, -1.0035121674078924 
3.6100000000031938, -1.0052985157846488 
3.620000000003215, -1.0070111019682149 
3.630000000003236, -1.0085007853673233 
3.640000000003257, -1.0095909613633525 
3.650000000003278, -1.0101618170009237 
3.6600000000032993, -1.0102546895377547 
3.6700000000033204, -1.010027548328791 
3.6800000000033415, -1.0096960594351918 
3.6900000000033626, -1.0095664324467843 
3.7000000000033837, -1.0099641022679557 
3.710000000003405, -1.0109771273229675 
3.720000000003426, -1.0124074157662841 
3.730000000003447, -1.0139956018789567 
3.740000000003468, -1.0155576323292255 
3.750000000003489, -1.016965401085686 
3.7600000000035103, -1.0180808634472027 
3.7700000000035314, -1.0187648007611996 
3.7800000000035525, -1.0189815402098747 
3.7900000000035736, -1.0188322729894 
3.8000000000035947, -1.0184961737708864 
3.810000000003616, -1.0182269850486885 
3.820000000003637, -1.0183316433417338 
3.830000000003658, -1.0189729836612453 
3.840000000003679, -1.0200415775657354 
3.8500000000037002, -1.0213081317466481 
3.8600000000037213, -1.022584738825541 
3.8700000000037424, -1.0237529088844002 
3.8800000000037635, -1.0247176353864604 
3.8900000000037847, -1.02536832353065 
3.9000000000038058, -1.0256274679143071 
3.910000000003827, -1.0255260760130827 
3.920000000003848, -1.0251945731932075 
3.930000000003869, -1.024838875024379 
3.94000000000389, -1.0247238987045884 
3.9500000000039113, -1.0250361225867004 
3.9600000000039324, -1.0257418916512495 
3.9700000000039535, -1.0266644394564486 
3.9800000000039746, -1.0276255718693688 
3.9900000000039957, -1.0285045056562048 
4.000000000004016, -1.0292293973576117 
4.010000000003993, -1.029732709408246 
4.02000000000397, -1.0299417587017259 
4.030000000003946, -1.0298372042776542 
4.040000000003923, -1.029493049950903 
4.0500000000039, -1.0290677735859275 
4.0600000000038765, -1.0287824731024495 
4.070000000003853, -1.0288222494606936 
4.08000000000383, -1.0292092959403452 
4.090000000003807, -1.0298238193578213 
4.100000000003783, -1.030505036263886 
4.11000000000376, -1.0311217235311314 
4.120000000003737, -1.0316008659558888 
4.130000000003713, -1.0319043348150945 
4.14000000000369, -1.0319899145696412 
4.150000000003667, -1.0318242312650865 
4.1600000000036434, -1.031434652918858 
4.17000000000362, -1.0309322270196128 
4.180000000003597, -1.030497130817225 
4.1900000000035735, -1.030305020662991 
4.20000000000355, -1.0304199771491387 
4.210000000003527, -1.0307765110025588 
4.220000000003504, -1.0312344359149128 
4.23000000000348, -1.031647658362397 
4.240000000003457, -1.0319229836750894 
4.250000000003434, -1.0320274331857466 
4.26000000000341, -1.031949366153178 
4.270000000003387, -1.0316708896710205 
4.280000000003364, -1.0311960695029128 
4.2900000000033405, -1.0305945649782051 
4.300000000003317, -1.0300086895598473 
4.310000000003294, -1.0296029442568986 
4.320000000003271, -1.0294755610588013 
4.330000000003247, -1.029612835636703 
4.340000000003224, -1.0298979517669142 
4.350000000003201, -1.0301688709830532 
4.360000000003177, -1.0303006793041087 
4.370000000003154, -1.0302417545724465 
4.380000000003131, -1.0299941244303283 
4.390000000003107, -1.0295679111181764 
4.400000000003084, -1.0289698293218312 
4.410000000003061, -1.0282419549107527 
4.4200000000030375, -1.0274927152559588 
4.430000000003014, -1.0268743603327777 
4.440000000002991, -1.0265140599136293 
4.450000000002968, -1.0264497107141624 
4.460000000002944, -1.02659402043332 
4.470000000002921, -1.0267719004745748 
4.480000000002898, -1.0268221152563208 
4.490000000002874, -1.0266571950754833 
4.500000000002851, -1.0262676349418463 
4.510000000002828, -1.0256856523114188 
4.520000000002804, -1.024940002026078 
4.530000000002781, -1.02406444336549 
4.540000000002758, -1.023140160602217 
4.5500000000027345, -1.0223045419006405 
4.560000000002711, -1.0217067674541065 
4.570000000002688, -1.0214366509349049 
4.580000000002665, -1.0214484653125084 
4.590000000002641, -1.0215635718085923 
4.600000000002618, -1.0215852958846006 
4.610000000002595, -1.0213830262719508 
4.620000000002571, -1.0209123154448327 
4.630000000002548, -1.0202051891965627 
4.640000000002525, -1.0193176148604859 
4.6500000000025015, -1.018294850723295 
4.660000000002478, -1.0172013324001323 
4.670000000002455, -1.0161558155085482 
4.6800000000024315, -1.0153174983222135 
4.690000000002408, -1.0148234140926133 
4.700000000002385, -1.0146859695359365 
4.710000000002362, -1.014744246447321 
4.720000000002338, -1.0147728910429727 
4.730000000002315, -1.0145989287655308 
4.740000000002292, -1.0141319243659992 
4.750000000002268, -1.013375090091492 
4.760000000002245, -1.012396944213755 
4.770000000002222, -1.0112662713360956 
4.7800000000021985, -1.0100443298963024 
4.790000000002175, -1.0088288593391255 
4.800000000002152, -1.0077721255407328 
4.810000000002129, -1.0070420452683781 
4.820000000002105, -1.0067201241361377 
4.830000000002082, -1.0066989053694457 
4.840000000002059, -1.006744118257016 
4.850000000002035, -1.0066444729259902 
4.860000000002012, -1.0062660289481704 
4.870000000001989, -1.005565628356209 
4.880000000001965, -1.00459514936664 
4.890000000001942, -1.003441569607852 
4.900000000001919, -1.0021746878560591 
4.9100000000018955, -1.000873277418182 
4.920000000001872, -0.9996664175613313 
4.930000000001849, -0.9987254955292503 
