t, s[1].omega / s[0].omega 
0, -1.7399777547380348 
0.009999999999999995, -1.737192118489323 
0.019999999999999934, -1.7330787660031366 
0.029999999999999874, -1.727500933432621 
0.04000000000000012, -1.72114901152015 
0.050000000000000405, -1.716068327515662 
0.06000000000000069, -1.7140674288523396 
0.07000000000000098, -1.7144114296309076 
0.08000000000000126, -1.7152860994389858 
0.09000000000000155, -1.7158145692488063 
0.10000000000000184, -1.7158726098108705 
0.11000000000000212, -1.7155046212221052 
0.12000000000000241, -1.7147229526469534 
0.130000000000002, -1.7135775287372268 
0.1400000000000009, -1.712502272281872 
0.1499999999999998, -1.7127019123404619 
0.1599999999999987, -1.7153034641779155 
0.1699999999999976, -1.7196422704943626 
0.1799999999999965, -1.7240012648559582 
0.1899999999999954, -1.7273878941756973 
0.1999999999999943, -1.729661052926291 
0.2099999999999932, -1.7309997109428452 
0.2199999999999921, -1.7316133677299228 
0.229999999999991, -1.7316639717943343 
0.2399999999999899, -1.7312608156832763 
0.2499999999999888, -1.73047500527246 
0.2599999999999877, -1.7293624194293589 
0.2699999999999866, -1.7279949649777102 
0.2799999999999855, -1.7265093122212325 
0.2899999999999844, -1.725165863348833 
0.2999999999999833, -1.7242828642427324 
0.3099999999999822, -1.7239483389671821 
0.3199999999999811, -1.723904761182596 
0.32999999999998, -1.7238197830632047 
0.3399999999999789, -1.7234682790855487 
0.3499999999999778, -1.7226512574800388 
0.35999999999997667, -1.7210228660620412 
0.36999999999997557, -1.7179128444738443 
0.37999999999997447, -1.7124109664233835 
0.38999999999997337, -1.7050177111200473 
0.39999999999997227, -1.701734509719254 
0.40999999999997117, -1.7104970712034724 
0.41999999999997006, -1.7267542976806507 
0.42999999999996896, -1.7403460332017027 
0.43999999999996786, -1.7484237922585557 
0.44999999999996676, -1.7525248677996952 
0.45999999999996566, -1.7543864737590815 
0.46999999999996456, -1.7550556379348996 
0.47999999999996346, -1.7550719861797712 
0.48999999999996235, -1.7547158515262258 
0.49999999999996125, -1.7541736316935517 
0.5099999999999602, -1.753618578274398 
0.519999999999959, -1.753191693946772 
0.529999999999958, -1.752947224025379 
0.5399999999999568, -1.7528687223263848 
0.5499999999999557, -1.7528938183890375 
0.5599999999999546, -1.7529029022874023 
0.5699999999999535, -1.7527434183374997 
0.5799999999999524, -1.7522506204297124 
0.5899999999999513, -1.751196168314203 
0.5999999999999502, -1.749169802629352 
0.6099999999999491, -1.7454055914583986 
0.619999999999948, -1.7386164297285736 
0.6299999999999469, -1.7273040008392244 
0.6399999999999458, -1.7119773045915843 
0.6499999999999447, -1.6989359182873038 
0.6599999999999436, -1.6955876330466026 
0.6699999999999425, -1.6992832586172153 
0.6799999999999414, -1.7034968365354881 
0.6899999999999403, -1.7060229957943196 
0.6999999999999392, -1.7071607349501718 
0.7099999999999381, -1.7074670718278597 
0.719999999999937, -1.7072754230026503 
0.7299999999999359, -1.7067686454950313 
0.7399999999999348, -1.706142042413267 
0.7499999999999337, -1.7057533391793989 
0.7599999999999326, -1.7060260868042927 
0.7699999999999315, -1.7070271449586012 
0.7799999999999304, -1.708370072645375 
0.7899999999999293, -1.709630385624413 
0.7999999999999282, -1.710586084739624 
0.8099999999999271, -1.7111611356450092 
0.819999999999926, -1.7113328308730467 
0.8299999999999249, -1.711083334631177 
0.8399999999999238, -1.7103774871890223 
0.8499999999999227, -1.7091532287245812 
0.8599999999999216, -1.7073227387751762 
0.8699999999999205, -1.7047980871522168 
0.8799999999999194, -1.7015890848997237 
0.8899999999999183, -1.6980389558607698 
0.8999999999999172, -1.6950265600452177 
0.9099999999999161, -1.6934559442536163 
0.919999999999915, -1.693241596989413 
0.9299999999999139, -1.693539829895214 
0.9399999999999128, -1.6937294414849133 
0.9499999999999117, -1.6935934944634639 
0.9599999999999106, -1.6930503945689725 
0.9699999999999095, -1.69197404685447 
0.9799999999999084, -1.6901940371543653 
0.9899999999999073, -1.6878888308943647 
0.9999999999999062, -1.686694004811177 
1.0099999999999052, -1.6897965932579921 
1.019999999999904, -1.6978086636451444 
1.029999999999903, -1.7070361565071963 
1.039999999999902, -1.714329495383297 
1.0499999999999008, -1.7190830366832308 
1.0599999999998997, -1.7218403607528372 
1.0699999999998986, -1.723248892109415 
1.0799999999998975, -1.7237818326233043 
1.0899999999998964, -1.7237395474252881 
1.0999999999998953, -1.7233071800108342 
1.1099999999998942, -1.7226138760160299 
1.119999999999893, -1.721776477531335 
1.129999999999892, -1.720914991249622 
1.1399999999998909, -1.7201559888926468 
1.1499999999998898, -1.719627526826272 
1.1599999999998887, -1.7193792753191577 
1.1699999999998876, -1.7192961555567057 
1.1799999999998865, -1.7191683537467224 
1.1899999999998854, -1.7187970746854546 
1.1999999999998843, -1.71796705613299 
1.2099999999998832, -1.7163051560101152 
1.219999999999882, -1.7130491448252347 
1.229999999999881, -1.7067591247000098 
1.2399999999998799, -1.695548650250683 
1.2499999999998788, -1.6800788952932915 
1.2599999999998777, -1.6692153650607335 
1.2699999999998766, -1.672477980436954 
1.2799999999998755, -1.6837380197777008 
1.2899999999998744, -1.6930531480509021 
1.2999999999998733, -1.6982655058111154 
1.3099999999998722, -1.7007150485587954 
1.319999999999871, -1.7016820361614893 
1.32999999999987, -1.701868783972871 
1.3399999999998689, -1.7016191190993282 
1.3499999999998678, -1.701137752543966 
1.3599999999998666, -1.7006405959672246 
1.3699999999998655, -1.700387507804108 
1.3799999999998644, -1.700530864504276 
1.3899999999998633, -1.700984114042111 
1.3999999999998622, -1.7015396313703168 
1.4099999999998611, -1.7020237172579766 
1.41999999999986, -1.7023176198001722 
1.429999999999859, -1.7023307238403114 
1.4399999999998578, -1.701975876606814 
1.4499999999998567, -1.701140795383496 
1.4599999999998556, -1.6996593088509715 
1.4699999999998545, -1.6972908687547963 
1.4799999999998534, -1.6937276487683686 
1.4899999999998523, -1.6887063388997823 
1.4999999999998512, -1.6824120644508116 
1.5099999999998501, -1.6761811105143845 
1.519999999999849, -1.6722460597299533 
1.529999999999848, -1.6713723753891254 
1.5399999999998468, -1.6720707268354236 
1.5499999999998457, -1.6728504442256498 
1.5599999999998446, -1.6732104796655496 
1.5699999999998435, -1.6731266117214427 
1.5799999999998424, -1.6726308931847451 
1.5899999999998413, -1.6717132354115893 
1.5999999999998402, -1.6704445773112493 
1.6099999999998391, -1.669388040278744 
1.619999999999838, -1.669947834907266 
1.629999999999837, -1.6732452610923207 
1.6399999999998358, -1.678359545647945 
1.6499999999998347, -1.6833767713292573 
1.6599999999998336, -1.68725093298197 
1.6699999999998325, -1.689858335267807 
1.6799999999998314, -1.6914182611972204 
1.6899999999998303, -1.692182357797624 
1.6999999999998292, -1.6923490649440485 
1.709999999999828, -1.6920575663172586 
1.719999999999827, -1.6914039715830775 
1.729999999999826, -1.6904658051706551 
1.7399999999998248, -1.6893286589666618 
1.7499999999998237, -1.6881135741665603 
1.7599999999998226, -1.6870076763462982 
1.7699999999998215, -1.6862356611055958 
1.7799999999998204, -1.6858878315674026 
1.7899999999998193, -1.6858013889137253 
1.7999999999998182, -1.6857069123133563 
1.809999999999817, -1.685387070717482 
1.819999999999816, -1.6846440153286184 
1.8299999999998149, -1.683152748071981 
1.8399999999998138, -1.680253478405104 
1.8499999999998127, -1.6747426519333892 
1.8599999999998116, -1.6653123147793845 
1.8699999999998105, -1.6537357877806909 
1.8799999999998094, -1.6492293399420919 
1.8899999999998083, -1.658693889332638 
1.8999999999998072, -1.67379546186057 
1.909999999999806, -1.6851260994673105 
1.919999999999805, -1.6913970582211078 
1.9299999999998039, -1.6944041679173458 
1.9399999999998028, -1.6956663226454824 
1.9499999999998017, -1.6960162996052497 
1.9599999999998006, -1.6958647727756435 
1.9699999999997995, -1.6954371839126807 
1.9799999999997984, -1.6949257331351002 
1.9899999999997973, -1.6945438403934108 
1.9999999999997962, -1.6944422687975718 
2.0099999999998173, -1.6946061137863135 
2.0199999999998384, -1.6949091163499201 
2.0299999999998595, -1.6952164633459326 
2.0399999999998806, -1.69540779163188 
2.0499999999999017, -1.695371863247742 
2.059999999999923, -1.694996859942559 
2.069999999999944, -1.6941399089995486 
2.079999999999965, -1.692583411970541 
2.089999999999986, -1.689993356199779 
2.100000000000007, -1.6859046602757282 
2.1100000000000283, -1.679831230767786 
2.1200000000000494, -1.6717738267533488 
2.1300000000000705, -1.663294137822718 
2.1400000000000916, -1.657585794981803 
2.1500000000001127, -1.6561988105450258 
2.160000000000134, -1.6572221184277136 
2.170000000000155, -1.6584534444332082 
2.180000000000176, -1.6591438300878845 
2.190000000000197, -1.6592912570276763 
2.2000000000002182, -1.6590018857471076 
2.2100000000002393, -1.6583273486676646 
2.2200000000002604, -1.6573334942903042 
2.2300000000002815, -1.6563643314514773 
2.2400000000003026, -1.6563490560382756 
2.2500000000003237, -1.6582961126491056 
2.260000000000345, -1.6619563771468506 
2.270000000000366, -1.6659894060116571 
2.280000000000387, -1.669371943836736 
2.290000000000408, -1.6718024992152127 
2.3000000000004293, -1.6733514519646306 
2.3100000000004504, -1.6741785589987923 
2.3200000000004715, -1.6744295136722915 
2.3300000000004926, -1.6742137673176813 
2.3400000000005137, -1.6736083053507396 
2.3500000000005348, -1.6726719956680127 
2.360000000000556, -1.6714675594866868 
2.370000000000577, -1.6700913843849574 
2.380000000000598, -1.6687159766034338 
2.390000000000619, -1.6676058439704007 
2.4000000000006403, -1.6669797428145259 
2.4100000000006614, -1.6667865738064094 
2.4200000000006825, -1.666747136665918 
2.4300000000007036, -1.6665913545407975 
2.4400000000007247, -1.666128086993525 
2.450000000000746, -1.6651380482225655 
2.460000000000767, -1.663204830792138 
2.470000000000788, -1.6595136598843574 
2.480000000000809, -1.6528459231964838 
2.49000000000083, -1.643001692960146 
2.5000000000008513, -1.6351493123312424 
2.5100000000008724, -1.6390219447812389 
2.5200000000008935, -1.6537458482232197 
2.5300000000009146, -1.6683612357495765 
2.5400000000009357, -1.6776576474648568 
2.550000000000957, -1.6824975922588734 
2.560000000000978, -1.684744722197988 
2.570000000000999, -1.685623561723912 
2.58000000000102, -1.6857712794109205 
2.5900000000010412, -1.685507751243388 
2.6000000000010624, -1.685030888807524 
2.6100000000010835, -1.6845330978506285 
2.6200000000011046, -1.684210402939047 
2.6300000000011257, -1.6841605861760651 
2.6400000000011468, -1.6843316221997469 
2.650000000001168, -1.6846029655336854 
2.660000000001189, -1.6848523631426597 
2.67000000000121, -1.6849620719461658 
2.680000000001231, -1.6848189132673697 
2.6900000000012523, -1.6843013595798908 
2.7000000000012734, -1.6832424242975772 
2.7100000000012945, -1.681382703152288 
2.7200000000013156, -1.6783299669881195 
2.7300000000013367, -1.67356413918829 
2.740000000001358, -1.6666324546886273 
2.750000000001379, -1.657860479387266 
2.7600000000014, -1.649468159084599 
2.770000000001421, -1.6447544138290582 
2.780000000001442, -1.6442680770308982 
2.7900000000014633, -1.645559847274642 
2.8000000000014844, -1.646733360417541 
2.8100000000015055, -1.6473140771939512 
2.8200000000015266, -1.6473707047350963 
2.8300000000015477, -1.6470065797606543 
2.840000000001569, -1.6462673039501439 
2.85000000000159, -1.645245182013534 
2.860000000001611, -1.6443716294104835 
2.870000000001632, -1.6446518966137265 
2.8800000000016532, -1.6469544483346161 
2.8900000000016743, -1.6507854485172206 
2.9000000000016954, -1.6547893647514063 
2.9100000000017165, -1.658065997783265 
2.9200000000017377, -1.6603908808810623 
2.9300000000017588, -1.6618550510283683 
2.94000000000178, -1.6626177180588377 
2.950000000001801, -1.662820270089402 
2.960000000001822, -1.6625689594342596 
2.970000000001843, -1.6619398119486135 
2.9800000000018643, -1.660993495586073 
2.9900000000018854, -1.659797221835749 
3.0000000000019065, -1.6584530966448174 
3.0100000000019276, -1.6571360351213993 
3.0200000000019487, -1.6560989494836142 
3.03000000000197, -1.6555312024447766 
3.040000000001991, -1.655360712272045 
3.050000000002012, -1.6553153411562782 
3.060000000002033, -1.6551401203552314 
3.070000000002054, -1.6546482879187785 
3.0800000000020753, -1.6536129893366442 
3.0900000000020964, -1.651598504482728 
3.1000000000021175, -1.6477504876285682 
3.1100000000021386, -1.6407584070766046 
3.1200000000021597, -1.6301828343525677 
3.130000000002181, -1.6207978118566122 
3.140000000002202, -1.6226372215029337 
3.150000000002223, -1.63614093512004 
3.160000000002244, -1.650562291988064 
3.1700000000022652, -1.6599963132238245 
3.1800000000022863, -1.6649628850229643 
3.1900000000023074, -1.667283968126808 
3.2000000000023285, -1.6682049369283003 
3.2100000000023496, -1.6683793195899121 
3.2200000000023707, -1.6681334320942693 
3.230000000002392, -1.6676656070883944 
3.240000000002413, -1.6671708952825521 
3.250000000002434, -1.666862192626175 
3.260000000002455, -1.666861353009006 
3.2700000000024763, -1.667117340416004 
3.2800000000024974, -1.6674871904839048 
3.2900000000025185, -1.6678328624055898 
3.3000000000025396, -1.668037324106606 
3.3100000000025607, -1.6679972569298775 
3.3200000000025818, -1.6676101397310579 
3.330000000002603, -1.6667463564809446 
3.340000000002624, -1.6652159473509218 
3.350000000002645, -1.6627427626279836 
3.360000000002666, -1.6589663405743937 
3.3700000000026873, -1.6535455882127486 
3.3800000000027084, -1.646554309198827 
3.3900000000027295, -1.6392535181012586 
3.4000000000027506, -1.6341290685363348 
3.4100000000027717, -1.6325382217383038 
3.420000000002793, -1.633145915935889 
3.430000000002814, -1.6341156235078542 
3.440000000002835, -1.634690579697335 
3.450000000002856, -1.6347910555441825 
3.460000000002877, -1.6344728819953467 
3.4700000000028983, -1.6337499832477882 
3.4800000000029194, -1.6326325820682996 
3.4900000000029405, -1.6313864935160154 
3.5000000000029616, -1.6309929423517584 
3.5100000000029827, -1.632919688591826 
3.520000000003004, -1.637384666397793 
3.530000000003025, -1.6427793982846577 
3.540000000003046, -1.6475006979341817 
3.550000000003067, -1.6509627294910039 
3.5600000000030882, -1.6532249954268334 
3.5700000000031094, -1.6545302726651367 
3.5800000000031305, -1.6551128061822062 
3.5900000000031516, -1.6551526113569228 
3.6000000000031727, -1.6547776888072563 
3.6100000000031938, -1.6540819197443983 
3.620000000003215, -1.6531494573878043 
3.630000000003236, -1.652077131276244 
3.640000000003257, -1.650992311021381 
3.650000000003278, -1.6500661998990522 
3.6600000000032993, -1.6494667796324158 
3.6700000000033204, -1.6492174274200564 
3.6800000000033415, -1.649145116884793 
3.6900000000033626, -1.6490161256386915 
3.7000000000033837, -1.648637261214672 
3.710000000003405, -1.6478057506918606 
3.720000000003426, -1.646169540276727 
3.730000000003447, -1.6430205931210318 
3.740000000003468, -1.6370535524832577 
3.750000000003489, -1.626586036163052 
3.7600000000035103, -1.6120438489607447 
3.7700000000035314, -1.6008642860173734 
3.7800000000035525, -1.602615008506025 
3.7900000000035736, -1.6137790308504805 
3.8000000000035947, -1.6243604012481974 
3.810000000003616, -1.6308186126387478 
3.820000000003637, -1.6340707564585741 
3.830000000003658, -1.6355001456972187 
3.840000000003679, -1.6359589305801603 
3.8500000000037002, -1.6358786324602321 
3.8600000000037213, -1.635484993042411 
3.8700000000037424, -1.6349610127788359 
3.8800000000037635, -1.6345489747888542 
3.8900000000037847, -1.634506868804366 
3.9000000000038058, -1.6349133689044397 
3.910000000003827, -1.635603687303163 
3.920000000003848, -1.636341517528211 
3.930000000003869, -1.6369542032726148 
3.94000000000389, -1.6373361006556553 
3.9500000000039113, -1.637416899982901 
3.9600000000039324, -1.637136137899558 
3.9700000000039535, -1.6364228033331212 
3.9800000000039746, -1.6351815691225062 
3.9900000000039957, -1.633288407339228 
4.000000000004016, -1.6306038709922952 
4.010000000003993, -1.6270367651674718 
4.02000000000397, -1.6227298218880999 
4.030000000003946, -1.618369882104129 
4.040000000003923, -1.6151647946082957 
4.0500000000039, -1.6138526165675053 
4.0600000000038765, -1.6138985570084983 
4.070000000003853, -1.6143120377050528 
4.08000000000383, -1.6145407141888157 
4.090000000003807, -1.6144272522289422 
4.100000000003783, -1.6139175888667896 
4.11000000000376, -1.6129079577687992 
4.120000000003737, -1.6112402561179056 
4.130000000003713, -1.6089851954763152 
4.14000000000369, -1.6073324020943123 
4.150000000003667, -1.6091973789295824 
4.1600000000036434, -1.6164167313856628 
4.17000000000362, -1.626429398639597 
4.180000000003597, -1.6353979799823304 
4.1900000000035735, -1.6417521680372424 
4.20000000000355, -1.6456931206216052 
4.210000000003527, -1.6478961282848723 
4.220000000003504, -1.6489542377956934 
4.23000000000348, -1.649275274950585 
4.240000000003457, -1.6491159050774038 
4.250000000003434, -1.648641439998179 
4.26000000000341, -1.6479815631044343 
4.270000000003387, -1.6472622875238223 
4.280000000003364, -1.6466004297568155 
4.2900000000033405, -1.6460869828171643 
4.300000000003317, -1.6457793461756132 
4.310000000003294, -1.645664281112601 
4.320000000003271, -1.645627715700726 
4.330000000003247, -1.6455038252973755 
4.340000000003224, -1.645128069632158 
4.350000000003201, -1.6443086430707745 
4.360000000003177, -1.6427287305737117 
4.370000000003154, -1.6397989780766793 
4.380000000003131, -1.634478949824469 
4.390000000003107, -1.6252657302789426 
4.400000000003084, -1.611154036582139 
4.410000000003061, -1.594688127983727 
4.4200000000030375, -1.5835993278822482 
4.430000000003014, -1.582569395133159 
4.440000000002991, -1.5869585179134496 
4.450000000002968, -1.5912062059707404 
4.460000000002944, -1.5937599193280119 
4.470000000002921, -1.594968862881611 
4.480000000002898, -1.5953542244509082 
4.490000000002874, -1.595234015749519 
4.500000000002851, -1.5947739762167885 
4.510000000002828, -1.594114942612555 
4.520000000002804, -1.5935324199377343 
4.530000000002781, -1.5935089256324697 
4.540000000002758, -1.594440190803504 
4.5500000000027345, -1.596186893029038 
4.560000000002711, -1.5982022202703923 
4.570000000002688, -1.6000176865245261 
4.580000000002665, -1.6014178149237428 
4.590000000002641, -1.602351566183156 
4.600000000002618, -1.6028321798197829 
4.610000000002595, -1.6028873243618182 
4.620000000002571, -1.60254033923406 
4.630000000002548, -1.6018056535905114 
4.640000000002525, -1.6006924698913665 
4.6500000000025015, -1.599217885987548 
4.660000000002478, -1.5974359894872283 
4.670000000002455, -1.5954930884820928 
4.6800000000024315, -1.5936882886529704 
4.690000000002408, -1.5924064640432436 
4.700000000002385, -1.591823989272966 
4.710000000002362, -1.5917263174287029 
4.720000000002338, -1.5917415389155196 
4.730000000002315, -1.5916026942373136 
4.740000000002292, -1.5911458569682735 
4.750000000002268, -1.5901800668450246 
4.760000000002245, -1.5883406363747719 
4.770000000002222, -1.5849434288136783 
4.7800000000021985, -1.5790508443252391 
4.790000000002175, -1.570710232425699 
4.800000000002152, -1.5643160489116128 
4.810000000002129, -1.5681418751045977 
4.820000000002105, -1.5825880069287286 
4.830000000002082, -1.5982576018897967 
4.840000000002059, -1.6091038833581144 
4.850000000002035, -1.6151483807708646 
4.860000000002012, -1.6181463168710657 
4.870000000001989, -1.6194656158884602 
4.880000000001965, -1.6198783594128117 
4.890000000001942, -1.6197808618024598 
4.900000000001919, -1.619391669013282 
4.9100000000018955, -1.6188861282132834 
4.920000000001872, -1.6184627367280968 
4.930000000001849, -1.618296868660114 
4.940000000001826, -1.618429172618114 
