t, s[1].omega / s[0].omega 
0, -1.1899974387533365 
0.009999999999999995, -1.189595226405599 
0.019999999999999934, -1.1889054723396746 
0.029999999999999874, -1.1879366586695785 
0.04000000000000012, -1.1867121141815762 
0.050000000000000405, -1.1852782270662985 
0.06000000000000069, -1.1837083917057454 
0.07000000000000098, -1.1821004420993435 
0.08000000000000126, -1.180570872127964 
0.09000000000000155, -1.1792503496121247 
0.10000000000000184, -1.1782672757572104 
0.11000000000000212, -1.1776965988378598 
0.12000000000000241, -1.1774986950725166 
0.130000000000002, -1.1775186024879005 
0.1400000000000009, -1.1775538424898513 
0.1499999999999998, -1.1774162675263722 
0.1599999999999987, -1.1769412238330483 
0.1699999999999976, -1.1759661959804535 
0.1799999999999965, -1.1743192940174958 
0.1899999999999954, -1.1718387115078444 
0.1999999999999943, -1.168414677930062 
0.2099999999999932, -1.1640208113218669 
0.2199999999999921, -1.1587094140286884 
0.229999999999991, -1.1525855792377449 
0.2399999999999899, -1.145801543432734 
0.2499999999999888, -1.1385999177585373 
0.2599999999999877, -1.1313969251326033 
0.2699999999999866, -1.1248334489874243 
0.2799999999999855, -1.1196502711814964 
0.2899999999999844, -1.1163252138798347 
0.2999999999999833, -1.1147486286785462 
0.3099999999999822, -1.114326235262321 
0.3199999999999811, -1.1143913846478417 
0.32999999999998, -1.1144774619910685 
0.3399999999999789, -1.1143156476450733 
0.3499999999999778, -1.1137101988620386 
0.35999999999997667, -1.1124085412838278 
0.36999999999997557, -1.1099845526801606 
0.37999999999997447, -1.1057355101720732 
0.38999999999997337, -1.0986506832578562 
0.39999999999997227, -1.087588179086302 
0.40999999999997117, -1.071745660338833 
0.41999999999997006, -1.0512146475496196 
0.42999999999996896, -1.027196515837712 
0.43999999999996786, -1.0017556914145886 
0.44999999999996676, -0.9773640046447076 
0.45999999999996566, -0.9563922276956907 
0.46999999999996456, -0.9405151267441229 
0.47999999999996346, -0.9301891534991406 
0.48999999999996235, -0.924607224930328 
0.49999999999996125, -0.9222573311746121 
0.5099999999999602, -0.921656159245592 
0.519999999999959, -0.9217632396399615 
0.529999999999958, -0.922000227688595 
0.5399999999999568, -0.9220874348558619 
0.5499999999999557, -0.9218775877659574 
0.5599999999999546, -0.9212421922673333 
0.5699999999999535, -0.9200015748857752 
0.5799999999999524, -0.9178872526702332 
0.5899999999999513, -0.9145517025149952 
0.5999999999999502, -0.9096629788816717 
0.6099999999999491, -0.9030854790086424 
0.619999999999948, -0.8950333028932411 
0.6299999999999469, -0.8860361410581141 
0.6399999999999458, -0.8767281978274453 
0.6499999999999447, -0.8676484047624555 
0.6599999999999436, -0.8591756067788114 
0.6699999999999425, -0.851564897391236 
0.6799999999999414, -0.845001465911119 
0.6899999999999403, -0.8396228672243673 
0.6999999999999392, -0.8355023963543451 
0.7099999999999381, -0.8326141583891055 
0.719999999999937, -0.8308140945555251 
0.7299999999999359, -0.8298621003765845 
0.7399999999999348, -0.8294792170130748 
0.7499999999999337, -0.8294074730968557 
0.7599999999999326, -0.8294434650594601 
0.7699999999999315, -0.8294410717355462 
0.7799999999999304, -0.8292974953818867 
0.7899999999999293, -0.8289398050658379 
0.7999999999999282, -0.8283224067696132 
0.8099999999999271, -0.8274353055972343 
0.819999999999926, -0.8263117750601305 
0.8299999999999249, -0.8250206440040587 
0.8399999999999238, -0.8236410380880026 
0.8499999999999227, -0.8222350214842018 
0.8599999999999216, -0.8208353672855961 
0.8699999999999205, -0.8194520071895944 
0.8799999999999194, -0.8180886134015168 
0.8899999999999183, -0.8167586164839967 
0.8999999999999172, -0.8154943633971519 
0.9099999999999161, -0.8143481053374195 
0.919999999999915, -0.8133859095568775 
0.9299999999999139, -0.8126763230821302 
0.9399999999999128, -0.8122767382013183 
0.9499999999999117, -0.8122216146517622 
0.9599999999999106, -0.8125162357247622 
0.9699999999999095, -0.8131374713492814 
0.9799999999999084, -0.8140407907723473 
0.9899999999999073, -0.8151713875012806 
0.9999999999999062, -0.8164763663820958 
1.0099999999999052, -0.817914369321565 
1.019999999999904, -0.8194590458170994 
1.029999999999903, -0.821093546472554 
1.039999999999902, -0.8227954403139159 
1.0499999999999008, -0.8245164212541531 
1.0599999999998997, -0.8261683592743954 
1.0699999999998986, -0.8276309277635759 
1.0799999999998975, -0.8287858830586687 
1.0899999999998964, -0.8295593350557355 
1.0999999999998953, -0.8299418243649719 
1.1099999999998942, -0.8299768507694534 
1.119999999999893, -0.8297370162912692 
1.129999999999892, -0.8293114272930542 
1.1399999999998909, -0.8288146570343573 
1.1499999999998898, -0.828415395757987 
1.1599999999998887, -0.8283741442868182 
1.1699999999998876, -0.8290679780261078 
1.1799999999998865, -0.8309713137246112 
1.1899999999998854, -0.8345740851273391 
1.1999999999998843, -0.8402612372780849 
1.2099999999998832, -0.8482153451855503 
1.219999999999882, -0.8583876000018675 
1.229999999999881, -0.8705198442645067 
1.2399999999998799, -0.8841567236596708 
1.2499999999998788, -0.8986075341389078 
1.2599999999998777, -0.9129000166150437 
1.2699999999998766, -0.9258663417913381 
1.2799999999998755, -0.9364733018787291 
1.2899999999998744, -0.9442357656407129 
1.2999999999998733, -0.9493395427486782 
1.3099999999998722, -0.9523762630892618 
1.319999999999871, -0.9539861977477567 
1.32999999999987, -0.9546620209666417 
1.3399999999998689, -0.9547186925480761 
1.3499999999998678, -0.954340020465134 
1.3599999999998666, -0.9536500606590194 
1.3699999999998655, -0.952812116946799 
1.3799999999998644, -0.9521891467844362 
1.3899999999998633, -0.9525830185489742 
1.3999999999998622, -0.955450435214806 
1.4099999999998611, -0.9627827811071038 
1.41999999999986, -0.9763464495553738 
1.429999999999859, -0.9965729011714185 
1.4399999999998578, -1.022009939028838 
1.4499999999998567, -1.0498216684471529 
1.4599999999998556, -1.076820244177505 
1.4699999999998545, -1.1003341356701923 
1.4799999999998534, -1.1187434547875752 
1.4899999999998523, -1.131707935861363 
1.4999999999998512, -1.139969030368642 
1.5099999999998501, -1.1447778958160766 
1.519999999999849, -1.147330283407847 
1.529999999999848, -1.1484979761921157 
1.5399999999998468, -1.1488234969633238 
1.5499999999998457, -1.1486238776472566 
1.5599999999998446, -1.148114380249618 
1.5699999999998435, -1.1475374727681307 
1.5799999999998424, -1.147284839421991 
1.5899999999998413, -1.1479190198018419 
1.5999999999998402, -1.149956611382168 
1.6099999999998391, -1.1535116080887817 
1.619999999999838, -1.1581947135836512 
1.629999999999837, -1.1633914172502882 
1.6399999999998358, -1.1685778195843415 
1.6499999999998347, -1.1734270739345585 
1.6599999999998336, -1.177763772232225 
1.6699999999998325, -1.1814899209065897 
1.6799999999998314, -1.184539107741974 
1.6899999999998303, -1.186867584776709 
1.6999999999998292, -1.1884701843953087 
1.709999999999828, -1.1893959367773308 
1.719999999999827, -1.1897425893234999 
1.729999999999826, -1.1896342460717453 
1.7399999999998248, -1.1892045024021376 
1.7499999999998237, -1.1885984073511908 
1.7599999999998226, -1.1879811894726287 
1.7699999999998215, -1.1875236415502752 
1.7799999999998204, -1.1873523698050041 
1.7899999999998193, -1.1875052252824614 
1.7999999999998182, -1.1879388719651318 
1.809999999999817, -1.1885688983734375 
1.819999999999816, -1.1892948332422237 
1.8299999999998149, -1.1900077682604484 
1.8399999999998138, -1.190601856102172 
1.8499999999998127, -1.190989688291331 
1.8599999999998116, -1.1911107080471415 
1.8699999999998105, -1.1909312034449338 
1.8799999999998094, -1.1904393714410395 
1.8899999999998083, -1.1896373910347608 
1.8999999999998072, -1.1885336268240096 
1.909999999999806, -1.1871400064517705 
1.919999999999805, -1.185476830086619 
1.9299999999998039, -1.1835821442571206 
1.9399999999998028, -1.1815207496269087 
1.9499999999998017, -1.1793907392965874 
1.9599999999998006, -1.1773299367379821 
1.9699999999997995, -1.17551762472723 
1.9799999999997984, -1.1741427707284875 
1.9899999999997973, -1.1733158790549567 
1.9999999999997962, -1.1729825294235299 
2.0099999999998173, -1.1729394000467228 
2.0199999999998384, -1.172938290284153 
2.0299999999998595, -1.172762967099773 
2.0399999999998806, -1.1722279003677545 
2.0499999999999017, -1.1711367909332766 
2.059999999999923, -1.1692514235447777 
2.069999999999944, -1.166302421302162 
2.079999999999965, -1.1620497333199762 
2.089999999999986, -1.1563615913966114 
2.100000000000007, -1.1492547218066738 
2.1100000000000283, -1.1408773919976503 
2.1200000000000494, -1.131487248005832 
2.1300000000000705, -1.1214887919089935 
2.1400000000000916, -1.111531009266432 
2.1500000000001127, -1.1025522219851145 
2.160000000000134, -1.0955681566794426 
2.170000000000155, -1.0911612950997645 
2.180000000000176, -1.0890982161210006 
2.190000000000197, -1.088547285673121 
2.2000000000002182, -1.0886436326062792 
2.2100000000002393, -1.0888166675026352 
2.2200000000002604, -1.0887664718447143 
2.2300000000002815, -1.088307694071101 
2.2400000000003026, -1.087223513685733 
2.2500000000003237, -1.085141911675317 
2.260000000000345, -1.0814146907414117 
2.270000000000366, -1.0750294863713572 
2.280000000000387, -1.064689925907059 
2.290000000000408, -1.0492469264771598 
2.3000000000004293, -1.0284145048744942 
2.3100000000004504, -1.0032547095570699 
2.3200000000004715, -0.9759864603374842 
2.3300000000004926, -0.9493251438067386 
2.3400000000005137, -0.9258056847298389 
2.3500000000005348, -0.9072376078839574 
2.360000000000556, -0.8943153792243136 
2.370000000000577, -0.8865522808954654 
2.380000000000598, -0.8826580874695124 
2.390000000000619, -0.8811546002497306 
2.4000000000006403, -0.880848760691617 
2.4100000000006614, -0.880981456940099 
2.4200000000006825, -0.8811446077288583 
2.4300000000007036, -0.8811324553921578 
2.4400000000007247, -0.8808192489308075 
2.450000000000746, -0.8800809526066656 
2.460000000000767, -0.8787532443339787 
2.470000000000788, -0.8766263333781049 
2.480000000000809, -0.8734919940604782 
2.49000000000083, -0.8692462603637473 
2.5000000000008513, -0.8639921244614828 
2.5100000000008724, -0.858043268128794 
2.5200000000008935, -0.8518053105034218 
2.5300000000009146, -0.8456349230557624 
2.5400000000009357, -0.8397760002930375 
2.550000000000957, -0.8343752443300012 
2.560000000000978, -0.8295265712826986 
2.570000000000999, -0.8253054312577396 
2.58000000000102, -0.8217798157495937 
2.5900000000010412, -0.8189999184390355 
2.6000000000010624, -0.8169759230158773 
2.6100000000010835, -0.8156583518346737 
2.6200000000011046, -0.8149354511743543 
2.6300000000011257, -0.8146526149726055 
2.6400000000011468, -0.8146442755859746 
2.650000000001168, -0.8147618059089096 
2.660000000001189, -0.8148874908570434 
2.67000000000121, -0.8149363806974412 
2.680000000001231, -0.8148541855366606 
2.6900000000012523, -0.8146172314894289 
2.7000000000012734, -0.8142332140402401 
2.7100000000012945, -0.8137357720614247 
2.7200000000013156, -0.8131687068426212 
2.7300000000013367, -0.8125656948611779 
2.740000000001358, -0.8119373945478546 
2.750000000001379, -0.8112732082327462 
2.7600000000014, -0.8105551585467922 
2.770000000001421, -0.8097749204243303 
2.780000000001442, -0.8089459286055588 
2.7900000000014633, -0.8081083238412246 
2.8000000000014844, -0.8073287464411771 
2.8100000000015055, -0.8066961693073764 
2.8200000000015266, -0.8063123473538081 
2.8300000000015477, -0.8062760161702563 
2.840000000001569, -0.8066643900549689 
2.85000000000159, -0.8075193523764537 
2.860000000001611, -0.808844355363496 
2.870000000001632, -0.8106123022577864 
2.8800000000016532, -0.812779649676273 
2.8900000000016743, -0.8153004928055679 
2.9000000000016954, -0.8181350460918185 
2.9100000000017165, -0.8212476891834097 
2.9200000000017377, -0.8245910834098025 
2.9300000000017588, -0.8280776992897911 
2.94000000000178, -0.8315515948367287 
2.950000000001801, -0.8347878937653433 
2.960000000001822, -0.8375445245290093 
2.970000000001843, -0.839648886932102 
2.9800000000018643, -0.8410555437959634 
2.9900000000018854, -0.841832011429584 
3.0000000000019065, -0.8420993552332113 
3.0100000000019276, -0.8419811222577881 
3.0200000000019487, -0.8415870840562292 
3.03000000000197, -0.8410319667624775 
3.040000000001991, -0.840485677795229 
3.050000000002012, -0.8402548050365285 
3.060000000002033, -0.8408841195175125 
3.070000000002054, -0.843230267680043 
3.0800000000020753, -0.8484177650270389 
3.0900000000020964, -0.8576045689248287 
3.1000000000021175, -0.8716027718684677 
3.1100000000021386, -0.8905258014874727 
3.1200000000021597, -0.9136119264988156 
3.130000000002181, -0.9392342540881142 
3.140000000002202, -0.9650658738156697 
3.150000000002223, -0.9884988521638831 
3.160000000002244, -1.00741410922856 
3.1700000000022652, -1.0209567819107677 
3.1800000000022863, -1.0296436072767343 
3.1900000000023074, -1.0347241663533269 
3.2000000000023285, -1.037452660271071 
3.2100000000023496, -1.038743171146936 
3.2200000000023707, -1.0391546775011542 
3.230000000002392, -1.0389965732100763 
3.240000000002413, -1.0384444877683474 
3.250000000002434, -1.0376583950158802 
3.260000000002455, -1.0369408818618453 
3.2700000000024763, -1.0369533546541088 
3.2800000000024974, -1.0388689143351946 
3.2900000000025185, -1.044136889460932 
3.3000000000025396, -1.0536991912865654 
3.3100000000025607, -1.06724691336786 
3.3200000000025818, -1.0833265176415687 
3.330000000002603, -1.1001191347325676 
3.340000000002624, -1.1160768485290782 
3.350000000002645, -1.1301045668853613 
3.360000000002666, -1.1415286465264565 
3.3700000000026873, -1.1500895556669102 
3.3800000000027084, -1.1559487232729564 
3.3900000000027295, -1.1595886912602174 
3.4000000000027506, -1.1616065487823206 
3.4100000000027717, -1.1625299117537176 
3.420000000002793, -1.162742511278747 
3.430000000002814, -1.1625049786291064 
3.440000000002835, -1.1620248204901775 
3.450000000002856, -1.161541943056171 
3.460000000002877, -1.1613838189401082 
3.4700000000028983, -1.1619110393435301 
3.4800000000029194, -1.1633358864152035 
3.4900000000029405, -1.1655802526501038 
3.5000000000029616, -1.1683435689137507 
3.5100000000029827, -1.1712904686198047 
3.520000000003004, -1.174170006657013 
3.530000000003025, -1.1768290817874953 
3.540000000003046, -1.1791820080810802 
3.550000000003067, -1.1811795452393405 
3.5600000000030882, -1.18278772093988 
3.5700000000031094, -1.1839784192359644 
3.5800000000031305, -1.1847329339239803 
3.5900000000031516, -1.1850535717710233 
3.6000000000031727, -1.1849724583534278 
3.6100000000031938, -1.1845514981406566 
3.620000000003215, -1.1838785646552803 
3.630000000003236, -1.1830660463702412 
3.640000000003257, -1.1822454381002796 
3.650000000003278, -1.1815452024244655 
3.6600000000032993, -1.1810582038581594 
3.6700000000033204, -1.1808261860191736 
3.6800000000033415, -1.180847224726318 
3.6900000000033626, -1.1810800287481904 
3.7000000000033837, -1.1814389133880003 
3.710000000003405, -1.181803541514436 
3.720000000003426, -1.1820472979545662 
3.730000000003447, -1.1820609879188624 
3.740000000003468, -1.1817609491311192 
3.750000000003489, -1.1810906114415682 
3.7600000000035103, -1.1800223310222115 
3.7700000000035314, -1.1785556693125103 
3.7800000000035525, -1.1767084973648105 
3.7900000000035736, -1.174506499074178 
3.8000000000035947, -1.171980312653391 
3.810000000003616, -1.1691736962082553 
3.820000000003637, -1.1661601547824167 
3.830000000003658, -1.1630656245576518 
3.840000000003679, -1.1600926413614068 
3.8500000000037002, -1.1575196641770849 
3.8600000000037213, -1.1556236579652155 
3.8700000000037424, -1.154526421451005 
3.8800000000037635, -1.1540977432812098 
3.8900000000037847, -1.1540351128473347 
3.9000000000038058, -1.154026267257271 
3.910000000003827, -1.153829361922852 
3.920000000003848, -1.1532457571310233 
3.930000000003869, -1.1520513967303077 
3.94000000000389, -1.1499399771692442 
3.9500000000039113, -1.1465119015567022 
3.9600000000039324, -1.1413397367214917 
3.9700000000039535, -1.134106354075709 
3.9800000000039746, -1.124737982263879 
3.9900000000039957, -1.1134420801914913 
4.000000000004016, -1.1006686857263261 
4.010000000003993, -1.0871017811143848 
4.02000000000397, -1.073718345797603 
4.030000000003946, -1.0617823771373904 
4.040000000003923, -1.0525449417403596 
4.0500000000039, -1.0466530098127458 
4.0600000000038765, -1.0437683685610006 
4.070000000003853, -1.042864182177871 
4.08000000000383, -1.0428816872255022 
4.090000000003807, -1.0431151466223203 
4.100000000003783, -1.043200677247826 
4.11000000000376, -1.0429487363063719 
4.120000000003737, -1.0421900295877344 
4.130000000003713, -1.0406600586430415 
4.14000000000369, -1.0378998804136663 
4.150000000003667, -1.0331795949071716 
4.1600000000036434, -1.0255274489554282 
4.17000000000362, -1.0140060719436743 
4.180000000003597, -0.9982401797297088 
4.1900000000035735, -0.9788407937156341 
4.20000000000355, -0.9573088669801371 
4.210000000003527, -0.9355239526813804 
4.220000000003504, -0.915267338295302 
4.23000000000348, -0.8979603025238989 
4.240000000003457, -0.8845014185998604 
4.250000000003434, -0.8751310702406039 
4.26000000000341, -0.8694182656379745 
4.270000000003387, -0.8664678942352205 
4.280000000003364, -0.8652687303419878 
4.2900000000033405, -0.864980486818993 
4.300000000003317, -0.8650402639184638 
4.310000000003294, -0.8651223848902889 
4.320000000003271, -0.8650450378981459 
4.330000000003247, -0.8646861983783761 
4.340000000003224, -0.8639286525998836 
4.350000000003201, -0.862636954201607 
4.360000000003177, -0.8606711831174492 
4.370000000003154, -0.8579402734801199 
4.380000000003131, -0.8544707491089408 
4.390000000003107, -0.850432645261273 
4.400000000003084, -0.8460852563936889 
4.410000000003061, -0.8416823270300755 
4.4200000000030375, -0.8374091734045479 
4.430000000003014, -0.8333773103928959 
4.440000000002991, -0.829652379613519 
4.450000000002968, -0.8262844752855072 
4.460000000002944, -0.8233253844367876 
4.470000000002921, -0.820830292195897 
4.480000000002898, -0.8188472687101085 
4.490000000002874, -0.8174001472907655 
4.500000000002851, -0.8164724475152813 
4.510000000002828, -0.8160010152316735 
4.520000000002804, -0.8158845088960731 
4.530000000002781, -0.8160035607958713 
4.540000000002758, -0.8162428248368823 
4.5500000000027345, -0.8165063538669521 
4.560000000002711, -0.816724660315032 
4.570000000002688, -0.8168569467092448 
4.580000000002665, -0.8168911363091059 
4.590000000002641, -0.81683988628542 
4.600000000002618, -0.8167291413341278 
4.610000000002595, -0.8165807179499496 
4.620000000002571, -0.8163972862324054 
4.630000000002548, -0.8161589665084883 
4.640000000002525, -0.815833997215214 
4.6500000000025015, -0.81539691908173 
4.660000000002478, -0.8148438942418478 
4.670000000002455, -0.8141996734424926 
4.6800000000024315, -0.8135186214046405 
4.690000000002408, -0.8128843308922742 
4.700000000002385, -0.8124078789679574 
4.710000000002362, -0.8122199951566575 
4.720000000002338, -0.812453181731714 
4.730000000002315, -0.8132169233131854 
4.740000000002292, -0.8145766772872364 
4.750000000002268, -0.8165472272312085 
4.760000000002245, -0.8191023265748466 
4.770000000002222, -0.8221932917417103 
4.7800000000021985, -0.8257659401752664 
4.790000000002175, -0.8297669057926832 
4.800000000002152, -0.8341331518921921 
4.810000000002129, -0.8387628242342096 
4.820000000002105, -0.843476553867028 
4.830000000002082, -0.8479984659560558 
4.840000000002059, -0.8519982088553031 
4.850000000002035, -0.8551997755658751 
4.860000000002012, -0.8574860729690361 
4.870000000001989, -0.8589130336562374 
4.880000000001965, -0.8596367078275244 
4.890000000001942, -0.8598283924171248 
4.900000000001919, -0.859630558089345 
4.9100000000018955, -0.8591583394670028 
4.920000000001872, -0.8585366000917178 
4.930000000001849, -0.857972016200342 
