t, s[1].omega / s[0].omega 
0, -0.5899977319201902 
0.009999999999999995, -0.5897909851067996 
0.019999999999999934, -0.5896136158980851 
0.029999999999999874, -0.5894392093083783 
0.04000000000000012, -0.5892361747428827 
0.050000000000000405, -0.5889791740684243 
0.06000000000000069, -0.5886558609361927 
0.07000000000000098, -0.5882678732812044 
0.08000000000000126, -0.5878290521519526 
0.09000000000000155, -0.5873648935677221 
0.10000000000000184, -0.5869161111539632 
0.11000000000000212, -0.5865480892274979 
0.12000000000000241, -0.5863679069404603 
0.130000000000002, -0.5865511831762852 
0.1400000000000009, -0.5873813108238705 
0.1499999999999998, -0.5893020407492521 
0.1599999999999987, -0.5929768886400548 
0.1699999999999976, -0.5993265006667279 
0.1799999999999965, -0.6094639164543153 
0.1899999999999954, -0.6243719756158529 
0.1999999999999943, -0.6441799444799695 
0.2099999999999932, -0.6672955748144516 
0.2199999999999921, -0.6904035013723042 
0.229999999999991, -0.710063532008746 
0.2399999999999899, -0.7245823778385831 
0.2499999999999888, -0.7342533512958986 
0.2599999999999877, -0.7403020360386827 
0.2699999999999866, -0.7439558381628727 
0.2799999999999855, -0.7461079137289207 
0.2899999999999844, -0.747324663602412 
0.2999999999999833, -0.7479407398631331 
0.3099999999999822, -0.7481412368621766 
0.3199999999999811, -0.7480129071568611 
0.32999999999998, -0.7475689057006853 
0.3399999999999789, -0.7467528204234838 
0.3499999999999778, -0.7454247765856601 
0.35999999999997667, -0.7433318912243008 
0.36999999999997557, -0.74007396096253 
0.37999999999997447, -0.7351029612742027 
0.38999999999997337, -0.7278389439779434 
0.39999999999997227, -0.7179779682100218 
0.40999999999997117, -0.7058816991024278 
0.41999999999997006, -0.6926715575379281 
0.42999999999996896, -0.6797978667362296 
0.43999999999996786, -0.6684267163115873 
0.44999999999996676, -0.6591378695597753 
0.45999999999996566, -0.6519979159483784 
0.46999999999996456, -0.6467762482851204 
0.47999999999996346, -0.6431267760992985 
0.48999999999996235, -0.6406930739313584 
0.49999999999996125, -0.6391566697683275 
0.5099999999999602, -0.6382541720957913 
0.519999999999959, -0.637779247169387 
0.529999999999958, -0.6375773504012101 
0.5399999999999568, -0.6375371223935037 
0.5499999999999557, -0.6375808513737222 
0.5599999999999546, -0.6376557894653115 
0.5699999999999535, -0.6377276235209174 
0.5799999999999524, -0.6377767446893591 
0.5899999999999513, -0.6377969179949219 
0.5999999999999502, -0.6377945253295343 
0.6099999999999491, -0.6377855451680647 
0.619999999999948, -0.6377883312502937 
0.6299999999999469, -0.6378134571823693 
0.6399999999999458, -0.6378552538627024 
0.6499999999999447, -0.6378901968294958 
0.6599999999999436, -0.6378839963575055 
0.6699999999999425, -0.6378038823144471 
0.6799999999999414, -0.637629218852814 
0.6899999999999403, -0.6373556053032751 
0.6999999999999392, -0.6369931745714279 
0.7099999999999381, -0.6365635610650127 
0.719999999999937, -0.6360998529484351 
0.7299999999999359, -0.635651977861974 
0.7399999999999348, -0.6352987636568771 
0.7499999999999337, -0.6351677043716923 
0.7599999999999326, -0.6354633532957628 
0.7699999999999315, -0.6365040752457107 
0.7799999999999304, -0.6387630327984576 
0.7899999999999293, -0.6428997710061625 
0.7999999999999282, -0.6497481819415664 
0.8099999999999271, -0.6601906967211908 
0.819999999999926, -0.6748172678918493 
0.8299999999999249, -0.6933401021141479 
0.8399999999999238, -0.7140707360822356 
0.8499999999999227, -0.734176455551821 
0.8599999999999216, -0.7509957428156613 
0.8699999999999205, -0.7633316953005319 
0.8799999999999194, -0.7715199720139635 
0.8899999999999183, -0.776607650463717 
0.8999999999999172, -0.7796357335275165 
0.9099999999999161, -0.7813668379569421 
0.919999999999915, -0.7822851206443475 
0.9299999999999139, -0.78267263102975 
0.9399999999999128, -0.782677531187376 
0.9499999999999117, -0.7823556538302073 
0.9599999999999106, -0.781686982022715 
0.9699999999999095, -0.7805697443595933 
0.9799999999999084, -0.7787910051864293 
0.9899999999999073, -0.775970322437579 
0.9999999999999062, -0.771481457886887 
1.0099999999999052, -0.7643979371311548 
1.019999999999904, -0.7536060359871911 
1.029999999999903, -0.7383130452616197 
1.039999999999902, -0.7189274250529837 
1.0499999999999008, -0.6975441840899674 
1.0599999999998997, -0.6771456808786173 
1.0699999999998986, -0.6600730784209349 
1.0799999999998975, -0.6472244207835283 
1.0899999999998964, -0.6383221435809939 
1.0999999999998953, -0.6325509053832563 
1.1099999999998942, -0.6290249520742888 
1.119999999999893, -0.6269991306194798 
1.129999999999892, -0.6259192880282147 
1.1399999999998909, -0.6254028591412865 
1.1499999999998898, -0.6251989708836249 
1.1599999999998887, -0.6251489804720787 
1.1699999999998876, -0.6251545097317999 
1.1799999999998865, -0.6251542575731149 
1.1899999999998854, -0.6251088670475508 
1.1999999999998843, -0.6249927442539011 
1.2099999999998832, -0.6247916978109025 
1.219999999999882, -0.6245045936775346 
1.229999999999881, -0.624145614193298 
1.2399999999998799, -0.6237426092864797 
1.2499999999998788, -0.6233289731790339 
1.2599999999998777, -0.6229315074602395 
1.2699999999998766, -0.6225606175220744 
1.2799999999998755, -0.6222081904001829 
1.2899999999998744, -0.6218537872227178 
1.2999999999998733, -0.621475164944546 
1.3099999999998722, -0.6210575693391662 
1.319999999999871, -0.6205984934448072 
1.32999999999987, -0.6201085563255126 
1.3399999999998689, -0.6196115780131252 
1.3499999999998678, -0.6191467864244583 
1.3599999999998666, -0.6187747699938424 
1.3699999999998655, -0.6185876860340787 
1.3799999999998644, -0.6187236125659021 
1.3899999999998633, -0.6193843891041049 
1.3999999999998622, -0.6208552872088238 
1.4099999999998611, -0.6235225319606628 
1.41999999999986, -0.627879176064679 
1.429999999999859, -0.6344977596714619 
1.4399999999998578, -0.6439276919405141 
1.4499999999998567, -0.6564601878425064 
1.4599999999998556, -0.6717530674989334 
1.4699999999998545, -0.6885114668223972 
1.4799999999998534, -0.7046688223219574 
1.4899999999998523, -0.7182642083310337 
1.4999999999998512, -0.728357704905983 
1.5099999999998501, -0.7351460373325541 
1.519999999999849, -0.7394070123877139 
1.529999999999848, -0.7419538375782843 
1.5399999999998468, -0.7434003767119245 
1.5499999999998457, -0.744143114571143 
1.5599999999998446, -0.7444136708951813 
1.5699999999998435, -0.7443302364918718 
1.5799999999998424, -0.743928882196658 
1.5899999999998413, -0.7431736508135716 
1.5999999999998402, -0.7419460654943917 
1.6099999999998391, -0.7400119353103276 
1.619999999999838, -0.7369630712541764 
1.629999999999837, -0.732145370339556 
1.6399999999998358, -0.7246365257373798 
1.6499999999998347, -0.7134375613194958 
1.6599999999998336, -0.6980654439098156 
1.6699999999998325, -0.6793430723990898 
1.6799999999998314, -0.659521922990958 
1.6899999999998303, -0.641235977307171 
1.6999999999998292, -0.626229595319227 
1.709999999999828, -0.6149773044890867 
1.719999999999827, -0.6070890174000365 
1.729999999999826, -0.6018417182931682 
1.7399999999998248, -0.5985084487591381 
1.7499999999998237, -0.5964893275599356 
1.7599999999998226, -0.5953348603996257 
1.7699999999998215, -0.594726901011079 
1.7799999999998204, -0.5944488723040487 
1.7899999999998193, -0.5943574991071112 
1.7999999999998182, -0.5943598525583547 
1.809999999999817, -0.5943963505026317 
1.819999999999816, -0.5944293606617322 
1.8299999999998149, -0.5944367848865695 
1.8399999999998138, -0.5944096868795787 
1.8499999999998127, -0.5943521816100769 
1.8599999999998116, -0.5942806365179599 
1.8699999999998105, -0.5942190605553113 
1.8799999999998094, -0.5941897799270383 
1.8899999999998083, -0.5942023528570519 
1.8999999999998072, -0.5942462124764931 
1.909999999999806, -0.5942916058157088 
1.919999999999805, -0.5942992261990685 
1.9299999999998039, -0.5942336733513011 
1.9399999999998028, -0.594073514568825 
1.9499999999998017, -0.5938139338535099 
1.9599999999998006, -0.5934637689086035 
1.9699999999997995, -0.5930418078815158 
1.9799999999997984, -0.5925764709559134 
1.9899999999997973, -0.5921112243283516 
1.9999999999997962, -0.591717495580961 
2.0099999999998173, -0.59151767698629 
2.0199999999998384, -0.5917221702238868 
2.0299999999998595, -0.5926848900586534 
2.0399999999998806, -0.5949779026295389 
2.0499999999999017, -0.599469536480745 
2.059999999999923, -0.6073440545635547 
2.069999999999944, -0.6199087289364835 
2.079999999999965, -0.6379576284306667 
2.089999999999986, -0.6607040932362302 
2.100000000000007, -0.6851690605017866 
2.1100000000000283, -0.7073523984474436 
2.1200000000000494, -0.7245701988554835 
2.1300000000000705, -0.7364595385161892 
2.1400000000000916, -0.7440955686430878 
2.1500000000001127, -0.7488144606156237 
2.160000000000134, -0.7516672556414529 
2.170000000000155, -0.7533499593077825 
2.180000000000176, -0.7542888282785245 
2.190000000000197, -0.7547320279678078 
2.2000000000002182, -0.7548124860173353 
2.2100000000002393, -0.7545830314464202 
2.2200000000002604, -0.7540302180396343 
2.2300000000002815, -0.7530709876151251 
2.2400000000003026, -0.7515344949662804 
2.2500000000003237, -0.7491347055831442 
2.260000000000345, -0.7454547051089793 
2.270000000000366, -0.7399951579641365 
2.280000000000387, -0.7323592225069209 
2.290000000000408, -0.7225652079596145 
2.3000000000004293, -0.7112665863676042 
2.3100000000004504, -0.6995947836676916 
2.3200000000004715, -0.68868933167943 
2.3300000000004926, -0.6793093018510679 
2.3400000000005137, -0.6717512243570679 
2.3500000000005348, -0.6659741677673988 
2.360000000000556, -0.6617593301380423 
2.370000000000577, -0.6588234423841473 
2.380000000000598, -0.6568814465227473 
2.390000000000619, -0.6556765885003694 
2.4000000000006403, -0.6549930256786571 
2.4100000000006614, -0.6546589686148125 
2.4200000000006825, -0.6545441196005485 
2.4300000000007036, -0.6545536969649293 
2.4400000000007247, -0.6546210760706465 
2.450000000000746, -0.6547009296001988 
2.460000000000767, -0.654764301902652 
2.470000000000788, -0.6547961797807608 
2.480000000000809, -0.6547947484326132 
2.49000000000083, -0.6547700033712119 
2.5000000000008513, -0.6547390025787648 
2.5100000000008724, -0.6547170982857604 
2.5200000000008935, -0.6547081828400776 
2.5300000000009146, -0.654699258611736 
2.5400000000009357, -0.6546631390356261 
2.550000000000957, -0.6545683623348408 
2.560000000000978, -0.6543907422937324 
2.570000000000999, -0.6541204740278779 
2.58000000000102, -0.6537630093701498 
2.5900000000010412, -0.6533367445591094 
2.6000000000010624, -0.6528719941360639 
2.6100000000010835, -0.6524142977900601 
2.6200000000011046, -0.6520333555476254 
2.6300000000011257, -0.6518379407554733 
2.6400000000011468, -0.6519965335253789 
2.650000000001168, -0.6527622721236254 
2.660000000001189, -0.654498378424198 
2.67000000000121, -0.6576954607568496 
2.680000000001231, -0.6629629095539424 
2.6900000000012523, -0.6709601479398071 
2.7000000000012734, -0.682213650053016 
2.7100000000012945, -0.6967764041015132 
2.7200000000013156, -0.7138133086640447 
2.7300000000013367, -0.7314690122289546 
2.740000000001358, -0.7474490961770229 
2.750000000001379, -0.7600987886765107 
2.7600000000014, -0.7690257839809922 
2.770000000001421, -0.7748086359823605 
2.780000000001442, -0.7783397283144415 
2.7900000000014633, -0.7803958613540891 
2.8000000000014844, -0.7815167087540615 
2.8100000000015055, -0.78203433026324 
2.8200000000015266, -0.7821335032282442 
2.8300000000015477, -0.7818977843766175 
2.840000000001569, -0.7813330590701899 
2.85000000000159, -0.7803695380106348 
2.860000000001611, -0.7788416976564139 
2.870000000001632, -0.7764418905349804 
2.8800000000016532, -0.7726434511166078 
2.8900000000016743, -0.7666075899244514 
2.9000000000016954, -0.7571580400021521 
2.9100000000017165, -0.7430479517769062 
2.9200000000017377, -0.7237805468591606 
2.9300000000017588, -0.700679889589248 
2.94000000000178, -0.6769421130380516 
2.950000000001801, -0.656015158497461 
2.960000000001822, -0.6398475650189165 
2.970000000001843, -0.6285891955947461 
2.9800000000018643, -0.6213543841794354 
2.9900000000018854, -0.6170045977362091 
3.0000000000019065, -0.6145514748348313 
3.0100000000019276, -0.6132671574094328 
3.0200000000019487, -0.6126620112947723 
3.03000000000197, -0.6124251142070347 
3.040000000001991, -0.6123665713040711 
3.050000000002012, -0.6123728743882773 
3.060000000002033, -0.6123758826015087 
3.070000000002054, -0.6123330092148737 
3.0800000000020753, -0.612216129515722 
3.0900000000020964, -0.6120074070810702 
3.1000000000021175, -0.611700382368444 
3.1100000000021386, -0.6113035217195331 
3.1200000000021597, -0.6108416492479699 
3.130000000002181, -0.6103509299941203 
3.140000000002202, -0.6098673232333629 
3.150000000002223, -0.6094139498994895 
3.160000000002244, -0.6089942852793038 
3.1700000000022652, -0.6085943558467902 
3.1800000000022863, -0.6081918314087369 
3.1900000000023074, -0.6077667169366652 
3.2000000000023285, -0.6073088430410054 
3.2100000000023496, -0.6068207544733217 
3.2200000000023707, -0.6063180216330278 
3.230000000002392, -0.6058301431768831 
3.240000000002413, -0.6054043853682404 
3.250000000002434, -0.6051136958203976 
3.260000000002455, -0.6050690927640774 
3.2700000000024763, -0.6054365453401003 
3.2800000000024974, -0.6064578141425788 
3.2900000000025185, -0.6084732753800843 
3.3000000000025396, -0.6119409040499456 
3.3100000000025607, -0.6174361799962208 
3.3200000000025818, -0.625598292691455 
3.330000000002603, -0.6369608489107549 
3.340000000002624, -0.6516065394053039 
3.350000000002645, -0.6687171557327878 
3.360000000002666, -0.6864065991263008 
3.3700000000026873, -0.7023319512092571 
3.3800000000027084, -0.7148433539010394 
3.3900000000027295, -0.7236094885967919 
3.4000000000027506, -0.7292646328629119 
3.4100000000027717, -0.7327191917451032 
3.420000000002793, -0.7347420211827415 
3.430000000002814, -0.7358581690761126 
3.440000000002835, -0.7363878820641752 
3.450000000002856, -0.7365088005124509 
3.460000000002877, -0.7363011569965836 
3.4700000000028983, -0.7357702327294644 
3.4800000000029194, -0.7348479224972473 
3.4900000000029405, -0.733373738283341 
3.5000000000029616, -0.7310537178085397 
3.5100000000029827, -0.7274016140572895 
3.520000000003004, -0.7216964373567943 
3.530000000003025, -0.713061350832942 
3.540000000003046, -0.7008312704966557 
3.550000000003067, -0.6852045932601214 
3.5600000000030882, -0.6676483284060015 
3.5700000000031094, -0.6503956708343518 
3.5800000000031305, -0.6353500714511553 
3.5900000000031516, -0.6234186310876905 
3.6000000000031727, -0.6146080131910385 
3.6100000000031938, -0.6084455255888325 
3.620000000003215, -0.604325709217956 
3.630000000003236, -0.6016886393055586 
3.640000000003257, -0.6000812102912804 
3.650000000003278, -0.599162051562004 
3.6600000000032993, -0.598685551244862 
3.6700000000033204, -0.5984809498153629 
3.6800000000033415, -0.5984326934154307 
3.6900000000033626, -0.5984642021628706 
3.7000000000033837, -0.5985256998526538 
3.710000000003405, -0.5985861819868693 
3.720000000003426, -0.5986292155075558 
3.730000000003447, -0.5986515826522814 
3.740000000003468, -0.598662658034563 
3.750000000003489, -0.5986815469862768 
3.7600000000035103, -0.5987298569575111 
3.7700000000035314, -0.5988210378921239 
3.7800000000035525, -0.598950679540615 
3.7900000000035736, -0.5990932678760503 
3.8000000000035947, -0.5992083943065625 
3.810000000003616, -0.5992540347881635 
3.820000000003637, -0.5991996980375205 
3.830000000003658, -0.5990327050535929 
3.840000000003679, -0.5987566641617807 
3.8500000000037002, -0.598386529875505 
3.8600000000037213, -0.5979454442249494 
3.8700000000037424, -0.5974665919689655 
3.8800000000037635, -0.5970018614610474 
3.8900000000037847, -0.5966393838680699 
3.9000000000038058, -0.5965334681159702 
3.910000000003827, -0.5969518720456279 
3.920000000003848, -0.598344513386096 
3.930000000003869, -0.6014288996829544 
3.94000000000389, -0.6072571258132428 
3.9500000000039113, -0.6171554655603078 
3.9600000000039324, -0.632318352628885 
3.9700000000039535, -0.652874928988151 
3.9800000000039746, -0.6768572003989457 
3.9900000000039957, -0.7004463461233827 
4.000000000004016, -0.7200768177679028 
4.010000000003993, -0.7343340511433005 
4.02000000000397, -0.743787473127479 
4.030000000003946, -0.7497440928993766 
4.040000000003923, -0.7533986324949387 
4.0500000000039, -0.7555958052439344 
4.0600000000038765, -0.7568717039327748 
4.070000000003853, -0.7575482148549852 
4.08000000000383, -0.7578080021426016 
4.090000000003807, -0.7577408331706453 
4.100000000003783, -0.757366555277379 
4.11000000000376, -0.7566398584654683 
4.120000000003737, -0.7554395488833687 
4.130000000003713, -0.7535452902506259 
4.14000000000369, -0.7506130256400075 
4.150000000003667, -0.7461834811933172 
4.1600000000036434, -0.739789493631195 
4.17000000000362, -0.7312097169364911 
4.180000000003597, -0.7207632839214119 
4.1900000000035735, -0.70935947370724 
4.20000000000355, -0.6981596205884399 
4.210000000003527, -0.6881177002374277 
4.220000000003504, -0.679748444251574 
4.23000000000348, -0.6731670134072668 
4.240000000003457, -0.6682393639259969 
4.250000000003434, -0.664716575594549 
4.26000000000341, -0.6623185161999658 
4.270000000003387, -0.6607775887062601 
4.280000000003364, -0.6598594136445267 
4.2900000000033405, -0.6593710761398446 
4.300000000003317, -0.6591619934021011 
4.310000000003294, -0.6591200060349862 
4.320000000003271, -0.6591647800924695 
4.330000000003247, -0.6592405825379688 
4.340000000003224, -0.659310242490978 
4.350000000003201, -0.6593514500454155 
4.360000000003177, -0.6593553891717083 
4.370000000003154, -0.6593261146257917 
4.380000000003131, -0.6592778758483854 
4.390000000003107, -0.6592283214123641 
4.400000000003084, -0.6591887014828814 
4.410000000003061, -0.6591556253336119 
4.4200000000030375, -0.6591094237361335 
4.430000000003014, -0.6590207518701605 
4.440000000002991, -0.6588619076161375 
4.450000000002968, -0.6586164948465955 
4.460000000002944, -0.6582832627152891 
4.470000000002921, -0.6578750457210354 
4.480000000002898, -0.6574169306534168 
4.490000000002874, -0.6569474447987169 
4.500000000002851, -0.6565247097545661 
4.510000000002828, -0.6562380871928404 
4.520000000002804, -0.6562250368518856 
4.530000000002781, -0.6566919899513587 
4.540000000002758, -0.6579363514262593 
4.5500000000027345, -0.660363726257003 
4.560000000002711, -0.6644889729986534 
4.570000000002688, -0.6708994130218784 
4.580000000002665, -0.6801425802880561 
4.590000000002641, -0.6924923544588524 
4.600000000002618, -0.7075970970684773 
4.610000000002595, -0.7241931493128646 
4.620000000002571, -0.7402775423907241 
4.630000000002548, -0.7539189931728923 
4.640000000002525, -0.7641351002893444 
4.6500000000025015, -0.7710532049585525 
4.660000000002478, -0.7754096189174149 
4.670000000002455, -0.7780107834437902 
4.6800000000024315, -0.7794801637227862 
4.690000000002408, -0.7802258870420434 
4.700000000002385, -0.7804881359914765 
4.710000000002362, -0.7803903046516198 
4.720000000002338, -0.7799714282285866 
4.730000000002315, -0.7791975128257362 
4.740000000002292, -0.7779520966373326 
4.750000000002268, -0.7760033181991761 
4.760000000002245, -0.7729419161636076 
4.770000000002222, -0.7680905161581125 
4.7800000000021985, -0.7604222712110167 
4.790000000002175, -0.7486355095128104 
4.800000000002152, -0.731676105550829 
4.810000000002129, -0.7098195374353351 
4.820000000002105, -0.6854808942279709 
4.830000000002082, -0.6623770040569575 
4.840000000002059, -0.6434586578284103 
4.850000000002035, -0.6297330803446798 
4.860000000002012, -0.6206620217855884 
4.870000000001989, -0.6150929599715501 
4.880000000001965, -0.6118900474873394 
4.890000000001942, -0.6101715741825389 
4.900000000001919, -0.6093295667698218 
4.9100000000018955, -0.608973340734627 
4.920000000001872, -0.608863254958332 
