t, s[1].omega / s[0].omega 
0, -0.6599977081986197 
0.009999999999999995, -0.6597779081978181 
0.019999999999999934, -0.6595665710340657 
0.029999999999999874, -0.6593384117018102 
0.04000000000000012, -0.6590647255391529 
0.050000000000000405, -0.6587253241124004 
0.06000000000000069, -0.6583152798947117 
0.07000000000000098, -0.6578460995434839 
0.08000000000000126, -0.6573450476285934 
0.09000000000000155, -0.6568567615263387 
0.10000000000000184, -0.6564493931377098 
0.11000000000000212, -0.6562255422327843 
0.12000000000000241, -0.6563369025723504 
0.130000000000002, -0.6570004857017443 
0.1400000000000009, -0.6585132462986404 
0.1499999999999998, -0.6612607474889887 
0.1599999999999987, -0.6657132013319208 
0.1699999999999976, -0.6723961026276224 
0.1799999999999965, -0.6818096207827119 
0.1899999999999954, -0.6942554416242732 
0.1999999999999943, -0.7095442777176851 
0.2099999999999932, -0.7266748312122651 
0.2199999999999921, -0.7438050405242216 
0.229999999999991, -0.7588551392860875 
0.2399999999999899, -0.7704709956864945 
0.2499999999999888, -0.7784865135356375 
0.2599999999999877, -0.783567110681337 
0.2699999999999866, -0.7865921732382989 
0.2799999999999855, -0.7882875019018166 
0.2899999999999844, -0.7891397502156808 
0.2999999999999833, -0.7894366013519871 
0.3099999999999822, -0.7893253921245493 
0.3199999999999811, -0.7888529397901409 
0.32999999999998, -0.787980483560174 
0.3399999999999789, -0.7865736025114275 
0.3499999999999778, -0.784363314930723 
0.35999999999997667, -0.7808682435459134 
0.36999999999997557, -0.7752646060639887 
0.37999999999997447, -0.7662110792314683 
0.38999999999997337, -0.7517454791452818 
0.39999999999997227, -0.7296760014457279 
0.40999999999997117, -0.6991509037108463 
0.41999999999997006, -0.662948262053267 
0.42999999999996896, -0.627372011475132 
0.43999999999996786, -0.5982834630924921 
0.44999999999996676, -0.5777948496554646 
0.45999999999996566, -0.5648237342583361 
0.46999999999996456, -0.5571980200770762 
0.47999999999996346, -0.5529637713128703 
0.48999999999996235, -0.5507404170138663 
0.49999999999996125, -0.5496541182238307 
0.5099999999999602, -0.5491824021908245 
0.519999999999959, -0.5490227019116874 
0.529999999999958, -0.5490027350821227 
0.5399999999999568, -0.5490245379342941 
0.5499999999999557, -0.5490312706124714 
0.5599999999999546, -0.5489888011635687 
0.5699999999999535, -0.5488771976887834 
0.5799999999999524, -0.5486891363033543 
0.5899999999999513, -0.5484323190405556 
0.5999999999999502, -0.5481316184726002 
0.6099999999999491, -0.5478259487495765 
0.619999999999948, -0.5475575927235916 
0.6299999999999469, -0.5473572876116827 
0.6399999999999458, -0.5472320759106648 
0.6499999999999447, -0.5471618632894247 
0.6599999999999436, -0.5471065007075745 
0.6699999999999425, -0.5470202317265291 
0.6799999999999414, -0.5468663684750749 
0.6899999999999403, -0.5466254154043573 
0.6999999999999392, -0.5462952046888283 
0.7099999999999381, -0.5458870512575256 
0.719999999999937, -0.5454232782951913 
0.7299999999999359, -0.5449399134811472 
0.7399999999999348, -0.544497202979035 
0.7499999999999337, -0.5442014187198178 
0.7599999999999326, -0.544244178399092 
0.7699999999999315, -0.5449694445153193 
0.7799999999999304, -0.5469811540115852 
0.7899999999999293, -0.5512966948232851 
0.7999999999999282, -0.5595032472092073 
0.8099999999999271, -0.5737196732369343 
0.819999999999926, -0.5958801336943772 
0.8299999999999249, -0.6258849079209196 
0.8399999999999238, -0.6597473137133678 
0.8499999999999227, -0.6909595835616974 
0.8599999999999216, -0.7149771193955129 
0.8699999999999205, -0.731311088853151 
0.8799999999999194, -0.7417384721469219 
0.8899999999999183, -0.7482311136580263 
0.8999999999999172, -0.7522319476638744 
0.9099999999999161, -0.7546683615432257 
0.919999999999915, -0.7561109193700168 
0.9299999999999139, -0.7569017750303488 
0.9399999999999128, -0.757236760446529 
0.9499999999999117, -0.7572128123772341 
0.9599999999999106, -0.7568507948428657 
0.9699999999999095, -0.7560993518410026 
0.9799999999999084, -0.7548227456223453 
0.9899999999999073, -0.7527775112622428 
0.9999999999999062, -0.7495950320923936 
1.0099999999999052, -0.7448148683466285 
1.019999999999904, -0.7380366459021852 
1.029999999999903, -0.7291987707478681 
1.039999999999902, -0.7188044450612523 
1.0499999999999008, -0.7078251169422258 
1.0599999999998997, -0.6972983066755096 
1.0699999999998986, -0.6879633357141939 
1.0799999999998975, -0.6801626710501535 
1.0899999999998964, -0.6739375700034042 
1.0999999999998953, -0.6691624754829141 
1.1099999999998942, -0.6656408575533035 
1.119999999999893, -0.6631567145791982 
1.129999999999892, -0.6614989365120734 
1.1399999999998909, -0.6604733866403156 
1.1499999999998898, -0.6599100137130579 
1.1599999999998887, -0.6596669829717878 
1.1699999999998876, -0.6596317837811433 
1.1799999999998865, -0.6597194516476448 
1.1899999999998854, -0.6598689511116805 
1.1999999999998843, -0.6600393291902081 
1.2099999999998832, -0.6602069809757636 
1.219999999999882, -0.6603641799657287 
1.229999999999881, -0.660517273383562 
1.2399999999998799, -0.6606818395182146 
1.2499999999998788, -0.66087330128684 
1.2599999999998777, -0.6610951010217406 
1.2699999999998766, -0.6613300485725916 
1.2799999999998755, -0.6615407066302244 
1.2899999999998744, -0.6616803480709572 
1.2999999999998733, -0.6617090432773967 
1.3099999999998722, -0.6616056348866867 
1.319999999999871, -0.6613703242417495 
1.32999999999987, -0.6610204801762334 
1.3399999999998689, -0.6605863422499902 
1.3499999999998678, -0.6601119668150164 
1.3599999999998666, -0.6596640320455276 
1.3699999999998655, -0.6593497951542038 
1.3799999999998644, -0.6593452950138311 
1.3899999999998633, -0.6599342585845579 
1.3999999999998622, -0.6615555691613492 
1.4099999999998611, -0.6648509008137993 
1.41999999999986, -0.6706910295989752 
1.429999999999859, -0.680133242387914 
1.4399999999998578, -0.6942194600860327 
1.4499999999998567, -0.7134972161535545 
1.4599999999998556, -0.7372721147323635 
1.4699999999998545, -0.7630663088392191 
1.4799999999998534, -0.7872004389976611 
1.4899999999998523, -0.8066087722729798 
1.4999999999998512, -0.8202751055201112 
1.5099999999998501, -0.8289881831901582 
1.519999999999849, -0.8341912438011745 
1.529999999999848, -0.8371614149338971 
1.5399999999998468, -0.8387723329092515 
1.5499999999998457, -0.8395492486532898 
1.5599999999998446, -0.8397808754598772 
1.5699999999998435, -0.8396038093299983 
1.5799999999998424, -0.839048155610314 
1.5899999999998413, -0.8380502297454665 
1.5999999999998402, -0.8364358642495306 
1.6099999999998391, -0.8338714081034373 
1.619999999999838, -0.829774924426634 
1.629999999999837, -0.8231861696403076 
1.6399999999998358, -0.8126366496113159 
1.6499999999998347, -0.7961994901671128 
1.6599999999998336, -0.7721624060689416 
1.6699999999998325, -0.7407413286965125 
1.6799999999998314, -0.7057911389001859 
1.6899999999998303, -0.6736316029328787 
1.6999999999998292, -0.6490198369720648 
1.709999999999828, -0.6328835463019734 
1.719999999999827, -0.6235202943607007 
1.729999999999826, -0.618622048216509 
1.7399999999998248, -0.6163281501130415 
1.7499999999998237, -0.6154196866127811 
1.7599999999998226, -0.6151822269101382 
1.7699999999998215, -0.6152252126912625 
1.7799999999998204, -0.6153448775681468 
1.7899999999998193, -0.615436968145573 
1.7999999999998182, -0.6154457081490335 
1.809999999999817, -0.6153357242354215 
1.819999999999816, -0.6150783569900169 
1.8299999999998149, -0.6146481932923307 
1.8399999999998138, -0.6140281194605794 
1.8499999999998127, -0.613220309422009 
1.8599999999998116, -0.6122562920503648 
1.8699999999998105, -0.611196252841115 
1.8799999999998094, -0.6101132136006127 
1.8899999999998083, -0.6090699427567918 
1.8999999999998072, -0.6081024585641905 
1.909999999999806, -0.6072176443201477 
1.919999999999805, -0.6064024778444969 
1.9299999999998039, -0.6056376055838589 
1.9399999999998028, -0.6049089261521745 
1.9499999999998017, -0.6042144566757697 
1.9599999999998006, -0.6035673244492407 
1.9699999999997995, -0.6029974104282338 
1.9799999999997984, -0.6025537906899928 
1.9899999999997973, -0.6023088665238501 
1.9999999999997962, -0.6023640556432931 
2.0099999999998173, -0.6028564916137414 
2.0199999999998384, -0.6039662000003364 
2.0299999999998595, -0.6059232793898939 
2.0399999999998806, -0.6090138941589494 
2.0499999999999017, -0.6135808158425633 
2.059999999999923, -0.6200063971309266 
2.069999999999944, -0.6286513751632292 
2.079999999999965, -0.639707999030391 
2.089999999999986, -0.6529444782929814 
2.100000000000007, -0.6674387374561658 
2.1100000000000283, -0.6816071385959211 
2.1200000000000494, -0.6937851728572044 
2.1300000000000705, -0.7030154724124823 
2.1400000000000916, -0.7093114239638969 
2.1500000000001127, -0.7132812701224802 
2.160000000000134, -0.7156373995843748 
2.170000000000155, -0.716942228258344 
2.180000000000176, -0.7175641688116262 
2.190000000000197, -0.7177151196443006 
2.2000000000002182, -0.717493941374304 
2.2100000000002393, -0.716911513004245 
2.2200000000002604, -0.7158923986651545 
2.2300000000002815, -0.7142495547844581 
2.2400000000003026, -0.711623418995139 
2.2500000000003237, -0.7073739946834338 
2.260000000000345, -0.7004362331166594 
2.270000000000366, -0.6892534373028512 
2.280000000000387, -0.6721415851485323 
2.290000000000408, -0.6485105579868365 
2.3000000000004293, -0.6203674802562646 
2.3100000000004504, -0.5920293204635645 
2.3200000000004715, -0.5675673060351941 
2.3300000000004926, -0.548802956064692 
2.3400000000005137, -0.5355055200630037 
2.3500000000005348, -0.526539810331444 
2.360000000000556, -0.5206882875454321 
2.370000000000577, -0.5169659693394473 
2.380000000000598, -0.5146612293279762 
2.390000000000619, -0.5132858148066458 
2.4000000000006403, -0.5125130800891899 
2.4100000000006614, -0.5121276157446328 
2.4200000000006825, -0.5119890290806789 
2.4300000000007036, -0.5120072865532658 
2.4400000000007247, -0.5121266199107646 
2.450000000000746, -0.5123157208616597 
2.460000000000767, -0.5125625334412642 
2.470000000000788, -0.512871952889177 
2.480000000000809, -0.5132641259532706 
2.49000000000083, -0.5137703780071938 
2.5000000000008513, -0.5144241034841968 
2.5100000000008724, -0.5152459134306578 
2.5200000000008935, -0.5162257944882556 
2.5300000000009146, -0.5173096460370097 
2.5400000000009357, -0.5184011841649058 
2.550000000000957, -0.5193858687322189 
2.560000000000978, -0.5201673602212532 
2.570000000000999, -0.5206935054879736 
2.58000000000102, -0.5209571062188727 
2.5900000000010412, -0.5209777946099937 
2.6000000000010624, -0.5207806140825775 
2.6100000000010835, -0.5203805182287959 
2.6200000000011046, -0.5197729067002421 
2.6300000000011257, -0.5189258401791913 
2.6400000000011468, -0.5177679486315 
2.650000000001168, -0.516162768607959 
2.660000000001189, -0.5138501285526551 
2.67000000000121, -0.5103118350465466 
2.680000000001231, -0.5044882816098415 
2.6900000000012523, -0.49433526033834985 
2.7000000000012734, -0.47673294324633203 
2.7100000000012945, -0.4493247265359542 
2.7200000000013156, -0.4145102679624559 
2.7300000000013367, -0.37985876319121714 
2.740000000001358, -0.35197756280065284 
2.750000000001379, -0.33249217761150557 
2.7600000000014, -0.3198133867341538 
2.770000000001421, -0.3117678663134237 
2.780000000001442, -0.30666870976099025 
2.7900000000014633, -0.3034144270464941 
2.8000000000014844, -0.30132922831071485 
2.8100000000015055, -0.30000690723229123 
2.8200000000015266, -0.2992056449903252 
2.8300000000015477, -0.29878484619283363 
2.840000000001569, -0.29866931108304834 
2.85000000000159, -0.2988303775173116 
2.860000000001611, -0.29927808938472666 
2.870000000001632, -0.30006146465523376 
2.8800000000016532, -0.3012757440299161 
2.8900000000016743, -0.3030761950804128 
2.9000000000016954, -0.30569682027027917 
2.9100000000017165, -0.30946619677674914 
2.9200000000017377, -0.3147950553573816 
2.9300000000017588, -0.32207582148936614 
2.94000000000178, -0.33141322074898305 
2.950000000001801, -0.34222660379982384 
2.960000000001822, -0.35312286182010355 
2.970000000001843, -0.36250729712304164 
2.9800000000018643, -0.36950217635045524 
2.9900000000018854, -0.37418062281530134 
3.0000000000019065, -0.37710328515112673 
3.0100000000019276, -0.37885164249636083 
3.0200000000019487, -0.37984806586565 
3.03000000000197, -0.380354396095061 
3.040000000001991, -0.3805176293175897 
3.050000000002012, -0.3804098991274885 
3.060000000002033, -0.38005434818635725 
3.070000000002054, -0.3794420434065323 
3.0800000000020753, -0.3785477306667827 
3.0900000000020964, -0.3773514220495854 
3.1000000000021175, -0.3758670766140126 
3.1100000000021386, -0.3741669349604398 
3.1200000000021597, -0.3723801217313129 
3.130000000002181, -0.37065654535737347 
3.140000000002202, -0.36911762535164266 
3.150000000002223, -0.3678263427678802 
3.160000000002244, -0.36678728818536366 
3.1700000000022652, -0.3659645767729667 
3.1800000000022863, -0.36530299877154676 
3.1900000000023074, -0.36474533560945893 
3.2000000000023285, -0.3642438103844133 
3.2100000000023496, -0.36376543038503784 
3.2200000000023707, -0.3632924803073364 
3.230000000002392, -0.36282081313523296 
3.240000000002413, -0.3623588529649274 
3.250000000002434, -0.361929638326318 
3.260000000002455, -0.36157781556202273 
3.2700000000024763, -0.3613836172209547 
3.2800000000024974, -0.3614853283888134 
3.2900000000025185, -0.3621052635138306 
3.3000000000025396, -0.363543672709914 
3.3100000000025607, -0.36600087640725343 
3.3200000000025818, -0.3688534163204767 
3.330000000002603, -0.36898479548960017 
3.340000000002624, -0.3597526823010328 
3.350000000002645, -0.33603875322864685 
3.360000000002666, -0.30308623677773616 
3.3700000000026873, -0.272468400060706 
3.3800000000027084, -0.25033353963581895 
3.3900000000027295, -0.23621973827657797 
3.4000000000027506, -0.22761310403896498 
3.4100000000027717, -0.22238310398772798 
3.420000000002793, -0.21916708791870687 
3.430000000002814, -0.2171674773262055 
3.440000000002835, -0.21592937094267656 
3.450000000002856, -0.21519614483389082 
3.460000000002877, -0.214827682961646 
3.4700000000028983, -0.21475699752520327 
3.4800000000029194, -0.2149695134575833 
3.4900000000029405, -0.21549688600417669 
3.5000000000029616, -0.21642220378284338 
3.5100000000029827, -0.21789674639417403 
3.520000000003004, -0.220170613265942 
3.530000000003025, -0.2236389357017822 
3.540000000003046, -0.22889439334697875 
3.550000000003067, -0.2367339426873393 
3.5600000000030882, -0.24796342032348107 
3.5700000000031094, -0.2627526182502698 
3.5800000000031305, -0.2796759035715687 
3.5900000000031516, -0.29571479328547634 
3.6000000000031727, -0.3081797780778658 
3.6100000000031938, -0.31642986859870476 
3.620000000003215, -0.32138727144087886 
3.630000000003236, -0.3242527512902988 
3.640000000003257, -0.3258977805620125 
3.650000000003278, -0.32683557962994125 
3.6600000000032993, -0.32734478018293317 
3.6700000000033204, -0.32757192770173776 
3.6800000000033415, -0.3275916824823753 
3.6900000000033626, -0.32743940838523505 
3.7000000000033837, -0.32713028517454185 
3.710000000003405, -0.3266737102206002 
3.720000000003426, -0.3260869466265342 
3.730000000003447, -0.32540692752285 
3.740000000003468, -0.32469466294992017 
3.750000000003489, -0.3240271085884297 
3.7600000000035103, -0.3234786982864182 
3.7700000000035314, -0.3231020117447835 
3.7800000000035525, -0.3229157813878015 
3.7900000000035736, -0.32290188589625224 
3.8000000000035947, -0.323010120411286 
3.810000000003616, -0.32317051817197884 
3.820000000003637, -0.32331119944084213 
3.830000000003658, -0.32337471584874944 
3.840000000003679, -0.32332509107586543 
3.8500000000037002, -0.32314388387986004 
3.8600000000037213, -0.32281965986752353 
3.8700000000037424, -0.32233551774130803 
3.8800000000037635, -0.3216553757031225 
3.8900000000037847, -0.3207049689853145 
3.9000000000038058, -0.3193383280582204 
3.910000000003827, -0.3172737066889823 
3.920000000003848, -0.31397921585731875 
3.930000000003869, -0.3085212495409381 
3.94000000000389, -0.2995559510358674 
3.9500000000039113, -0.2859654781589868 
3.9600000000039324, -0.2683489134572453 
3.9700000000039535, -0.24969114039343415 
3.9800000000039746, -0.2334025210725171 
3.9900000000039957, -0.2210561476911396 
4.000000000004016, -0.21240996839760173 
4.010000000003993, -0.20653753728917645 
4.02000000000397, -0.2025534371665622 
4.030000000003946, -0.19981420563101043 
4.040000000003923, -0.1978982755452802 
4.0500000000039, -0.19654229059195946 
4.0600000000038765, -0.1955884307738116 
4.070000000003853, -0.1949505132927957 
4.08000000000383, -0.19459575816258445 
4.090000000003807, -0.1945391636495939 
4.100000000003783, -0.19485012165962692 
4.11000000000376, -0.19567469139542504 
4.120000000003737, -0.19728250201361566 
4.130000000003713, -0.2001554881942456 
4.14000000000369, -0.20514346660875754 
4.150000000003667, -0.21369216885183273 
4.1600000000036434, -0.22798195721931128 
4.17000000000362, -0.25018128288220487 
4.180000000003597, -0.27910663680053766 
4.1900000000035735, -0.30565633887794297 
4.20000000000355, -0.31792336528384874 
4.210000000003527, -0.31518473247474177 
4.220000000003504, -0.306337486099842 
4.23000000000348, -0.2981320513025814 
4.240000000003457, -0.2924329482775266 
4.250000000003434, -0.2888943908811976 
4.26000000000341, -0.2867959688413765 
4.270000000003387, -0.2855795057311939 
4.280000000003364, -0.28489130600752255 
4.2900000000033405, -0.2845226555243392 
4.300000000003317, -0.2843547862087132 
4.310000000003294, -0.28432347297141486 
4.320000000003271, -0.2843991551508327 
4.330000000003247, -0.28457724151983044 
4.340000000003224, -0.2848749167329514 
4.350000000003201, -0.2853319883089185 
4.360000000003177, -0.2860136911406991 
4.370000000003154, -0.2870130464769695 
4.380000000003131, -0.2884491325311864 
4.390000000003107, -0.2904544226664189 
4.400000000003084, -0.2931391836900951 
4.410000000003061, -0.2965215664625004 
4.4200000000030375, -0.30043910488818615 
4.430000000003014, -0.3045163012928994 
4.440000000002991, -0.3082756746989295 
4.450000000002968, -0.3113480699787171 
4.460000000002944, -0.3136024096100462 
4.470000000002921, -0.31510761069449594 
4.480000000002898, -0.3160161164273546 
4.490000000002874, -0.31647475813849274 
4.500000000002851, -0.31658759079249094 
4.510000000002828, -0.31640991019300013 
4.520000000002804, -0.3159526608766115 
4.530000000002781, -0.31518862838433714 
4.540000000002758, -0.31406172822255607 
4.5500000000027345, -0.3125072729044476 
4.560000000002711, -0.31049160658307473 
4.570000000002688, -0.30806482412493597 
4.580000000002665, -0.30539084462769023 
4.590000000002641, -0.3027122102513052 
4.600000000002618, -0.30025997288059747 
4.610000000002595, -0.29817688706352147 
4.620000000002571, -0.29650125158761365 
4.630000000002548, -0.29519649110797685 
4.640000000002525, -0.29418972155283246 
4.6500000000025015, -0.2933999689932638 
4.660000000002478, -0.2927543994185967 
4.670000000002455, -0.2921960280623818 
4.6800000000024315, -0.29168569616689155 
4.690000000002408, -0.29120053160340287 
4.700000000002385, -0.2907311994097476 
4.710000000002362, -0.29027996921763843 
4.720000000002338, -0.2898608340039642 
4.730000000002315, -0.2895017951368356 
4.740000000002292, -0.2892469449406803 
4.750000000002268, -0.28914749364174475 
4.760000000002245, -0.28920214110025333 
4.770000000002222, -0.289124454499032 
4.7800000000021985, -0.28765944225870055 
4.790000000002175, -0.28129326381050557 
4.800000000002152, -0.2641207474001622 
4.810000000002129, -0.23353434078450927 
4.820000000002105, -0.19734524328812858 
4.830000000002082, -0.16683770226183547 
4.840000000002059, -0.14605030001804337 
4.850000000002035, -0.13316683248465874 
4.860000000002012, -0.12534526224264164 
4.870000000001989, -0.12052839207703206 
4.880000000001965, -0.11748617803105618 
4.890000000001942, -0.11552332600748491 
