t, s[1].omega / s[0].omega 
0, -1.5099942882420412 
0.009999999999999995, -1.5091651743796586 
0.019999999999999934, -1.507824870264401 
0.029999999999999874, -1.505971781498627 
0.04000000000000012, -1.5036031960937577 
0.050000000000000405, -1.5007155867556101 
0.06000000000000069, -1.4973050352404231 
0.07000000000000098, -1.4933677874393463 
0.08000000000000126, -1.488900961439976 
0.09000000000000155, -1.4839034763146315 
0.10000000000000184, -1.4783773717100295 
0.11000000000000212, -1.4723298587789102 
0.12000000000000241, -1.465776646845583 
0.130000000000002, -1.4587472128173526 
0.1400000000000009, -1.4512925207704372 
0.1499999999999998, -1.443495023212326 
0.1599999999999987, -1.4354794454034638 
0.1699999999999976, -1.4274210225680426 
0.1799999999999965, -1.419546174625756 
0.1899999999999954, -1.4121202678378624 
0.1999999999999943, -1.4054195054883138 
0.2099999999999932, -1.3996896018595617 
0.2199999999999921, -1.3951010154567165 
0.229999999999991, -1.3917151111294568 
0.2399999999999899, -1.3894736820035776 
0.2499999999999888, -1.3882155029289664 
0.2599999999999877, -1.387712711878686 
0.2699999999999866, -1.3877132043130367 
0.2799999999999855, -1.3879759086931125 
0.2899999999999844, -1.3882917309864427 
0.2999999999999833, -1.388489625548881 
0.3099999999999822, -1.3884314040742447 
0.3199999999999811, -1.387999895461406 
0.32999999999998, -1.3870840095725845 
0.3399999999999789, -1.3855625084144196 
0.3499999999999778, -1.3832867070914423 
0.35999999999997667, -1.3800611961929845 
0.36999999999997557, -1.3756209585816015 
0.37999999999997447, -1.36960284477025 
0.38999999999997337, -1.3615092786484457 
0.39999999999997227, -1.3506625316081153 
0.40999999999997117, -1.3361495538490595 
0.41999999999997006, -1.3167613892879695 
0.42999999999996896, -1.2909395492869948 
0.43999999999996786, -1.2567567216574287 
0.44999999999996676, -1.2119818140230743 
0.45999999999996566, -1.1543040977858294 
0.46999999999996456, -1.0817969008630286 
0.47999999999996346, -0.9936438654998145 
0.48999999999996235, -0.8909834117638065 
0.49999999999996125, -0.7774801655350569 
0.5099999999999602, -0.659111730603976 
0.519999999999959, -0.5429535657973086 
0.529999999999958, -0.43541199937055647 
0.5399999999999568, -0.3408056845605541 
0.5499999999999557, -0.2609194969521268 
0.5599999999999546, -0.1954519966386225 
0.5699999999999535, -0.1428445644955999 
0.5799999999999524, -0.10103731559488424 
0.5899999999999513, -0.06796367071364963 
0.5999999999999502, -0.0417956264724899 
0.6099999999999491, -0.021023274700509343 
0.619999999999948, -0.004447215009691598 
0.6299999999999469, 0.008114501471657423 
0.6399999999999458, 0.017789898880849968 
0.6499999999999447, 0.0254673198968884 
0.6599999999999436, 0.03156529181310837 
0.6699999999999425, 0.03640362275734173 
0.6799999999999414, 0.040227279504761106 
0.6899999999999403, 0.04322426587421328 
0.6999999999999392, 0.04553889079535299 
0.7099999999999381, 0.04728155852625838 
0.719999999999937, 0.048535951774239854 
0.7299999999999359, 0.04936425403283036 
0.7399999999999348, 0.04981087856153389 
0.7499999999999337, 0.04990503344021584 
0.7599999999999326, 0.049662346737953666 
0.7699999999999315, 0.04908569491767779 
0.7799999999999304, 0.04816531462281966 
0.7899999999999293, 0.04687822867910737 
0.7999999999999282, 0.04518698018312829 
0.8099999999999271, 0.043037647074316426 
0.819999999999926, 0.040357114279392425 
0.8299999999999249, 0.03704963578936653 
0.8399999999999238, 0.032992874888255266 
0.8499999999999227, 0.028033964915924626 
0.8599999999999216, 0.02198687078531382 
0.8699999999999205, 0.014633795237473208 
0.8799999999999194, 0.005736174922847267 
0.8899999999999183, -0.004452531506111841 
0.8999999999999172, -0.015948479592855554 
0.9099999999999161, -0.02926672448579415 
0.919999999999915, -0.04378830227282728 
0.9299999999999139, -0.05784499322108405 
0.9399999999999128, -0.06783248091530111 
0.9499999999999117, -0.06684127620528407 
0.9599999999999106, -0.04288737389318921 
0.9699999999999095, 0.022012296417983728 
0.9799999999999084, 0.14887859356157584 
0.9899999999999073, 0.34839869815528457 
0.9999999999999062, 0.592870729743814 
1.0099999999999052, 0.8194717344980308 
1.019999999999904, 0.9836330967680135 
1.029999999999903, 1.0856011052385195 
1.039999999999902, 1.1451660372053951 
1.0499999999999008, 1.179774388358941 
1.0599999999998997, 1.2002292037586968 
1.0699999999998986, 1.2125451052856564 
1.0799999999998975, 1.2200021055987038 
1.0899999999998964, 1.2244059385781627 
1.0999999999998953, 1.226764028112984 
1.1099999999998942, 1.2276371928565326 
1.119999999999893, 1.227323511695545 
1.129999999999892, 1.2259562251460598 
1.1399999999998909, 1.223557833251325 
1.1499999999998898, 1.2200734091152665 
1.1599999999998887, 1.215397745265644 
1.1699999999998876, 1.2094077944453123 
1.1799999999998865, 1.2020101028059251 
1.1899999999998854, 1.1932082720714832 
1.1999999999998843, 1.1831830326857093 
1.2099999999998832, 1.1723559640456485 
1.219999999999882, 1.1613884783739483 
1.229999999999881, 1.1510766992770505 
1.2399999999998799, 1.1421577681194612 
1.2499999999998788, 1.1351128388472547 
1.2599999999998777, 1.1300676522633262 
1.2699999999998766, 1.1268280029126847 
1.2799999999998755, 1.125004186420291 
1.2899999999998744, 1.1241467028603986 
1.2999999999998733, 1.12384073208795 
1.3099999999998722, 1.123747851251832 
1.319999999999871, 1.1236083438251936 
1.32999999999987, 1.1232224366779742 
1.3399999999998689, 1.122423533753607 
1.3499999999998678, 1.121049493607368 
1.3599999999998666, 1.118912730690336 
1.3699999999998655, 1.1157667232659987 
1.3799999999998644, 1.1112648501885924 
1.3899999999998633, 1.1049075927264276 
1.3999999999998622, 1.0959789129583741 
1.4099999999998611, 1.083491839119696 
1.41999999999986, 1.0662232100213513 
1.429999999999859, 1.0430738761176992 
1.4399999999998578, 1.0143020178972926 
1.4499999999998567, 0.9844437924712152 
1.4599999999998556, 0.9666837129264039 
1.4699999999998545, 0.9835489064372507 
1.4799999999998534, 1.0531018032408614 
1.4899999999998523, 1.1640227217371393 
1.4999999999998512, 1.2775246088339864 
1.5099999999998501, 1.3642656076192652 
1.519999999999849, 1.4204964859016587 
1.529999999999848, 1.4544974151051404 
1.5399999999998468, 1.4746894259281784 
1.5499999999998457, 1.4866616673952946 
1.5599999999998446, 1.4936697472887197 
1.5699999999998435, 1.4975260968760562 
1.5799999999998424, 1.4992058873860916 
1.5899999999998413, 1.4991831833263944 
1.5999999999998402, 1.4975952801923293 
1.6099999999998391, 1.4943005092567587 
1.619999999999838, 1.4888602695328332 
1.629999999999837, 1.4804561863086603 
1.6399999999998358, 1.4677560491359234 
1.6499999999998347, 1.4487989366727023 
1.6599999999998336, 1.4211555235860114 
1.6699999999998325, 1.3829755054005712 
1.6799999999998314, 1.3355720073737336 
1.6899999999998303, 1.2862654234656572 
1.6999999999998292, 1.2466912961870877 
1.709999999999828, 1.2249463637308644 
1.719999999999827, 1.220214331468397 
1.729999999999826, 1.2259274085874146 
1.7399999999998248, 1.2355673760987436 
1.7499999999998237, 1.2452211594017495 
1.7599999999998226, 1.253271432030142 
1.7699999999998215, 1.2593659317120591 
1.7799999999998204, 1.2636654823376787 
1.7899999999998193, 1.266465575276002 
1.7999999999998182, 1.2680466495073797 
1.809999999999817, 1.2686317643603893 
1.819999999999816, 1.2683879288226911 
1.8299999999998149, 1.2674446862036843 
1.8399999999998138, 1.265922270126545 
1.8499999999998127, 1.2639700381099641 
1.8599999999998116, 1.2618182311541386 
1.8699999999998105, 1.2598419335343123 
1.8799999999998094, 1.258621353595983 
1.8899999999998083, 1.2589545577346986 
1.8999999999998072, 1.2617505896235177 
1.909999999999806, 1.2677486137599578 
1.919999999999805, 1.2771280425942813 
1.9299999999998039, 1.2892497939169085 
1.9399999999998028, 1.3027840478341761 
1.9499999999998017, 1.3161990213362262 
1.9599999999998006, 1.3282768616042557 
1.9699999999997995, 1.3383540186633238 
1.9799999999997984, 1.346264696787423 
1.9899999999997973, 1.3521489090758965 
1.9999999999997962, 1.356269309275879 
2.0099999999998173, 1.3588906873736843 
2.0199999999998384, 1.3602156141334891 
2.0299999999998595, 1.36035123481997 
2.0399999999998806, 1.3592833807092393 
2.0499999999999017, 1.3568374221118285 
2.059999999999923, 1.3526022520242706 
2.069999999999944, 1.3457786501581068 
2.079999999999965, 1.3348759475990806 
2.089999999999986, 1.3171015735751073 
2.100000000000007, 1.2871448133093932 
2.1100000000000283, 1.2349350635215515 
2.1200000000000494, 1.1426786354651886 
2.1300000000000705, 0.9863990263260562 
2.1400000000000916, 0.757980015287492 
2.1500000000001127, 0.5037949359694732 
2.160000000000134, 0.3035672631850174 
2.170000000000155, 0.19461363089193282 
2.180000000000176, 0.16194860023987037 
2.190000000000197, 0.17480536023586277 
2.2000000000002182, 0.2080900166142372 
2.2100000000002393, 0.24647006267903615 
2.2200000000002604, 0.2823131914420653 
2.2300000000002815, 0.31272970149981844 
2.2400000000003026, 0.33727990710853323 
2.2500000000003237, 0.3565653040344966 
2.260000000000345, 0.37149426779305866 
2.270000000000366, 0.3829555388038772 
2.280000000000387, 0.3917024666557339 
2.290000000000408, 0.39833236061109345 
2.3000000000004293, 0.4033021692658183 
2.3100000000004504, 0.4069538490661788 
2.3200000000004715, 0.4095387643004821 
2.3300000000004926, 0.41123766898433284 
2.3400000000005137, 0.41217574782418964 
2.3500000000005348, 0.41243318800587925 
2.360000000000556, 0.4120519362806302 
2.370000000000577, 0.4110391640516267 
2.380000000000598, 0.4093677196612237 
2.390000000000619, 0.4069735619187077 
2.4000000000006403, 0.403749855774416 
2.4100000000006614, 0.39953706506025893 
2.4200000000006825, 0.3941080021177116 
2.4300000000007036, 0.387146441519225 
2.4400000000007247, 0.378217757063465 
2.450000000000746, 0.36673059321877954 
2.460000000000767, 0.3518910272251227 
2.470000000000788, 0.3326576343137252 
2.480000000000809, 0.30772249271141966 
2.49000000000083, 0.27557798805675326 
2.5000000000008513, 0.23479175964268112 
2.5100000000008724, 0.18469956172085075 
2.5200000000008935, 0.12679291507976398 
2.5300000000009146, 0.06701471503895116 
2.5400000000009357, 0.01887866508634205 
2.550000000000957, 0.006813664332407026 
2.560000000000978, 0.06779971143907383 
2.570000000000999, 0.24321501878321494 
2.58000000000102, 0.5399178121495144 
2.5900000000010412, 0.8748224756414436 
2.6000000000010624, 1.1319628303593858 
2.6100000000010835, 1.2833885481037024 
2.6200000000011046, 1.3635965453947865 
2.6300000000011257, 1.4058665572693663 
2.6400000000011468, 1.4288681617870866 
2.650000000001168, 1.441812195605644 
2.660000000001189, 1.4492073894216921 
2.67000000000121, 1.4533219256109968 
2.680000000001231, 1.4553273589853326 
2.6900000000012523, 1.4558279187236642 
2.7000000000012734, 1.4551112336982621 
2.7100000000012945, 1.4532703079090792 
2.7200000000013156, 1.4502652799878615 
2.7300000000013367, 1.4459601638110724 
2.740000000001358, 1.440158282945707 
2.750000000001379, 1.432658620639152 
2.7600000000014, 1.4233545126682434 
2.770000000001421, 1.4123815356151104 
2.780000000001442, 1.4002750952877059 
2.7900000000014633, 1.3880262898925058 
2.8000000000014844, 1.3769025146974547 
2.8100000000015055, 1.3680327700700792 
2.8200000000015266, 1.3619890660728964 
2.8300000000015477, 1.3586502739288544 
2.840000000001569, 1.3573991358924566 
2.85000000000159, 1.357451872577382 
2.860000000001611, 1.358107548710459 
2.870000000001632, 1.3588480965046648 
2.8800000000016532, 1.3593301034926077 
2.8900000000016743, 1.3593312089301632 
2.9000000000016954, 1.3586910969770947 
2.9100000000017165, 1.3572622239206749 
2.9200000000017377, 1.3548723720949634 
2.9300000000017588, 1.3512989298580125 
2.94000000000178, 1.3462616151759785 
2.950000000001801, 1.339459211549038 
2.960000000001822, 1.3307150657527804 
2.970000000001843, 1.3203576144918723 
2.9800000000018643, 1.3099864958321852 
2.9900000000018854, 1.3035068071129055 
3.0000000000019065, 1.3073281303525266 
3.0100000000019276, 1.3275275037870669 
3.0200000000019487, 1.3640757490388407 
3.03000000000197, 1.4085847313331614 
3.040000000001991, 1.4503084218094817 
3.050000000002012, 1.4831482762941404 
3.060000000002033, 1.5064048526044196 
3.070000000002054, 1.521937424513403 
3.0800000000020753, 1.5319458957895131 
3.0900000000020964, 1.5381502803361082 
3.1000000000021175, 1.5416968612732043 
3.1100000000021386, 1.543270052713734 
3.1200000000021597, 1.5432051514620577 
3.130000000002181, 1.541546390238742 
3.140000000002202, 1.5380347543195434 
3.150000000002223, 1.532003278007226 
3.160000000002244, 1.5221253050020547 
3.1700000000022652, 1.505905255499422 
3.1800000000022863, 1.478749290939767 
3.1900000000023074, 1.432638398799799 
3.2000000000023285, 1.3558803154243513 
3.2100000000023496, 1.2399901570289922 
3.2200000000023707, 1.1002478514620475 
3.230000000002392, 0.9848250181963887 
3.240000000002413, 0.9328853399971797 
3.250000000002434, 0.93817654870595 
3.260000000002455, 0.9708031474618536 
3.2700000000024763, 1.0073888734874936 
3.2800000000024974, 1.0379191888232 
3.2900000000025185, 1.0605553794840457 
3.3000000000025396, 1.076480634868009 
3.3100000000025607, 1.087411120276367 
3.3200000000025818, 1.094794441905316 
3.330000000002603, 1.0996831586379912 
3.340000000002624, 1.1028026960281527 
3.350000000002645, 1.1046462455505492 
3.360000000002666, 1.1055530920083225 
3.3700000000026873, 1.105766141701044 
3.3800000000027084, 1.1054740088824586 
3.3900000000027295, 1.1048436798946906 
3.4000000000027506, 1.1040481109023392 
3.4100000000027717, 1.1032906587742703 
3.420000000002793, 1.1028249083047104 
3.430000000002814, 1.1029640127637752 
3.440000000002835, 1.104068986425764 
3.450000000002856, 1.1065038486535868 
3.460000000002877, 1.110553086167611 
3.4700000000028983, 1.1163177399580866 
3.4800000000029194, 1.123633251031256 
3.4900000000029405, 1.1320615985238185 
3.5000000000029616, 1.1409803877252456 
3.5100000000029827, 1.1497346403262418 
3.520000000003004, 1.1577799649645746 
3.530000000003025, 1.1647603574578247 
3.540000000003046, 1.170510648820722 
3.550000000003067, 1.1750101860071853 
3.5600000000030882, 1.1783215816540817 
3.5700000000031094, 1.1805362903072072 
3.5800000000031305, 1.181733876248874 
3.5900000000031516, 1.181952224517518 
3.6000000000031727, 1.1811615870932275 
3.6100000000031938, 1.1792332177163682 
3.620000000003215, 1.1758902988578728 
3.630000000003236, 1.1706218321456416 
3.640000000003257, 1.1625248404650963 
3.650000000003278, 1.1500092361078698 
3.6600000000032993, 1.1302426148915499 
3.6700000000033204, 1.0981318358739918 
3.6800000000033415, 1.0446516682928138 
3.6900000000033626, 0.9550738456737591 
3.7000000000033837, 0.8109570314682961 
3.710000000003405, 0.6050816108024746 
3.720000000003426, 0.36601854676893036 
3.730000000003447, 0.15010834768125583 
3.740000000003468, -0.0052958753171740355 
3.750000000003489, -0.09835924280491005 
3.7600000000035103, -0.14673406195927238 
3.7700000000035314, -0.16754297050076233 
3.7800000000035525, -0.17307193251879044 
3.7900000000035736, -0.17092935134112608 
3.8000000000035947, -0.16544996665772224 
3.810000000003616, -0.158945173692419 
3.820000000003637, -0.15255841264361725 
3.830000000003658, -0.14679211719098265 
3.840000000003679, -0.14181392429796968 
3.8500000000037002, -0.13762739591346632 
3.8600000000037213, -0.1341637854656599 
3.8700000000037424, -0.13132941915392848 
3.8800000000037635, -0.12902885163073216 
3.8900000000037847, -0.12717518056448343 
3.9000000000038058, -0.12569379304282072 
3.910000000003827, -0.12452292583947497 
3.920000000003848, -0.12361282142665787 
3.930000000003869, -0.12292439164530336 
3.94000000000389, -0.12242783625357576 
3.9500000000039113, -0.12210142057438746 
3.9600000000039324, -0.12193049316281364 
3.9700000000039535, -0.12190676484774665 
3.9800000000039746, -0.12202784428645194 
3.9900000000039957, -0.12229701601998864 
4.000000000004016, -0.12272324638183754 
4.010000000003993, -0.12332140618849295 
4.02000000000397, -0.12411270496039974 
4.030000000003946, -0.12512533877611912 
4.040000000003923, -0.12639536264497625 
4.0500000000039, -0.12796780849369796 
4.0600000000038765, -0.12989808112614332 
4.070000000003853, -0.13225367551558279 
4.08000000000383, -0.13511626653685752 
4.090000000003807, -0.13858422109947757 
4.100000000003783, -0.14277556295984603 
4.11000000000376, -0.14783136677506928 
4.120000000003737, -0.15391944647972813 
4.130000000003713, -0.16123799941144304 
4.14000000000369, -0.17001852601804132 
4.150000000003667, -0.18052681416672808 
4.1600000000036434, -0.1930600225558578 
4.17000000000362, -0.2079369574473284 
4.180000000003597, -0.22547772989071962 
4.1900000000035735, -0.24596866862853542 
4.20000000000355, -0.26960968867302015 
4.210000000003527, -0.29644566460723504 
4.220000000003504, -0.3262916305842113 
4.23000000000348, -0.3586724550883105 
4.240000000003457, -0.39280554638678916 
4.250000000003434, -0.4276514842069438 
4.26000000000341, -0.4620367596687676 
4.270000000003387, -0.49482139690457594 
4.280000000003364, -0.525060804855167 
4.2900000000033405, -0.5521128921921553 
4.300000000003317, -0.575667561106336 
4.310000000003294, -0.5957080074961653 
4.320000000003271, -0.6124329917549215 
4.330000000003247, -0.6261708140999335 
4.340000000003224, -0.6373057005627245 
4.350000000003201, -0.6462250864567167 
4.360000000003177, -0.6532875183680592 
4.370000000003154, -0.6588067111565323 
4.380000000003131, -0.6630464350324282 
4.390000000003107, -0.6662217084514815 
4.400000000003084, -0.6685030576669142 
4.410000000003061, -0.6700217802776134 
4.4200000000030375, -0.6708750209846557 
4.430000000003014, -0.6711300321683077 
4.440000000002991, -0.6708273172100097 
4.450000000002968, -0.6699825143533443 
4.460000000002944, -0.6685869310512766 
4.470000000002921, -0.6666066216045772 
4.480000000002898, -0.6639798371411922 
4.490000000002874, -0.6606125789641523 
4.500000000002851, -0.6563718620250287 
4.510000000002828, -0.6510761561830133 
4.520000000002804, -0.6444823463769285 
4.530000000002781, -0.6362685053805334 
4.540000000002758, -0.6260119532870345 
4.5500000000027345, -0.6131627938524964 
4.560000000002711, -0.5970149546591711 
4.570000000002688, -0.5766807155611768 
4.580000000002665, -0.5510822037629544 
4.590000000002641, -0.5189855681321419 
4.600000000002618, -0.4791191323416559 
4.610000000002595, -0.4304261922739846 
4.620000000002571, -0.3724810728476612 
4.630000000002548, -0.3060066610860129 
4.640000000002525, -0.23326902692530305 
4.6500000000025015, -0.15800480999479222 
4.660000000002478, -0.0846818865501823 
4.670000000002455, -0.017346045932323324 
4.6800000000024315, 0.0405455478529581 
4.690000000002408, 0.0884816030868144 
4.700000000002385, 0.1271181041268577 
4.710000000002362, 0.1575808908154395 
4.720000000002338, 0.18126963147474476 
4.730000000002315, 0.19954483050995517 
4.740000000002292, 0.21358295236614167 
4.750000000002268, 0.22433814037165814 
4.760000000002245, 0.232556824374375 
4.770000000002222, 0.2388118357422651 
4.7800000000021985, 0.2435391756471692 
4.790000000002175, 0.24707051004745947 
4.800000000002152, 0.24965946412814788 
4.810000000002129, 0.2515019388286594 
4.820000000002105, 0.25275140163886783 
4.830000000002082, 0.25353021063587294 
4.840000000002059, 0.2539379083642056 
4.850000000002035, 0.25405724538239727 
4.860000000002012, 0.25395852935153634 
4.870000000001989, 0.2537027629861557 
4.880000000001965, 0.25334393185521764 
4.890000000001942, 0.2529307235963741 
4.900000000001919, 0.2525078961063914 
4.9100000000018955, 0.2521174582050145 
4.920000000001872, 0.251799778826913 
4.930000000001849, 0.25159469804356405 
4.940000000001826, 0.2515426734706123 
4.950000000001802, 0.25168595645060465 
4.960000000001779, 0.2520697501096551 
4.970000000001756, 0.25274325112258855 
