t, s[1].omega / s[0].omega 
0, -1.2399973107313507 
0.009999999999999995, -1.2395648744755183 
0.019999999999999934, -1.2388106709297153 
0.029999999999999874, -1.2377431032689643 
0.04000000000000012, -1.2363832843932536 
0.050000000000000405, -1.2347721249840466 
0.06000000000000069, -1.23297497558563 
0.07000000000000098, -1.2310826684631913 
0.08000000000000126, -1.2292130204102811 
0.09000000000000155, -1.2275157857325227 
0.10000000000000184, -1.2261617592728966 
0.11000000000000212, -1.225282164088381 
0.12000000000000241, -1.2248792860682036 
0.130000000000002, -1.2248014460384724 
0.1400000000000009, -1.2248176124057135 
0.1499999999999998, -1.2247049302211208 
0.1599999999999987, -1.2242705830432015 
0.1699999999999976, -1.223318394668145 
0.1799999999999965, -1.2216059777479409 
0.1899999999999954, -1.218827327803341 
0.1999999999999943, -1.2146413346681124 
0.2099999999999932, -1.2087444060719634 
0.2199999999999921, -1.2009504266834683 
0.229999999999991, -1.191233253828111 
0.2399999999999899, -1.1797375072029375 
0.2499999999999888, -1.1668218561314687 
0.2599999999999877, -1.153184993048799 
0.2699999999999866, -1.1400035837060765 
0.2799999999999855, -1.128822177473954 
0.2899999999999844, -1.1209450374887115 
0.2999999999999833, -1.1166510904299018 
0.3099999999999822, -1.1150834959948448 
0.3199999999999811, -1.1149657284754872 
0.32999999999998, -1.1153073586230935 
0.3399999999999789, -1.1155729258093052 
0.3499999999999778, -1.1155160383844924 
0.35999999999997667, -1.1149766550454687 
0.36999999999997557, -1.1137278697061657 
0.37999999999997447, -1.1113358243696858 
0.38999999999997337, -1.1069769125691764 
0.39999999999997227, -1.0991928960730142 
0.40999999999997117, -1.085693295870735 
0.41999999999997006, -1.0635856241827273 
0.42999999999996896, -1.0305817432914344 
0.43999999999996786, -0.9870379097743601 
0.44999999999996676, -0.9371507659472676 
0.45999999999996566, -0.8875950091995416 
0.46999999999996456, -0.8444742661463794 
0.47999999999996346, -0.8111272453816378 
0.48999999999996235, -0.7879235313095666 
0.49999999999996125, -0.7733035027297006 
0.5099999999999602, -0.7649792539467261 
0.519999999999959, -0.7607609970566829 
0.529999999999958, -0.7589427589487953 
0.5399999999999568, -0.7583703648334563 
0.5499999999999557, -0.7583442405018681 
0.5599999999999546, -0.7584745174942238 
0.5699999999999535, -0.758552687119901 
0.5799999999999524, -0.7584604624335863 
0.5899999999999513, -0.758113658279672 
0.5999999999999502, -0.7574334942661655 
0.6099999999999491, -0.7563411902747085 
0.619999999999948, -0.7547751551878409 
0.6299999999999469, -0.7527248496798742 
0.6399999999999458, -0.7502599736994886 
0.6499999999999447, -0.7475258266678072 
0.6599999999999436, -0.7446982359177338 
0.6699999999999425, -0.7419276975850762 
0.6799999999999414, -0.7393081783800132 
0.6899999999999403, -0.7368791895211115 
0.6999999999999392, -0.7346468622493231 
0.7099999999999381, -0.7326072686798648 
0.719999999999937, -0.7307628395028383 
0.7299999999999359, -0.7291297316879479 
0.7399999999999348, -0.727737614456537 
0.7499999999999337, -0.7266244008667756 
0.7599999999999326, -0.7258283986063819 
0.7699999999999315, -0.7253801576943669 
0.7799999999999304, -0.7252960872399205 
0.7899999999999293, -0.7255754261333291 
0.7999999999999282, -0.7262013020478577 
0.8099999999999271, -0.7271455977448998 
0.819999999999926, -0.7283764153819977 
0.8299999999999249, -0.7298662468297383 
0.8399999999999238, -0.7315985131859261 
0.8499999999999227, -0.7335697667287449 
0.8599999999999216, -0.7357845680614301 
0.8699999999999205, -0.7382405600472565 
0.8799999999999194, -0.7409040814631813 
0.8899999999999183, -0.743683575027357 
0.8999999999999172, -0.7464182313746267 
0.9099999999999161, -0.7489027514932992 
0.919999999999915, -0.7509490171432035 
0.9299999999999139, -0.7524487694113674 
0.9399999999999128, -0.7533932701588235 
0.9499999999999117, -0.7538448711847618 
0.9599999999999106, -0.7538927720496892 
0.9699999999999095, -0.7536233311178865 
0.9799999999999084, -0.7531147449465501 
0.9899999999999073, -0.7524553960338057 
0.9999999999999062, -0.7517883937539108 
1.0099999999999052, -0.7513936181024988 
1.019999999999904, -0.7518248986627982 
1.029999999999903, -0.754114190269475 
1.039999999999902, -0.760021574161855 
1.0499999999999008, -0.7722308023192962 
1.0599999999998997, -0.7942509463840003 
1.0699999999998986, -0.8296098824714802 
1.0799999999998975, -0.879928569212867 
1.0899999999998964, -0.9422787863134456 
1.0999999999998953, -1.008143813012383 
1.1099999999998942, -1.066720779641558 
1.119999999999893, -1.11082085063224 
1.129999999999892, -1.1396234971210106 
1.1399999999998909, -1.1565374887814033 
1.1499999999998898, -1.1657851037237437 
1.1599999999998887, -1.1705904083912002 
1.1699999999998876, -1.1729350315018416 
1.1799999999998865, -1.1739053601825802 
1.1899999999998854, -1.1740612565245463 
1.1999999999998843, -1.1736897249089697 
1.2099999999998832, -1.172979704550019 
1.219999999999882, -1.1721878296728123 
1.229999999999881, -1.1718277667404962 
1.2399999999998799, -1.172773045984122 
1.2499999999998788, -1.175993425990819 
1.2599999999998777, -1.1818960679102608 
1.2699999999998766, -1.1899275894203478 
1.2799999999998755, -1.1989533039083626 
1.2899999999998744, -1.207920618741277 
1.2999999999998733, -1.2161671015016282 
1.3099999999998722, -1.2233676119898749 
1.319999999999871, -1.2293853764685312 
1.32999999999987, -1.2341748384401476 
1.3399999999998689, -1.237753759551582 
1.3499999999998678, -1.2402089272781553 
1.3599999999998666, -1.2416934077517283 
1.3699999999998655, -1.2423983581306282 
1.3799999999998644, -1.242516029476932 
1.3899999999998633, -1.2422203266974023 
1.3999999999998622, -1.2416746821928153 
1.4099999999998611, -1.2410533366016343 
1.41999999999986, -1.2405438015301706 
1.429999999999859, -1.2403050441459191 
1.4399999999998578, -1.2404077016614643 
1.4499999999998567, -1.240821358067908 
1.4599999999998556, -1.241458725619769 
1.4699999999998545, -1.2422183310895338 
1.4799999999998534, -1.2429951351312567 
1.4899999999998523, -1.2436821672502538 
1.4999999999998512, -1.2441810949435128 
1.5099999999998501, -1.2444135817793762 
1.519999999999849, -1.2443251655591936 
1.529999999999848, -1.2438837000082617 
1.5399999999998468, -1.2430753655136317 
1.5499999999998457, -1.2418987463902915 
1.5599999999998446, -1.2403588999051043 
1.5699999999998435, -1.2384653813986246 
1.5799999999998424, -1.2362364998318442 
1.5899999999998413, -1.2337087109909641 
1.5999999999998402, -1.230949701684464 
1.6099999999998391, -1.2280773745219087 
1.619999999999838, -1.225284953515848 
1.629999999999837, -1.2228463416786994 
1.6399999999998358, -1.2210433188071934 
1.6499999999998347, -1.2200081609542952 
1.6599999999998336, -1.2196184010467725 
1.6699999999998325, -1.2195730617069973 
1.6799999999998314, -1.2195571177843454 
1.6899999999998303, -1.2193225529557028 
1.6999999999998292, -1.2186573931271174 
1.709999999999828, -1.2173062777506216 
1.719999999999827, -1.2148899152187216 
1.729999999999826, -1.2108509490047785 
1.7399999999998248, -1.2044670475793384 
1.7499999999998237, -1.1949774603374577 
1.7599999999998226, -1.1818118451696225 
1.7699999999998215, -1.1648241246327438 
1.7799999999998204, -1.1444530750719726 
1.7899999999998193, -1.1218479103968366 
1.7999999999998182, -1.0989739639017824 
1.809999999999817, -1.0784494596295267 
1.819999999999816, -1.06274029217104 
1.8299999999998149, -1.052948031241309 
1.8399999999998138, -1.0482948825022445 
1.8499999999998127, -1.0469074690511868 
1.8599999999998116, -1.0470135411219865 
1.8699999999998105, -1.0475104021210428 
1.8799999999998094, -1.0478817141164096 
1.8899999999998083, -1.0479175009902448 
1.8999999999998072, -1.0474939297440031 
1.909999999999806, -1.0464344789336864 
1.919999999999805, -1.0443980586335602 
1.9299999999998039, -1.0407446298360483 
1.9399999999998028, -1.0343675121266696 
1.9499999999998017, -1.0235812005691072 
1.9599999999998006, -1.0063367605584903 
1.9699999999997995, -0.9811023506278287 
1.9799999999997984, -0.9482012746466407 
1.9899999999997973, -0.9104472368351322 
1.9999999999997962, -0.872174405131701 
2.0099999999998173, -0.8374373644569942 
2.0199999999998384, -0.8088006225169628 
2.0299999999998595, -0.7871427774637337 
2.0399999999998806, -0.7720570534336205 
2.0499999999999017, -0.7623984466084271 
2.059999999999923, -0.7567620071438471 
2.069999999999944, -0.7538210259901085 
2.079999999999965, -0.7525106116610774 
2.089999999999986, -0.7520767210326241 
2.100000000000007, -0.752036820913299 
2.1100000000000283, -0.7521039079001335 
2.1200000000000494, -0.7521111163445038 
2.1300000000000705, -0.7519541304131918 
2.1400000000000916, -0.7515551535981908 
2.1500000000001127, -0.7508475794855547 
2.160000000000134, -0.7497802009891599 
2.170000000000155, -0.7483367876846696 
2.180000000000176, -0.7465574712999707 
2.190000000000197, -0.7445409204421388 
2.2000000000002182, -0.7424169486969889 
2.2100000000002393, -0.7403046528101767 
2.2200000000002604, -0.7382828297784298 
2.2300000000002815, -0.7363854232006081 
2.2400000000003026, -0.7346157170754204 
2.2500000000003237, -0.7329664237810887 
2.260000000000345, -0.7314362615534311 
2.270000000000366, -0.7300392455689095 
2.280000000000387, -0.7288068956899585 
2.290000000000408, -0.7277851329493373 
2.3000000000004293, -0.7270276416655904 
2.3100000000004504, -0.7265873210258366 
2.3200000000004715, -0.7265077458113941 
2.3300000000004926, -0.726816811854832 
2.3400000000005137, -0.7275243025237765 
2.3500000000005348, -0.728623980391611 
2.360000000000556, -0.7300995156728716 
2.370000000000577, -0.7319325399803628 
2.380000000000598, -0.7341103790497234 
2.390000000000619, -0.7366303559102159 
2.4000000000006403, -0.7394968954468657 
2.4100000000006614, -0.7427075292491166 
2.4200000000006825, -0.7462259407360341 
2.4300000000007036, -0.7499473771180345 
2.4400000000007247, -0.7536757394644925 
2.450000000000746, -0.7571429845815141 
2.460000000000767, -0.760084361677379 
2.470000000000788, -0.762331043090181 
2.480000000000809, -0.7638525404794168 
2.49000000000083, -0.764725966843027 
2.5000000000008513, -0.7650721712115697 
2.5100000000008724, -0.7650062470961018 
2.5200000000008935, -0.7646191005208882 
2.5300000000009146, -0.7639860863000753 
2.5400000000009357, -0.7631997730384426 
2.550000000000957, -0.7624361068525095 
2.560000000000978, -0.7620781176118188 
2.570000000000999, -0.7629323021276158 
2.58000000000102, -0.766564572254874 
2.5900000000010412, -0.7757206949301826 
2.6000000000010624, -0.7946209284475839 
2.6100000000010835, -0.8285619800285053 
2.6200000000011046, -0.8818353544676062 
2.6300000000011257, -0.9534834707827513 
2.6400000000011468, -1.0337478435404577 
2.650000000001168, -1.107354119843049 
2.660000000001189, -1.1630836054086706 
2.67000000000121, -1.1991009846049234 
2.680000000001231, -1.219874039011442 
2.6900000000012523, -1.2310103479837309 
2.7000000000012734, -1.2366998769940931 
2.7100000000012945, -1.2394541551539981 
2.7200000000013156, -1.2406190875197096 
2.7300000000013367, -1.2408765300134164 
2.740000000001358, -1.2405733041269282 
2.750000000001379, -1.239934356226379 
2.7600000000014, -1.2392425326806975 
2.770000000001421, -1.2390019159347112 
2.780000000001442, -1.239942412825753 
2.7900000000014633, -1.2426619086344153 
2.8000000000014844, -1.2471285528623512 
2.8100000000015055, -1.252667630675912 
2.8200000000015266, -1.2584533733110317 
2.8300000000015477, -1.2639037291887651 
2.840000000001569, -1.268731211205596 
2.85000000000159, -1.2728319033977096 
2.860000000001611, -1.2761827933092118 
2.870000000001632, -1.27878949149722 
2.8800000000016532, -1.2806724993283154 
2.8900000000016743, -1.2818727073040086 
2.9000000000016954, -1.28245802770265 
2.9100000000017165, -1.2825204523274139 
2.9200000000017377, -1.2821667653618651 
2.9300000000017588, -1.281514013507235 
2.94000000000178, -1.2806928227984644 
2.950000000001801, -1.279845134369065 
2.960000000001822, -1.2791009951264976 
2.970000000001843, -1.2785475684858962 
2.9800000000018643, -1.2782239695468351 
2.9900000000018854, -1.278137577394307 
3.0000000000019065, -1.2782614295797778 
3.0100000000019276, -1.2785136341156709 
3.0200000000019487, -1.278761862404345 
3.03000000000197, -1.278857648784357 
3.040000000001991, -1.2786627594330378 
3.050000000002012, -1.2780514515305716 
3.060000000002033, -1.276905387195867 
3.070000000002054, -1.275117939550673 
3.0800000000020753, -1.2726065792702728 
3.0900000000020964, -1.2693203963483592 
3.1000000000021175, -1.2652356119491461 
3.1100000000021386, -1.2603482220860638 
3.1200000000021597, -1.2546839432792722 
3.130000000002181, -1.2483473477095952 
3.140000000002202, -1.2416236369266664 
3.150000000002223, -1.2350957649213004 
3.160000000002244, -1.2296145784757981 
3.1700000000022652, -1.225924678064776 
3.1800000000022863, -1.2241426531261457 
3.1900000000023074, -1.2237008019376785 
3.2000000000023285, -1.223832746153964 
3.2100000000023496, -1.2239832253965512 
3.2200000000023707, -1.2238438270634369 
3.230000000002392, -1.2231994313549228 
3.240000000002413, -1.2217542156699477 
3.250000000002434, -1.2189425095812683 
3.260000000002455, -1.2136558364659598 
3.2700000000024763, -1.2038324085623364 
3.2800000000024974, -1.1860171280383753 
3.2900000000025185, -1.1554636390051582 
3.3000000000025396, -1.107936105615267 
3.3100000000025607, -1.0436838297366724 
3.3200000000025818, -0.9706278840273799 
3.330000000002603, -0.9016432250086418 
3.340000000002624, -0.847006703418214 
3.350000000002645, -0.8098641230797196 
3.360000000002666, -0.7877199149671327 
3.3700000000026873, -0.7760439800768968 
3.3800000000027084, -0.7706822407074685 
3.3900000000027295, -0.768685261686359 
3.4000000000027506, -0.768259626181894 
3.4100000000027717, -0.7684334575722195 
3.420000000002793, -0.7687261979700911 
3.430000000002814, -0.7689130626951778 
3.440000000002835, -0.7688820573624615 
3.450000000002856, -0.7685547721105486 
3.460000000002877, -0.7678455331429439 
3.4700000000028983, -0.7666462769922856 
3.4800000000029194, -0.7648373023146909 
3.4900000000029405, -0.7623286542445884 
3.5000000000029616, -0.7591220725278635 
3.5100000000029827, -0.7553527615538237 
3.520000000003004, -0.7512649419277173 
3.530000000003025, -0.7471275526790268 
3.540000000003046, -0.7431518599425723 
3.550000000003067, -0.7394596910524488 
3.5600000000030882, -0.7360988966427677 
3.5700000000031094, -0.7330767378747691 
3.5800000000031305, -0.7303888739611643 
3.5900000000031516, -0.7280360482227376 
3.6000000000031727, -0.7260291766892581 
3.6100000000031938, -0.724386453604243 
3.620000000003215, -0.7231262824502132 
3.630000000003236, -0.7222592370985031 
3.640000000003257, -0.7217815872429355 
3.650000000003278, -0.7216722232384253 
3.6600000000032993, -0.7218938991498233 
3.6700000000033204, -0.7223985307582849 
3.6800000000033415, -0.7231351379571331 
3.6900000000033626, -0.7240583992219616 
3.7000000000033837, -0.7251358384747155 
3.710000000003405, -0.7263519110861105 
3.720000000003426, -0.7277071427579136 
3.730000000003447, -0.7292103188034954 
3.740000000003468, -0.7308627870140951 
3.750000000003489, -0.7326373824988227 
3.7600000000035103, -0.7344603040516854 
3.7700000000035314, -0.7362096799296639 
3.7800000000035525, -0.737741442692814 
3.7900000000035736, -0.7389346794874923 
3.8000000000035947, -0.7397283598725195 
3.810000000003616, -0.7401264656254817 
3.820000000003637, -0.7401765087524388 
3.830000000003658, -0.7399441576712767 
3.840000000003679, -0.7395015395792444 
3.8500000000037002, -0.7389353053846414 
3.8600000000037213, -0.7383762797626973 
3.8700000000037424, -0.7380544752637863 
3.8800000000037635, -0.7383845392629317 
3.8900000000037847, -0.7400803585589305 
3.9000000000038058, -0.7442781373636094 
3.910000000003827, -0.7526141469814742 
3.920000000003848, -0.7671633414071415 
3.930000000003869, -0.7901099392705033 
3.94000000000389, -0.8230171679805751 
3.9500000000039113, -0.8656855271804312 
3.9600000000039324, -0.9150210463831339 
3.9700000000039535, -0.9650084251531409 
3.9800000000039746, -1.0087927415542752 
3.9900000000039957, -1.0419173650576192 
4.000000000004016, -1.0639175852062628 
4.010000000003993, -1.0771248535010935 
4.02000000000397, -1.0845107822195936 
4.030000000003946, -1.0884196787902851 
4.040000000003923, -1.090336362584664 
4.0500000000039, -1.0910955784283844 
4.0600000000038765, -1.091133787585852 
4.070000000003853, -1.090672361491038 
4.08000000000383, -1.0898525123441094 
4.090000000003807, -1.0888814557699573 
4.100000000003783, -1.0882467182771802 
4.11000000000376, -1.0889658068597783 
4.120000000003737, -1.0925967966185095 
4.130000000003713, -1.1006074825562155 
4.14000000000369, -1.113315218207794 
4.150000000003667, -1.1294762095513518 
4.1600000000036434, -1.1470168205005329 
4.17000000000362, -1.164038878717543 
4.180000000003597, -1.1792677963593792 
4.1900000000035735, -1.1920062752934135 
4.20000000000355, -1.2019782618555606 
4.210000000003527, -1.2092409020373993 
4.220000000003504, -1.214123938137396 
4.23000000000348, -1.2171211995170914 
4.240000000003457, -1.2187480709669631 
4.250000000003434, -1.2194359163119948 
4.26000000000341, -1.2195006603122274 
4.270000000003387, -1.2191716006386415 
4.280000000003364, -1.2186510998024551 
4.2900000000033405, -1.2181736586411427 
4.300000000003317, -1.2180159097557717 
4.310000000003294, -1.2184140041144282 
4.320000000003271, -1.219438329084975 
4.330000000003247, -1.2209625584084953 
4.340000000003224, -1.2227621298255464 
4.350000000003201, -1.224626518385311 
4.360000000003177, -1.2264018535909733 
4.370000000003154, -1.2279847137530275 
4.380000000003131, -1.2293084217893344 
4.390000000003107, -1.230333672800961 
4.400000000003084, -1.2310401780325557 
4.410000000003061, -1.2314182450111288 
4.4200000000030375, -1.2314629822618481 
4.430000000003014, -1.2311737945418164 
4.440000000002991, -1.2305589380721482 
4.450000000002968, -1.2296421543686513 
4.460000000002944, -1.22846843543862 
4.470000000002921, -1.2271069867829463 
4.480000000002898, -1.2256488003055657 
4.490000000002874, -1.2241983507547392 
4.500000000002851, -1.222866540533224 
4.510000000002828, -1.2217685401711142 
4.520000000002804, -1.2210068818582185 
4.530000000002781, -1.2206214057462395 
4.540000000002758, -1.2205423856257442 
4.5500000000027345, -1.2206059689909565 
4.560000000002711, -1.220618712379386 
4.570000000002688, -1.2204029566067076 
4.580000000002665, -1.2197954167592073 
4.590000000002641, -1.2186246537319807 
4.600000000002618, -1.216700867945385 
4.610000000002595, -1.2138342519928602 
4.620000000002571, -1.2098746950175674 
4.630000000002548, -1.2047456486618848 
4.640000000002525, -1.198449520475608 
4.6500000000025015, -1.1910548788101254 
4.660000000002478, -1.1827039227640566 
4.670000000002455, -1.1736749194209632 
4.6800000000024315, -1.1644953410209344 
4.690000000002408, -1.1560140522081062 
4.700000000002385, -1.1492377338314714 
4.710000000002362, -1.1448433711983452 
4.720000000002338, -1.1427346133885736 
4.730000000002315, -1.142164928703196 
4.740000000002292, -1.1422801147779844 
4.750000000002268, -1.1424876662399985 
4.760000000002245, -1.1424688570234078 
4.770000000002222, -1.1420313284453265 
4.7800000000021985, -1.1409582097995805 
4.790000000002175, -1.1388716209031968 
4.800000000002152, -1.1350748383841591 
4.810000000002129, -1.1283592746448132 
4.820000000002105, -1.1168632426910705 
4.830000000002082, -1.0982571302577562 
4.840000000002059, -1.0706130211725553 
4.850000000002035, -1.0338504436653113 
4.860000000002012, -0.9907371732344088 
4.870000000001989, -0.9463412625700237 
4.880000000001965, -0.9061170621128086 
4.890000000001942, -0.8739301934882158 
4.900000000001919, -0.8511317000275632 
4.9100000000018955, -0.8368618937739443 
4.920000000001872, -0.8290471509662745 
4.930000000001849, -0.8254137721869325 
