t, s[1].omega / s[0].omega 
0, -0.9499975798919127 
0.009999999999999995, -0.9496913327180942 
0.019999999999999934, -0.9492581037108296 
0.029999999999999874, -0.9487006187421254 
0.04000000000000012, -0.9480290214136902 
0.050000000000000405, -0.9472655561068141 
0.06000000000000069, -0.9464472937013694 
0.07000000000000098, -0.9456266439132326 
0.08000000000000126, -0.9448688945781043 
0.09000000000000155, -0.9442450526987534 
0.10000000000000184, -0.9438196270530339 
0.11000000000000212, -0.9436366568506036 
0.12000000000000241, -0.9437096568325714 
0.130000000000002, -0.9440195141132868 
0.1400000000000009, -0.9445204862667562 
0.1499999999999998, -0.9451514570645265 
0.1599999999999987, -0.945848360633369 
0.1699999999999976, -0.9465539665018501 
0.1799999999999965, -0.9472228655959489 
0.1899999999999954, -0.9478215083484145 
0.1999999999999943, -0.9483245198847104 
0.2099999999999932, -0.9487095943488125 
0.2199999999999921, -0.948954324908932 
0.229999999999991, -0.9490378598740747 
0.2399999999999899, -0.9489470208558689 
0.2499999999999888, -0.9486828274863874 
0.2599999999999877, -0.948263501368077 
0.2699999999999866, -0.9477240258198758 
0.2799999999999855, -0.9471153052788397 
0.2899999999999844, -0.9465045147898916 
0.2999999999999833, -0.9459740996307093 
0.3099999999999822, -0.9456144168949905 
0.3199999999999811, -0.9455077357086008 
0.32999999999998, -0.9457085456317029 
0.3399999999999789, -0.9462302188589646 
0.3499999999999778, -0.9470448400485806 
0.35999999999997667, -0.9480945368822791 
0.36999999999997557, -0.9493072508226096 
0.37999999999997447, -0.9506103096590257 
0.38999999999997337, -0.9519381717103006 
0.39999999999997227, -0.9532335964558575 
0.40999999999997117, -0.9544439646712595 
0.41999999999997006, -0.9555167620567836 
0.42999999999996896, -0.9563994280771867 
0.43999999999996786, -0.9570465827562726 
0.44999999999996676, -0.9574315603126895 
0.45999999999996566, -0.9575542529473869 
0.46999999999996456, -0.9574399532961978 
0.47999999999996346, -0.9571320939289285 
0.48999999999996235, -0.9566864785463765 
0.49999999999996125, -0.9561719475138188 
0.5099999999999602, -0.9556760903798722 
0.519999999999959, -0.9553087553405366 
0.529999999999958, -0.9551937714755135 
0.5399999999999568, -0.9554446339450383 
0.5499999999999557, -0.9561329831694181 
0.5599999999999546, -0.9572682243552355 
0.5699999999999535, -0.9588000803427003 
0.5799999999999524, -0.9606390571457208 
0.5899999999999513, -0.962680282481001 
0.5999999999999502, -0.964819495382548 
0.6099999999999491, -0.9669581335535062 
0.619999999999948, -0.9690008697845975 
0.6299999999999469, -0.9708527631768925 
0.6399999999999458, -0.9724238530256258 
0.6499999999999447, -0.9736438646750157 
0.6599999999999436, -0.9744795250348439 
0.6699999999999425, -0.974941403499699 
0.6799999999999414, -0.9750748403562056 
0.6899999999999403, -0.9749429668556251 
0.6999999999999392, -0.9746144849829357 
0.7099999999999381, -0.9741631240433548 
0.719999999999937, -0.9736777330266817 
0.7299999999999359, -0.9732756453184654 
0.7399999999999348, -0.9731065651128178 
0.7499999999999337, -0.9733335703276079 
0.7599999999999326, -0.9740903967644104 
0.7699999999999315, -0.9754365117285431 
0.7799999999999304, -0.977339433636885 
0.7899999999999293, -0.9796929581927257 
0.7999999999999282, -0.9823530440270103 
0.8099999999999271, -0.9851677607820865 
0.819999999999926, -0.9879909340343037 
0.8299999999999249, -0.9906833425443254 
0.8399999999999238, -0.9931125200925335 
0.8499999999999227, -0.9951617601476744 
0.8599999999999216, -0.996749948131867 
0.8699999999999205, -0.9978503903049554 
0.8799999999999194, -0.9984927148034405 
0.8899999999999183, -0.9987450095744743 
0.8999999999999172, -0.9986895279786662 
0.9099999999999161, -0.9984074069830591 
0.919999999999915, -0.9979787584685763 
0.9299999999999139, -0.9974957787488018 
0.9399999999999128, -0.9970807386370707 
0.9499999999999117, -0.9968945669038665 
0.9599999999999106, -0.9971187816486115 
0.9699999999999095, -0.9979063356350301 
0.9799999999999084, -0.9993257959775275 
0.9899999999999073, -1.0013375380188438 
0.9999999999999062, -1.003815716042674 
1.0099999999999052, -1.006593197765552 
1.019999999999904, -1.0094987756159761 
1.029999999999903, -1.0123739113353936 
1.039999999999902, -1.015074500390082 
1.0499999999999008, -1.0174705893397913 
1.0599999999998997, -1.019454787811228 
1.0699999999998986, -1.0209598523090626 
1.0799999999998975, -1.0219733068109977 
1.0899999999998964, -1.0225351799840074 
1.0999999999998953, -1.0227186388881742 
1.1099999999998942, -1.0226073140605418 
1.119999999999893, -1.0222831622708646 
1.129999999999892, -1.0218294422034553 
1.1399999999998909, -1.021344882611837 
1.1499999999998898, -1.0209586534863615 
1.1599999999998887, -1.0208298876768718 
1.1699999999998876, -1.0211178039438182 
1.1799999999998865, -1.021929493771139 
1.1899999999998854, -1.023278869919227 
1.1999999999998843, -1.0250867986985728 
1.2099999999998832, -1.0272171267305985 
1.219999999999882, -1.029518901735535 
1.229999999999881, -1.0318528027347247 
1.2399999999998799, -1.034098919508644 
1.2499999999998788, -1.0361540139351102 
1.2599999999998777, -1.037928592210453 
1.2699999999998766, -1.039351162672495 
1.2799999999998755, -1.0403795238885782 
1.2899999999998744, -1.0410103625217553 
1.2999999999998733, -1.0412776519046871 
1.3099999999998722, -1.0412400054069912 
1.319999999999871, -1.0409667733550112 
1.32999999999987, -1.0405325478888074 
1.3399999999998689, -1.0400223125069608 
1.3499999999998678, -1.0395410810310644 
1.3599999999998666, -1.039215405417401 
1.3699999999998655, -1.0391744183608476 
1.3799999999998644, -1.03951234785146 
1.3899999999998633, -1.0402552342898639 
1.3999999999998622, -1.041356070036533 
1.4099999999998611, -1.0427185285583138 
1.41999999999986, -1.0442292893698826 
1.429999999999859, -1.045781785257193 
1.4399999999998578, -1.047286815304473 
1.4499999999998567, -1.0486730395476935 
1.4599999999998556, -1.049882521149485 
1.4699999999998545, -1.0508668105053034 
1.4799999999998534, -1.051587819700901 
1.4899999999998523, -1.0520237297607915 
1.4999999999998512, -1.0521751809762945 
1.5099999999998501, -1.0520662103406606 
1.519999999999849, -1.0517396667429466 
1.529999999999848, -1.0512523426976297 
1.5399999999998468, -1.0506745381807736 
1.5499999999998457, -1.0500927297578202 
1.5599999999998446, -1.0496076116816062 
1.5699999999998435, -1.049319409559964 
1.5799999999998424, -1.0493021906636015 
1.5899999999998413, -1.0495817592862413 
1.5999999999998402, -1.050131467794368 
1.6099999999998391, -1.050885751398845 
1.619999999999838, -1.0517605375085048 
1.629999999999837, -1.0526713136010333 
1.6399999999998358, -1.053545021271654 
1.6499999999998347, -1.0543250530100827 
1.6599999999998336, -1.0549704813016407 
1.6699999999998325, -1.0554520377957215 
1.6799999999998314, -1.0557480015124745 
1.6899999999998303, -1.0558428339783852 
1.6999999999998292, -1.0557295158367643 
1.709999999999828, -1.0554136692375802 
1.719999999999827, -1.0549164873202508 
1.729999999999826, -1.0542756088785101 
1.7399999999998248, -1.0535453247293012 
1.7499999999998237, -1.052796274013457 
1.7599999999998226, -1.0521112400017079 
1.7699999999998215, -1.0515731019586043 
1.7799999999998204, -1.05124663050465 
1.7899999999998193, -1.0511624749396902 
1.7999999999998182, -1.051310906271068 
1.809999999999817, -1.0516462294700264 
1.819999999999816, -1.0520987272361206 
1.8299999999998149, -1.0525901689646164 
1.8399999999998138, -1.0530479468412888 
1.8499999999998127, -1.0534137238918124 
1.8599999999998116, -1.0536460870874418 
1.8699999999998105, -1.0537193105981262 
1.8799999999998094, -1.053620142058289 
1.8899999999998083, -1.0533438840872158 
1.8999999999998072, -1.052891510528734 
1.909999999999806, -1.0522695704779979 
1.919999999999805, -1.0514929536184292 
1.9299999999998039, -1.050588840559035 
1.9399999999998028, -1.0495999962052014 
1.9499999999998017, -1.0485858995342094 
1.9599999999998006, -1.047619703404814 
1.9699999999997995, -1.046779184590793 
1.9799999999997984, -1.04613253551854 
1.9899999999997973, -1.0457230425362753 
1.9999999999997962, -1.0455573704747008 
2.0099999999998173, -1.0456016745907903 
2.0199999999998384, -1.04578885278177 
2.0299999999998595, -1.0460353288749902 
2.0399999999998806, -1.046259094305522 
2.0499999999999017, -1.0463909904786108 
2.059999999999923, -1.0463783396289548 
2.069999999999944, -1.0461851448993493 
2.079999999999965, -1.0457919641132973 
2.089999999999986, -1.0451949589821852 
2.100000000000007, -1.0444026945734903 
2.1100000000000283, -1.0434317620250333 
2.1200000000000494, -1.042304362124363 
2.1300000000000705, -1.0410497054221004 
2.1400000000000916, -1.0397081118787785 
2.1500000000001127, -1.0383348957180503 
2.160000000000134, -1.0370009433416034 
2.170000000000155, -1.035787628422851 
2.180000000000176, -1.034775214852436 
2.190000000000197, -1.0340258968089198 
2.2000000000002182, -1.0335653206974809 
2.2100000000002393, -1.0333705015315837 
2.2200000000002604, -1.0333732251646448 
2.2300000000002815, -1.0334794994093959 
2.2400000000003026, -1.0335932535001557 
2.2500000000003237, -1.0336312372760623 
2.260000000000345, -1.0335265605637316 
2.270000000000366, -1.0332273189058063 
2.280000000000387, -1.0326969778298103 
2.290000000000408, -1.0319176639443974 
2.3000000000004293, -1.0308924103322143 
2.3100000000004504, -1.0296425003225829 
2.3200000000004715, -1.0282010598413724 
2.3300000000004926, -1.026607989554757 
2.3400000000005137, -1.024909820335537 
2.3500000000005348, -1.0231635713600338 
2.360000000000556, -1.0214406976809531 
2.370000000000577, -1.0198268918978204 
2.380000000000598, -1.0184146125294795 
2.390000000000619, -1.0172869844232992 
2.4000000000006403, -1.016495211976442 
2.4100000000006614, -1.016038157033561 
2.4200000000006825, -1.0158575173751403 
2.4300000000007036, -1.0158549678220208 
2.4400000000007247, -1.0159208689508243 
2.450000000000746, -1.0159564908883665 
2.460000000000767, -1.0158813045996644 
2.470000000000788, -1.015630329252479 
2.480000000000809, -1.015151147014786 
2.49000000000083, -1.0144063275379733 
2.5000000000008513, -1.0133799655826727 
2.5100000000008724, -1.0120819196130433 
2.5200000000008935, -1.010544656939658 
2.5300000000009146, -1.0088146089283876 
2.5400000000009357, -1.0069449093105576 
2.550000000000957, -1.004994153538789 
2.560000000000978, -1.0030300250764141 
2.570000000000999, -1.0011330246232368 
2.58000000000102, -0.9993953159542993 
2.5900000000010412, -0.9979112059291637 
2.6000000000010624, -0.9967583944853302 
2.6100000000010835, -0.9959742652475689 
2.6200000000011046, -0.9955386686558425 
2.6300000000011257, -0.9953761787770409 
2.6400000000011468, -0.995379074289937 
2.650000000001168, -0.9954364070555712 
2.660000000001189, -0.9954525220922321 
2.67000000000121, -0.9953507456734293 
2.680000000001231, -0.9950694008119335 
2.6900000000012523, -0.9945593394102668 
2.7000000000012734, -0.9937873499980586 
2.7100000000012945, -0.9927429203692826 
2.7200000000013156, -0.991441496564744 
2.7300000000013367, -0.9899197790695551 
2.740000000001358, -0.9882260466668331 
2.750000000001379, -0.9864127938728021 
2.7600000000014, -0.9845358446012579 
2.770000000001421, -0.9826581767860041 
2.780000000001442, -0.9808535642348621 
2.7900000000014633, -0.9792054675977926 
2.8000000000014844, -0.9777984836512623 
2.8100000000015055, -0.9767022113228043 
2.8200000000015266, -0.9759513302981639 
2.8300000000015477, -0.9755307798593857 
2.840000000001569, -0.9753762579948215 
2.85000000000159, -0.9753921106829744 
2.860000000001611, -0.9754761959270073 
2.870000000001632, -0.9755379266229565 
2.8800000000016532, -0.9755042625524419 
2.8900000000016743, -0.975318271101461 
2.9000000000016954, -0.9749376476238212 
2.9100000000017165, -0.974336884690038 
2.9200000000017377, -0.9735109977337537 
2.9300000000017588, -0.9724756335535696 
2.94000000000178, -0.9712611577974339 
2.950000000001801, -0.969904284147837 
2.960000000001822, -0.9684431408826096 
2.970000000001843, -0.966918192384548 
2.9800000000018643, -0.9653766897487287 
2.9900000000018854, -0.9638764216236909 
3.0000000000019065, -0.962485304326156 
3.0100000000019276, -0.9612750971632341 
3.0200000000019487, -0.9603095385181805 
3.03000000000197, -0.9596294342262365 
3.040000000001991, -0.9592396519313396 
3.050000000002012, -0.9591044783131617 
3.060000000002033, -0.9591553839916397 
3.070000000002054, -0.9593081310087064 
3.0800000000020753, -0.9594803073480964 
3.0900000000020964, -0.9596020595494025 
3.1000000000021175, -0.9596195572588627 
3.1100000000021386, -0.9594952406226037 
3.1200000000021597, -0.9592080657581288 
3.130000000002181, -0.9587533347727 
3.140000000002202, -0.9581397841003485 
3.150000000002223, -0.9573837124668947 
3.160000000002244, -0.9565034696111369 
3.1700000000022652, -0.9555180035603271 
3.1800000000022863, -0.9544499240541287 
3.1900000000023074, -0.9533304628650268 
3.2000000000023285, -0.9522032123850416 
3.2100000000023496, -0.9511244630000982 
3.2200000000023707, -0.9501588003975675 
3.230000000002392, -0.9493697603084653 
3.240000000002413, -0.9488073939503263 
3.250000000002434, -0.9484965051650504 
3.260000000002455, -0.9484297058332045 
3.2700000000024763, -0.9485682402418307 
3.2800000000024974, -0.9488508845989937 
3.2900000000025185, -0.949207553212718 
3.3000000000025396, -0.9495720884210789 
3.3100000000025607, -0.9498903573273669 
3.3200000000025818, -0.9501233792999253 
3.330000000002603, -0.9502470622766348 
3.340000000002624, -0.9502495313906335 
3.350000000002645, -0.950126481224204 
3.360000000002666, -0.9498762051871535 
3.3700000000026873, -0.949497273262428 
3.3800000000027084, -0.9489905712659832 
3.3900000000027295, -0.9483642420858281 
3.4000000000027506, -0.9476384534895332 
3.4100000000027717, -0.9468482093460404 
3.420000000002793, -0.9460440877481796 
3.430000000002814, -0.9452903973456719 
3.440000000002835, -0.9446589374772408 
3.450000000002856, -0.9442173793932161 
3.460000000002877, -0.9440149295453455 
3.4700000000028983, -0.9440710206727946 
3.4800000000029194, -0.944371788096384 
3.4900000000029405, -0.944875075235099 
3.5000000000029616, -0.9455212786662874 
3.5100000000029827, -0.946245919299326 
3.520000000003004, -0.9469900089646103 
3.530000000003025, -0.9477057628770265 
3.540000000003046, -0.948357215533877 
3.550000000003067, -0.9489168390706562 
3.5600000000030882, -0.9493604527062397 
3.5700000000031094, -0.9496638263997628 
3.5800000000031305, -0.9498040723625196 
3.5900000000031516, -0.9497657660696739 
3.6000000000031727, -0.9495477923027063 
3.6100000000031938, -0.9491666264792903 
3.620000000003215, -0.948655780584432 
3.630000000003236, -0.9480646130903854 
3.640000000003257, -0.9474586760404662 
3.650000000003278, -0.9469195516744284 
3.6600000000032993, -0.9465389825698518 
3.6700000000033204, -0.9464039140023436 
3.6800000000033415, -0.9465761634483281 
3.6900000000033626, -0.9470768144892366 
3.7000000000033837, -0.9478836671399404 
3.710000000003405, -0.9489414680746234 
3.720000000003426, -0.9501779572725683 
3.730000000003447, -0.9515184028846371 
3.740000000003468, -0.9528943890149246 
3.750000000003489, -0.9542457931759214 
3.7600000000035103, -0.9555175023818594 
3.7700000000035314, -0.956654800174727 
3.7800000000035525, -0.9576027556436598 
3.7900000000035736, -0.9583130880242698 
3.8000000000035947, -0.9587559585005427 
3.810000000003616, -0.9589286297912636 
3.820000000003637, -0.9588549162468404 
3.830000000003658, -0.9585776919908549 
3.840000000003679, -0.9581522310313089 
3.8500000000037002, -0.9576460513919146 
3.8600000000037213, -0.9571446373102874 
3.8700000000037424, -0.9567562634567859 
3.8800000000037635, -0.9566060106876948 
3.8900000000037847, -0.9568131178959689 
3.9000000000038058, -0.9574585671398784 
3.910000000003827, -0.9585612955378491 
3.920000000003848, -0.9600773208670622 
3.930000000003869, -0.9619190245220721 
3.94000000000389, -0.9639800206492785 
3.9500000000039113, -0.9661529793765565 
3.9600000000039324, -0.9683362037854286 
3.9700000000039535, -0.970431830985841 
3.9800000000039746, -0.972342740819234 
3.9900000000039957, -0.9739763092871956 
4.000000000004016, -0.9752585129781812 
4.010000000003993, -0.9761517429017494 
4.02000000000397, -0.9766630550025532 
4.030000000003946, -0.9768361438576937 
4.040000000003923, -0.9767341320271774 
4.0500000000039, -0.9764261521049262 
4.0600000000038765, -0.975985499636578 
4.070000000003853, -0.9754990105968868 
4.08000000000383, -0.9750808560881674 
4.090000000003807, -0.9748783761897529 
4.100000000003783, -0.9750559049754243 
4.11000000000376, -0.9757535360440048 
4.120000000003737, -0.9770403489952674 
4.130000000003713, -0.978892629581523 
4.14000000000369, -0.981209099882814 
4.150000000003667, -0.9838467151795482 
4.1600000000036434, -0.9866524322381396 
4.17000000000362, -0.9894787591694982 
4.180000000003597, -0.9921858338699682 
4.1900000000035735, -0.9946407744956426 
4.20000000000355, -0.9967253279709187 
4.210000000003527, -0.9983546933247742 
4.220000000003504, -0.9994969640022469 
4.23000000000348, -1.0001770121596127 
4.240000000003457, -1.0004602322974088 
4.250000000003434, -1.0004282714060233 
4.26000000000341, -1.0001625679598465 
4.270000000003387, -0.9997430334892767 
4.280000000003364, -0.9992601649362918 
4.2900000000033405, -0.9988328867051968 
4.300000000003317, -0.9986183140470842 
4.310000000003294, -0.9987961161669127 
4.320000000003271, -0.9995214966703554 
4.330000000003247, -1.000869085139956 
4.340000000003224, -1.0028064183380543 
4.350000000003201, -1.0052132496768897 
4.360000000003177, -1.0079257952764373 
4.370000000003154, -1.0107748981104454 
4.380000000003131, -1.013604017063841 
4.390000000003107, -1.0162714841228924 
4.400000000003084, -1.018649508999998 
4.410000000003061, -1.020630998869683 
4.4200000000030375, -1.0221459629222167 
4.430000000003014, -1.0231767365542244 
4.440000000002991, -1.0237578810575692 
4.450000000002968, -1.0239587413722937 
4.460000000002944, -1.0238611527283723 
4.470000000002921, -1.0235464040960767 
4.480000000002898, -1.0230969458499226 
4.490000000002874, -1.0226095767058612 
4.500000000002851, -1.0222101725378006 
4.510000000002828, -1.0220541255104725 
4.520000000002804, -1.0222984081492523 
4.530000000002781, -1.0230510293461976 
4.540000000002758, -1.0243298748323693 
4.5500000000027345, -1.0260610989656225 
4.560000000002711, -1.0281133919796015 
4.570000000002688, -1.0303395500377053 
4.580000000002665, -1.0326032472609201 
4.590000000002641, -1.0347874560099775 
4.600000000002618, -1.0367919603395168 
4.610000000002595, -1.0385298567173478 
4.620000000002571, -1.0399305722676508 
4.630000000002548, -1.0409501954994511 
4.640000000002525, -1.0415814568987896 
4.6500000000025015, -1.041853751462706 
4.660000000002478, -1.0418220538782257 
4.670000000002455, -1.041553466125859 
4.6800000000024315, -1.0411211388574313 
4.690000000002408, -1.040608486990342 
4.700000000002385, -1.0401181990154897 
4.710000000002362, -1.039773923760138 
4.720000000002338, -1.039702458653558 
4.730000000002315, -1.0399977169581471 
4.740000000002292, -1.0406879678717327 
4.750000000002268, -1.0417300656805013 
4.760000000002245, -1.043031658655432 
4.770000000002222, -1.0444824879725159 
4.7800000000021985, -1.0459779838905088 
4.790000000002175, -1.0474303327884245 
4.800000000002152, -1.0487695552597969 
4.810000000002129, -1.0499393236701438 
4.820000000002105, -1.0508927404025505 
4.830000000002082, -1.0515924201345614 
4.840000000002059, -1.052015704514265 
4.850000000002035, -1.052160932356227 
4.860000000002012, -1.052049235981601 
4.870000000001989, -1.0517208569074796 
4.880000000001965, -1.0512305609407624 
4.890000000001942, -1.0506468896972072 
4.900000000001919, -1.0500544359208468 
4.9100000000018955, -1.0495519604834302 
4.920000000001872, -1.0492384330814797 
4.930000000001849, -1.0491882356475914 
