t, s[1].omega / s[0].omega 
0, -0.5600504340793575 
0.009999999999999995, -0.565200289937002 
0.019999999999999934, -0.5702347279886738 
0.029999999999999874, -0.5746767105368054 
0.04000000000000012, -0.5782116695755164 
0.050000000000000405, -0.5807722065528776 
0.06000000000000069, -0.5824783956213918 
0.07000000000000098, -0.5835213206385339 
0.08000000000000126, -0.5840783381969111 
0.09000000000000155, -0.5842787937635479 
0.10000000000000184, -0.5841998049013942 
0.11000000000000212, -0.5838709471012374 
0.12000000000000241, -0.5832763783727637 
0.130000000000002, -0.5823494688033358 
0.1400000000000009, -0.5809579675952181 
0.1499999999999998, -0.5788813210190609 
0.1599999999999987, -0.5757927632787556 
0.1699999999999976, -0.5712844670568058 
0.1799999999999965, -0.5650019457033942 
0.1899999999999954, -0.5569115864587936 
0.1999999999999943, -0.547537452084749 
0.2099999999999932, -0.5378669087025847 
0.2199999999999921, -0.5289083055223937 
0.229999999999991, -0.5212932282748954 
0.2399999999999899, -0.5152041864104164 
0.2499999999999888, -0.510527910794125 
0.2599999999999877, -0.5070307910727974 
0.2699999999999866, -0.5044672061229629 
0.2799999999999855, -0.5026251559886913 
0.2899999999999844, -0.5013369589296363 
0.2999999999999833, -0.5004756581672685 
0.3099999999999822, -0.49994760926946596 
0.3199999999999811, -0.49968543851215064 
0.32999999999998, -0.49964262401272996 
0.3399999999999789, -0.4997898230990259 
0.3499999999999778, -0.5001127220390184 
0.35999999999997667, -0.500611054123143 
0.36999999999997557, -0.5012981953998163 
0.37999999999997447, -0.5022002079905965 
0.38999999999997337, -0.5033523302224484 
0.39999999999997227, -0.5047900236327679 
0.40999999999997117, -0.5065317498157205 
0.41999999999997006, -0.5085537137647753 
0.42999999999996896, -0.5107652707782622 
0.43999999999996786, -0.5130049015095216 
0.44999999999996676, -0.5150754597110785 
0.45999999999996566, -0.516809035138958 
0.46999999999996456, -0.5181188345150423 
0.47999999999996346, -0.5190041928911158 
0.48999999999996235, -0.5195176324746829 
0.49999999999996125, -0.5197255202733033 
0.5099999999999602, -0.5196818184382018 
0.519999999999959, -0.5194156036157092 
0.529999999999958, -0.5189250394560341 
0.5399999999999568, -0.5181705698781911 
0.5499999999999557, -0.5170618266641079 
0.5599999999999546, -0.5154339940736485 
0.5699999999999535, -0.5130128184439982 
0.5799999999999524, -0.5093820007697925 
0.5899999999999513, -0.5040064358679934 
0.5999999999999502, -0.4964170975876079 
0.6099999999999491, -0.48660648116568483 
0.619999999999948, -0.47536683420157333 
0.6299999999999469, -0.46408175186085626 
0.6399999999999458, -0.4540204995487461 
0.6499999999999447, -0.44582581415800704 
0.6599999999999436, -0.4395376164565305 
0.6699999999999425, -0.4348781143844607 
0.6799999999999414, -0.43149102663734845 
0.6899999999999403, -0.4290577332411158 
0.6999999999999392, -0.4273304247724258 
0.7099999999999381, -0.42612904979442484 
0.719999999999937, -0.4253279434191134 
0.7299999999999359, -0.4248425330727409 
0.7399999999999348, -0.4246191704358043 
0.7499999999999337, -0.4246284081124271 
0.7599999999999326, -0.42486128227987807 
0.7699999999999315, -0.425328071581069 
0.7799999999999304, -0.4260589793417551 
0.7899999999999293, -0.4271058813632826 
0.7999999999999282, -0.42854336111844293 
0.8099999999999271, -0.43046533548467947 
0.819999999999926, -0.4329705116346364 
0.8299999999999249, -0.43612722279303073 
0.8399999999999238, -0.43991242874937153 
0.8499999999999227, -0.4441431544126284 
0.8599999999999216, -0.44845946393324193 
0.8699999999999205, -0.4524212327279241 
0.8799999999999194, -0.4556842671099628 
0.8899999999999183, -0.458117687315817 
0.8999999999999172, -0.4597820382043286 
0.9099999999999161, -0.4608286936566034 
0.919999999999915, -0.46141334574008325 
0.9299999999999139, -0.4616553566251095 
0.9399999999999128, -0.4616289857861312 
0.9499999999999117, -0.4613664462255061 
0.9599999999999106, -0.4608614348949412 
0.9699999999999095, -0.46006948969642575 
0.9799999999999084, -0.45890670702128905 
0.9899999999999073, -0.4572539360761823 
0.9999999999999062, -0.45498055674799875 
1.0099999999999052, -0.4520027405335146 
1.019999999999904, -0.4483669699848171 
1.029999999999903, -0.44429984103066805 
1.039999999999902, -0.44015476084224936 
1.0499999999999008, -0.43627458642911476 
1.0599999999998997, -0.432877717549726 
1.0699999999998986, -0.4300362350320893 
1.0799999999998975, -0.4277204022079246 
1.0899999999998964, -0.4258546473225441 
1.0999999999998953, -0.424356428823348 
1.1099999999998942, -0.42315563339905393 
1.119999999999893, -0.4222013982246451 
1.129999999999892, -0.42146298509325675 
1.1399999999998909, -0.42092892064394805 
1.1499999999998898, -0.42060668608647706 
1.1599999999998887, -0.42052416315573515 
1.1699999999998876, -0.42073362765782313 
1.1799999999998865, -0.4213190654887612 
1.1899999999998854, -0.422407670923432 
1.1999999999998843, -0.42418606172175133 
1.2099999999998832, -0.42691981246581323 
1.219999999999882, -0.43096857694313845 
1.229999999999881, -0.43677322158417475 
1.2399999999998799, -0.4447626581285132 
1.2499999999998788, -0.4551084033794025 
1.2599999999998777, -0.4673388784802544 
1.2699999999998766, -0.4801159629495671 
1.2799999999998755, -0.49166331040105654 
1.2899999999998744, -0.5007164715141958 
1.2999999999998733, -0.5070468910115595 
1.3099999999998722, -0.5111540384309406 
1.319999999999871, -0.5137118127954159 
1.32999999999987, -0.5152662041394337 
1.3399999999998689, -0.516180232183331 
1.3499999999998678, -0.5166738175720902 
1.3599999999998666, -0.5168722821792985 
1.3699999999998655, -0.5168401731339907 
1.3799999999998644, -0.5166007980116561 
1.3899999999998633, -0.516146670173615 
1.3999999999998622, -0.5154463022190238 
1.4099999999998611, -0.5144531938376959 
1.41999999999986, -0.5131231133767316 
1.429999999999859, -0.5114420113753986 
1.4399999999998578, -0.5094552709823927 
1.4499999999998567, -0.507276274375651 
1.4599999999998556, -0.5050586511063881 
1.4699999999998545, -0.502946211317022 
1.4799999999998534, -0.5010341345928728 
1.4899999999998523, -0.4993603375998881 
1.4999999999998512, -0.49791997161892426 
1.5099999999998501, -0.49668666223847585 
1.519999999999849, -0.4956298028316106 
1.529999999999848, -0.49472500064709984 
1.5399999999998468, -0.49395901080164106 
1.5499999999998457, -0.49333166482808677 
1.5599999999998446, -0.4928569789378557 
1.5699999999998435, -0.4925648888737103 
1.5799999999998424, -0.4925044663211023 
1.5899999999998413, -0.4927491923118663 
1.5999999999998402, -0.4934047917237849 
1.6099999999998391, -0.49461997192605345 
1.619999999999838, -0.4965995572141641 
1.629999999999837, -0.49961669920580054 
1.6399999999998358, -0.504013645694242 
1.6499999999998347, -0.5101659878794247 
1.6599999999998336, -0.5183663297244558 
1.6699999999998325, -0.5285896073259533 
1.6799999999998314, -0.5402074837634372 
1.6899999999998303, -0.5519345947005554 
1.6999999999998292, -0.5622958273793828 
1.709999999999828, -0.5703531125865506 
1.719999999999827, -0.5760045372706757 
1.729999999999826, -0.5796957859987011 
1.7399999999998248, -0.5819982355145493 
1.7499999999998237, -0.5833801375635175 
1.7599999999998226, -0.5841597582922333 
1.7699999999998215, -0.5845325497981112 
1.7799999999998204, -0.584607915707605 
1.7899999999998193, -0.5844354447617587 
1.7999999999998182, -0.5840189333314069 
1.809999999999817, -0.5833212710672504 
1.819999999999816, -0.582264732753858 
1.8299999999998149, -0.5807342220412534 
1.8399999999998138, -0.5785963535714644 
1.8499999999998127, -0.5757487533926006 
1.8599999999998116, -0.5721960929373467 
1.8699999999998105, -0.5681077850980797 
1.8799999999998094, -0.563793507265112 
1.8899999999998083, -0.5595938496002407 
1.8999999999998072, -0.5557668193250048 
1.909999999999806, -0.552442987064287 
1.919999999999805, -0.5496471257259986 
1.9299999999998039, -0.5473437351304348 
1.9399999999998028, -0.5454752031176031 
1.9499999999998017, -0.5439840452747967 
1.9599999999998006, -0.5428224586493602 
1.9699999999997995, -0.5419546494911569 
1.9799999999997984, -0.5413560244166529 
1.9899999999997973, -0.54101158982169 
1.9999999999997962, -0.5409146974879298 
2.0099999999998173, -0.5410666008323378 
2.0199999999998384, -0.5414769292535541 
2.0299999999998595, -0.5421649357144632 
2.0399999999998806, -0.543161032515038 
2.0499999999999017, -0.544507494444743 
2.059999999999923, -0.546256079487569 
2.069999999999944, -0.5484587299161615 
2.079999999999965, -0.5511463944132242 
2.089999999999986, -0.5542933884858476 
2.100000000000007, -0.55777590758446 
2.1100000000000283, -0.5613538369261375 
2.1200000000000494, -0.5647138454178097 
2.1300000000000705, -0.5675734549164618 
2.1400000000000916, -0.5697791168418229 
2.1500000000001127, -0.5713269125806636 
2.160000000000134, -0.5723098283298866 
2.170000000000155, -0.5728489166068839 
2.180000000000176, -0.573048380468595 
2.190000000000197, -0.5729776787950016 
2.2000000000002182, -0.5726677812252532 
2.2100000000002393, -0.5721098372898511 
2.2200000000002604, -0.5712491433780043 
2.2300000000002815, -0.5699699345667198 
2.2400000000003026, -0.5680681579390604 
2.2500000000003237, -0.5652152217502286 
2.260000000000345, -0.5609368173087254 
2.270000000000366, -0.5546775678083722 
2.280000000000387, -0.5460562444697533 
2.290000000000408, -0.5352863919357691 
2.3000000000004293, -0.5233928384182839 
2.3100000000004504, -0.511825382656512 
2.3200000000004715, -0.5017461513131514 
2.3300000000004926, -0.4936561744177113 
2.3400000000005137, -0.48750964507547867 
2.3500000000005348, -0.4829979630741681 
2.360000000000556, -0.4797595261970809 
2.370000000000577, -0.4774760779762347 
2.380000000000598, -0.4758984341862768 
2.390000000000619, -0.47484219030510477 
2.4000000000006403, -0.47417500681432634 
2.4100000000006614, -0.47380408518340084 
2.4200000000006825, -0.47366634952390996 
2.4300000000007036, -0.47372156482160105 
2.4400000000007247, -0.473947972644134 
2.450000000000746, -0.4743399136540555 
2.460000000000767, -0.47490681379076455 
2.470000000000788, -0.4756725643269039 
2.480000000000809, -0.47667360354636373 
2.49000000000083, -0.47795301756526376 
2.5000000000008513, -0.4795472788566408 
2.5100000000008724, -0.48146332639067557 
2.5200000000008935, -0.48364939846665944 
2.5300000000009146, -0.48597492800651293 
2.5400000000009357, -0.48824411563098097 
2.550000000000957, -0.49025306565368176 
2.560000000000978, -0.4918599974735966 
2.570000000000999, -0.49301893427690857 
2.58000000000102, -0.49376154048973786 
2.5900000000010412, -0.4941545378875375 
2.6000000000010624, -0.49426365823949003 
2.6100000000010835, -0.49413402311496546 
2.6200000000011046, -0.49378175229982296 
2.6300000000011257, -0.49318858146444555 
2.6400000000011468, -0.4922932301866935 
2.650000000001168, -0.4909755511390296 
2.660000000001189, -0.48903285631154103 
2.67000000000121, -0.4861579504871253 
2.680000000001231, -0.4819541115706928 
2.6900000000012523, -0.4760566601117951 
2.7000000000012734, -0.46840220479293204 
2.7100000000012945, -0.4594924079130848 
2.7200000000013156, -0.4503171484674782 
2.7300000000013367, -0.4418860887181083 
2.740000000001358, -0.4348020617034325 
2.750000000001379, -0.42919921510762143 
2.7600000000014, -0.424923366775225 
2.770000000001421, -0.42172106842162976 
2.780000000001442, -0.4193466434648361 
2.7900000000014633, -0.41760121814929363 
2.8000000000014844, -0.4163374960015269 
2.8100000000015055, -0.41545244123249203 
2.8200000000015266, -0.41487805868262057 
2.8300000000015477, -0.4145739236807172 
2.840000000001569, -0.41452237333794206 
2.85000000000159, -0.4147263632171854 
2.860000000001611, -0.41520980373671 
2.870000000001632, -0.4160201514641163 
2.8800000000016532, -0.4172327570125473 
2.8900000000016743, -0.4189554879884545 
2.9000000000016954, -0.42132967520759185 
2.9100000000017165, -0.42451847827907924 
2.9200000000017377, -0.42866671795322836 
2.9300000000017588, -0.4338146444304666 
2.94000000000178, -0.43977476245452296 
2.950000000001801, -0.44605487569280955 
2.960000000001822, -0.451963097955117 
2.970000000001843, -0.456900421414149 
2.9800000000018643, -0.4606069203625648 
2.9900000000018854, -0.46315965300944945 
3.0000000000019065, -0.46480221952193534 
3.0100000000019276, -0.465789837843829 
3.0200000000019487, -0.4663198243161425 
3.03000000000197, -0.4665213860322324 
3.040000000001991, -0.46646665280000577 
3.050000000002012, -0.4661830077657164 
3.060000000002033, -0.4656608895258362 
3.070000000002054, -0.46485793577282725 
3.0800000000020753, -0.46370420196146667 
3.0900000000020964, -0.4621168827103226 
3.1000000000021175, -0.46003387789570904 
3.1100000000021386, -0.4574646799820969 
3.1200000000021597, -0.4545306299199291 
3.130000000002181, -0.4514513741801225 
3.140000000002202, -0.44847036485947755 
3.150000000002223, -0.44577165369148714 
3.160000000002244, -0.4434433713269942 
3.1700000000022652, -0.44149206663356777 
3.1800000000022863, -0.4398779105247441 
3.1900000000023074, -0.4385458444658368 
3.2000000000023285, -0.43744470410901615 
3.2100000000023496, -0.4365361648942104 
3.2200000000023707, -0.4357977495111502 
3.230000000002392, -0.4352234822247432 
3.240000000002413, -0.43482456867568614 
3.250000000002434, -0.4346315587829329 
3.260000000002455, -0.43469899985451843 
3.2700000000024763, -0.4351135457482288 
3.2800000000024974, -0.43600664898562147 
3.2900000000025185, -0.43757288437125635 
3.3000000000025396, -0.4400935394670432 
3.3100000000025607, -0.44395962896286545 
3.3200000000025818, -0.4496732566215121 
3.330000000002603, -0.4577745693497687 
3.340000000002624, -0.4686059124962226 
3.350000000002645, -0.48187443074564207 
3.360000000002666, -0.4962701066724251 
3.3700000000026873, -0.5097492609178089 
3.3800000000027084, -0.5206107641549548 
3.3900000000027295, -0.5283334568171336 
3.4000000000027506, -0.5333839504744231 
3.4100000000027717, -0.5365438533734157 
3.420000000002793, -0.5384800550337981 
3.430000000002814, -0.5396433641248347 
3.440000000002835, -0.5403089736567477 
3.450000000002856, -0.5406362337603026 
3.460000000002877, -0.540711729285859 
3.4700000000028983, -0.5405744712102671 
3.4800000000029194, -0.540229152112592 
3.4900000000029405, -0.5396532480799268 
3.5000000000029616, -0.5388034908947411 
3.5100000000029827, -0.5376279185944512 
3.520000000003004, -0.5360888339131947 
3.530000000003025, -0.5341945398446362 
3.540000000003046, -0.53202314572535 
3.550000000003067, -0.5297150154456667 
3.5600000000030882, -0.5274301760952325 
3.5700000000031094, -0.5252981867984199 
3.5800000000031305, -0.5233918160020387 
3.5900000000031516, -0.5217307686636169 
3.6000000000031727, -0.5203012487816165 
3.6100000000031938, -0.5190762860235696 
3.620000000003215, -0.5180299044430645 
3.630000000003236, -0.5171446851928685 
3.640000000003257, -0.5164148931836128 
3.650000000003278, -0.5158475562930647 
3.6600000000032993, -0.5154631980400304 
3.6700000000033204, -0.5152971849863387 
3.6800000000033415, -0.5154021879256272 
3.6900000000033626, -0.5158520585171747 
3.7000000000033837, -0.5167472924632384 
3.710000000003405, -0.5182218445610889 
3.720000000003426, -0.5204497811048012 
3.730000000003447, -0.5236470408133611 
3.740000000003468, -0.5280569836515283 
3.750000000003489, -0.5338984663132986 
3.7600000000035103, -0.541250507102411 
3.7700000000035314, -0.5498773834963553 
3.7800000000035525, -0.5590965486314854 
3.7900000000035736, -0.567889630043199 
3.8000000000035947, -0.5753169751677099 
3.810000000003616, -0.5809257701690226 
3.820000000003637, -0.5847975195986782 
3.830000000003658, -0.5872991028571048 
3.840000000003679, -0.5888303131729576 
3.8500000000037002, -0.5897049283401157 
3.8600000000037213, -0.5901323298889679 
3.8700000000037424, -0.5902364730630542 
3.8800000000037635, -0.5900776157774167 
3.8900000000037847, -0.589665807160819 
3.9000000000038058, -0.5889648862927157 
3.910000000003827, -0.5878889601963009 
3.920000000003848, -0.5862965250959855 
3.930000000003869, -0.5839947645106405 
3.94000000000389, -0.5807774848867113 
3.9500000000039113, -0.576518981188424 
3.9600000000039324, -0.5713013854969289 
3.9700000000039535, -0.5654754464240608 
3.9800000000039746, -0.5595606179528658 
3.9900000000039957, -0.5540408154285876 
4.000000000004016, -0.5492172047753027 
4.010000000003993, -0.5451927151760435 
4.02000000000397, -0.541936966150735 
4.030000000003946, -0.5393586769762675 
4.040000000003923, -0.5373533113214088 
4.0500000000039, -0.5358258291789567 
4.0600000000038765, -0.5346980524900478 
4.070000000003853, -0.5339088304059546 
4.08000000000383, -0.5334118016338298 
4.090000000003807, -0.5331730293333857 
4.100000000003783, -0.5331693797385573 
4.11000000000376, -0.5333878482226159 
4.120000000003737, -0.5338257378945469 
4.130000000003713, -0.5344913941433671 
4.14000000000369, -0.5354048704546026 
4.150000000003667, -0.5365972558580243 
4.1600000000036434, -0.5381063735296643 
4.17000000000362, -0.5399655215403446 
4.180000000003597, -0.5421822003743213 
4.1900000000035735, -0.5447082129104629 
4.20000000000355, -0.5474138566456547 
4.210000000003527, -0.5500917180404798 
4.220000000003504, -0.5525087738675624 
4.23000000000348, -0.5544858643373332 
4.240000000003457, -0.5559494508787799 
4.250000000003434, -0.5569238772515215 
4.26000000000341, -0.5574855764781083 
4.270000000003387, -0.5577180080381062 
4.280000000003364, -0.5576854139069533 
4.2900000000033405, -0.55742234325395 
4.300000000003317, -0.5569294982054802 
4.310000000003294, -0.5561680949491088 
4.320000000003271, -0.5550471687649126 
4.330000000003247, -0.5533991432828066 
4.340000000003224, -0.55094108213277 
4.350000000003201, -0.5472309777091411 
4.360000000003177, -0.5416671977442669 
4.370000000003154, -0.5336464608075991 
4.380000000003131, -0.5229838447223619 
4.390000000003107, -0.5103868201602877 
4.400000000003084, -0.49738984798150687 
4.410000000003061, -0.4855848145348681 
4.4200000000030375, -0.4758936942600032 
4.430000000003014, -0.4684743628572311 
4.440000000002991, -0.4630361885287851 
4.450000000002968, -0.4591526700082313 
4.460000000002944, -0.45642671806265955 
4.470000000002921, -0.45454361776882746 
4.480000000002898, -0.4532717525126272 
4.490000000002874, -0.4524470305353233 
4.500000000002851, -0.45195604486377744 
4.510000000002828, -0.45172257404094324 
4.520000000002804, -0.4516980364048789 
4.530000000002781, -0.45185534538526084 
4.540000000002758, -0.4521854414109921 
4.5500000000027345, -0.45269579081924805 
4.560000000002711, -0.4534099684372278 
4.570000000002688, -0.4543668750953733 
4.580000000002665, -0.45561712728858356 
4.590000000002641, -0.45721293347945585 
4.600000000002618, -0.4591873598228524 
4.610000000002595, -0.46152208645777193 
4.620000000002571, -0.46411377909294904 
4.630000000002548, -0.46676583753025247 
4.640000000002525, -0.4692329094909744 
4.6500000000025015, -0.471306387201975 
4.660000000002478, -0.47288200097919725 
4.670000000002455, -0.4739640099039247 
4.6800000000024315, -0.47462093763382895 
4.690000000002408, -0.4749361075436115 
4.700000000002385, -0.47497695147324787 
4.710000000002362, -0.474782158780935 
4.720000000002338, -0.47435699929228586 
4.730000000002315, -0.4736687708271413 
4.740000000002292, -0.47263791159923263 
4.750000000002268, -0.4711240666650854 
4.760000000002245, -0.4689135255531216 
4.770000000002222, -0.4657301022794013 
4.7800000000021985, -0.4613118388838878 
4.790000000002175, -0.455581937518748 
4.800000000002152, -0.4488334573975523 
4.810000000002129, -0.4417226425378561 
4.820000000002105, -0.4349915364706363 
4.830000000002082, -0.42915317753946713 
4.840000000002059, -0.4243899938415835 
4.850000000002035, -0.4206455609975673 
4.860000000002012, -0.4177584862881708 
4.870000000001989, -0.41555258650163107 
4.880000000001965, -0.41387728309870087 
4.890000000001942, -0.4126183226810717 
