t, s[1].omega / s[0].omega 
0, -0.5199977533602218 
0.009999999999999995, -0.5198063367198344 
0.019999999999999934, -0.5196691981700841 
0.029999999999999874, -0.5195562727302521 
0.04000000000000012, -0.519430048690862 
0.050000000000000405, -0.5192577506227988 
0.06000000000000069, -0.5190190570576193 
0.07000000000000098, -0.5187073748613111 
0.08000000000000126, -0.5183270112191544 
0.09000000000000155, -0.5178901783901518 
0.10000000000000184, -0.5174168161353452 
0.11000000000000212, -0.5169389851978315 
0.12000000000000241, -0.5165114679370898 
0.130000000000002, -0.5162312005161076 
0.1400000000000009, -0.5162694159007974 
0.1499999999999998, -0.5169196842087413 
0.1599999999999987, -0.5186558873777902 
0.1699999999999976, -0.5221604136658435 
0.1799999999999965, -0.5282019852036572 
0.1899999999999954, -0.5371534900565808 
0.1999999999999943, -0.5481432992308292 
0.2099999999999932, -0.5587300636850833 
0.2199999999999921, -0.5663732235591452 
0.229999999999991, -0.5704953315976276 
0.2399999999999899, -0.5723378899209453 
0.2499999999999888, -0.573286422526216 
0.2599999999999877, -0.574034532423605 
0.2699999999999866, -0.5747498186453833 
0.2799999999999855, -0.5754069016472256 
0.2899999999999844, -0.575957350946741 
0.2999999999999833, -0.5763744590994838 
0.3099999999999822, -0.5766510215355148 
0.3199999999999811, -0.5767880691560315 
0.32999999999998, -0.5767857491569447 
0.3399999999999789, -0.5766378951910102 
0.3499999999999778, -0.5763300053155801 
0.35999999999997667, -0.5758410805808927 
0.36999999999997557, -0.5751506403813013 
0.37999999999997447, -0.5742512643001684 
0.38999999999997337, -0.5731627279154057 
0.39999999999997227, -0.5719384211205717 
0.40999999999997117, -0.5706557391414305 
0.41999999999997006, -0.5693932556771487 
0.42999999999996896, -0.5682084766658672 
0.43999999999996786, -0.5671282639658265 
0.44999999999996676, -0.5661531906697873 
0.45999999999996566, -0.5652693132034783 
0.46999999999996456, -0.5644602548827928 
0.47999999999996346, -0.5637157047715613 
0.48999999999996235, -0.5630358934887136 
0.49999999999996125, -0.5624336618686501 
0.5099999999999602, -0.5619361210434646 
0.519999999999959, -0.5615872840834546 
0.529999999999958, -0.5614522965935635 
0.5399999999999568, -0.5616234478138431 
0.5499999999999557, -0.5622279847900347 
0.5599999999999546, -0.5634375916121679 
0.5699999999999535, -0.5654786757806759 
0.5799999999999524, -0.5686402286231419 
0.5899999999999513, -0.5732700334225016 
0.5999999999999502, -0.5797381128900084 
0.6099999999999491, -0.5883307791740592 
0.619999999999948, -0.5990414695083855 
0.6299999999999469, -0.6113033430143427 
0.6399999999999458, -0.6238907355812279 
0.6499999999999447, -0.6352820865853908 
0.6599999999999436, -0.6443644232976132 
0.6699999999999425, -0.650857206303259 
0.6799999999999414, -0.6551349229508736 
0.6899999999999403, -0.6577957556784473 
0.6999999999999392, -0.6593707116369685 
0.7099999999999381, -0.6602350812656093 
0.719999999999937, -0.6606227611537936 
0.7299999999999359, -0.6606636070671948 
0.7399999999999348, -0.6604124116732647 
0.7499999999999337, -0.6598628477434242 
0.7599999999999326, -0.6589466920654602 
0.7699999999999315, -0.6575195807014715 
0.7799999999999304, -0.6553372108077637 
0.7899999999999293, -0.6520378705928331 
0.7999999999999282, -0.6471748717538941 
0.8099999999999271, -0.6403685359082304 
0.819999999999926, -0.6315926081073235 
0.8299999999999249, -0.6214113462835887 
0.8399999999999238, -0.6108671874043502 
0.8499999999999227, -0.6010268195719203 
0.8599999999999216, -0.5925811370109645 
0.8699999999999205, -0.5857650259891877 
0.8799999999999194, -0.5804996168769828 
0.8899999999999183, -0.5765633647677562 
0.8999999999999172, -0.5737034494040263 
0.9099999999999161, -0.5716875058322989 
0.919999999999915, -0.5703202238063716 
0.9299999999999139, -0.5694443351999755 
0.9399999999999128, -0.5689363398465866 
0.9499999999999117, -0.5687012844904386 
0.9599999999999106, -0.5686680074276632 
0.9699999999999095, -0.5687851895100272 
0.9799999999999084, -0.569018294569418 
0.9899999999999073, -0.569347422903338 
0.9999999999999062, -0.5697658750495964 
1.0099999999999052, -0.5702786546843941 
1.019999999999904, -0.5708993645976685 
1.029999999999903, -0.5716435739103705 
1.039999999999902, -0.5725176578456301 
1.0499999999999008, -0.5735049213850194 
1.0599999999998997, -0.5745550412302929 
1.0699999999998986, -0.5755857530320848 
1.0799999999998975, -0.5765018479685093 
1.0899999999998964, -0.577224049869913 
1.0999999999998953, -0.5777100943673772 
1.1099999999998942, -0.5779561105274097 
1.119999999999893, -0.5779824468213458 
1.129999999999892, -0.5778162520949214 
1.1399999999998909, -0.5774790816050244 
1.1499999999998898, -0.5769808071452656 
1.1599999999998887, -0.5763177070256115 
1.1699999999998876, -0.5754724728008864 
1.1799999999998865, -0.5744144891754732 
1.1899999999998854, -0.5730978717611566 
1.1999999999998843, -0.5714493183416876 
1.2099999999998832, -0.5693226232200481 
1.219999999999882, -0.5663720046975361 
1.229999999999881, -0.5618125781916063 
1.2399999999998799, -0.5542696441769396 
1.2499999999998788, -0.5424028571048527 
1.2599999999998777, -0.5265777472577721 
1.2699999999998766, -0.5096170996346271 
1.2799999999998755, -0.4948643464825341 
1.2899999999998744, -0.483962990338399 
1.2999999999998733, -0.4767589182278103 
1.3099999999998722, -0.4723306984478133 
1.319999999999871, -0.46974054699286605 
1.32999999999987, -0.46828746149602435 
1.3399999999998689, -0.467510128364996 
1.3499999999998678, -0.4671227910030901 
1.3599999999998666, -0.4669536510748459 
1.3699999999998655, -0.4669009373891891 
1.3799999999998644, -0.46690489916727207 
1.3899999999998633, -0.4669311297250601 
1.3999999999998622, -0.4669615090561301 
1.4099999999998611, -0.46699026738854804 
1.41999999999986, -0.4670232288223176 
1.429999999999859, -0.46707804306084555 
1.4399999999998578, -0.4671826804450056 
1.4499999999998567, -0.46736977307350597 
1.4599999999998556, -0.4676662719208838 
1.4699999999998545, -0.4680806983457811 
1.4799999999998534, -0.4685927471453789 
1.4899999999998523, -0.46915131346086786 
1.4999999999998512, -0.46968525601177624 
1.5099999999998501, -0.47012412454979513 
1.519999999999849, -0.4704177377378998 
1.529999999999848, -0.4705436464805507 
1.5399999999998468, -0.47050121680957363 
1.5499999999998457, -0.4702993899890561 
1.5599999999998446, -0.4699451311573527 
1.5699999999998435, -0.46943487981924814 
1.5799999999998424, -0.468747391933123 
1.5899999999998413, -0.46783422772378086 
1.5999999999998402, -0.46660187658984115 
1.6099999999998391, -0.46487467674160293 
1.619999999999838, -0.46231922647437323 
1.629999999999837, -0.4583080757946765 
1.6399999999998358, -0.45175375468861745 
1.6499999999998347, -0.4411707623119468 
1.6599999999998336, -0.42553212927923056 
1.6699999999998325, -0.40585280309338456 
1.6799999999998314, -0.3854759146751149 
1.6899999999998303, -0.3678427968962816 
1.6999999999998292, -0.35445923541114227 
1.709999999999828, -0.3450634866408528 
1.719999999999827, -0.33871085634631976 
1.729999999999826, -0.3344730166561255 
1.7399999999998248, -0.33165308196537924 
1.7499999999998237, -0.32978029594298014 
1.7599999999998226, -0.32855101225060457 
1.7699999999998215, -0.3277743116687689 
1.7799999999998204, -0.3273337801797123 
1.7899999999998193, -0.3271634834306066 
1.7999999999998182, -0.3272342028668732 
1.809999999999817, -0.32754691690930104 
1.819999999999816, -0.32813170056926694 
1.8299999999998149, -0.32905100424341327 
1.8399999999998138, -0.3304063600041375 
1.8499999999998127, -0.3323463629118689 
1.8599999999998116, -0.33506987556853834 
1.8699999999998105, -0.3388095076854399 
1.8799999999998094, -0.3437668321882116 
1.8899999999998083, -0.3499694347117354 
1.8999999999998072, -0.3570808490882884 
1.909999999999806, -0.36433856264517855 
1.919999999999805, -0.3708231854398555 
1.9299999999998039, -0.3759182537897682 
1.9399999999998028, -0.37952159036361777 
1.9499999999998017, -0.3818835868975343 
1.9599999999998006, -0.38334710002338557 
1.9699999999997995, -0.38419916423575956 
1.9799999999997984, -0.3846356186854161 
1.9899999999997973, -0.38477435255750414 
1.9999999999997962, -0.38467675020911873 
2.0099999999998173, -0.38436435987365897 
2.0199999999998384, -0.3838305183813314 
2.0299999999998595, -0.3830510578676735 
2.0399999999998806, -0.3819994116746274 
2.0499999999999017, -0.3806692221929742 
2.059999999999923, -0.37909925565844854 
2.069999999999944, -0.37738420101383807 
2.079999999999965, -0.37565582962674715 
2.089999999999986, -0.37404107602716585 
2.100000000000007, -0.37262461548112147 
2.1100000000000283, -0.37143648439688887 
2.1200000000000494, -0.3704623006078519 
2.1300000000000705, -0.36966232253398745 
2.1400000000000916, -0.36898905773736884 
2.1500000000001127, -0.3683994897926086 
2.160000000000134, -0.36786151586179316 
2.170000000000155, -0.3673558450269112 
2.180000000000176, -0.36687554135343375 
2.190000000000197, -0.3664255706286828 
2.2000000000002182, -0.3660243027633681 
2.2100000000002393, -0.36570854819565934 
2.2200000000002604, -0.36554373694065656 
2.2300000000002815, -0.36564089481038725 
2.2400000000003026, -0.36618013593837445 
2.2500000000003237, -0.36742999324707937 
2.260000000000345, -0.36971579986805747 
2.270000000000366, -0.3732017000325404 
2.280000000000387, -0.37725977386850784 
2.290000000000408, -0.3795564381604125 
2.3000000000004293, -0.37644703399817764 
2.3100000000004504, -0.3663730544971336 
2.3200000000004715, -0.3524114819832206 
2.3300000000004926, -0.3392273641546487 
2.3400000000005137, -0.3292373103793703 
2.3500000000005348, -0.3225138407197039 
2.360000000000556, -0.3182396947816156 
2.370000000000577, -0.3155883224553685 
2.380000000000598, -0.31396238783085667 
2.390000000000619, -0.31297844125633956 
2.4000000000006403, -0.31240213236313 
2.4100000000006614, -0.3120940191823106 
2.4200000000006825, -0.3119740041725975 
2.4300000000007036, -0.31200026802245634 
2.4400000000007247, -0.31215789356027845 
2.450000000000746, -0.3124538112102659 
2.460000000000767, -0.31291586386744885 
2.470000000000788, -0.31359423480092014 
2.480000000000809, -0.31456315757574294 
2.49000000000083, -0.31591958859613845 
2.5000000000008513, -0.31777297973015156 
2.5100000000008724, -0.3202168228274371 
2.5200000000008935, -0.32327338224857666 
2.5300000000009146, -0.32682166596232737 
2.5400000000009357, -0.3305614352819566 
2.550000000000957, -0.33408491968807186 
2.560000000000978, -0.33704375913806406 
2.570000000000999, -0.33927950020108333 
2.58000000000102, -0.3408204655333679 
2.5900000000010412, -0.3417914393986277 
2.6000000000010624, -0.3423290885945577 
2.6100000000010835, -0.34253990478400903 
2.6200000000011046, -0.3424898026354132 
2.6300000000011257, -0.3422066355676336 
2.6400000000011468, -0.34168527547280364 
2.650000000001168, -0.3408932031606689 
2.660000000001189, -0.339780158455025 
2.67000000000121, -0.3382985147272111 
2.680000000001231, -0.3364380185115342 
2.6900000000012523, -0.33426360502541025 
2.7000000000012734, -0.3319258568795605 
2.7100000000012945, -0.32962095091374666 
2.7200000000013156, -0.32752101306148296 
2.7300000000013367, -0.3257247823118653 
2.740000000001358, -0.32425284419600586 
2.750000000001379, -0.32307199391232777 
2.7600000000014, -0.32212415363505364 
2.770000000001421, -0.3213476188905246 
2.780000000001442, -0.32068920855174726 
2.7900000000014633, -0.32010949831608376 
2.8000000000014844, -0.3195836946662265 
2.8100000000015055, -0.3191005821102007 
2.8200000000015266, -0.31866168096219727 
2.8300000000015477, -0.31828226750615335 
2.840000000001569, -0.3179955008965375 
2.85000000000159, -0.3178606129868463 
2.860000000001611, -0.31797504719720737 
2.870000000001632, -0.3184852228535322 
2.8800000000016532, -0.31957139992346417 
2.8900000000016743, -0.3213272394943844 
2.9000000000016954, -0.3233549153640782 
2.9100000000017165, -0.32394571006349315 
2.9200000000017377, -0.31964981396150394 
2.9300000000017588, -0.3075695944341826 
2.94000000000178, -0.28954393217862395 
2.950000000001801, -0.2712308732760055 
2.960000000001822, -0.2567063479382482 
2.970000000001843, -0.2466716134983958 
2.9800000000018643, -0.2401581922845853 
2.9900000000018854, -0.23601170672213145 
3.0000000000019065, -0.23337181918730354 
3.0100000000019276, -0.23168514909702265 
3.0200000000019487, -0.23061536861456794 
3.03000000000197, -0.22996399793919622 
3.040000000001991, -0.2296187605551976 
3.050000000002012, -0.22952371153626375 
3.060000000002033, -0.22966395643144938 
3.070000000002054, -0.23006033458589972 
3.0800000000020753, -0.23077185750003268 
3.0900000000020964, -0.23190533956766518 
3.1000000000021175, -0.23363226642000207 
3.1100000000021386, -0.2362111643024783 
3.1200000000021597, -0.240005245333177 
3.130000000002181, -0.24546097929268518 
3.140000000002202, -0.2529694054752022 
3.150000000002223, -0.26252232847205254 
3.160000000002244, -0.27328246426965197 
3.1700000000022652, -0.2836254500483072 
3.1800000000022863, -0.29202266535334764 
3.1900000000023074, -0.2979227538356073 
3.2000000000023285, -0.3016816513163631 
3.2100000000023496, -0.30395553338474773 
3.2200000000023707, -0.3052987336912538 
3.230000000002392, -0.306073866946607 
3.240000000002413, -0.30649324435642494 
3.250000000002434, -0.306674924506283 
3.260000000002455, -0.30668205422379213 
3.2700000000024763, -0.30654656691039694 
3.2800000000024974, -0.30628398642026206 
3.2900000000025185, -0.30590469270484266 
3.3000000000025396, -0.305424340495593 
3.3100000000025607, -0.30487283496071954 
3.3200000000025818, -0.3042981881628225 
3.330000000002603, -0.30376145784330655 
3.340000000002624, -0.3033234798829892 
3.350000000002645, -0.30302942302919905 
3.360000000002666, -0.3028975471045402 
3.3700000000026873, -0.3029147686954289 
3.3800000000027084, -0.3030393194776744 
3.3900000000027295, -0.3032107200292399 
3.4000000000027506, -0.30336524812405447 
3.4100000000027717, -0.3034507402193363 
3.420000000002793, -0.30343370246374685 
3.430000000002814, -0.30329674585479016 
3.440000000002835, -0.30302982678767065 
3.450000000002856, -0.3026195589942291 
3.460000000002877, -0.302037950661073 
3.4700000000028983, -0.30122848830232757 
3.4800000000029194, -0.3000848817065447 
3.4900000000029405, -0.2984166156147572 
3.5000000000029616, -0.29590036120692387 
3.5100000000029827, -0.29204323494651213 
3.520000000003004, -0.2862548733878945 
3.530000000003025, -0.2781850135081275 
3.540000000003046, -0.2682618133911465 
3.550000000003067, -0.25781616393478435 
3.5600000000030882, -0.24835512645711527 
3.5700000000031094, -0.24072907554620332 
3.5800000000031305, -0.23501540967835077 
3.5900000000031516, -0.2308834469950361 
3.6000000000031727, -0.2279230205058179 
3.6100000000031938, -0.2257895169190276 
3.620000000003215, -0.22423314529855704 
3.630000000003236, -0.22308611533113779 
3.640000000003257, -0.22224268156485655 
3.650000000003278, -0.22164331314157315 
3.6600000000032993, -0.2212653527160736 
3.6700000000033204, -0.22112041837505214 
3.6800000000033415, -0.22125920698552828 
3.6900000000033626, -0.22178585869831177 
3.7000000000033837, -0.22288630387334826 
3.710000000003405, -0.22487727474866107 
3.720000000003426, -0.2282803963856667 
3.730000000003447, -0.2339001132571193 
3.740000000003468, -0.24277809318286758 
3.750000000003489, -0.2556288297912092 
3.7600000000035103, -0.27122617029745955 
3.7700000000035314, -0.2848326106240127 
3.7800000000035525, -0.2908656100781664 
3.7900000000035736, -0.2888462435620073 
3.8000000000035947, -0.28308453929889554 
3.810000000003616, -0.2773944145180468 
3.820000000003637, -0.27315617042818763 
3.830000000003658, -0.2703491693120289 
3.840000000003679, -0.26858300885559944 
3.8500000000037002, -0.26749929170413006 
3.8600000000037213, -0.2668494893917427 
3.8700000000037424, -0.26647805626476473 
3.8800000000037635, -0.26629315915759005 
3.8900000000037847, -0.26624465244520323 
3.9000000000038058, -0.266310787587823 
3.910000000003827, -0.2664916262684722 
3.920000000003848, -0.2668071878559887 
3.930000000003869, -0.2672988078919141 
3.94000000000389, -0.26803222212285216 
3.9500000000039113, -0.26910025840043283 
3.9600000000039324, -0.27062121316302523 
3.9700000000039535, -0.2727251246731351 
3.9800000000039746, -0.2755150874178825 
3.9900000000039957, -0.27899361159238595 
4.000000000004016, -0.2829754197451784 
4.010000000003993, -0.28706710390259793 
4.02000000000397, -0.2907938157632808 
4.030000000003946, -0.29381001619458735 
4.040000000003923, -0.29601257978597706 
4.0500000000039, -0.297488645411762 
4.0600000000038765, -0.2983982133160765 
4.070000000003853, -0.2988910367076577 
4.08000000000383, -0.2990753048657946 
4.090000000003807, -0.2990156718600714 
4.100000000003783, -0.2987407266382127 
4.11000000000376, -0.2982517182062776 
4.120000000003737, -0.29753221669485913 
4.130000000003713, -0.29656196522150186 
4.14000000000369, -0.295337544054758 
4.150000000003667, -0.29389581516232927 
4.1600000000036434, -0.2923257382870587 
4.17000000000362, -0.2907531653219544 
4.180000000003597, -0.2893022054519974 
4.1900000000035735, -0.28805812644580264 
4.20000000000355, -0.2870529158926983 
4.210000000003527, -0.28627287224641035 
4.220000000003504, -0.28567550257648133 
4.23000000000348, -0.28520615154890244 
4.240000000003457, -0.2848109482623134 
4.250000000003434, -0.28444507818659126 
4.26000000000341, -0.28407595309703254 
4.270000000003387, -0.28368194767705435 
4.280000000003364, -0.2832484427154754 
4.2900000000033405, -0.2827627565230188 
4.300000000003317, -0.28220816056162784 
4.310000000003294, -0.28155493526691266 
4.320000000003271, -0.28074265299731066 
4.330000000003247, -0.2796402996377431 
4.340000000003224, -0.27795714147641815 
4.350000000003201, -0.2750677299023332 
4.360000000003177, -0.26978193530180805 
4.370000000003154, -0.2604197090814159 
4.380000000003131, -0.2459745132079095 
4.390000000003107, -0.2280094576160197 
4.400000000003084, -0.21033226308730052 
4.410000000003061, -0.19598380568313237 
4.4200000000030375, -0.18567776628632748 
4.430000000003014, -0.17869678698912028 
4.440000000002991, -0.1740444523195947 
4.450000000002968, -0.1709245161151665 
4.460000000002944, -0.1688014128550366 
4.470000000002921, -0.16733907680804516 
4.480000000002898, -0.16633464725764038 
4.490000000002874, -0.16567234974733303 
4.500000000002851, -0.16529652329134079 
4.510000000002828, -0.16519912549182936 
4.520000000002804, -0.1654190121119504 
4.530000000002781, -0.16605332359156247 
4.540000000002758, -0.16728483459455984 
4.5500000000027345, -0.16943302824166895 
4.560000000002711, -0.17303795252976556 
4.570000000002688, -0.1789684786802028 
4.580000000002665, -0.1884524752265885 
4.590000000002641, -0.2026365379986063 
4.600000000002618, -0.2209536013372448 
4.610000000002595, -0.2389214121541253 
4.620000000002571, -0.24999357577962028 
4.630000000002548, -0.25224067507441095 
4.640000000002525, -0.24939112447818093 
4.6500000000025015, -0.24547749162236804 
4.660000000002478, -0.24227440379101287 
4.670000000002455, -0.24006245127020823 
4.6800000000024315, -0.2386380988017634 
4.690000000002408, -0.23775124862173058 
4.700000000002385, -0.2372151817063079 
4.710000000002362, -0.2369100433630825 
4.720000000002338, -0.23676535286710143 
4.730000000002315, -0.23674469399062886 
4.740000000002292, -0.23683639271638715 
4.750000000002268, -0.23704948749170876 
4.760000000002245, -0.23741376566793448 
4.770000000002222, -0.2379827610811475 
4.7800000000021985, -0.23883844992787218 
4.790000000002175, -0.24009543804275757 
4.800000000002152, -0.24189968307878534 
4.810000000002129, -0.24441074466183635 
4.820000000002105, -0.2477488958470031 
4.830000000002082, -0.251894359931611 
4.840000000002059, -0.2565767006266455 
4.850000000002035, -0.26127533523068713 
4.860000000002012, -0.2654210047648343 
4.870000000001989, -0.26866251244201445 
