t, s[1].omega / s[0].omega 
0, -0.01999783096988497 
0.009999999999999995, -0.019891705701965794 
0.019999999999999934, -0.019992256573561556 
0.029999999999999874, -0.02026137794050663 
0.04000000000000012, -0.020637743830638024 
0.050000000000000405, -0.021046501050292023 
0.06000000000000069, -0.02141587773538509 
0.07000000000000098, -0.021692373562071616 
0.08000000000000126, -0.02184621829733722 
0.09000000000000155, -0.021866535772532406 
0.10000000000000184, -0.02175188448187864 
0.11000000000000212, -0.021501869869841463 
0.12000000000000241, -0.02111260423240375 
0.130000000000002, -0.020576848705707654 
0.1400000000000009, -0.019889249244616238 
0.1499999999999998, -0.019056409964348934 
0.1599999999999987, -0.01810869373115514 
0.1699999999999976, -0.01710630519581944 
0.1799999999999965, -0.016131902474155392 
0.1899999999999954, -0.015270572043143466 
0.1999999999999943, -0.01458877742393638 
0.2099999999999932, -0.014123624105062313 
0.2199999999999921, -0.013882996513195736 
0.229999999999991, -0.013849520752656238 
0.2399999999999899, -0.013983538897927533 
0.2499999999999888, -0.014226742468219155 
0.2599999999999877, -0.01451067313643332 
0.2699999999999866, -0.01477005213571038 
0.2799999999999855, -0.014954835102264108 
0.2899999999999844, -0.015034624508388082 
0.2999999999999833, -0.014994786552439623 
0.3099999999999822, -0.014828527906484432 
0.3199999999999811, -0.014529547813185526 
0.32999999999998, -0.014087889224062677 
0.3399999999999789, -0.013490273393369926 
0.3499999999999778, -0.012725975869458344 
0.35999999999997667, -0.011798450456633929 
0.36999999999997557, -0.010739235106436281 
0.37999999999997447, -0.009615040309026024 
0.38999999999997337, -0.008518415134370053 
0.39999999999997227, -0.007543334152279214 
0.40999999999997117, -0.006760498233390701 
0.41999999999997006, -0.006206132886737578 
0.42999999999996896, -0.005884267234021773 
0.43999999999996786, -0.00577347318003737 
0.44999999999996676, -0.005831918370077879 
0.45999999999996566, -0.006001823991848751 
0.46999999999996456, -0.006217333977290267 
0.47999999999996346, -0.006416144875447111 
0.48999999999996235, -0.00654988703656567 
0.49999999999996125, -0.0065878603925127776 
0.5099999999999602, -0.006513497438287169 
0.519999999999959, -0.0063171615029778295 
0.529999999999958, -0.005989357215476756 
0.5399999999999568, -0.005516885488806213 
0.5499999999999557, -0.004883461909099837 
0.5599999999999546, -0.004076183606752869 
0.5699999999999535, -0.0030981759265004847 
0.5799999999999524, -0.0019834735661558925 
0.5899999999999513, -0.000803919073126211 
0.5999999999999502, 0.0002106556493440673 
0.6099999999999491, 0.0007896875018150867 
0.619999999999948, 0.001166677140400744 
0.6299999999999469, 0.0013075634622978353 
0.6399999999999458, 0.0012113167365559651 
0.6499999999999447, 0.0009020193672426965 
0.6599999999999436, 0.0004232606959577468 
0.6699999999999425, -0.00005020588846635586 
0.6799999999999414, -0.0002493076668745332 
0.6899999999999403, -0.00043229056223198086 
0.6999999999999392, -0.0005515401604242774 
0.7099999999999381, -0.0005766630606217752 
0.719999999999937, -0.0004908817977360337 
0.7299999999999359, -0.00028398815919073063 
0.7399999999999348, 4.3776528089195826e-7 
0.7499999999999337, 0.000050618890802755266 
0.7599999999999326, 0.0002593982949246774 
0.7699999999999315, 0.0006418999348052061 
0.7799999999999304, 0.001193209850036083 
0.7899999999999293, 0.0018766820068549408 
0.7999999999999282, 0.0026181514232395996 
0.8099999999999271, 0.0033186518914585994 
0.819999999999926, 0.0038819175679127337 
0.8299999999999249, 0.004239383715210236 
0.8399999999999238, 0.004359306432293692 
0.8499999999999227, 0.004242291139708558 
0.8599999999999216, 0.0039135210637342615 
0.8699999999999205, 0.0034175164371981043 
0.8799999999999194, 0.0028136283488814583 
0.8899999999999183, 0.00216807183837631 
0.8999999999999172, 0.0015424355730462207 
0.9099999999999161, 0.0009838426873648573 
0.919999999999915, 0.0005218835143796475 
0.9299999999999139, 0.00017255438490763704 
0.9399999999999128, 6.977719096452889e-7 
0.9499999999999117, 8.010628194432228e-7 
0.9599999999999106, 0.00005243117784322101 
0.9699999999999095, 0.00026345601858304663 
0.9799999999999084, 0.0006460738123863481 
0.9899999999999073, 0.0011932510915028491 
0.9999999999999062, 0.001866145647341988 
1.0099999999999052, 0.0025894645295541714 
1.019999999999904, 0.003265091010551554 
1.029999999999903, 0.0037992897183091352 
1.039999999999902, 0.004126383580060627 
1.0499999999999008, 0.0042167402745855835 
1.0599999999998997, 0.0040721304935130535 
1.0699999999998986, 0.00371846753451222 
1.0799999999998975, 0.003201057279263094 
1.0899999999998964, 0.002580111612057806 
1.0999999999998953, 0.0019223836726429664 
1.1099999999998942, 0.0012893069540730732 
1.119999999999893, 0.0007271919280399125 
1.129999999999892, 0.0002645414812441388 
1.1399999999998909, -5.36308250885254e-8 
1.1499999999998898, 4.541249132182179e-7 
1.1599999999998887, 6.370984774134478e-7 
1.1699999999998876, 0.00005541720796407141 
1.1799999999998865, 0.00026892772479071797 
1.1899999999998854, 0.0006519253025522438 
1.1999999999998843, 0.0011953112309069204 
1.2099999999998832, 0.0018581333009226326 
1.219999999999882, 0.002564057128763275 
1.229999999999881, 0.0032158329131085793 
1.2399999999998799, 0.003722166296724313 
1.2499999999998788, 0.004020120949292558 
1.2599999999998777, 0.004082062299936516 
1.2699999999998766, 0.003910895539669652 
1.2799999999998755, 0.0035333027559254298 
1.2899999999998744, 0.0029954327101727784 
1.2999999999998733, 0.002358381191752489 
1.3099999999998722, 0.0016894074093615698 
1.319999999999871, 0.0010497265023486294 
1.32999999999987, 0.00048478602777398354 
1.3399999999998689, 0.00002198942169147364 
1.3499999999998678, -5.032137815187799e-7 
1.3599999999998666, -2.7769344036175684e-7 
1.3699999999998655, 2.265116891235068e-7 
1.3799999999998644, 0.000059818821829820575 
1.3899999999998633, 0.0002760093200962834 
1.3999999999998622, 0.0006595890450052802 
1.4099999999998611, 0.0011994397081545132 
1.41999999999986, 0.001852578203916807 
1.429999999999859, 0.002541712830293699 
1.4399999999998578, 0.003170483961583452 
1.4499999999998567, 0.003649963463178912 
1.4599999999998556, 0.003919826952325197 
1.4699999999998545, 0.0039543374369301835 
1.4799999999998534, 0.0037575090586636816 
1.4899999999998523, 0.003356829363190543 
1.4999999999998512, 0.0027993411511174357 
1.5099999999998501, 0.0021470406080830104 
1.519999999999849, 0.0014676570885588168 
1.529999999999848, 0.0008221245999645058 
1.5399999999998468, 0.0002549806518508989 
1.5499999999998457, -3.813289054995331e-7 
1.5599999999998446, 1.23715839596269e-7 
1.5699999999998435, 3.3136183077389424e-7 
1.5799999999998424, 6.42035524596515e-7 
1.5899999999998413, 0.00006304606615367843 
1.5999999999998402, 0.0002820768624356521 
1.6099999999998391, 0.0006663967377702568 
1.619999999999838, 0.001202907714504401 
1.629999999999837, 0.001846670053013686 
1.6399999999998358, 0.002519516631172597 
1.6499999999998347, 0.003126004378726804 
1.6599999999998336, 0.0035795065333132465 
1.6699999999998325, 0.003822195409683844 
1.6799999999998314, 0.0038301425111702384 
1.6899999999998303, 0.0036084503315479757 
1.6999999999998292, 0.0031854474899244167 
1.709999999999828, 0.002609116910145964 
1.719999999999827, 0.0019423653223245736 
1.729999999999826, 0.0012533519607304407 
1.7399999999998248, 0.0006026665699923092 
1.7499999999998237, 0.00003389203889757221 
1.7599999999998226, -0.000021595006546474093 
1.7699999999998215, -6.79802143897922e-7 
1.7799999999998204, -2.46238987243805e-7 
1.7899999999998193, 6.61319505527637e-8 
1.7999999999998182, 0.00006471951146531597 
1.809999999999817, 0.000286734138003267 
1.819999999999816, 0.0006719303284845033 
1.8299999999998149, 0.0012052664667406767 
1.8399999999998138, 0.0018399163661229657 
1.8499999999998127, 0.002496915952866631 
1.8599999999998116, 0.003081765069591684 
1.8699999999998105, 0.0035100794718396305 
1.8799999999998094, 0.003726423315626213 
1.8899999999998083, 0.0037085972022367943 
1.8999999999998072, 0.0034627764805580255 
1.909999999999806, 0.003018166189652915 
1.919999999999805, 0.002423730965773126 
1.9299999999998039, 0.0017432920040993745 
1.9399999999998028, 0.0010453936884374272 
1.9499999999998017, 0.00039021795480461585 
1.9599999999998006, -0.000035042630812946537 
1.9699999999997995, -0.000059567135708475715 
1.9799999999997984, 2.2560625509263088e-7 
1.9899999999997973, -3.3766073316202007e-7 
1.9999999999997962, 1.620648358093047e-7 
2.0099999999998173, 0.00006867475321285988 
2.0199999999998384, 0.00029380852967869614 
2.0299999999998595, 0.000680005718829785 
2.0399999999998806, 0.001210313795087421 
2.0499999999999017, 0.0018360862838067682 
2.059999999999923, 0.002477636652056925 
2.069999999999944, 0.003041432908329654 
2.079999999999965, 0.0034452790739823323 
2.089999999999986, 0.0036360353560926325 
2.100000000000007, 0.0035931608582334593 
2.1100000000000283, 0.0033238930411048444 
2.1200000000000494, 0.0028583484550087045 
2.1300000000000705, 0.002246510791539101 
2.1400000000000916, 0.0015531139553181129 
2.1500000000001127, 0.0008470391547728232 
2.160000000000134, 0.00018799746332441328 
2.170000000000155, -0.00008235092774706168 
2.180000000000176, -0.00010533524368440434 
2.190000000000197, -0.000006388120517345023 
2.2000000000002182, 2.575818544018004e-7 
2.2100000000002393, 3.8877958575765117e-7 
2.2200000000002604, 0.00007217690598019304 
2.2300000000002815, 0.0003005499853666944 
2.2400000000003026, 0.0006878537577978959 
2.2500000000003237, 0.0012152550660433359 
2.260000000000345, 0.0018323508457233813 
2.270000000000366, 0.002458804342217358 
2.280000000000387, 0.0030020768686891837 
2.290000000000408, 0.0033821107628143644 
2.3000000000004293, 0.0035479743058852544 
2.3100000000004504, 0.0034807220145406867 
2.3200000000004715, 0.003188646755894599 
2.3300000000004926, 0.002702811261686619 
2.3400000000005137, 0.0020742513811671786 
2.3500000000005348, 0.0013686061631554803 
2.360000000000556, 0.0006550413455028261 
2.370000000000577, -0.0000021793275192252015 
2.380000000000598, -0.0001367631291630154 
2.390000000000619, -0.00015785398142515022 
2.4000000000006403, -0.000055823400548460215 
2.4100000000006614, 3.803375213812302e-7 
2.4200000000006825, 3.070117571823974e-7 
2.4300000000007036, 0.00007623511386530793 
2.4400000000007247, 0.00030796295902169426 
2.450000000000746, 0.0006964727307132587 
2.460000000000767, 0.0012210789358177284 
2.470000000000788, 0.0018296829153129509 
2.480000000000809, 0.0024413666701239016 
2.49000000000083, 0.0029646083979542144 
2.5000000000008513, 0.0033214416978121796 
2.5100000000008724, 0.0034630617634868006 
2.5200000000008935, 0.0033720624941314774 
2.5300000000009146, 0.00305778944947324 
2.5400000000009357, 0.002552285860691882 
2.550000000000957, 0.0019076686611500526 
2.560000000000978, 0.0011904688793299917 
2.570000000000999, 0.0004700810131568851 
2.58000000000102, -0.00006338821491823864 
2.5900000000010412, -0.0001976448185119929 
2.6000000000010624, -0.00021650651403649787 
2.6100000000010835, -0.00011114391194119993 
2.6200000000011046, -1.0324396082049068e-7 
2.6300000000011257, 0.0000012294579994324743 
2.6400000000011468, 0.0000814302347127183 
2.650000000001168, 0.00031662317497422134 
2.660000000001189, 0.000706431651203561 
2.67000000000121, 0.0012283443947364147 
2.680000000001231, 0.0018286258428312423 
2.6900000000012523, 0.0024258429220783 
2.7000000000012734, 0.002929513007284559 
2.7100000000012945, 0.0032637166395956597 
2.7200000000013156, 0.0033817010167716244 
2.7300000000013367, 0.003267549799710097 
2.740000000001358, 0.0029316620481887688 
2.750000000001379, 0.002407095214744823 
2.7600000000014, 0.001747072036831362 
2.770000000001421, 0.0010189969773832402 
2.780000000001442, 0.0002924344570660494 
2.7900000000014633, -0.00012544967177457192 
2.8000000000014844, -0.0002589504369959701 
2.8100000000015055, -0.0002752656851717927 
2.8200000000015266, -0.00016633758221010734 
2.8300000000015477, 0.0000011734335415755367 
2.840000000001569, 4.2686990013190364e-7 
2.85000000000159, 0.00008502509404957812 
2.860000000001611, 0.00032378523569564496 
2.870000000001632, 0.0007149751615544898 
2.8800000000016532, 0.0012342831802896579 
2.8900000000016743, 0.0018263940133849542 
2.9000000000016954, 0.0024094236708575682 
2.9100000000017165, 0.002893950113099386 
2.9200000000017377, 0.0032060590244361365 
2.9300000000017588, 0.0033009802952156733 
2.94000000000178, 0.003164243477429172 
2.950000000001801, 0.0028073050645974875 
2.960000000001822, 0.00226426967310062 
2.970000000001843, 0.0015894862306016343 
2.9800000000018643, 0.0008512085851417916 
2.9900000000018854, 0.00011910905127243809 
3.0000000000019065, -0.00018773876574792499 
3.0100000000019276, -0.0003200690373630234 
3.0200000000019487, -0.000333532881430593 
3.03000000000197, -0.00022081498012476022 
3.040000000001991, 4.3356286978399713e-7 
3.050000000002012, 0.0000013857267834874107 
3.060000000002033, 0.00009050427296003481 
3.070000000002054, 0.00033293186453444394 
3.0800000000020753, 0.0007255827644713295 
3.0900000000020964, 0.0012423686365087806 
3.1000000000021175, 0.0018264494923769658 
3.1100000000021386, 0.0023955518936785575 
3.1200000000021597, 0.002861334523754158 
3.130000000002181, 0.0031518487938236852 
3.140000000002202, 0.0032242434390683814 
3.150000000002223, 0.0030654555120996903 
3.160000000002244, 0.0026880056277711283 
3.1700000000022652, 0.002127077446279251 
3.1800000000022863, 0.0014381622957642453 
3.1900000000023074, 0.0006903347490403491 
3.2000000000023285, -0.000019802089176422866 
3.2100000000023496, -0.0002536164240287362 
3.2200000000023707, -0.00038438457849091846 
3.230000000002392, -0.00039471078861622375 
3.240000000002413, -0.00027799269668351347 
3.250000000002434, -0.000030456133224319364 
3.260000000002455, 0.0000028521025779449 
3.2700000000024763, 0.00009660751006271092 
3.2800000000024974, 0.0003427959866196523 
3.2900000000025185, 0.0007369788352663972 
3.3000000000025396, 0.0012513138878891157 
3.3100000000025607, 0.0018274902493978147 
3.3200000000025818, 0.002382904805541527 
3.330000000002603, 0.002830316374406132 
3.340000000002624, 0.0030997049167619914 
3.350000000002645, 0.0031500790132769373 
3.360000000002666, 0.0029697496858798996 
3.3700000000026873, 0.0025723107555971547 
3.3800000000027084, 0.0019940555873045615 
3.3900000000027295, 0.0012916298037292816 
3.4000000000027506, 0.000534895206489765 
3.4100000000027717, -0.00008364724264053021 
3.420000000002793, -0.0003180549958071707 
3.430000000002814, -0.00044688653129062127 
3.440000000002835, -0.00045380394546961874 
3.450000000002856, -0.00033288714673259886 
3.460000000002877, -0.00008070786119228803 
3.4700000000028983, 0.0000025264730995887224 
3.4800000000029194, 0.00010102895379220729 
3.4900000000029405, 0.000351065007769004 
3.5000000000029616, 0.000746842607978968 
3.5100000000029827, 0.001258787938774791 
3.520000000003004, 0.0018271721236731338 
3.530000000003025, 0.0023691206405261358 
3.540000000003046, 0.0027985110935876746 
3.550000000003067, 0.0030472167726359853 
3.5600000000030882, 0.0030760515377689437 
3.5700000000031094, 0.002874671347210135 
3.5800000000031305, 0.0024577544777424475 
3.5900000000031516, 0.0018627332798007048 
3.6000000000031727, 0.001147415139381219 
3.6100000000031938, 0.0003824107651554102 
3.620000000003215, -0.00014831027745500352 
3.630000000003236, -0.00038283104859460374 
3.640000000003257, -0.000509364112809177 
3.650000000003278, -0.0005126117746588416 
3.6600000000032993, -0.0003873045555133353 
3.6700000000033204, -0.0001303313756488902 
3.6800000000033415, 0.000003684538642439778 
3.6900000000033626, 0.00010704453904481473 
3.7000000000033837, 0.0003610153088666917 
3.710000000003405, 0.0007584501558231588 
3.720000000003426, 0.0012680647805860114 
3.730000000003447, 0.0018287636232835695 
3.740000000003468, 0.0023574567399811683 
3.750000000003489, 0.0027691579394040133 
3.7600000000035103, 0.0029976004178283795 
3.7700000000035314, 0.0030053531074447277 
3.7800000000035525, 0.002783392196238582 
3.7900000000035736, 0.002347493542843645 
3.8000000000035947, 0.001736256151654594 
3.810000000003616, 0.001008652386759178 
3.820000000003637, 0.00023599954978146246 
3.830000000003658, -0.00021069494386628026 
3.840000000003679, -0.00044487092055316087 
3.8500000000037002, -0.0005687649343248041 
3.8600000000037213, -0.0005680995426243847 
3.8700000000037424, -0.00043822384995958926 
3.8800000000037635, -0.00017631623354161534 
3.8900000000037847, 0.000004240696981331024 
3.9000000000038058, 0.0001125593364161419 
3.910000000003827, 0.0003705410243632151 
3.920000000003848, 0.0007696819164876164 
3.930000000003869, 0.0012770079485505488 
3.94000000000389, 0.001830107879119491 
3.9500000000039113, 0.0023457316919236215 
3.9600000000039324, 0.002740046827247548 
3.9700000000039535, 0.00294861511282168 
3.9800000000039746, 0.002935714277109224 
3.9900000000039957, 0.0026936196736502788 
4.000000000004016, 0.0022392192342020486 
4.010000000003993, 0.0016123044603722947 
4.02000000000397, 0.0008730116673548282 
4.030000000003946, 0.0000933185133231477 
4.040000000003923, -0.00027461499214099844 
4.0500000000039, -0.000508005566531612 
4.0600000000038765, -0.0006289353104730675 
4.070000000003853, -0.000624125240659606 
4.08000000000383, -0.0004895106959794995 
4.090000000003807, -0.0002225323475624021 
4.100000000003783, 0.000006136455101144253 
4.11000000000376, 0.00011951396313858746 
4.120000000003737, 0.00038158175843813665 
4.130000000003713, 0.000782475594255359 
4.14000000000369, 0.001287551763732251 
4.150000000003667, 0.0018331332796113625 
4.1600000000036434, 0.002335863646175105 
4.17000000000362, 0.002713080378742584 
4.180000000003597, 0.002902144233487607 
4.1900000000035735, 0.002868999197765111 
4.20000000000355, 0.002607202355451671 
4.210000000003527, 0.0021347695332580114 
4.220000000003504, 0.0014927086448327318 
4.23000000000348, 0.00074231470315812 
4.240000000003457, -0.000021297406406973975 
4.250000000003434, -0.0003382805408963951 
4.26000000000341, -0.0005704644151887136 
4.270000000003387, -0.0006881224737572576 
4.280000000003364, -0.0006789504133266301 
4.2900000000033405, -0.0005394372474142673 
4.300000000003317, -0.0002672596848933001 
4.310000000003294, 0.000008905327515124669 
4.320000000003271, 0.00012743542928492062 
4.330000000003247, 0.0003936566386607913 
4.340000000003224, 0.000796340173444395 
4.350000000003201, 0.0012991925423602546 
4.360000000003177, 0.001837320665997779 
4.370000000003154, 0.002327314391285788 
4.380000000003131, 0.0026876975294234415 
4.390000000003107, 0.0028576018447275674 
4.400000000003084, 0.0028045984809519807 
4.410000000003061, 0.0025235119411533098 
4.4200000000030375, 0.0020335026869835737 
4.430000000003014, 0.0013768168607449951 
4.440000000002991, 0.0006158988151413494 
4.450000000002968, -0.00007945926380841073 
4.460000000002944, -0.0003980284347983007 
4.470000000002921, -0.0006286047736939788 
4.480000000002898, -0.0007427024877679688 
4.490000000002874, -0.0007289663132687794 
4.500000000002851, -0.0005844063652285682 
4.510000000002828, -0.00030691027096771477 
4.520000000002804, 0.000009586802529551963 
4.530000000002781, 0.0001333542646444741 
4.540000000002758, 0.00040378557474258744 
4.5500000000027345, 0.0008082826531031122 
4.560000000002711, 0.0013089222939665017 
4.570000000002688, 0.0018396452375497815 
4.580000000002665, 0.0023170401109203547 
4.590000000002641, 0.0026608331055632266 
4.600000000002618, 0.00281190064943368 
4.610000000002595, 0.002739405039580792 
4.620000000002571, 0.0024394267369561304 
4.630000000002548, 0.0019322883376096177 
4.640000000002525, 0.0012614938257998344 
4.6500000000025015, 0.0004906233388723694 
4.660000000002478, -0.0001402707349743047 
