t, s[1].omega / s[0].omega 
0, -0.7999998682685546 
0.009999999999999995, -0.7999545186974715 
0.019999999999999934, -0.7998364120297292 
0.029999999999999874, -0.7996320176224374 
0.04000000000000012, -0.7993331602428999 
0.050000000000000405, -0.7989420827598951 
0.06000000000000069, -0.7984732012010626 
0.07000000000000098, -0.7979528524159097 
0.08000000000000126, -0.797419460911556 
0.09000000000000155, -0.7969252052358903 
0.10000000000000184, -0.7965380676112406 
0.11000000000000212, -0.7963416241448721 
0.12000000000000241, -0.796429969797926 
0.130000000000002, -0.7968971362213461 
0.1400000000000009, -0.7978234575108522 
0.1499999999999998, -0.7992633615299378 
0.1599999999999987, -0.8012380161893139 
0.1699999999999976, -0.8037325561295023 
0.1799999999999965, -0.8066940409848747 
0.1899999999999954, -0.8100258870276699 
0.1999999999999943, -0.8135790080342342 
0.2099999999999932, -0.8171487424013227 
0.2199999999999921, -0.8204938541568689 
0.229999999999991, -0.8233865961817293 
0.2399999999999899, -0.8256756225237682 
0.2499999999999888, -0.8273215040571662 
0.2599999999999877, -0.8283817455467248 
0.2699999999999866, -0.8289632053524405 
0.2799999999999855, -0.8291764756163061 
0.2899999999999844, -0.8291107546115258 
0.2999999999999833, -0.8288280800770871 
0.3099999999999822, -0.8283695008611355 
0.3199999999999811, -0.827769148280334 
0.32999999999998, -0.8270779593374377 
0.3399999999999789, -0.8264034099161737 
0.3499999999999778, -0.8259721865877694 
0.35999999999997667, -0.8262131434976011 
0.36999999999997557, -0.8278293505184587 
0.37999999999997447, -0.831780188006079 
0.38999999999997337, -0.8390584499743007 
0.39999999999997227, -0.8502017177990316 
0.40999999999997117, -0.8647041312965623 
0.41999999999997006, -0.8808071508516495 
0.42999999999996896, -0.8961073027412336 
0.43999999999996786, -0.9086901137634376 
0.44999999999996676, -0.9178479635268223 
0.45999999999996566, -0.9239151251466418 
0.46999999999996456, -0.9276679649607548 
0.47999999999996346, -0.9298628517023649 
0.48999999999996235, -0.9310598271897306 
0.49999999999996125, -0.9316188606605686 
0.5099999999999602, -0.9317494665302133 
0.519999999999959, -0.9315580734751683 
0.529999999999958, -0.9310790407177206 
0.5399999999999568, -0.9302911363557749 
0.5499999999999557, -0.9291266653432562 
0.5599999999999546, -0.9274859873157087 
0.5699999999999535, -0.9252816723959425 
0.5799999999999524, -0.9225519950467065 
0.5899999999999513, -0.9196766781673226 
0.5999999999999502, -0.9176303467106761 
0.6099999999999491, -0.9179804287638458 
0.619999999999948, -0.922222878210172 
0.6299999999999469, -0.930603756441351 
0.6399999999999458, -0.9415523178803783 
0.6499999999999447, -0.9525800192739945 
0.6599999999999436, -0.9617759983207887 
0.6699999999999425, -0.9684683460721809 
0.6799999999999414, -0.9728974854440142 
0.6899999999999403, -0.9756355234505311 
0.6999999999999392, -0.9772255092859361 
0.7099999999999381, -0.9780629474120234 
0.719999999999937, -0.9783974313190132 
0.7299999999999359, -0.9783659969850232 
0.7399999999999348, -0.9780215109675071 
0.7499999999999337, -0.9773464504732632 
0.7599999999999326, -0.9762518832135759 
0.7699999999999315, -0.9745654374510279 
0.7799999999999304, -0.9720200365278702 
0.7899999999999293, -0.9682759901238379 
0.7999999999999282, -0.9630442601575201 
0.8099999999999271, -0.9563888717171963 
0.819999999999926, -0.9491495521162431 
0.8299999999999249, -0.9430725207549789 
0.8399999999999238, -0.9400981621071611 
0.8499999999999227, -0.9410545495061738 
0.8599999999999216, -0.945046850286983 
0.8699999999999205, -0.9502354017507499 
0.8799999999999194, -0.955063403044222 
0.8899999999999183, -0.9588023928826608 
0.8999999999999172, -0.9613778105184559 
0.9099999999999161, -0.9630027269968972 
0.919999999999915, -0.9639334439632972 
0.9299999999999139, -0.9643711895425374 
0.9399999999999128, -0.9644421238524782 
0.9499999999999117, -0.9642022510511904 
0.9599999999999106, -0.9636415092772909 
0.9699999999999095, -0.9626765883804529 
0.9799999999999084, -0.9611275927324712 
0.9899999999999073, -0.9586771512853683 
0.9999999999999062, -0.9548217784768012 
1.0099999999999052, -0.9488590369989603 
1.019999999999904, -0.9400197814727436 
1.029999999999903, -0.9278977206202763 
1.039999999999902, -0.9131456383541521 
1.0499999999999008, -0.8978633026026024 
1.0599999999998997, -0.8848628549355109 
1.0699999999998986, -0.8760811719629625 
1.0799999999998975, -0.8716516480834112 
1.0899999999998964, -0.8703792888422803 
1.0999999999998953, -0.870790021162556 
1.1099999999998942, -0.8717946253968625 
1.119999999999893, -0.8728055905643572 
1.129999999999892, -0.8735889720173805 
1.1399999999998909, -0.8740913301497134 
1.1499999999998898, -0.8743253099355399 
1.1599999999998887, -0.874310447122461 
1.1699999999998876, -0.874045058443215 
1.1799999999998865, -0.873489771052844 
1.1899999999998854, -0.8725514477420934 
1.1999999999998843, -0.8710633099313976 
1.2099999999998832, -0.8687660647397746 
1.219999999999882, -0.8653106532769005 
1.229999999999881, -0.860322559877711 
1.2399999999998799, -0.8535612442087895 
1.2499999999998788, -0.8451312893281105 
1.2599999999998777, -0.8355904654953361 
1.2699999999998766, -0.8258212236676028 
1.2799999999998755, -0.8167330883264464 
1.2899999999998744, -0.8089993666433226 
1.2999999999998733, -0.80294919064355 
1.3099999999998722, -0.7985948663952731 
1.319999999999871, -0.7957252124600157 
1.32999999999987, -0.7940135584580208 
1.3399999999998689, -0.7931118401929049 
1.3499999999998678, -0.7927148029212696 
1.3599999999998666, -0.7925892784234787 
1.3699999999998655, -0.7925747204969119 
1.3799999999998644, -0.7925674641373732 
1.3899999999998633, -0.7925004408242053 
1.3999999999998622, -0.7923256507496682 
1.4099999999998611, -0.7920027077374455 
1.41999999999986, -0.7914948192133288 
1.429999999999859, -0.7907725709648357 
1.4399999999998578, -0.7898236480395836 
1.4499999999998567, -0.7886625180507633 
1.4599999999998556, -0.7873318376855045 
1.4699999999998545, -0.7858920616509624 
1.4799999999998534, -0.7844051106784887 
1.4899999999998523, -0.782922185695928 
1.4999999999998512, -0.7814809405517706 
1.5099999999998501, -0.7801098827539875 
1.519999999999849, -0.7788347870648786 
1.529999999999848, -0.7776831606689367 
1.5399999999998468, -0.7766852464359343 
1.5499999999998457, -0.7758717493214266 
1.5599999999998446, -0.7752693486268731 
1.5699999999998435, -0.774895583965082 
1.5799999999998424, -0.7747549304416673 
1.5899999999998413, -0.7748375416250793 
1.5999999999998402, -0.7751211750024878 
1.6099999999998391, -0.775575607567687 
1.619999999999838, -0.7761679894823303 
1.629999999999837, -0.7768674087841843 
1.6399999999998358, -0.777647289081927 
1.6499999999998347, -0.7784847331143613 
1.6599999999998336, -0.7793565540000071 
1.6699999999998325, -0.7802330434517637 
1.6799999999998314, -0.7810727139391235 
1.6899999999998303, -0.7818228351115459 
1.6999999999998292, -0.7824286513493515 
1.709999999999828, -0.7828479532903504 
1.719999999999827, -0.7830622775700395 
1.729999999999826, -0.7830781356893587 
1.7399999999998248, -0.7829197854927826 
1.7499999999998237, -0.7826205584695944 
1.7599999999998226, -0.7822188142595319 
1.7699999999998215, -0.7817609348407897 
1.7799999999998204, -0.7813112805555411 
1.7899999999998193, -0.7809678212158643 
1.7999999999998182, -0.7808804529490863 
1.809999999999817, -0.7812657882386712 
1.819999999999816, -0.7824085931461948 
1.8299999999998149, -0.7846391650661396 
1.8399999999998138, -0.7882802516478667 
1.8499999999998127, -0.7935650410736876 
1.8599999999998116, -0.8005357304800433 
1.8699999999998105, -0.8089432129147299 
1.8799999999998094, -0.8181929868269998 
1.8899999999998083, -0.8274117803729828 
1.8999999999998072, -0.8356821148923631 
1.909999999999806, -0.8423561993535097 
1.919999999999805, -0.8472377706403476 
1.9299999999998039, -0.8505157452145167 
1.9399999999998028, -0.8525557869286781 
1.9499999999998017, -0.8537213690119266 
1.9599999999998006, -0.8542917902732237 
1.9699999999997995, -0.8544511054977963 
1.9799999999997984, -0.8543049408418947 
1.9899999999997973, -0.853900243534133 
1.9999999999997962, -0.8532401480688765 
2.0099999999998173, -0.8522954362648697 
2.0199999999998384, -0.8510198983018625 
2.0299999999998595, -0.8493836172345055 
2.0399999999998806, -0.847445710949996 
2.0499999999999017, -0.8454851020914026 
2.059999999999923, -0.8441633681728108 
2.069999999999944, -0.8445763081766435 
2.079999999999965, -0.8479364168593987 
2.089999999999986, -0.8548096289677884 
2.100000000000007, -0.8644460707621036 
2.1100000000000283, -0.8750137150965616 
2.1200000000000494, -0.8846420968198736 
2.1300000000000705, -0.8922688085514776 
2.1400000000000916, -0.8977229921823145 
2.1500000000001127, -0.9013477002492298 
2.160000000000134, -0.9036238384601344 
2.170000000000155, -0.9049712946054583 
2.180000000000176, -0.9056917640295612 
2.190000000000197, -0.9059763624998146 
2.2000000000002182, -0.9059286659888771 
2.2100000000002393, -0.9055821359397254 
2.2200000000002604, -0.9049049738245648 
2.2300000000002815, -0.9037896152304101 
2.2400000000003026, -0.90202434782462 
2.2500000000003237, -0.8992465225610274 
2.260000000000345, -0.8948894878273259 
2.270000000000366, -0.8881740824348018 
2.280000000000387, -0.8782661577494724 
2.290000000000408, -0.8647486997558416 
2.3000000000004293, -0.8483176920993152 
2.3100000000004504, -0.8310681373731329 
2.3200000000004715, -0.8157035005508998 
2.3300000000004926, -0.8041391522095896 
2.3400000000005137, -0.796775975878104 
2.3500000000005348, -0.7928500639278268 
2.360000000000556, -0.7911970952750533 
2.370000000000577, -0.7907948695035593 
2.380000000000598, -0.7909502572802326 
2.390000000000619, -0.7912689097878841 
2.4000000000006403, -0.7915564652122552 
2.4100000000006614, -0.7917282024701386 
2.4200000000006825, -0.7917478375528695 
2.4300000000007036, -0.7915913295739185 
2.4400000000007247, -0.7912262675639752 
2.450000000000746, -0.7905999834163744 
2.460000000000767, -0.7896344758952465 
2.470000000000788, -0.7882316800892923 
2.480000000000809, -0.7862959560988361 
2.49000000000083, -0.7837755587444908 
2.5000000000008513, -0.7807070657574829 
2.5100000000008724, -0.7772304372391368 
2.5200000000008935, -0.7735557977007717 
2.5300000000009146, -0.7699024423618555 
2.5400000000009357, -0.7664499794188672 
2.550000000000957, -0.7633213850408092 
2.560000000000978, -0.7605898206580026 
2.570000000000999, -0.7582923607174858 
2.58000000000102, -0.7564401472623445 
2.5900000000010412, -0.7550228877853848 
2.6000000000010624, -0.7540102834480753 
2.6100000000010835, -0.7533539265454 
2.6200000000011046, -0.7529918356218442 
2.6300000000011257, -0.7528555181173684 
2.6400000000011468, -0.7528776695260021 
2.650000000001168, -0.7529983033380834 
2.660000000001189, -0.7531681776913907 
2.67000000000121, -0.7533498498670298 
2.680000000001231, -0.7535174785467232 
2.6900000000012523, -0.75365614627773 
2.7000000000012734, -0.7537603536315841 
2.7100000000012945, -0.7538305697243574 
2.7200000000013156, -0.7538675520934213 
2.7300000000013367, -0.7538664424282475 
2.740000000001358, -0.7538142397925099 
2.750000000001379, -0.7536929043274181 
2.7600000000014, -0.7534865519931799 
2.770000000001421, -0.7531883698724935 
2.780000000001442, -0.7528038681343829 
2.7900000000014633, -0.7523507133341489 
2.8000000000014844, -0.751857939309697 
2.8100000000015055, -0.7513670582195059 
2.8200000000015266, -0.7509356766373938 
2.8300000000015477, -0.7506422685108125 
2.840000000001569, -0.7505894397702126 
2.85000000000159, -0.750902657045122 
2.860000000001611, -0.7517224215882445 
2.870000000001632, -0.7531901239299674 
2.8800000000016532, -0.755429897580751 
2.8900000000016743, -0.7585286814320905 
2.9000000000016954, -0.7625139423181965 
2.9100000000017165, -0.7673259464785527 
2.9200000000017377, -0.7727849274163094 
2.9300000000017588, -0.7785681236094286 
2.94000000000178, -0.7842314449108079 
2.950000000001801, -0.7893061823964093 
2.960000000001822, -0.7934439473390005 
2.970000000001843, -0.7965169560582954 
2.9800000000018643, -0.7986045325823888 
2.9900000000018854, -0.7998972127948111 
3.0000000000019065, -0.8005996680188187 
3.0100000000019276, -0.8008771041710425 
3.0200000000019487, -0.8008409773438313 
3.03000000000197, -0.800553889791735 
3.040000000001991, -0.800039404229681 
3.050000000002012, -0.7992917703958318 
3.060000000002033, -0.7982872583456534 
3.070000000002054, -0.7970040999153176 
3.0800000000020753, -0.7954633645127434 
3.0900000000020964, -0.7938053537820995 
3.1000000000021175, -0.7924019281491976 
3.1100000000021386, -0.7919502458404535 
3.1200000000021597, -0.7933975123632571 
3.130000000002181, -0.79753043531217 
3.140000000002202, -0.80435867572064 
3.150000000002223, -0.8128767671457311 
3.160000000002244, -0.8215811911294271 
3.1700000000022652, -0.8292465070139226 
3.1800000000022863, -0.8352900029910181 
3.1900000000023074, -0.8396789111758987 
3.2000000000023285, -0.8426737031354173 
3.2100000000023496, -0.8446132482264048 
3.2200000000023707, -0.845798464663759 
3.230000000002392, -0.8464530977597147 
3.240000000002413, -0.8467235489088664 
3.250000000002434, -0.8466903007757105 
3.260000000002455, -0.8463769353985034 
3.2700000000024763, -0.8457506600228628 
3.2800000000024974, -0.8447112534414943 
3.2900000000025185, -0.8430666532613964 
3.3000000000025396, -0.8404978376274878 
3.3100000000025607, -0.8365312640995098 
3.3200000000025818, -0.830571719777528 
3.330000000002603, -0.8220834399781989 
3.340000000002624, -0.8109539698053956 
3.350000000002645, -0.7978472622344674 
3.360000000002666, -0.784162737323512 
3.3700000000026873, -0.7714931230429366 
3.3800000000027084, -0.7609964599061675 
3.3900000000027295, -0.7531256544541511 
3.4000000000027506, -0.747740262899478 
3.4100000000027717, -0.7443718612407667 
3.420000000002793, -0.7424603769547475 
3.430000000002814, -0.7414993320133358 
3.440000000002835, -0.7410971337962752 
3.450000000002856, -0.7409826795434566 
3.460000000002877, -0.7409830852571241 
3.4700000000028983, -0.7409934536640325 
3.4800000000029194, -0.7409495897372689 
3.4900000000029405, -0.7408077925218819 
3.5000000000029616, -0.7405323884147454 
3.5100000000029827, -0.7400908255131972 
3.520000000003004, -0.7394561862471561 
3.530000000003025, -0.738615770575333 
3.540000000003046, -0.7375809357390466 
3.550000000003067, -0.7363903227285304 
3.5600000000030882, -0.7351013975749835 
3.5700000000031094, -0.7337741247588144 
3.5800000000031305, -0.7324568411086061 
3.5900000000031516, -0.7311814225753038 
3.6000000000031727, -0.7299671751386085 
3.6100000000031938, -0.7288283709038936 
3.620000000003215, -0.7277808235370425 
3.630000000003236, -0.7268454708006292 
3.640000000003257, -0.7260488996691862 
3.650000000003278, -0.7254214703664187 
3.6600000000032993, -0.7249938181042366 
3.6700000000033204, -0.724792667833606 
3.6800000000033415, -0.7248371266156128 
3.6900000000033626, -0.725136587950042 
3.7000000000033837, -0.7256908686318482 
3.710000000003405, -0.7264923274545276 
3.720000000003426, -0.7275288300400529 
3.730000000003447, -0.7287858036530568 
3.740000000003468, -0.7302453951168059 
3.750000000003489, -0.7318811333967796 
3.7600000000035103, -0.7336481691541789 
3.7700000000035314, -0.7354728595475425 
3.7800000000035525, -0.737250173400772 
3.7900000000035736, -0.7388580447667993 
3.8000000000035947, -0.7401881382981177 
3.810000000003616, -0.7411767206644082 
3.820000000003637, -0.7418154904754621 
3.830000000003658, -0.742138251527322 
3.840000000003679, -0.7421969801421211 
3.8500000000037002, -0.7420424465422547 
3.8600000000037213, -0.7417154147959859 
3.8700000000037424, -0.7412474797776234 
3.8800000000037635, -0.7406697402345622 
3.8900000000037847, -0.7400301212716315 
3.9000000000038058, -0.7394233538700614 
3.910000000003827, -0.7390392381569713 
3.920000000003848, -0.7392313719831074 
3.930000000003869, -0.7405932846985767 
3.94000000000389, -0.7439932937874673 
3.9500000000039113, -0.7504649414826225 
3.9600000000039324, -0.7608233051081754 
3.9700000000039535, -0.7750126262937445 
3.9800000000039746, -0.7915943483337538 
3.9900000000039957, -0.8080768369473479 
4.000000000004016, -0.8221425945780625 
4.010000000003993, -0.8327002581778846 
4.02000000000397, -0.8399013921660045 
4.030000000003946, -0.8445029826551398 
4.040000000003923, -0.8473125309167159 
4.0500000000039, -0.8489546114138203 
4.0600000000038765, -0.8498456475763669 
4.070000000003853, -0.8502393371474591 
4.08000000000383, -0.850275720972381 
4.090000000003807, -0.8500143071868396 
4.100000000003783, -0.8494492381493565 
4.11000000000376, -0.8485076648578265 
4.120000000003737, -0.8470310950134772 
4.130000000003713, -0.8447384969584238 
4.14000000000369, -0.8411749720137968 
4.150000000003667, -0.835672289695953 
4.1600000000036434, -0.8274025289232186 
4.17000000000362, -0.815672273655721 
4.180000000003597, -0.8005290233819597 
4.1900000000035735, -0.7833257077379293 
4.20000000000355, -0.7664881760385291 
4.210000000003527, -0.7523492759161242 
4.220000000003504, -0.7420736411937228 
4.23000000000348, -0.7355354521156813 
4.240000000003457, -0.7318828382921192 
4.250000000003434, -0.7301284419319796 
4.26000000000341, -0.7294661527529719 
4.270000000003387, -0.7293490535510162 
4.280000000003364, -0.7294496792332498 
4.2900000000033405, -0.7295894533696774 
4.300000000003317, -0.7296766159389285 
4.310000000003294, -0.7296626849910673 
4.320000000003271, -0.7295152790663653 
4.330000000003247, -0.7292025505262417 
4.340000000003224, -0.7286860561076485 
4.350000000003201, -0.7279216135203892 
4.360000000003177, -0.7268693326576379 
4.370000000003154, -0.7255118558232169 
4.380000000003131, -0.7238728561267779 
4.390000000003107, -0.7220220423799077 
4.400000000003084, -0.7200589932554851 
4.410000000003061, -0.7180847090111502 
4.4200000000030375, -0.7161788717685095 
4.430000000003014, -0.7143929556218696 
4.440000000002991, -0.712756214213945 
4.450000000002968, -0.7112860471828537 
4.460000000002944, -0.7099963870415265 
4.470000000002921, -0.708901834313015 
4.480000000002898, -0.7080179339495923 
4.490000000002874, -0.7073589844695232 
4.500000000002851, -0.7069349216862914 
4.510000000002828, -0.7067486707024214 
4.520000000002804, -0.7067950056083349 
4.530000000002781, -0.7070613665060232 
4.540000000002758, -0.7075303725007631 
4.5500000000027345, -0.7081831712010993 
4.560000000002711, -0.7090024309312115 
4.570000000002688, -0.7099736585651295 
4.580000000002665, -0.7110835162935364 
4.590000000002641, -0.7123141480966911 
4.600000000002618, -0.7136339456318748 
4.610000000002595, -0.7149882792587312 
4.620000000002571, -0.7162972864880374 
4.630000000002548, -0.7174675489098709 
4.640000000002525, -0.7184162062588872 
4.6500000000025015, -0.7190943231797063 
4.660000000002478, -0.7194946839320069 
4.670000000002455, -0.7196417460857047 
4.6800000000024315, -0.719574090690173 
4.690000000002408, -0.7193305271413064 
4.700000000002385, -0.71894451328693 
4.710000000002362, -0.7184467832114982 
4.720000000002338, -0.7178756814821211 
4.730000000002315, -0.7172967723305871 
4.740000000002292, -0.7168355133159293 
4.750000000002268, -0.7167269597877175 
4.760000000002245, -0.7173809887836501 
4.770000000002222, -0.7194441868145566 
4.7800000000021985, -0.723803586163221 
4.790000000002175, -0.7314286002637568 
4.800000000002152, -0.7429409773353659 
4.810000000002129, -0.757976655762535 
4.820000000002105, -0.7748174457663566 
4.830000000002082, -0.7909332392523316 
4.840000000002059, -0.8042535355616052 
4.850000000002035, -0.814014287404454 
4.860000000002012, -0.8205682521249255 
4.870000000001989, -0.8247195027365326 
4.880000000001965, -0.8272417371619463 
4.890000000001942, -0.8287080663374183 
4.900000000001919, -0.8294922611299642 
4.9100000000018955, -0.8298186138434556 
4.920000000001872, -0.8298079141279355 
