t, s[1].omega / s[0].omega 
0, -0.9200076001111552 
0.009999999999999995, -0.9206868275036302 
0.019999999999999934, -0.9211817869505531 
0.029999999999999874, -0.9214681008764322 
0.04000000000000012, -0.9215418311866289 
0.050000000000000405, -0.9214194551466554 
0.06000000000000069, -0.9211327105879196 
0.07000000000000098, -0.9207235812185959 
0.08000000000000126, -0.920243689236805 
0.09000000000000155, -0.9197584523086977 
0.10000000000000184, -0.9193523379340981 
0.11000000000000212, -0.9191288098893622 
0.12000000000000241, -0.9191990413495279 
0.130000000000002, -0.9196593872559564 
0.1400000000000009, -0.9205666474772702 
0.1499999999999998, -0.9219239486967117 
0.1599999999999987, -0.9236833614029845 
0.1699999999999976, -0.9257602562035098 
0.1799999999999965, -0.9280490722663008 
0.1899999999999954, -0.9304332045160031 
0.1999999999999943, -0.9327886935016243 
0.2099999999999932, -0.9349875831355059 
0.2199999999999921, -0.9369086380542269 
0.229999999999991, -0.9384574866358693 
0.2399999999999899, -0.9395871677022927 
0.2499999999999888, -0.9403046869158119 
0.2599999999999877, -0.9406583602427899 
0.2699999999999866, -0.9407154190336795 
0.2799999999999855, -0.9405438552167522 
0.2899999999999844, -0.9402060421445524 
0.2999999999999833, -0.9397644064935087 
0.3099999999999822, -0.9392962663956907 
0.3199999999999811, -0.9389130402167527 
0.32999999999998, -0.9387745749271167 
0.3399999999999789, -0.9390839600730146 
0.3499999999999778, -0.9400511008159136 
0.35999999999997667, -0.9418320959445268 
0.36999999999997557, -0.94447412780177 
0.37999999999997447, -0.9478956061200199 
0.38999999999997337, -0.9519048307464111 
0.39999999999997227, -0.9562368313803731 
0.40999999999997117, -0.9605899586908183 
0.41999999999997006, -0.9646615202438816 
0.42999999999996896, -0.9681911942148362 
0.43999999999996786, -0.9710092429789352 
0.44999999999996676, -0.9730662261050294 
0.45999999999996566, -0.9744218232835437 
0.46999999999996456, -0.9751990767598221 
0.47999999999996346, -0.9755336953828266 
0.48999999999996235, -0.9755421959187276 
0.49999999999996125, -0.9753133096620328 
0.5099999999999602, -0.9749164508845164 
0.519999999999959, -0.974421636331227 
0.529999999999958, -0.9739284397763794 
0.5399999999999568, -0.9735993410162305 
0.5499999999999557, -0.9736816054725639 
0.5599999999999546, -0.9744888732342456 
0.5699999999999535, -0.9763220153073545 
0.5799999999999524, -0.9793531525457679 
0.5899999999999513, -0.9835402398190733 
0.5999999999999502, -0.9886232620155851 
0.6099999999999491, -0.994190495763702 
0.619999999999948, -0.9997689404287857 
0.6299999999999469, -1.0049104746102995 
0.6399999999999458, -1.0092692124717006 
0.6499999999999447, -1.0126601139300289 
0.6599999999999436, -1.015073116673776 
0.6699999999999425, -1.0166307178115919 
0.6799999999999414, -1.0175145164652972 
0.6899999999999403, -1.0179018151243708 
0.6999999999999392, -1.0179337661175636 
0.7099999999999381, -1.017712012925013 
0.719999999999937, -1.0173128539772756 
0.7299999999999359, -1.0168122166069133 
0.7399999999999348, -1.0163191191665653 
0.7499999999999337, -1.016011184219526 
0.7599999999999326, -1.01615072210629 
0.7699999999999315, -1.0170475193847826 
0.7799999999999304, -1.018956573307635 
0.7899999999999293, -1.0219604488302907 
0.7999999999999282, -1.0259186530665143 
0.8099999999999271, -1.0305132966818422 
0.819999999999926, -1.0353439081283142 
0.8299999999999249, -1.0400132899498078 
0.8399999999999238, -1.0441865204771985 
0.8499999999999227, -1.0476322934342277 
0.8599999999999216, -1.0502485266514268 
0.8699999999999205, -1.0520592928113448 
0.8799999999999194, -1.0531775861648291 
0.8899999999999183, -1.0537517604841762 
0.8999999999999172, -1.053922228364904 
0.9099999999999161, -1.0538019055063743 
0.919999999999915, -1.053478364379733 
0.9299999999999139, -1.0530306156162452 
0.9399999999999128, -1.0525545392114812 
0.9499999999999117, -1.0521886642664575 
0.9599999999999106, -1.0521226404117805 
0.9699999999999095, -1.05256564320236 
0.9799999999999084, -1.0536736972699645 
0.9899999999999073, -1.055478705817101 
0.9999999999999062, -1.0578731635009297 
1.0099999999999052, -1.0606561761643714 
1.019999999999904, -1.0635981295249641 
1.029999999999903, -1.0664855502932464 
1.039999999999902, -1.0691399333061715 
1.0499999999999008, -1.0714240113712734 
1.0599999999998997, -1.073247900450535 
1.0699999999998986, -1.074576100569334 
1.0799999999998975, -1.0754272127631597 
1.0899999999998964, -1.0758605896940492 
1.0999999999998953, -1.0759549251215046 
1.1099999999998942, -1.0757902583909125 
1.119999999999893, -1.0754414595486534 
1.129999999999892, -1.074983952257052 
1.1399999999998909, -1.074506575813821 
1.1499999999998898, -1.0741213776203427 
1.1599999999998887, -1.0739565830124067 
1.1699999999998876, -1.0741256008367073 
1.1799999999998865, -1.074685988766583 
1.1899999999998854, -1.0756178187899204 
1.1999999999998843, -1.0768364940259592 
1.2099999999998832, -1.0782261279568939 
1.219999999999882, -1.079670343147609 
1.229999999999881, -1.0810691845426472 
1.2399999999998799, -1.0823434470222402 
1.2499999999998788, -1.0834324710795165 
1.2599999999998777, -1.0842912817196395 
1.2699999999998766, -1.0848905828784832 
1.2799999999998755, -1.085219386243585 
1.2899999999998744, -1.085286890307413 
1.2999999999998733, -1.0851206433470828 
1.3099999999998722, -1.0847619461152647 
1.319999999999871, -1.0842625043690832 
1.32999999999987, -1.083684986408728 
1.3399999999998689, -1.083105288898174 
1.3499999999998678, -1.082609819572595 
1.3599999999998666, -1.0822819733891276 
1.3699999999998655, -1.0821806754889294 
1.3799999999998644, -1.0823232198185526 
1.3899999999998633, -1.0826827702529882 
1.3999999999998622, -1.0831996636169163 
1.4099999999998611, -1.0837985321186576 
1.41999999999986, -1.0844041285222077 
1.429999999999859, -1.0849519330743251 
1.4399999999998578, -1.0853925502408743 
1.4499999999998567, -1.0856913777200592 
1.4599999999998556, -1.0858260197533611 
1.4699999999998545, -1.085783523223459 
1.4799999999998534, -1.0855588424627372 
1.4899999999998523, -1.085155138361591 
1.4999999999998512, -1.084585432856206 
1.5099999999998501, -1.083874596137551 
1.519999999999849, -1.0830610894198034 
1.529999999999848, -1.0821980131736775 
1.5399999999998468, -1.081351739859723 
1.5499999999998457, -1.0805953773380084 
1.5599999999998446, -1.079996233535623 
1.5699999999998435, -1.0796006023690734 
1.5799999999998424, -1.0794214605992207 
1.5899999999998413, -1.079433857685594 
1.5999999999998402, -1.0795807271916231 
1.6099999999998391, -1.0797876206176578 
1.619999999999838, -1.079979303059293 
1.629999999999837, -1.0800906534254537 
1.6399999999998358, -1.0800702190438174 
1.6499999999998347, -1.079880082324013 
1.6599999999998336, -1.0794956964131892 
1.6699999999998325, -1.0789062045614919 
1.6799999999998314, -1.0781138248615463 
1.6899999999998303, -1.0771319105817048 
1.6999999999998292, -1.0759833035538071 
1.709999999999828, -1.0747007956692145 
1.719999999999827, -1.0733297477564763 
1.729999999999826, -1.0719309432040494 
1.7399999999998248, -1.070580652465702 
1.7499999999998237, -1.0693648233967654 
1.7599999999998226, -1.0683654540424568 
1.7699999999998215, -1.0676401389571324 
1.7799999999998204, -1.0672014529835576 
1.7899999999998193, -1.0670084503124266 
1.7999999999998182, -1.0669787471913952 
1.809999999999817, -1.0670143724247525 
1.819999999999816, -1.067024154511881 
1.8299999999998149, -1.0669320964979885 
1.8399999999998138, -1.066674643886065 
1.8499999999998127, -1.066195963812985 
1.8599999999998116, -1.0654481788155272 
1.8699999999998105, -1.0643978228518918 
1.8799999999998094, -1.0630342827849117 
1.8899999999998083, -1.0613741130521452 
1.8999999999998072, -1.0594589349074248 
1.909999999999806, -1.057350518455656 
1.919999999999805, -1.0551282043465204 
1.9299999999998039, -1.0528899051164875 
1.9399999999998028, -1.0507526609472295 
1.9499999999998017, -1.048845585551276 
1.9599999999998006, -1.0472888020516011 
1.9699999999997995, -1.046159501259259 
1.9799999999997984, -1.0454606555983286 
1.9899999999997973, -1.045116039460589 
1.9999999999997962, -1.044999498515447 
2.0099999999998173, -1.044977845635103 
2.0199999999998384, -1.044939120924196 
2.0299999999998595, -1.0447966403380968 
2.0399999999998806, -1.0444780016015787 
2.0499999999999017, -1.0439123220553204 
2.059999999999923, -1.043024930209905 
2.069999999999944, -1.0417439949430891 
2.079999999999965, -1.0400180384988094 
2.089999999999986, -1.0378360571549319 
2.100000000000007, -1.0352385174792027 
2.1100000000000283, -1.0323141066176993 
2.1200000000000494, -1.0291884712387243 
2.1300000000000705, -1.026014478960117 
2.1400000000000916, -1.0229658795845293 
2.1500000000001127, -1.0202264334121665 
2.160000000000134, -1.0179638507821516 
2.170000000000155, -1.0162875064070453 
2.180000000000176, -1.0152087559262923 
2.190000000000197, -1.0146342936729065 
2.2000000000002182, -1.014403943244099 
2.2100000000002393, -1.0143477313786513 
2.2200000000002604, -1.014325573456803 
2.2300000000002815, -1.014235449232338 
2.2400000000003026, -1.0140002542095907 
2.2500000000003237, -1.013549229610711 
2.260000000000345, -1.0128046717918446 
2.270000000000366, -1.0116799726083925 
2.280000000000387, -1.0100923350763027 
2.290000000000408, -1.0079879976040111 
2.3000000000004293, -1.005368487635197 
2.3100000000004504, -1.0023022762492788 
2.3200000000004715, -0.9989160835685567 
2.3300000000004926, -0.9953754485803582 
2.3400000000005137, -0.9918674918423264 
2.3500000000005348, -0.9885882514861246 
2.360000000000556, -0.9857260154431973 
2.370000000000577, -0.9834318287467936 
2.380000000000598, -0.9817809895251985 
2.390000000000619, -0.9807465633329115 
2.4000000000006403, -0.980208356024035 
2.4100000000006614, -0.9799973003207813 
2.4200000000006825, -0.9799474260243703 
2.4300000000007036, -0.9799266471121582 
2.4400000000007247, -0.9798397567122358 
2.450000000000746, -0.9796148903060509 
2.460000000000767, -0.979187123604534 
2.470000000000788, -0.9784880304832303 
2.480000000000809, -0.9774460775476201 
2.49000000000083, -0.975999630920455 
2.5000000000008513, -0.9741184482853772 
2.5100000000008724, -0.971821944843076 
2.5200000000008935, -0.9691820010145056 
2.5300000000009146, -0.9663093297534813 
2.5400000000009357, -0.9633345967862137 
2.550000000000957, -0.9603953233497846 
2.560000000000978, -0.9576296833597425 
2.570000000000999, -0.9551702081968815 
2.58000000000102, -0.9531299860138498 
2.5900000000010412, -0.9515804738163005 
2.6000000000010624, -0.9505299968735506 
2.6100000000010835, -0.9499178856643159 
2.6200000000011046, -0.9496323663295184 
2.6300000000011257, -0.9495435770413969 
2.6400000000011468, -0.9495329479114322 
2.650000000001168, -0.949506435649722 
2.660000000001189, -0.9493924998652148 
2.67000000000121, -0.9491333469644079 
2.680000000001231, -0.9486778557203172 
2.6900000000012523, -0.9479812079176844 
2.7000000000012734, -0.9470120114275844 
2.7100000000012945, -0.9457627064013101 
2.7200000000013156, -0.944255536091395 
2.7300000000013367, -0.9425388128510754 
2.740000000001358, -0.9406760323375604 
2.750000000001379, -0.9387356182081597 
2.7600000000014, -0.936786578728064 
2.770000000001421, -0.934899202406682 
2.780000000001442, -0.9331462346909165 
2.7900000000014633, -0.9316001642071926 
2.8000000000014844, -0.9303246600863838 
2.8100000000015055, -0.9293615635210049 
2.8200000000015266, -0.9287184076149654 
2.8300000000015477, -0.9283633510506022 
2.840000000001569, -0.9282318533244608 
2.85000000000159, -0.9282425638098315 
2.860000000001611, -0.9283142753313468 
2.870000000001632, -0.9283766953851028 
2.8800000000016532, -0.9283735941031803 
2.8900000000016743, -0.9282617904706683 
2.9000000000016954, -0.9280102651433262 
2.9100000000017165, -0.927601228123104 
2.9200000000017377, -0.927031636149592 
2.9300000000017588, -0.9263121907146024 
2.94000000000178, -0.9254628303722064 
2.950000000001801, -0.9245072512857202 
2.960000000001822, -0.92347006945039 
2.970000000001843, -0.9223778736685647 
2.9800000000018643, -0.9212625107955447 
2.9900000000018854, -0.9201639548676399 
3.0000000000019065, -0.919130669924137 
3.0100000000019276, -0.9182162417710306 
3.0200000000019487, -0.9174721035299538 
3.03000000000197, -0.9169377677101087 
3.040000000001991, -0.9166315962166485 
3.050000000002012, -0.9165456651235717 
3.060000000002033, -0.9166470782264892 
3.070000000002054, -0.9168854446387925 
3.0800000000020753, -0.917203466426532 
3.0900000000020964, -0.917546584071147 
3.1000000000021175, -0.9178691081610983 
3.1100000000021386, -0.9181366500141863 
3.1200000000021597, -0.9183258649931243 
3.130000000002181, -0.9184222920828746 
3.140000000002202, -0.9184168903195848 
3.150000000002223, -0.9183026956781092 
3.160000000002244, -0.9180737251455495 
3.1700000000022652, -0.917727118862331 
3.1800000000022863, -0.91726710870064 
3.1900000000023074, -0.9167083500392664 
3.2000000000023285, -0.9160775143121924 
3.2100000000023496, -0.9154137742508146 
3.2200000000023707, -0.9147686655361206 
3.230000000002392, -0.9142041036395778 
3.240000000002413, -0.9137863391423092 
3.250000000002434, -0.9135751992274719 
3.260000000002455, -0.9136115239349006 
3.2700000000024763, -0.9139081453609078 
3.2800000000024974, -0.9144484303879798 
3.2900000000025185, -0.9151923519059245 
3.3000000000025396, -0.9160866402042258 
3.3100000000025607, -0.9170746858477481 
3.3200000000025818, -0.9181030251332889 
3.330000000002603, -0.9191232164635483 
3.340000000002624, -0.9200899507202545 
3.350000000002645, -0.9209580774445449 
3.360000000002666, -0.9216823087998464 
3.3700000000026873, -0.9222222049978699 
3.3800000000027084, -0.9225509487308139 
3.3900000000027295, -0.922662359131437 
3.4000000000027506, -0.9225714100055118 
3.4100000000027717, -0.9223090871018883 
3.420000000002793, -0.9219168437853943 
3.430000000002814, -0.9214453352601971 
3.440000000002835, -0.9209582797780141 
3.450000000002856, -0.9205381681161875 
3.460000000002877, -0.9202875265408815 
3.4700000000028983, -0.9203192851229609 
3.4800000000029194, -0.920735033158393 
3.4900000000029405, -0.921599206044758 
3.5000000000029616, -0.9229224757108332 
3.5100000000029827, -0.9246621194202607 
3.520000000003004, -0.9267356406395075 
3.530000000003025, -0.9290372375689426 
3.540000000003046, -0.9314489004440262 
3.550000000003067, -0.9338449092622824 
3.5600000000030882, -0.9360951366624205 
3.5700000000031094, -0.9380750577437308 
3.5800000000031305, -0.9396854603599148 
3.5900000000031516, -0.9408737860534616 
3.6000000000031727, -0.941642467453164 
3.6100000000031938, -0.9420376144280734 
3.620000000003215, -0.9421265339019989 
3.630000000003236, -0.9419784126774046 
3.640000000003257, -0.9416565728530687 
3.650000000003278, -0.9412230641579858 
3.6600000000032993, -0.9407528482414467 
3.6700000000033204, -0.9403530507870326 
3.6800000000033415, -0.9401786021754219 
3.6900000000033626, -0.9404298844783237 
3.7000000000033837, -0.9413194602085231 
3.710000000003405, -0.9430123754425811 
3.720000000003426, -0.9455683714706182 
3.730000000003447, -0.9489176687384264 
3.740000000003468, -0.9528768581828888 
3.750000000003489, -0.9571856014854465 
3.7600000000035103, -0.9615440588294735 
3.7700000000035314, -0.9656483610447542 
3.7800000000035525, -0.9692328002312062 
3.7900000000035736, -0.9721178673528884 
3.8000000000035947, -0.9742426529937888 
3.810000000003616, -0.9756578722959862 
3.820000000003637, -0.9764825270601536 
3.830000000003658, -0.9768525834995415 
3.840000000003679, -0.9768869317233099 
3.8500000000037002, -0.9766767921151172 
3.8600000000037213, -0.9762928678489569 
3.8700000000037424, -0.9758043288127087 
3.8800000000037635, -0.9753069695558836 
3.8900000000037847, -0.9749563094618605 
3.9000000000038058, -0.9749909135313777 
3.910000000003827, -0.9757179363375907 
3.920000000003848, -0.9774389317270702 
3.930000000003869, -0.9803359720139808 
3.94000000000389, -0.9843834065167789 
3.9500000000039113, -0.989338912642513 
3.9600000000039324, -0.994806006475379 
3.9700000000039535, -1.0003224687782617 
3.9800000000039746, -1.0054444099754491 
3.9900000000039957, -1.0098214663734635 
4.000000000004016, -1.0132559827289467 
4.010000000003993, -1.0157221129621692 
4.02000000000397, -1.0173297700158905 
4.030000000003946, -1.0182543351286273 
4.040000000003923, -1.0186722894449756 
4.0500000000039, -1.0187266644556996 
4.0600000000038765, -1.018521402168216 
4.070000000003853, -1.0181340995636474 
4.08000000000383, -1.0176399720819214 
4.090000000003807, -1.0171443791871937 
4.100000000003783, -1.0168178982463485 
4.11000000000376, -1.0169137598463605 
4.120000000003737, -1.0177347114092845 
4.130000000003713, -1.019535800451763 
4.14000000000369, -1.0224086401220813 
4.150000000003667, -1.0262278229633632 
4.1600000000036434, -1.030691731489449 
4.17000000000362, -1.0354139746441164 
4.180000000003597, -1.040007409960099 
4.1900000000035735, -1.0441413894223222 
4.20000000000355, -1.047581565545322 
4.210000000003527, -1.0502161986618817 
4.220000000003504, -1.0520569850635746 
4.23000000000348, -1.0532066475747255 
4.240000000003457, -1.0538078731971803 
4.250000000003434, -1.0539994844315503 
4.26000000000341, -1.0538949421268105 
4.270000000003387, -1.05358265287985 
4.280000000003364, -1.0531414059295712 
4.2900000000033405, -1.0526648589629966 
4.300000000003317, -1.0522870015465897 
4.310000000003294, -1.0521917542834334 
4.320000000003271, -1.052584370561282 
4.330000000003247, -1.053622001144713 
4.340000000003224, -1.055343233060104 
4.350000000003201, -1.0576499686318408 
4.360000000003177, -1.0603500400789272 
4.370000000003154, -1.0632203464748646 
4.380000000003131, -1.0660518470792701 
4.390000000003107, -1.0686687271952624 
4.400000000003084, -1.0709343489099896 
4.410000000003061, -1.0727567358212364 
4.4200000000030375, -1.0740956472476244 
4.430000000003014, -1.0749637221194133 
4.440000000002991, -1.0754151429094843 
4.450000000002968, -1.0755254182499323 
4.460000000002944, -1.0753732140410024 
4.470000000002921, -1.0750328238604872 
4.480000000002898, -1.0745787837198406 
4.490000000002874, -1.074098057756606 
4.500000000002851, -1.0737000414051177 
4.510000000002828, -1.0735109016810669 
4.520000000002804, -1.073644459481273 
4.530000000002781, -1.0741618606226766 
4.540000000002758, -1.0750485555676454 
4.5500000000027345, -1.0762248554851575 
4.560000000002711, -1.0775779780291546 
4.570000000002688, -1.078992870235537 
4.580000000002665, -1.0803698330424214 
4.590000000002641, -1.0816295434470287 
4.600000000002618, -1.082711160118421 
4.610000000002595, -1.0835693169316658 
4.620000000002571, -1.0841737343872064 
4.630000000002548, -1.0845116566264146 
4.640000000002525, -1.0845900226783045 
4.6500000000025015, -1.0844342103071734 
4.660000000002478, -1.0840838017291732 
4.670000000002455, -1.083589123041643 
4.6800000000024315, -1.083011450581425 
4.690000000002408, -1.082425194620863 
4.700000000002385, -1.081915730842075 
4.710000000002362, -1.0815668318162461 
4.720000000002338, -1.0814397130977231 
4.730000000002315, -1.0815552752140087 
4.740000000002292, -1.0818903079026996 
4.750000000002268, -1.0823877162968534 
4.760000000002245, -1.0829732392980955 
4.770000000002222, -1.0835714625130115 
4.7800000000021985, -1.0841169339008492 
4.790000000002175, -1.0845590884199965 
4.800000000002152, -1.0848622682068751 
4.810000000002129, -1.0850032768431999 
4.820000000002105, -1.0849685746714228 
4.830000000002082, -1.084752562681062 
4.840000000002059, -1.0843576720146968 
4.850000000002035, -1.083795919345604 
4.860000000002012, -1.0830909256376189 
4.870000000001989, -1.0822797365411059 
4.880000000001965, -1.0814140023506797 
4.890000000001942, -1.0805589449094608 
4.900000000001919, -1.079787391749375 
4.9100000000018955, -1.0791677517870686 
4.920000000001872, -1.0787488550071929 
4.930000000001849, -1.0785471371381279 
