t, s[1].omega / s[0].omega 
0, -0.2599878084036404 
0.009999999999999995, -0.25889521873160076 
0.019999999999999934, -0.25803992996830694 
0.029999999999999874, -0.25738180035553 
0.04000000000000012, -0.2568673301859512 
0.050000000000000405, -0.25644266502395885 
0.06000000000000069, -0.25606176671732583 
0.07000000000000098, -0.25568981397240154 
0.08000000000000126, -0.2553024432482444 
0.09000000000000155, -0.254882204241006 
0.10000000000000184, -0.25441355719309183 
0.11000000000000212, -0.25387660642405996 
0.12000000000000241, -0.2532377928888934 
0.130000000000002, -0.25243264071107874 
0.1400000000000009, -0.2513302479848366 
0.1499999999999998, -0.24966183970558942 
0.1599999999999987, -0.24689914818737427 
0.1699999999999976, -0.24213785345246724 
0.1799999999999965, -0.23426438972545136 
0.1899999999999954, -0.22282625847888077 
0.1999999999999943, -0.2091262508930601 
0.2099999999999932, -0.19577847559993283 
0.2199999999999921, -0.18481007730453683 
0.229999999999991, -0.1767403838623966 
0.2399999999999899, -0.17112324089954284 
0.2499999999999888, -0.1672799991338086 
0.2599999999999877, -0.1646390714264526 
0.2699999999999866, -0.16279997420342568 
0.2799999999999855, -0.16150335146714928 
0.2899999999999844, -0.1605890814342292 
0.2999999999999833, -0.1599647394930744 
0.3099999999999822, -0.15958648936870382 
0.3199999999999811, -0.1594504230261233 
0.32999999999998, -0.15959309366022834 
0.3399999999999789, -0.1601019185972614 
0.3499999999999778, -0.16113839669251287 
0.35999999999997667, -0.16297866416038265 
0.36999999999997557, -0.16607177836359222 
0.37999999999997447, -0.17108674597363396 
0.38999999999997337, -0.1788106507753883 
0.39999999999997227, -0.18952170825428802 
0.40999999999997117, -0.2014957666715332 
0.41999999999997006, -0.21014178572033587 
0.42999999999996896, -0.2113772891540298 
0.43999999999996786, -0.2063240320909457 
0.44999999999996676, -0.19930904529995386 
0.45999999999996566, -0.19326235859299118 
0.46999999999996456, -0.18892434199109176 
0.47999999999996346, -0.18603706970508865 
0.48999999999996235, -0.18416685845449027 
0.49999999999996125, -0.18296786641429585 
0.5099999999999602, -0.18221126282906214 
0.519999999999959, -0.18175781073274266 
0.529999999999958, -0.1815292907530334 
0.5399999999999568, -0.1814895483104715 
0.5499999999999557, -0.18163466996028635 
0.5599999999999546, -0.18199039523782606 
0.5699999999999535, -0.18261565418412182 
0.5799999999999524, -0.18361198799760742 
0.5899999999999513, -0.1851386968200754 
0.5999999999999502, -0.1874311898018956 
0.6099999999999491, -0.1908107691920122 
0.619999999999948, -0.19565036685979798 
0.6299999999999469, -0.20222526960588755 
0.6399999999999458, -0.21039664795239524 
0.6499999999999447, -0.21930288139466173 
0.6599999999999436, -0.22755126538446274 
0.6699999999999425, -0.23402247110595115 
0.6799999999999414, -0.2384511139340549 
0.6899999999999403, -0.24122143455915346 
0.6999999999999392, -0.24287441616720945 
0.7099999999999381, -0.24383710792517554 
0.719999999999937, -0.24438117513859017 
0.7299999999999359, -0.24466397291506578 
0.7399999999999348, -0.24477327646438746 
0.7499999999999337, -0.24475758351770072 
0.7599999999999326, -0.24464454547359873 
0.7699999999999315, -0.24445284507559178 
0.7799999999999304, -0.24420112871681834 
0.7899999999999293, -0.2439152250546933 
0.7999999999999282, -0.24363265805173345 
0.8099999999999271, -0.24340236813576807 
0.819999999999926, -0.24327865814215222 
0.8299999999999249, -0.24331088054490432 
0.8399999999999238, -0.24353161694346145 
0.8499999999999227, -0.24394538800543733 
0.8599999999999216, -0.2445203030729184 
0.8699999999999205, -0.24518803980730414 
0.8799999999999194, -0.24585786946516128 
0.8899999999999183, -0.24644195803218624 
0.8999999999999172, -0.246878119349706 
0.9099999999999161, -0.24713706152042997 
0.919999999999915, -0.24721388027797864 
0.9299999999999139, -0.24711286603457774 
0.9399999999999128, -0.24683344822858921 
0.9499999999999117, -0.24635946729836297 
0.9599999999999106, -0.2456505672815851 
0.9699999999999095, -0.2446349338998214 
0.9799999999999084, -0.2432067357608354 
0.9899999999999073, -0.24123943937754322 
0.9999999999999062, -0.2386327490134529 
1.0099999999999052, -0.23539722926405254 
1.019999999999904, -0.23172827544158814 
1.029999999999903, -0.2279791200189643 
1.039999999999902, -0.22451625791543717 
1.0499999999999008, -0.22157420085707544 
1.0599999999998997, -0.21921758917005127 
1.0699999999998986, -0.21739296342763836 
1.0799999999998975, -0.21599699312994347 
1.0899999999998964, -0.21492154015695664 
1.0999999999998953, -0.21407405695440923 
1.1099999999998942, -0.2133834655958428 
1.119999999999893, -0.21279945044374687 
1.129999999999892, -0.2122893274168241 
1.1399999999998909, -0.2118345449252396 
1.1499999999998898, -0.21142783392488101 
1.1599999999998887, -0.21107121673477183 
1.1699999999998876, -0.2107739069302415 
1.1799999999998865, -0.2105464352963967 
1.1899999999998854, -0.21038010686534653 
1.1999999999998843, -0.21018284294418824 
1.2099999999998832, -0.20960921612885958 
1.219999999999882, -0.20771871311198856 
1.229999999999881, -0.20265866199527496 
1.2399999999998799, -0.19235785791052074 
1.2499999999998788, -0.176970725621512 
1.2599999999998777, -0.16006322193755174 
1.2699999999998766, -0.14558402847289412 
1.2799999999998755, -0.13502257903095996 
1.2899999999998744, -0.12790770300304252 
1.2999999999998733, -0.12323469440358828 
1.3099999999998722, -0.12015433067301362 
1.319999999999871, -0.11809319058447006 
1.32999999999987, -0.11669532814708032 
1.3399999999998689, -0.11574883690692632 
1.3499999999998678, -0.11513415142747621 
1.3599999999998666, -0.11479394970523386 
1.3699999999998655, -0.11471906956079625 
1.3799999999998644, -0.11494693862003331 
1.3899999999998633, -0.11557227628364009 
1.3999999999998622, -0.11677314653991062 
1.4099999999998611, -0.11885786743855298 
1.41999999999986, -0.1223338761217598 
1.429999999999859, -0.12796357450160542 
1.4399999999998578, -0.1366333985893156 
1.4499999999998567, -0.14856089255747235 
1.4599999999998556, -0.1614972787674822 
1.4699999999998545, -0.1701126564242973 
1.4799999999998534, -0.1705756543748195 
1.4899999999998523, -0.16505338317987192 
1.4999999999998512, -0.158175983154076 
1.5099999999998501, -0.1525237796805223 
1.519999999999849, -0.14855474995916212 
1.529999999999848, -0.14592946383759348 
1.5399999999998468, -0.14422554384079875 
1.5499999999998457, -0.1431284226663549 
1.5599999999998446, -0.14243694589367267 
1.5699999999998435, -0.14203275557567085 
1.5799999999998424, -0.14185405361362252 
1.5899999999998413, -0.1418799470308334 
1.5999999999998402, -0.14212415167926956 
1.6099999999998391, -0.14263667942810482 
1.619999999999838, -0.1435134651712257 
1.629999999999837, -0.14491514380250545 
1.6399999999998358, -0.14709600913548257 
1.6499999999998347, -0.150438320562081 
1.6599999999998336, -0.1554637838974777 
1.6699999999998325, -0.16273463526209805 
1.6799999999998314, -0.17248713624552825 
1.6899999999998303, -0.18399395001910923 
1.6999999999998292, -0.19532943478785278 
1.709999999999828, -0.20442336519382373 
1.719999999999827, -0.21048625209659827 
1.729999999999826, -0.21403937929662442 
1.7399999999998248, -0.21599171400093597 
1.7499999999998237, -0.21704778080764733 
1.7599999999998226, -0.21762229538521347 
1.7699999999998215, -0.2179332295104861 
1.7799999999998204, -0.21809160235233344 
1.7899999999998193, -0.21815508999152158 
1.7999999999998182, -0.2181559998082081 
1.809999999999817, -0.21811600334056513 
1.819999999999816, -0.2180549839045931 
1.8299999999998149, -0.21799741466464853 
1.8399999999998138, -0.21797715515205912 
1.8499999999998127, -0.21803999831511384 
1.8599999999998116, -0.21824275452141037 
1.8699999999998105, -0.21864796115721757 
1.8799999999998094, -0.21931343834605244 
1.8899999999998083, -0.2202753803008059 
1.8999999999998072, -0.22152518329631937 
1.909999999999806, -0.22298831924945808 
1.919999999999805, -0.22452482373365684 
1.9299999999998039, -0.225966466926739 
1.9399999999998028, -0.22717475676316407 
1.9499999999998017, -0.22807938055230642 
1.9599999999998006, -0.22867548949634364 
1.9699999999997995, -0.22899496159791383 
1.9799999999997984, -0.22907704093353548 
1.9899999999997973, -0.22895017203988305 
1.9999999999997962, -0.2286240705817308 
2.0099999999998173, -0.22808784445549982 
2.0199999999998384, -0.2273124197415866 
2.0299999999998595, -0.2262592969850142 
2.0399999999998806, -0.22489975203172463 
2.0499999999999017, -0.2232445550693182 
2.059999999999923, -0.2213709095577591 
2.069999999999944, -0.2194211810248588 
2.079999999999965, -0.21756144185640441 
2.089999999999986, -0.21592464310375847 
2.100000000000007, -0.21457747635455854 
2.1100000000000283, -0.21352292700780695 
2.1200000000000494, -0.21272196092312812 
2.1300000000000705, -0.2121158813621935 
2.1400000000000916, -0.21164233132599392 
2.1500000000001127, -0.21124515367491686 
2.160000000000134, -0.2108793078728281 
2.170000000000155, -0.21051147066587497 
2.180000000000176, -0.2101171741957284 
2.190000000000197, -0.2096756454761573 
2.2000000000002182, -0.2091628854028365 
2.2100000000002393, -0.20854185869987102 
2.2200000000002604, -0.20774604320457463 
2.2300000000002815, -0.20664878964084848 
2.2400000000003026, -0.2050073377436319 
2.2500000000003237, -0.20237806320712853 
2.260000000000345, -0.19805674922930627 
2.270000000000366, -0.1912472891222546 
2.280000000000387, -0.18171110700914272 
2.290000000000408, -0.17050156062874286 
2.3000000000004293, -0.1596007638159307 
2.3100000000004504, -0.1505619086978988 
2.3200000000004715, -0.14382091584393095 
2.3300000000004926, -0.1390609416216096 
2.3400000000005137, -0.13575818927056754 
2.3500000000005348, -0.13345538467113016 
2.360000000000556, -0.13182371324906034 
2.370000000000577, -0.13064555353248958 
2.380000000000598, -0.12978367353954495 
2.390000000000619, -0.12915660229187756 
2.4000000000006403, -0.12872300022899402 
2.4100000000006614, -0.12847392543192104 
2.4200000000006825, -0.128431978511785 
2.4300000000007036, -0.12865719911158333 
2.4400000000007247, -0.12925983309280276 
2.450000000000746, -0.13041682475177258 
2.460000000000767, -0.13237253051745246 
2.470000000000788, -0.13534814454859148 
2.480000000000809, -0.13915310006861784 
2.49000000000083, -0.1422385559073369 
2.5000000000008513, -0.14090903999545967 
2.5100000000008724, -0.13168892797308687 
2.5200000000008935, -0.11637257373163098 
2.5300000000009146, -0.10083407548670928 
2.5400000000009357, -0.08885366152488157 
2.550000000000957, -0.08077588186633725 
2.560000000000978, -0.07558492963143323 
2.570000000000999, -0.07226190395550906 
2.58000000000102, -0.07010579663394459 
2.5900000000010412, -0.0686884861727847 
2.6000000000010624, -0.06776127007669111 
2.6100000000010835, -0.0671871350502866 
2.6200000000011046, -0.06690178563425123 
2.6300000000011257, -0.06689551591677963 
2.6400000000011468, -0.06721064453027965 
2.650000000001168, -0.06795369967009104 
2.660000000001189, -0.06932596851454421 
2.67000000000121, -0.07167927654297154 
2.680000000001231, -0.07559803849462761 
2.6900000000012523, -0.08195916108685394 
2.7000000000012734, -0.09172950613247816 
2.7100000000012945, -0.10487631291678182 
2.7200000000013156, -0.11820372390900118 
2.7300000000013367, -0.1255798727885786 
2.740000000001358, -0.12421806737164953 
2.750000000001379, -0.1178152346529476 
2.7600000000014, -0.11102809249181142 
2.770000000001421, -0.10580501859008037 
2.780000000001442, -0.10223791419889601 
2.7900000000014633, -0.09989808483139485 
2.8000000000014844, -0.09837859651952892 
2.8100000000015055, -0.0973996640434152 
2.8200000000015266, -0.09679039213545196 
2.8300000000015477, -0.09645596650613156 
2.840000000001569, -0.09635469636407692 
2.85000000000159, -0.09648680624874444 
2.860000000001611, -0.09689354253096563 
2.870000000001632, -0.09766651394355842 
2.8800000000016532, -0.09896952435020513 
2.8900000000016743, -0.10107714682543771 
2.9000000000016954, -0.10443220129643252 
2.9100000000017165, -0.10970393792142416 
2.9200000000017377, -0.11775203958154976 
2.9300000000017588, -0.12923442493317946 
2.94000000000178, -0.14358627958509232 
2.950000000001801, -0.15812666621467647 
2.960000000001822, -0.16940887690349782 
2.970000000001843, -0.17608609711618864 
2.9800000000018643, -0.17923403588863007 
2.9900000000018854, -0.18047852249380703 
3.0000000000019065, -0.1808958701968372 
3.0100000000019276, -0.18100124665187883 
3.0200000000019487, -0.18100348680040035 
3.03000000000197, -0.1809799591518692 
3.040000000001991, -0.18095881120862595 
3.050000000002012, -0.1809526627447958 
3.060000000002033, -0.18097220884472934 
3.070000000002054, -0.18103267442821996 
3.0800000000020753, -0.18115830625135643 
3.0900000000020964, -0.181386710252114 
3.1000000000021175, -0.18177326649934666 
3.1100000000021386, -0.1823948993134024 
3.1200000000021597, -0.18335136785940037 
3.130000000002181, -0.18475978861069098 
3.140000000002202, -0.18673341210098643 
3.150000000002223, -0.18933245876765814 
3.160000000002244, -0.192487816174536 
3.1700000000022652, -0.1959431156266453 
3.1800000000022863, -0.19929980691627663 
3.1900000000023074, -0.20218222928280766 
3.2000000000023285, -0.20439422500109097 
3.2100000000023496, -0.20593916142152943 
3.2200000000023707, -0.20693283230605256 
3.230000000002392, -0.2075124256736416 
3.240000000002413, -0.20778983049171199 
3.250000000002434, -0.2078407685487615 
3.260000000002455, -0.20770965092820778 
3.2700000000024763, -0.20741859280055724 
3.2800000000024974, -0.2069772287816857 
3.2900000000025185, -0.20639359424946457 
3.3000000000025396, -0.20568612221754928 
3.3100000000025607, -0.20489381645637444 
3.3200000000025818, -0.20407862766772028 
3.330000000002603, -0.2033158521817615 
3.340000000002624, -0.20267612442661426 
3.350000000002645, -0.20220865197817325 
3.360000000002666, -0.20193251674094675 
3.3700000000026873, -0.20183571286883514 
3.3800000000027084, -0.20187904017447916 
3.3900000000027295, -0.20200427744455443 
3.4000000000027506, -0.20214678508853262 
3.4100000000027717, -0.20224922109436066 
3.420000000002793, -0.20227026144255408 
3.430000000002814, -0.20218476423266213 
3.440000000002835, -0.20197697592059463 
3.450000000002856, -0.2016306564964335 
3.460000000002877, -0.20111850944626958 
3.4700000000028983, -0.20039086896443678 
3.4800000000029194, -0.19936276805598607 
3.4900000000029405, -0.1979012164968039 
3.5000000000029616, -0.19582370871035282 
3.5100000000029827, -0.19293538518631762 
3.520000000003004, -0.1891369616926834 
3.530000000003025, -0.1845766723761721 
3.540000000003046, -0.17970078456556976 
3.550000000003067, -0.1750771550899161 
3.5600000000030882, -0.1711232278467175 
3.5700000000031094, -0.16798528277590813 
3.5800000000031305, -0.1656033781704911 
3.5900000000031516, -0.16382915651090768 
3.6000000000031727, -0.16250563534001888 
3.6100000000031938, -0.16150059140118053 
3.620000000003215, -0.16071374548693176 
3.630000000003236, -0.16007377503037554 
3.640000000003257, -0.1595326283178516 
3.650000000003278, -0.15905984152810482 
3.6600000000032993, -0.15863764921012022 
3.6700000000033204, -0.15825670555578616 
3.6800000000033415, -0.15791098204117482 
3.6900000000033626, -0.1575876277580538 
3.7000000000033837, -0.15724070626339348 
3.710000000003405, -0.15672223033277102 
3.720000000003426, -0.15562050466737815 
3.730000000003447, -0.152976162332214 
3.740000000003468, -0.14712020024489575 
3.750000000003489, -0.13650877558463964 
3.7600000000035103, -0.12184263725050033 
3.7700000000035314, -0.10654860143214631 
3.7800000000035525, -0.09386395359373287 
3.7900000000035736, -0.08475977114325736 
3.8000000000035947, -0.07865759264005759 
3.810000000003616, -0.07464050582689083 
3.820000000003637, -0.07197204365732082 
3.830000000003658, -0.07016335250293204 
3.840000000003679, -0.06891243992919042 
3.8500000000037002, -0.06803938080044687 
3.8600000000037213, -0.06744229502650202 
3.8700000000037424, -0.06707201874598794 
3.8800000000037635, -0.06692023390608692 
3.8900000000037847, -0.06701779422005386 
3.9000000000038058, -0.06744208728259594 
3.910000000003827, -0.06833253311498408 
3.920000000003848, -0.06990682030068113 
3.930000000003869, -0.07244015656055153 
3.94000000000389, -0.07607252783148433 
3.9500000000039113, -0.08012844444738812 
3.9600000000039324, -0.08185790215313529 
3.9700000000039535, -0.0766729792513845 
3.9800000000039746, -0.06317951262622686 
3.9900000000039957, -0.04655367432237954 
4.000000000004016, -0.03256588050314448 
4.010000000003993, -0.02289388792969143 
4.02000000000397, -0.016707310925842777 
4.030000000003946, -0.012804619940373584 
4.040000000003923, -0.010307425538589474 
4.0500000000039, -0.008676088508328107 
4.0600000000038765, -0.007598466502060368 
4.070000000003853, -0.006900931339388443 
4.08000000000383, -0.00649574011789554 
4.090000000003807, -0.0063547200850162175 
4.100000000003783, -0.0065009515076301025 
4.11000000000376, -0.007015042557538676 
4.120000000003737, -0.00805624312618651 
4.130000000003713, -0.009897743448647672 
4.14000000000369, -0.012955871625025145 
4.150000000003667, -0.017704705185244165 
4.1600000000036434, -0.024115874985960788 
4.17000000000362, -0.03009263124997798 
4.180000000003597, -0.03028213812507648 
4.1900000000035735, -0.02063984656796105 
4.20000000000355, -0.005176682455889354 
4.210000000003527, 0.008704215231995268 
4.220000000003504, 0.018282607708217026 
4.23000000000348, 0.024233623088696574 
4.240000000003457, 0.027783421866128134 
4.250000000003434, 0.02986737187583465 
4.26000000000341, 0.03105952346851632 
4.270000000003387, 0.031688332938945 
4.280000000003364, 0.03193425810865493 
4.2900000000033405, 0.0318873633252702 
4.300000000003317, 0.03157591029553698 
4.310000000003294, 0.030975586874637296 
4.320000000003271, 0.03000378633943978 
4.330000000003247, 0.028500367229839514 
4.340000000003224, 0.02620117701483169 
4.350000000003201, 0.022744751883584942 
4.360000000003177, 0.017880206122347204 
4.370000000003154, 0.012320351458960505 
4.380000000003131, 0.009425182379612446 
4.390000000003107, 0.014689541843612531 
4.400000000003084, 0.02881027796154322 
4.410000000003061, 0.0449611756517755 
4.4200000000030375, 0.05743349349182254 
4.430000000003014, 0.06542904124511623 
4.440000000002991, 0.07020273754175835 
4.450000000002968, 0.07299443474731564 
4.460000000002944, 0.0746090105596641 
4.470000000002921, 0.07551219274328783 
4.480000000002898, 0.07596409027650546 
4.490000000002874, 0.07610570953186455 
4.500000000002851, 0.07600610492900431 
4.510000000002828, 0.07568553571846401 
4.520000000002804, 0.07512492842308117 
4.530000000002781, 0.07426951119347744 
4.540000000002758, 0.07304066767008267 
4.5500000000027345, 0.07139841422187641 
4.560000000002711, 0.06957415665739787 
4.570000000002688, 0.0686792663468834 
4.580000000002665, 0.07144078314511067 
4.590000000002641, 0.08087500663235321 
4.600000000002618, 0.09570081582095549 
4.610000000002595, 0.11029474199113616 
4.620000000002571, 0.1209636808458471 
4.630000000002548, 0.12765807616222993 
4.640000000002525, 0.13161185765663896 
4.6500000000025015, 0.13390330404796985 
4.660000000002478, 0.1352167800200982 
4.670000000002455, 0.13595009495161228 
4.6800000000024315, 0.13633188741802887 
4.690000000002408, 0.13649621841556345 
4.700000000002385, 0.13652539514052878 
4.710000000002362, 0.13647609814588652 
4.720000000002338, 0.1364001046748265 
4.730000000002315, 0.13636994549777745 
4.740000000002292, 0.13652271367173643 
4.750000000002268, 0.1371364359294521 
4.760000000002245, 0.13872468728302761 
4.770000000002222, 0.14200977276721777 
4.7800000000021985, 0.1474672189843294 
4.790000000002175, 0.1545311460387111 
4.800000000002152, 0.16161582175617048 
4.810000000002129, 0.1673431723170669 
4.820000000002105, 0.1713232556647947 
4.830000000002082, 0.17383706563110665 
