t, s[1].omega / s[0].omega 
0, -1.1299974785411906 
0.009999999999999995, -1.1296371879256029 
0.019999999999999934, -1.129066790239597 
0.029999999999999874, -1.1282994571075828 
0.04000000000000012, -1.127360618322664 
0.050000000000000405, -1.1262917197781135 
0.06000000000000069, -1.125152884423681 
0.07000000000000098, -1.1240219732279793 
0.08000000000000126, -1.1229874923192829 
0.09000000000000155, -1.1221349954001234 
0.10000000000000184, -1.1215286861908695 
0.11000000000000212, -1.121191197812063 
0.12000000000000241, -1.1210900609597483 
0.130000000000002, -1.1211434774295896 
0.1400000000000009, -1.1212456346334747 
0.1499999999999998, -1.1212935799730155 
0.1599999999999987, -1.1211994911146115 
0.1699999999999976, -1.1208894102709412 
0.1799999999999965, -1.1202995817147725 
0.1899999999999954, -1.119378601598664 
0.1999999999999943, -1.1180951724563504 
0.2099999999999932, -1.1164450247087434 
0.2199999999999921, -1.1144515443286296 
0.229999999999991, -1.1121616423760632 
0.2399999999999899, -1.1096434460604234 
0.2499999999999888, -1.1069902699909762 
0.2599999999999877, -1.1043289023065885 
0.2699999999999866, -1.1018236290211694 
0.2799999999999855, -1.0996617816493897 
0.2899999999999844, -1.0980079004326966 
0.2999999999999833, -1.096936246970563 
0.3099999999999822, -1.0963882627927817 
0.3199999999999811, -1.0961988068211075 
0.32999999999998, -1.0961714091454478 
0.3399999999999789, -1.0961390241880398 
0.3499999999999778, -1.0959771049823461 
0.35999999999997667, -1.0955828863893355 
0.36999999999997557, -1.0948468597590186 
0.37999999999997447, -1.0936334133156262 
0.38999999999997337, -1.0917811316942143 
0.39999999999997227, -1.0891299384965045 
0.40999999999997117, -1.0855712077207262 
0.41999999999997006, -1.081098554025184 
0.42999999999996896, -1.075832663488877 
0.43999999999996786, -1.0700160599051636 
0.44999999999996676, -1.0639963138841038 
0.45999999999996566, -1.058206533142224 
0.46999999999996456, -1.0531199032496852 
0.47999999999996346, -1.0491447322159364 
0.48999999999996235, -1.0464777998576507 
0.49999999999996125, -1.0450173784168086 
0.5099999999999602, -1.0444289668742228 
0.519999999999959, -1.0443173274414566 
0.529999999999958, -1.0443658914314335 
0.5399999999999568, -1.0443731920212915 
0.5499999999999557, -1.0442178772513266 
0.5599999999999546, -1.0438054319048984 
0.5699999999999535, -1.0430221402518725 
0.5799999999999524, -1.041700779095947 
0.5899999999999513, -1.0396020773679677 
0.5999999999999502, -1.0364277538248852 
0.6099999999999491, -1.0318875226738347 
0.619999999999948, -1.0258195427535923 
0.6299999999999469, -1.0183114355102254 
0.6399999999999458, -1.0097455964136823 
0.6499999999999447, -1.0007446054095337 
0.6599999999999436, -0.9920566230649527 
0.6699999999999425, -0.9844170467141258 
0.6799999999999414, -0.978390805813771 
0.6899999999999403, -0.974221609232003 
0.6999999999999392, -0.971771698226909 
0.7099999999999381, -0.9706181507574753 
0.719999999999937, -0.9702524447734246 
0.7299999999999359, -0.9702495593353275 
0.7399999999999348, -0.9703290359225718 
0.7499999999999337, -0.9703300315203721 
0.7599999999999326, -0.9701567529715204 
0.7699999999999315, -0.9697289529650158 
0.7799999999999304, -0.9689461975526339 
0.7899999999999293, -0.967665789424062 
0.7999999999999282, -0.9656991398849415 
0.8099999999999271, -0.9628395897058875 
0.819999999999926, -0.9589303894262207 
0.8299999999999249, -0.9539518178072486 
0.8399999999999238, -0.948072422469074 
0.8499999999999227, -0.941623871077538 
0.8599999999999216, -0.9350213624733644 
0.8699999999999205, -0.9286851959588903 
0.8799999999999194, -0.9229902864184691 
0.8899999999999183, -0.9182306698635033 
0.8999999999999172, -0.9145811335441604 
0.9099999999999161, -0.9120626655676085 
0.919999999999915, -0.9105399543141826 
0.9299999999999139, -0.909768760499909 
0.9399999999999128, -0.9094739943493619 
0.9499999999999117, -0.9094163980565948 
0.9599999999999106, -0.9094208701156514 
0.9699999999999095, -0.9093699755133878 
0.9799999999999084, -0.90918147840419 
0.9899999999999073, -0.9087860405730979 
0.9999999999999062, -0.9081138193394255 
1.0099999999999052, -0.9070944163173744 
1.019999999999904, -0.9056715590917731 
1.029999999999903, -0.9038268344792678 
1.039999999999902, -0.9015972224429148 
1.0499999999999008, -0.8990712748783993 
1.0599999999998997, -0.8963650511891602 
1.0699999999998986, -0.8935952790635415 
1.0799999999998975, -0.8908652717386925 
1.0899999999998964, -0.8882649004310308 
1.0999999999998953, -0.8858761807241905 
1.1099999999998942, -0.8837757721756214 
1.119999999999893, -0.882030115621159 
1.129999999999892, -0.8806838778655456 
1.1399999999998909, -0.8797466917843035 
1.1499999999998898, -0.8791857771231244 
1.1599999999998887, -0.8789303944150706 
1.1699999999998876, -0.878887485578906 
1.1799999999998865, -0.8789609120438666 
1.1899999999998854, -0.8790656805319331 
1.1999999999998843, -0.8791337730373078 
1.2099999999998832, -0.8791141459458496 
1.219999999999882, -0.8789715832382681 
1.229999999999881, -0.8786870741874591 
1.2399999999998799, -0.8782585631641991 
1.2499999999998788, -0.8776986671643645 
1.2599999999998777, -0.877027899185147 
1.2699999999998766, -0.8762665387012785 
1.2799999999998755, -0.8754303299238009 
1.2899999999998744, -0.8745322644773493 
1.2999999999998733, -0.8735882744661108 
1.3099999999998722, -0.8726230042798985 
1.319999999999871, -0.8716731500107315 
1.32999999999987, -0.8707874870931628 
1.3399999999998689, -0.8700231548673434 
1.3499999999998678, -0.8694380258622518 
1.3599999999998666, -0.8690803512942855 
1.3699999999998655, -0.8689787715253983 
1.3799999999998644, -0.8691363707777702 
1.3899999999998633, -0.8695309462983427 
1.3999999999998622, -0.8701211073994122 
1.4099999999998611, -0.8708557166186747 
1.41999999999986, -0.8716833327213553 
1.429999999999859, -0.8725587936993737 
1.4399999999998578, -0.8734453492558686 
1.4499999999998567, -0.8743121376867455 
1.4599999999998556, -0.8751283461766548 
1.4699999999998545, -0.8758574589812772 
1.4799999999998534, -0.8764564633158738 
1.4899999999998523, -0.8768829938918585 
1.4999999999998512, -0.877107496462043 
1.5099999999998501, -0.8771225982129127 
1.519999999999849, -0.8769441742433788 
1.529999999999848, -0.8766061855339448 
1.5399999999998468, -0.8761559910711938 
1.5499999999998457, -0.8756550168813064 
1.5599999999998446, -0.8751846643891443 
1.5699999999998435, -0.8748525995669214 
1.5799999999998424, -0.8747916437454142 
1.5899999999998413, -0.8751447106093735 
1.5999999999998402, -0.8760368210018017 
1.6099999999998391, -0.8775455811040447 
1.619999999999838, -0.8796847528149432 
1.629999999999837, -0.8824067151166737 
1.6399999999998358, -0.8856166612043392 
1.6499999999998347, -0.8891857998618802 
1.6599999999998336, -0.8929555034731257 
1.6699999999998325, -0.8967349125720228 
1.6799999999998314, -0.9003053011665154 
1.6899999999998303, -0.9034472089516266 
1.6999999999998292, -0.9059907870042455 
1.709999999999828, -0.9078620668171347 
1.719999999999827, -0.9090906920402926 
1.729999999999826, -0.9097751753518277 
1.7399999999998248, -0.9100346315352814 
1.7499999999998237, -0.909975619045387 
1.7599999999998226, -0.9096824792886522 
1.7699999999998215, -0.9092267491889434 
1.7799999999998204, -0.9086910314002999 
1.7899999999998193, -0.9082059107169524 
1.7999999999998182, -0.9079956711172382 
1.809999999999817, -0.9084145726049444 
1.819999999999816, -0.9099364993743404 
1.8299999999998149, -0.9130624525981238 
1.8399999999998138, -0.9181567283727148 
1.8499999999998127, -0.9252854514022644 
1.8599999999998116, -0.9341394027696094 
1.8699999999998105, -0.9440653714509455 
1.8799999999998094, -0.9541820325499618 
1.8899999999998083, -0.9635607552967084 
1.8999999999998072, -0.9714513467381061 
1.909999999999806, -0.9774740132963947 
1.919999999999805, -0.9816611562925701 
1.9299999999998039, -0.9843256112246623 
1.9399999999998028, -0.9858666686098392 
1.9499999999998017, -0.9866337748474703 
1.9599999999998006, -0.986877910377318 
1.9699999999997995, -0.9867587577985812 
1.9799999999997984, -0.9863734899102677 
1.9899999999997973, -0.9857937885205112 
1.9999999999997962, -0.9851152567752578 
2.0099999999998173, -0.9845298701703389 
2.0199999999998384, -0.9844183890530024 
2.0299999999998595, -0.9854130058095754 
2.0399999999998806, -0.9883232708020417 
2.0499999999999017, -0.9938498057469412 
2.059999999999923, -1.0021967318380294 
2.069999999999944, -1.012855540833617 
2.079999999999965, -1.0247222866243297 
2.089999999999986, -1.036451280986836 
2.100000000000007, -1.0468480855464617 
2.1100000000000283, -1.0551624798626098 
2.1200000000000494, -1.0611959089313525 
2.1300000000000705, -1.0651966386105767 
2.1400000000000916, -1.0676286407233075 
2.1500000000001127, -1.0689611172508697 
2.160000000000134, -1.069560816780565 
2.170000000000155, -1.0696746351110118 
2.180000000000176, -1.069456709299042 
2.190000000000197, -1.0690101711018358 
2.2000000000002182, -1.0684371974068925 
2.2100000000002393, -1.0679010596676286 
2.2200000000002604, -1.067690275539071 
2.2300000000002815, -1.0682347383160522 
2.2400000000003026, -1.069999342192918 
2.2500000000003237, -1.0732621901860906 
2.260000000000345, -1.0779389519417586 
2.270000000000366, -1.0836102026801897 
2.280000000000387, -1.0897042254537306 
2.290000000000408, -1.0956722450587617 
2.3000000000004293, -1.10107668923471 
2.3100000000004504, -1.1056190188923591 
2.3200000000004715, -1.1091497474365943 
2.3300000000004926, -1.1116667194165966 
2.3400000000005137, -1.1132857992261331 
2.3500000000005348, -1.1141847228395458 
2.360000000000556, -1.1145458504134793 
2.370000000000577, -1.1145226541065627 
2.380000000000598, -1.1142356470628998 
2.390000000000619, -1.1137903538976288 
2.4000000000006403, -1.1133066402000027 
2.4100000000006614, -1.1129436323907052 
2.4200000000006825, -1.112894477605479 
2.4300000000007036, -1.1133319747289465 
2.4400000000007247, -1.1143309967405537 
2.450000000000746, -1.1158330809057946 
2.460000000000767, -1.1176829056482809 
2.470000000000788, -1.1196966696379997 
2.480000000000809, -1.1217115476542128 
2.49000000000083, -1.123602773600181 
2.5000000000008513, -1.1252805520722213 
2.5100000000008724, -1.1266811143204687 
2.5200000000008935, -1.127760739805217 
2.5300000000009146, -1.1284958195249648 
2.5400000000009357, -1.128886290779516 
2.550000000000957, -1.1289566194888034 
2.560000000000978, -1.128751443330906 
2.570000000000999, -1.1283293149473705 
2.58000000000102, -1.1277603069404971 
2.5900000000010412, -1.127128513378297 
2.6000000000010624, -1.126532608705049 
2.6100000000010835, -1.1260744377722607 
2.6200000000011046, -1.1258344723703364 
2.6300000000011257, -1.1258483527091583 
2.6400000000011468, -1.126100294299397 
2.650000000001168, -1.126533410586095 
2.660000000001189, -1.1270669478653617 
2.67000000000121, -1.1276138586943207 
2.680000000001231, -1.1280953425772091 
2.6900000000012523, -1.1284492243629098 
2.7000000000012734, -1.1286318479447113 
2.7100000000012945, -1.128616176135211 
2.7200000000013156, -1.1283885994654586 
2.7300000000013367, -1.127945698664589 
2.740000000001358, -1.1272921423622362 
2.750000000001379, -1.1264409424663804 
2.7600000000014, -1.1254162097181135 
2.770000000001421, -1.1242572432468045 
2.780000000001442, -1.1230220143198817 
2.7900000000014633, -1.1217874359030904 
2.8000000000014844, -1.1206437923115267 
2.8100000000015055, -1.1196821968748432 
2.8200000000015266, -1.1189754013174213 
2.8300000000015477, -1.118554443379558 
2.840000000001569, -1.1183913332575839 
2.85000000000159, -1.1184032876241925 
2.860000000001611, -1.1184797988383661 
2.870000000001632, -1.1185124543440836 
2.8800000000016532, -1.1184086610190165 
2.8900000000016743, -1.1180896767927184 
2.9000000000016954, -1.1174852121002805 
2.9100000000017165, -1.1165345701117877 
2.9200000000017377, -1.1151956095043773 
2.9300000000017588, -1.1134550006542634 
2.94000000000178, -1.1113320420435138 
2.950000000001801, -1.1088751753874628 
2.960000000001822, -1.1061579144324905 
2.970000000001843, -1.1032808869146724 
2.9800000000018643, -1.1003798368916462 
2.9900000000018854, -1.0976309962456194 
3.0000000000019065, -1.0952379606305196 
3.0100000000019276, -1.093384598113095 
3.0200000000019487, -1.0921619617199574 
3.03000000000197, -1.0915181876564772 
3.040000000001991, -1.0912819419711597 
3.050000000002012, -1.0912429979526153 
3.060000000002033, -1.091221319808404 
3.070000000002054, -1.091084952737195 
3.0800000000020753, -1.0907294411871136 
3.0900000000020964, -1.0900467019326952 
3.1000000000021175, -1.0889014443105742 
3.1100000000021386, -1.0871258513621147 
3.1200000000021597, -1.0845416173479614 
3.130000000002181, -1.081010394919896 
3.140000000002202, -1.0764938310195529 
3.150000000002223, -1.0710915332580089 
3.160000000002244, -1.0650425040655036 
3.1700000000022652, -1.0587052750025614 
3.1800000000022863, -1.0525326304351286 
3.1900000000023074, -1.0470256263303659 
3.2000000000023285, -1.042632693519859 
3.2100000000023496, -1.0396006756430505 
3.2200000000023707, -1.037870249299432 
3.230000000002392, -1.037120512187604 
3.240000000002413, -1.0369389101195758 
3.250000000002434, -1.0369784516314338 
3.260000000002455, -1.0370125115060786 
3.2700000000024763, -1.0369073290341677 
3.2800000000024974, -1.0365683117522448 
3.2900000000025185, -1.035891608063036 
3.3000000000025396, -1.034727474711199 
3.3100000000025607, -1.0328576149544733 
3.3200000000025818, -1.029998910449946 
3.330000000002603, -1.0258558259360886 
3.340000000002624, -1.0202296174518275 
3.350000000002645, -1.0131440223018977 
3.360000000002666, -1.004910138661797 
3.3700000000026873, -0.9960897718218653 
3.3800000000027084, -0.9873894083030988 
3.3900000000027295, -0.9795316543034692 
3.4000000000027506, -0.9731145448831244 
3.4100000000027717, -0.9684675189220527 
3.420000000002793, -0.9655639372750896 
3.430000000002814, -0.9640659954400901 
3.440000000002835, -0.9634921101320302 
3.450000000002856, -0.9633962985991456 
3.460000000002877, -0.9634607792105403 
3.4700000000028983, -0.9634946314432244 
3.4800000000029194, -0.9633872437960871 
3.4900000000029405, -0.9630581179884136 
3.5000000000029616, -0.9624185561677308 
3.5100000000029827, -0.9613469782222506 
3.520000000003004, -0.9596806289596259 
3.530000000003025, -0.9572335572393849 
3.540000000003046, -0.9538502995656625 
3.550000000003067, -0.949482869248049 
3.5600000000030882, -0.9442461130098765 
3.5700000000031094, -0.938408341315724 
3.5800000000031305, -0.932325678654701 
3.5900000000031516, -0.9263695279292241 
3.6000000000031727, -0.9208802331770011 
3.6100000000031938, -0.9161406622257623 
3.620000000003215, -0.9123488895237882 
3.630000000003236, -0.909584976975262 
3.640000000003257, -0.9077909961913699 
3.650000000003278, -0.9067891171002461 
3.6600000000032993, -0.9063388186224397 
3.6700000000033204, -0.9062036937373422 
3.6800000000033415, -0.9061944180370659 
3.6900000000033626, -0.9061774103154738 
3.7000000000033837, -0.9060606193133955 
3.710000000003405, -0.9057730034897638 
3.720000000003426, -0.9052490922923713 
3.730000000003447, -0.9044246170863557 
3.740000000003468, -0.9032455310054036 
3.750000000003489, -0.9016870139018742 
3.7600000000035103, -0.8997705970035217 
3.7700000000035314, -0.8975649991373013 
3.7800000000035525, -0.8951678341098257 
3.7900000000035736, -0.8926812669438275 
3.8000000000035947, -0.8901969715295543 
3.810000000003616, -0.8877944561532484 
3.820000000003637, -0.8855464966356607 
3.830000000003658, -0.883523431837118 
3.840000000003679, -0.8817913694663565 
3.8500000000037002, -0.8804035620476167 
3.8600000000037213, -0.879387893950472 
3.8700000000037424, -0.8787362901130225 
3.8800000000037635, -0.8784024627045623 
3.8900000000037847, -0.8783108312208547 
3.9000000000038058, -0.8783729490904533 
3.910000000003827, -0.8785036210237605 
3.920000000003848, -0.8786307725533101 
3.930000000003869, -0.8786985970830192 
3.94000000000389, -0.878667396707932 
3.9500000000039113, -0.8785134071005409 
3.9600000000039324, -0.8782289270741124 
3.9700000000039535, -0.8778203764459912 
3.9800000000039746, -0.8773025217341444 
3.9900000000039957, -0.8766908805723606 
4.000000000004016, -0.8759969865479093 
4.010000000003993, -0.8752293945044191 
4.02000000000397, -0.8743990327031425 
4.030000000003946, -0.873525201972131 
4.040000000003923, -0.8726395183189462 
4.0500000000039, -0.871786986152722 
4.0600000000038765, -0.8710239041654498 
4.070000000003853, -0.8704119674592554 
4.08000000000383, -0.870008632118588 
4.090000000003807, -0.869855951786235 
4.100000000003783, -0.8699718446397202 
4.11000000000376, -0.8703471875363956 
4.120000000003737, -0.8709495510469522 
4.130000000003713, -0.8717316849060074 
4.14000000000369, -0.8726414203165783 
4.150000000003667, -0.873629674440912 
4.1600000000036434, -0.8746542795112289 
4.17000000000362, -0.8756788223867676 
4.180000000003597, -0.8766674037080152 
4.1900000000035735, -0.8775784612384833 
4.20000000000355, -0.8783627816308472 
4.210000000003527, -0.8789698441168994 
4.220000000003504, -0.8793609123571905 
4.23000000000348, -0.8795208144172426 
4.240000000003457, -0.8794607978589071 
4.250000000003434, -0.8792128344350593 
4.26000000000341, -0.8788225237259827 
4.270000000003387, -0.8783473097859865 
4.280000000003364, -0.8778617559171252 
4.2900000000033405, -0.8774664369017466 
4.300000000003317, -0.8772929766657261 
4.310000000003294, -0.8774962963419004 
4.320000000003271, -0.8782297556055214 
4.330000000003247, -0.8796101709470561 
4.340000000003224, -0.881689271688255 
4.350000000003201, -0.8844450045036087 
4.360000000003177, -0.887791679950543 
4.370000000003154, -0.8915960800367502 
4.380000000003131, -0.8956869632173377 
4.390000000003107, -0.8998559213407825 
4.400000000003084, -0.9038610162065916 
4.410000000003061, -0.9074515501198782 
4.4200000000030375, -0.9104204160753078 
4.430000000003014, -0.9126601445957416 
4.440000000002991, -0.9141821585112828 
4.450000000002968, -0.915085399348774 
4.460000000002944, -0.9155017562147123 
4.470000000002921, -0.9155535732363971 
4.480000000002898, -0.9153370188470547 
4.490000000002874, -0.9149273310327084 
4.500000000002851, -0.9143996040244774 
4.510000000002828, -0.9138632668786861 
4.520000000002804, -0.9135089841305012 
4.530000000002781, -0.9136560135800833 
4.540000000002758, -0.9147665030091326 
4.5500000000027345, -0.9173809624899614 
4.560000000002711, -0.9219608443465518 
4.570000000002688, -0.9286970849606876 
4.580000000002665, -0.9373850911827416 
4.590000000002641, -0.9474233604894418 
4.600000000002618, -0.957922074428537 
4.610000000002595, -0.9678892487642807 
4.620000000002571, -0.9764686691381403 
4.630000000002548, -0.9831611170080509 
4.640000000002525, -0.9879089323346637 
4.6500000000025015, -0.9909903879238243 
4.660000000002478, -0.9928173419574001 
4.670000000002455, -0.9937728315823453 
4.6800000000024315, -0.9941417472837806 
4.690000000002408, -0.994109194854836 
4.700000000002385, -0.9937874794648653 
4.710000000002362, -0.993252382549158 
4.720000000002338, -0.992589446398773 
4.730000000002315, -0.9919606530149236 
4.740000000002292, -0.9916935940281105 
4.750000000002268, -0.9923554898286401 
4.760000000002245, -0.9947141553255753 
4.770000000002222, -0.9994941511488765 
4.7800000000021985, -1.0069998160150093 
4.790000000002175, -1.0168637499363504 
4.800000000002152, -1.0281135992172303 
4.810000000002129, -1.0394887624447702 
4.820000000002105, -1.049810397313227 
4.830000000002082, -1.0582690681066915 
4.840000000002059, -1.0645601064865662 
4.850000000002035, -1.0688308681631773 
4.860000000002012, -1.0714868520429688 
4.870000000001989, -1.0729824133094665 
4.880000000001965, -1.0736938300568641 
4.890000000001942, -1.0738841491577156 
4.900000000001919, -1.073721118580526 
4.9100000000018955, -1.0733152274801971 
4.920000000001872, -1.0727669410081864 
4.930000000001849, -1.07222470842335 
