t, s[1].omega / s[0].omega 
0, -0.9799180197258112 
0.009999999999999995, -0.9713313076142077 
0.019999999999999934, -0.9625210887421343 
0.029999999999999874, -0.9543419908120955 
0.04000000000000012, -0.9475171300419192 
0.050000000000000405, -0.9424557012408247 
0.06000000000000069, -0.9391780355636496 
0.07000000000000098, -0.9373799382861445 
0.08000000000000126, -0.9366000355789721 
0.09000000000000155, -0.9363929938210317 
0.10000000000000184, -0.9364273143540149 
0.11000000000000212, -0.9364973919693835 
0.12000000000000241, -0.9364881992959944 
0.130000000000002, -0.9363309685380676 
0.1400000000000009, -0.9359674749183468 
0.1499999999999998, -0.9353254439069415 
0.1599999999999987, -0.9343039769216139 
0.1699999999999976, -0.9327716799120866 
0.1799999999999965, -0.9305853359496513 
0.1899999999999954, -0.9276347166676544 
0.1999999999999943, -0.923901760265783 
0.2099999999999932, -0.9195001055514217 
0.2199999999999921, -0.9146646884585612 
0.229999999999991, -0.9096981316066814 
0.2399999999999899, -0.9049094942099073 
0.2499999999999888, -0.9005709063888474 
0.2599999999999877, -0.8968913274296406 
0.2699999999999866, -0.8939965078563452 
0.2799999999999855, -0.8919133727077876 
0.2899999999999844, -0.8905691054346547 
0.2999999999999833, -0.8898145715674314 
0.3099999999999822, -0.8894669406432898 
0.3199999999999811, -0.8893524670265585 
0.32999999999998, -0.8893319479117061 
0.3399999999999789, -0.8893049373722054 
0.3499999999999778, -0.8892002076496578 
0.35999999999997667, -0.8889624836296035 
0.36999999999997557, -0.8885426509174807 
0.37999999999997447, -0.8878953715062978 
0.38999999999997337, -0.8869852348883935 
0.39999999999997227, -0.885798531735165 
0.40999999999997117, -0.8843529324617142 
0.41999999999997006, -0.8826968636492017 
0.42999999999996896, -0.8808976905739165 
0.43999999999996786, -0.8790266920758987 
0.44999999999996676, -0.8771497524977839 
0.45999999999996566, -0.8753261204466372 
0.46999999999996456, -0.8736114721974083 
0.47999999999996346, -0.8720601744361283 
0.48999999999996235, -0.8707235927327648 
0.49999999999996125, -0.8696440100160828 
0.5099999999999602, -0.8688461095732427 
0.519999999999959, -0.8683296472690317 
0.529999999999958, -0.8680671710225576 
0.5399999999999568, -0.868008704290013 
0.5499999999999557, -0.8680918010877324 
0.5599999999999546, -0.8682527040088923 
0.5699999999999535, -0.868434615501777 
0.5799999999999524, -0.8685917733388807 
0.5899999999999513, -0.8686905495766355 
0.5999999999999502, -0.8687093082746135 
0.6099999999999491, -0.8686374944138935 
0.619999999999948, -0.8684731797781747 
0.6299999999999469, -0.868218811417034 
0.6399999999999458, -0.8678769133563884 
0.6499999999999447, -0.8674484995714131 
0.6599999999999436, -0.8669352842329714 
0.6699999999999425, -0.8663440141970916 
0.6799999999999414, -0.8656903115496576 
0.6899999999999403, -0.8650008030193147 
0.6999999999999392, -0.8643138369471399 
0.7099999999999381, -0.8636789826633222 
0.719999999999937, -0.8631543540604788 
0.7299999999999359, -0.8628004298095673 
0.7399999999999348, -0.8626705309070921 
0.7499999999999337, -0.8628006402789457 
0.7599999999999326, -0.8632025896840233 
0.7699999999999315, -0.8638633347785662 
0.7799999999999304, -0.864750008092918 
0.7899999999999293, -0.8658179001282414 
0.7999999999999282, -0.8670177726828061 
0.8099999999999271, -0.8682997661630875 
0.819999999999926, -0.8696129264979943 
0.8299999999999249, -0.8709016774190023 
0.8399999999999238, -0.8721030633133522 
0.8499999999999227, -0.8731497938396403 
0.8599999999999216, -0.8739813950834743 
0.8699999999999205, -0.8745589641619083 
0.8799999999999194, -0.8748741369559824 
0.8899999999999183, -0.8749465781165121 
0.8999999999999172, -0.8748134755747629 
0.9099999999999161, -0.8745194885237817 
0.919999999999915, -0.8741133413292148 
0.9299999999999139, -0.8736525965163617 
0.9399999999999128, -0.8732148181989314 
0.9499999999999117, -0.8729107556499469 
0.9599999999999106, -0.8728919772922866 
0.9699999999999095, -0.8733433156300224 
0.9799999999999084, -0.8744543480794731 
0.9899999999999073, -0.8763757130799016 
0.9999999999999062, -0.8791773698037118 
1.0099999999999052, -0.8828249474571125 
1.019999999999904, -0.8871770844321079 
1.029999999999903, -0.8919956747208829 
1.039999999999902, -0.8969642233209045 
1.0499999999999008, -0.9017224742408793 
1.0599999999998997, -0.9059290006994833 
1.0699999999998986, -0.9093413329293533 
1.0799999999998975, -0.9118713874238777 
1.0899999999998964, -0.9135780988923337 
1.0999999999998953, -0.9146069172588037 
1.1099999999998942, -0.9151212566965918 
1.119999999999893, -0.9152595047513991 
1.129999999999892, -0.9151216486720862 
1.1399999999998909, -0.9147749648420012 
1.1499999999998898, -0.9142701874199888 
1.1599999999998887, -0.913666910649721 
1.1699999999998876, -0.9130722553427899 
1.1799999999998865, -0.9126953640595744 
1.1899999999998854, -0.9129061130872804 
1.1999999999998843, -0.9142578105710459 
1.2099999999998832, -0.917410416095645 
1.219999999999882, -0.9229175467491915 
1.229999999999881, -0.9309355907866422 
1.2399999999998799, -0.9410101786156645 
1.2499999999998788, -0.9520969198259385 
1.2599999999998777, -0.9628620957828954 
1.2699999999998766, -0.9721413869135873 
1.2799999999998755, -0.97930491477743 
1.2899999999998744, -0.98432230392991 
1.2999999999998733, -0.9875546551226089 
1.3099999999998722, -0.9894805472786447 
1.319999999999871, -0.9905187376910165 
1.32999999999987, -0.9909691784812937 
1.3399999999998689, -0.99102138848505 
1.3499999999998678, -0.9907839129576027 
1.3599999999998666, -0.9903149346916686 
1.3699999999998655, -0.9896536386516497 
1.3799999999998644, -0.9888631127854749 
1.3899999999998633, -0.9881004051613033 
1.3999999999998622, -0.9877193059609439 
1.4099999999998611, -0.9883662966368811 
1.41999999999986, -0.9909516137859844 
1.429999999999859, -0.9963572976630657 
1.4399999999998578, -1.0049228498533602 
1.4499999999998567, -1.016044589446852 
1.4599999999998556, -1.0282630770806476 
1.4699999999998545, -1.0398471153627775 
1.4799999999998534, -1.04948282735708 
1.4899999999998523, -1.0566354471828778 
1.4999999999998512, -1.0614581006615538 
1.5099999999998501, -1.0644541191889643 
1.519999999999849, -1.0661700264371494 
1.529999999999848, -1.0670413019673048 
1.5399999999998468, -1.067362466803159 
1.5499999999998457, -1.0673132617277168 
1.5599999999998446, -1.0669975516910388 
1.5699999999998435, -1.0664822419634066 
1.5799999999998424, -1.0658415986961645 
1.5899999999998413, -1.0652178624990933 
1.5999999999998402, -1.0648959903149664 
1.6099999999998391, -1.0653473960877387 
1.619999999999838, -1.0671497215238337 
1.629999999999837, -1.0707372616317703 
1.6399999999998358, -1.076120505209585 
1.6499999999998347, -1.0828127329581538 
1.6599999999998336, -1.0900205120337252 
1.6699999999998325, -1.096929071147637 
1.6799999999998314, -1.1029153451822695 
1.6899999999998303, -1.1076434443525027 
1.6999999999998292, -1.1110599968136177 
1.709999999999828, -1.113316400728141 
1.719999999999827, -1.1146590231148894 
1.729999999999826, -1.1153360079760024 
1.7399999999998248, -1.1155477757136745 
1.7499999999998237, -1.1154379205437575 
1.7599999999998226, -1.115108558556821 
1.7699999999998215, -1.1146482711315537 
1.7799999999998204, -1.1141665772757314 
1.7899999999998193, -1.1138245328334033 
1.7999999999998182, -1.1138362421204233 
1.809999999999817, -1.1144139467244967 
1.819999999999816, -1.1156724083340368 
1.8299999999998149, -1.117565867163085 
1.8399999999998138, -1.1199121471302116 
1.8499999999998127, -1.1224734076039302 
1.8599999999998116, -1.1250269390220446 
1.8699999999998105, -1.1273966549903214 
1.8799999999998094, -1.1294563518138188 
1.8899999999998083, -1.1311247144483745 
1.8999999999998072, -1.132362589377521 
1.909999999999806, -1.1331716591757253 
1.919999999999805, -1.1335886704113696 
1.9299999999998039, -1.1336731615692184 
1.9399999999998028, -1.1334937928600515 
1.9499999999998017, -1.1331207274327233 
1.9599999999998006, -1.1326274130486307 
1.9699999999997995, -1.1320983405557847 
1.9799999999997984, -1.1316330177964398 
1.9899999999997973, -1.1313347417964006 
1.9999999999997962, -1.1312828732382125 
2.0099999999998173, -1.131505398601177 
2.0199999999998384, -1.1319723583398411 
2.0299999999998595, -1.1326120162905187 
2.0399999999998806, -1.1333352299988424 
2.0499999999999017, -1.1340554951941584 
2.059999999999923, -1.134700636579001 
2.069999999999944, -1.1352167710511907 
2.079999999999965, -1.135567079307662 
2.089999999999986, -1.135728488507858 
2.100000000000007, -1.1356886736160567 
2.1100000000000283, -1.1354446364117345 
2.1200000000000494, -1.1350030212687807 
2.1300000000000705, -1.134381503344939 
2.1400000000000916, -1.1336105633671227 
2.1500000000001127, -1.1327353686457555 
2.160000000000134, -1.1318168084984221 
2.170000000000155, -1.1309289636538586 
2.180000000000176, -1.130150188507014 
2.190000000000197, -1.1295482779001478 
2.2000000000002182, -1.1291638117754268 
2.2100000000002393, -1.1289970598200085 
2.2200000000002604, -1.1290048068539582 
2.2300000000002815, -1.129111643015578 
2.2400000000003026, -1.1292308038281618 
2.2500000000003237, -1.12928179004155 
2.260000000000345, -1.1291970524485235 
2.270000000000366, -1.12892085839974 
2.280000000000387, -1.1284077376952317 
2.290000000000408, -1.127624548312495 
2.3000000000004293, -1.1265548548926063 
2.3100000000004504, -1.1252019023139181 
2.3200000000004715, -1.1235885859331154 
2.3300000000004926, -1.1217566059424093 
2.3400000000005137, -1.1197680211092131 
2.3500000000005348, -1.1177096938443687 
2.360000000000556, -1.1156968819148942 
2.370000000000577, -1.1138683354137475 
2.380000000000598, -1.112363653083237 
2.390000000000619, -1.1112807124351405 
2.4000000000006403, -1.1106318589225208 
2.4100000000006614, -1.1103338616752767 
2.4200000000006825, -1.1102452323729586 
2.4300000000007036, -1.1102204589595415 
2.4400000000007247, -1.110141377354486 
2.450000000000746, -1.1099161630131626 
2.460000000000767, -1.1094610653091268 
2.470000000000788, -1.1086817020317932 
2.480000000000809, -1.1074643980995207 
2.49000000000083, -1.1056842203548771 
2.5000000000008513, -1.1032320265146471 
2.5100000000008724, -1.1000532184546281 
2.5200000000008935, -1.0961816486483653 
2.5300000000009146, -1.0917556559184756 
2.5400000000009357, -1.0870173038719597 
2.550000000000957, -1.0823002858313706 
2.560000000000978, -1.0779970121778142 
2.570000000000999, -1.0744817841589394 
2.58000000000102, -1.0719910451733312 
2.5900000000010412, -1.070525597824746 
2.6000000000010624, -1.069863371984849 
2.6100000000010835, -1.069683440813844 
2.6200000000011046, -1.0696989852667778 
2.6300000000011257, -1.06971499304644 
2.6400000000011468, -1.0696143074405768 
2.650000000001168, -1.0693157547966394 
2.660000000001189, -1.0687332369991416 
2.67000000000121, -1.0677429518992403 
2.680000000001231, -1.066159472835688 
2.6900000000012523, -1.0637284107209986 
2.7000000000012734, -1.0601551168285597 
2.7100000000012945, -1.0551895105183673 
2.7200000000013156, -1.048758059454995 
2.7300000000013367, -1.041085146371947 
2.740000000001358, -1.0327288266758177 
2.750000000001379, -1.0244950319989656 
2.7600000000014, -1.0172441817584263 
2.770000000001421, -1.0116387041189143 
2.780000000001442, -1.0079296603168555 
2.7900000000014633, -1.0059123763982964 
2.8000000000014844, -1.005091990585792 
2.8100000000015055, -1.0049342899049054 
2.8200000000015266, -1.005034166335989 
2.8300000000015477, -1.0051493794266275 
2.840000000001569, -1.005154443849428 
2.85000000000159, -1.004979398780002 
2.860000000001611, -1.0045614602835538 
2.870000000001632, -1.00381048251489 
2.8800000000016532, -1.0025823743232207 
2.8900000000016743, -1.0006606115284766 
2.9000000000016954, -0.9977590962708133 
2.9100000000017165, -0.9935722478577522 
2.9200000000017377, -0.9878902064345978 
2.9300000000017588, -0.9807486346765325 
2.94000000000178, -0.9725240253883859 
2.950000000001801, -0.9638955172281042 
2.960000000001822, -0.9556813501933764 
2.970000000001843, -0.9486254818708364 
2.9800000000018643, -0.9432105019953138 
2.9900000000018854, -0.9395555922476232 
3.0000000000019065, -0.9374405316040344 
3.0100000000019276, -0.9364443100230458 
3.0200000000019487, -0.9361186067837652 
3.03000000000197, -0.9361063643694287 
3.040000000001991, -0.9361747047165269 
3.050000000002012, -0.9361899102284905 
3.060000000002033, -0.9360746174106073 
3.070000000002054, -0.9357701455024013 
3.0800000000020753, -0.9352096441543841 
3.0900000000020964, -0.9343013805314078 
3.1000000000021175, -0.9329236816690386 
3.1100000000021386, -0.9309381466237158 
3.1200000000021597, -0.9282277399290851 
3.130000000002181, -0.9247527137096322 
3.140000000002202, -0.9205950779563656 
3.150000000002223, -0.9159590228366674 
3.160000000002244, -0.9111257735642271 
3.1700000000022652, -0.9063942050421352 
3.1800000000022863, -0.9020359997524755 
3.1900000000023074, -0.8982689027937573 
3.2000000000023285, -0.8952372615762341 
3.2100000000023496, -0.8929948496349306 
3.2200000000023707, -0.8914978950551694 
3.230000000002392, -0.8906199404591245 
3.240000000002413, -0.8901887251275349 
3.250000000002434, -0.890029498271819 
3.260000000002455, -0.8899956339161615 
3.2700000000024763, -0.8899784077399249 
3.2800000000024974, -0.8899007074279487 
3.2900000000025185, -0.8897044704426651 
3.3000000000025396, -0.8893399086705983 
3.3100000000025607, -0.8887612457662163 
3.3200000000025818, -0.8879308154654316 
3.330000000002603, -0.8868296801141804 
3.340000000002624, -0.885468102528643 
3.350000000002645, -0.8838873746424311 
3.360000000002666, -0.8821501817055359 
3.3700000000026873, -0.8803258577741854 
3.3800000000027084, -0.8784798007641766 
3.3900000000027295, -0.8766708920478067 
3.4000000000027506, -0.8749541473075697 
3.4100000000027717, -0.8733835207625831 
3.420000000002793, -0.8720112317515119 
3.430000000002814, -0.8708825997691994 
3.440000000002835, -0.870027807293439 
3.450000000002856, -0.8694538588196423 
3.460000000002877, -0.8691406744386961 
3.4700000000028983, -0.869043911773095 
3.4800000000029194, -0.8691038764111866 
3.4900000000029405, -0.8692567563652892 
3.5000000000029616, -0.8694438542569791 
3.5100000000029827, -0.8696167236380115 
3.520000000003004, -0.8697388939350781 
3.530000000003025, -0.8697859473992233 
3.540000000003046, -0.8697447901085298 
3.550000000003067, -0.8696115646035512 
3.5600000000030882, -0.8693877127681351 
3.5700000000031094, -0.8690755058706905 
3.5800000000031305, -0.8686757701225742 
3.5900000000031516, -0.868189405888028 
3.6000000000031727, -0.8676215186065956 
3.6100000000031938, -0.8669855138119571 
3.620000000003215, -0.8663055571366419 
3.630000000003236, -0.8656175224879084 
3.640000000003257, -0.8649688113247661 
3.650000000003278, -0.8644163188219098 
3.6600000000032993, -0.864021109024038 
3.6700000000033204, -0.8638394425113223 
3.6800000000033415, -0.8639123030303739 
3.6900000000033626, -0.8642574107501055 
3.7000000000033837, -0.8648670061631767 
3.710000000003405, -0.8657118181366258 
3.720000000003426, -0.8667487682166024 
3.730000000003447, -0.8679287804295402 
3.740000000003468, -0.8692016437760561 
3.750000000003489, -0.8705165096319906 
3.7600000000035103, -0.8718188223717809 
3.7700000000035314, -0.8730470118538018 
3.7800000000035525, -0.8741339621443478 
3.7900000000035736, -0.8750165533548419 
3.8000000000035947, -0.8756503431280869 
3.810000000003616, -0.8760204580109943 
3.820000000003637, -0.8761414940343529 
3.830000000003658, -0.8760480277619969 
3.840000000003679, -0.87578380422737 
3.8500000000037002, -0.8753966701394154 
3.8600000000037213, -0.8749417003129935 
3.8700000000037424, -0.8744912811871105 
3.8800000000037635, -0.8741483145227299 
3.8900000000037847, -0.8740556175661762 
3.9000000000038058, -0.8743919900300676 
3.910000000003827, -0.8753477912555432 
3.920000000003848, -0.8770832673450437 
3.930000000003869, -0.8796852636383543 
3.94000000000389, -0.8831398798380677 
3.9500000000039113, -0.887326801915522 
3.9600000000039324, -0.892028206567845 
3.9700000000039535, -0.8969453106046256 
3.9800000000039746, -0.9017278512464098 
3.9900000000039957, -0.9060292133567358 
4.000000000004016, -0.9095838229940808 
4.010000000003993, -0.9122707892648387 
4.02000000000397, -0.9141210148548252 
4.030000000003946, -0.9152657679395032 
4.040000000003923, -0.9158672038314796 
4.0500000000039, -0.9160693471201652 
4.0600000000038765, -0.9159793030253084 
4.070000000003853, -0.9156698227704647 
4.08000000000383, -0.9151936224027736 
4.090000000003807, -0.9146067248478905 
4.100000000003783, -0.914004029330223 
4.11000000000376, -0.9135704219850194 
4.120000000003737, -0.9136393645928023 
4.130000000003713, -0.9147248083031565 
4.14000000000369, -0.9174663761459027 
4.150000000003667, -0.9224433294601203 
4.1600000000036434, -0.9298965115946659 
4.17000000000362, -0.9394971466013613 
4.180000000003597, -0.9503198825988133 
4.1900000000035735, -0.9610860955699676 
4.20000000000355, -0.9705918811245657 
4.210000000003527, -0.9780986999042071 
4.220000000003504, -0.9834636737689214 
4.23000000000348, -0.9869811797139103 
4.240000000003457, -0.9891134754561375 
4.250000000003434, -0.9902916459880684 
4.26000000000341, -0.9908359028501523 
4.270000000003387, -0.990953741436045 
4.280000000003364, -0.9907666664693648 
4.2900000000033405, -0.9903406653612375 
4.300000000003317, -0.9897168063166925 
4.310000000003294, -0.9889508069101021 
4.320000000003271, -0.9881765168550875 
4.330000000003247, -0.9877020020205629 
4.340000000003224, -0.9881098214510831 
4.350000000003201, -0.9902593363090941 
4.360000000003177, -0.9950503359209373 
4.370000000003154, -1.0029446647337956 
4.380000000003131, -1.013529059308542 
4.390000000003107, -1.0255022657564037 
4.400000000003084, -1.0371704675912916 
4.410000000003061, -1.0471282886383362 
4.4200000000030375, -1.0546920705379115 
4.430000000003014, -1.0598941859611615 
4.440000000002991, -1.0631829230681578 
4.450000000002968, -1.0651021759087054 
4.460000000002944, -1.0661079778581524 
4.470000000002921, -1.0665183421646482 
4.480000000002898, -1.0665313829485208 
4.490000000002874, -1.0662625868110922 
4.500000000002851, -1.0657832614404632 
4.510000000002828, -1.065162684773453 
4.520000000002804, -1.0645244674392689 
4.530000000002781, -1.0641191660771647 
4.540000000002758, -1.064378597746778 
4.5500000000027345, -1.0658661964842724 
4.560000000002711, -1.0690591460041852 
4.570000000002688, -1.0740612735516175 
4.580000000002665, -1.0804807296797363 
4.590000000002641, -1.087575515943893 
4.600000000002618, -1.0945295828042372 
4.610000000002595, -1.1006808254646787 
4.620000000002571, -1.1056366704512008 
4.630000000002548, -1.109288751254787 
4.640000000002525, -1.1117504678344567 
4.6500000000025015, -1.1132526055374894 
4.660000000002478, -1.11404499413376 
4.670000000002455, -1.1143376578602489 
4.6800000000024315, -1.1142842035265972 
4.690000000002408, -1.1139928928993141 
4.700000000002385, -1.1135522207856667 
4.710000000002362, -1.1130642493002951 
4.720000000002338, -1.1126772668751492 
4.730000000002315, -1.1125959151574067 
4.740000000002292, -1.1130391910783755 
4.750000000002268, -1.1141493359520886 
4.760000000002245, -1.115915788143795 
4.770000000002222, -1.118180475817668 
4.7800000000021985, -1.1207116532785013 
4.790000000002175, -1.1232804188488172 
4.800000000002152, -1.1257003132562011 
4.810000000002129, -1.1278348688264432 
4.820000000002105, -1.1295932233227814 
4.830000000002082, -1.1309268132192467 
4.840000000002059, -1.1318283590087832 
4.850000000002035, -1.132327576499596 
4.860000000002012, -1.132480132663648 
4.870000000001989, -1.132353583465496 
4.880000000001965, -1.132017885969067 
4.890000000001942, -1.1315451322814192 
4.900000000001919, -1.1310166410570015 
4.9100000000018955, -1.130528888275439 
4.920000000001872, -1.1301864351651685 
4.930000000001849, -1.1300770552346262 
