t, s[1].omega / s[0].omega 
0, -0.5599450793131295 
0.009999999999999995, -0.5546928779696535 
0.019999999999999934, -0.5500767327168892 
0.029999999999999874, -0.5462018557586703 
0.04000000000000012, -0.5430470717025351 
0.050000000000000405, -0.5405317645409513 
0.06000000000000069, -0.5385610872787502 
0.07000000000000098, -0.5370481051031353 
0.08000000000000126, -0.5359212766395075 
0.09000000000000155, -0.5351248971217839 
0.10000000000000184, -0.5346171034830699 
0.11000000000000212, -0.5343676850466924 
0.12000000000000241, -0.5343565946050891 
0.130000000000002, -0.5345733947877442 
0.1400000000000009, -0.5350175665151857 
0.1499999999999998, -0.53569939303182 
0.1599999999999987, -0.5366407973211849 
0.1699999999999976, -0.5378748565271225 
0.1799999999999965, -0.5394416605561556 
0.1899999999999954, -0.5413770422821649 
0.1999999999999943, -0.5436908064544181 
0.2099999999999932, -0.5463354266258812 
0.2199999999999921, -0.5491779354119164 
0.229999999999991, -0.552001879537031 
0.2399999999999899, -0.5545606218606254 
0.2499999999999888, -0.5566618520457935 
0.2599999999999877, -0.5582246873301068 
0.2699999999999866, -0.5592733064151948 
0.2799999999999855, -0.559888655647063 
0.2899999999999844, -0.5601601451608815 
0.2999999999999833, -0.5601574872342816 
0.3099999999999822, -0.5599197186386422 
0.3199999999999811, -0.5594513415288493 
0.32999999999998, -0.5587173427004652 
0.3399999999999789, -0.5576314281937094 
0.3499999999999778, -0.5560329284636698 
0.35999999999997667, -0.5536498918539252 
0.36999999999997557, -0.550056997076191 
0.37999999999997447, -0.5446730030456592 
0.38999999999997337, -0.5369061267569213 
0.39999999999997227, -0.5265498961019912 
0.40999999999997117, -0.5142472148975338 
0.41999999999997006, -0.5014613460072003 
0.42999999999996896, -0.4897574808618799 
0.43999999999996786, -0.4800798202849316 
0.44999999999996676, -0.4726249065269029 
0.45999999999996566, -0.4671326430957118 
0.46999999999996456, -0.4631937462132819 
0.47999999999996346, -0.4604186907569857 
0.48999999999996235, -0.45849504069100655 
0.49999999999996125, -0.4571909968910222 
0.5099999999999602, -0.4563412925318723 
0.519999999999959, -0.4558310276796548 
0.529999999999958, -0.45558244183672486 
0.5399999999999568, -0.45554544498232125 
0.5499999999999557, -0.45569145292639107 
0.5599999999999546, -0.4560098497523241 
0.5699999999999535, -0.4565064003254041 
0.5799999999999524, -0.4572027717981217 
0.5899999999999513, -0.45813578501207874 
0.5999999999999502, -0.459354042291916 
0.6099999999999491, -0.46090839286509866 
0.619999999999948, -0.46283224921776506 
0.6299999999999469, -0.465110646053824 
0.6399999999999458, -0.4676471653453742 
0.6499999999999447, -0.47025389608387674 
0.6599999999999436, -0.4726917124060851 
0.6699999999999425, -0.4747523465725248 
0.6799999999999414, -0.47632681646436337 
0.6899999999999403, -0.47741345425016535 
0.6999999999999392, -0.478076584933311 
0.7099999999999381, -0.47839763852715117 
0.719999999999937, -0.4784437644318045 
0.7299999999999359, -0.47825422421849684 
0.7399999999999348, -0.4778352985802156 
0.7499999999999337, -0.4771555672067609 
0.7599999999999326, -0.4761368126579232 
0.7699999999999315, -0.474639300954302 
0.7799999999999304, -0.4724468435180834 
0.7899999999999293, -0.46927250648953506 
0.7999999999999282, -0.4648285847520445 
0.8099999999999271, -0.45899826881982025 
0.819999999999926, -0.45204174022724547 
0.8299999999999249, -0.44462214350551355 
0.8399999999999238, -0.43753293180343045 
0.8499999999999227, -0.43134932029127293 
0.8599999999999216, -0.42629379574654686 
0.8699999999999205, -0.422321994013256 
0.8799999999999194, -0.4192671917975358 
0.8899999999999183, -0.4169414903809462 
0.8999999999999172, -0.41518226542802916 
0.9099999999999161, -0.4138650530388904 
0.919999999999915, -0.4129019132846441 
0.9299999999999139, -0.41223567389663607 
0.9399999999999128, -0.41183451999080756 
0.9499999999999117, -0.4116885031020826 
0.9599999999999106, -0.411808416680294 
0.9699999999999095, -0.412227174562189 
0.9799999999999084, -0.41300378852615094 
0.9899999999999073, -0.4142298798011831 
0.9999999999999062, -0.4160378594456374 
1.0099999999999052, -0.41860749433264005 
1.019999999999904, -0.4221618331046118 
1.029999999999903, -0.42693292009451794 
1.039999999999902, -0.43306721153885236 
1.0499999999999008, -0.4404565268806562 
1.0599999999998997, -0.44857042226281285 
1.0699999999998986, -0.4564958620367355 
1.0799999999998975, -0.46330880065180197 
1.0899999999998964, -0.46851014607456776 
1.0999999999998953, -0.47212422563950945 
1.1099999999998942, -0.4744727545413542 
1.119999999999893, -0.47592302367371014 
1.129999999999892, -0.4767659100388763 
1.1399999999998909, -0.4771957843327314 
1.1499999999998898, -0.4773285961280803 
1.1599999999998887, -0.47722350911511413 
1.1699999999998876, -0.4768979177864178 
1.1799999999998865, -0.47633599260011694 
1.1899999999998854, -0.47549457713973214 
1.1999999999998843, -0.47431261981093326 
1.2099999999998832, -0.4727318489407993 
1.219999999999882, -0.4707323578550152 
1.229999999999881, -0.4683712304687623 
1.2399999999998799, -0.4657938828838971 
1.2499999999998788, -0.46319601619381956 
1.2599999999998777, -0.46075632134787314 
1.2699999999998766, -0.45858700099171096 
1.2799999999998755, -0.45672608737062215 
1.2899999999998744, -0.4551589289257786 
1.2999999999998733, -0.4538459034184531 
1.3099999999998722, -0.4527433742354038 
1.319999999999871, -0.4518155525632238 
1.32999999999987, -0.4510396825165069 
1.3399999999998689, -0.4504077856698456 
1.3499999999998678, -0.4499275669643998 
1.3599999999998666, -0.4496242230243199 
1.3699999999998655, -0.4495442992998654 
1.3799999999998644, -0.4497625418977035 
1.3899999999998633, -0.4503927834530222 
1.3999999999998622, -0.45160398306301 
1.4099999999998611, -0.45364187122930855 
1.41999999999986, -0.4568533785416552 
1.429999999999859, -0.46170094017559515 
1.4399999999998578, -0.4687300104844544 
1.4499999999998567, -0.4784154963251477 
1.4599999999998556, -0.4908077249251218 
1.4699999999998545, -0.5050690332240346 
1.4799999999998534, -0.5193862814032113 
1.4899999999998523, -0.5317468683826475 
1.4999999999998512, -0.5410397294102497 
1.5099999999998501, -0.5473424622841223 
1.519999999999849, -0.5513624675293229 
1.529999999999848, -0.5538499600726492 
1.5399999999998468, -0.5553606985325819 
1.5499999999998457, -0.5562492239228962 
1.5599999999998446, -0.556726466477654 
1.5699999999998435, -0.5569114632783961 
1.5799999999998424, -0.5568642610592136 
1.5899999999998413, -0.556603892750456 
1.5999999999998402, -0.5561172820796335 
1.6099999999998391, -0.5553644945110988 
1.619999999999838, -0.5542864282581423 
1.629999999999837, -0.5528221636986004 
1.6399999999998358, -0.5509403079528692 
1.6499999999998347, -0.5486759926785778 
1.6599999999998336, -0.5461479201558863 
1.6699999999998325, -0.5435323766052929 
1.6799999999998314, -0.5410051931200109 
1.6899999999998303, -0.5386915081957129 
1.6999999999998292, -0.5366503292642377 
1.709999999999828, -0.5348885618160057 
1.719999999999827, -0.5333849566610391 
1.729999999999826, -0.532110221452536 
1.7399999999998248, -0.5310392388575007 
1.7499999999998237, -0.5301567284987919 
1.7599999999998226, -0.5294590698428829 
1.7699999999998215, -0.5289545382813341 
1.7799999999998204, -0.5286633343552294 
1.7899999999998193, -0.5286181182417599 
1.7999999999998182, -0.5288654093311395 
1.809999999999817, -0.5294680437149418 
1.819999999999816, -0.5305086691775188 
1.8299999999998149, -0.5320936745081604 
1.8399999999998138, -0.5343555002935849 
1.8499999999998127, -0.5374482504616437 
1.8599999999998116, -0.5415264573961414 
1.8699999999998105, -0.5466917919448868 
1.8799999999998094, -0.5528975147525451 
1.8899999999998083, -0.5598363466771656 
1.8999999999998072, -0.5669068720451323 
1.909999999999806, -0.5733706667832105 
1.919999999999805, -0.5786548865909941 
1.9299999999998039, -0.5825594188334166 
1.9399999999998028, -0.585215096922463 
1.9499999999998017, -0.5869011876846841 
1.9599999999998006, -0.5878943546696755 
1.9699999999997995, -0.5884043640192478 
1.9799999999997984, -0.5885666289237269 
1.9899999999997973, -0.5884539817463714 
1.9999999999997962, -0.5880879074859904 
2.0099999999998173, -0.5874424608386535 
2.0199999999998384, -0.586439543206615 
2.0299999999998595, -0.5849371553605835 
2.0399999999998806, -0.5827182278726752 
2.0499999999999017, -0.579501517908666 
2.059999999999923, -0.5750136130673285 
2.069999999999944, -0.5691482031248059 
2.079999999999965, -0.5621449011586778 
2.089999999999986, -0.5546084297236279 
2.100000000000007, -0.5472793283829651 
2.1100000000000283, -0.5407341276331564 
2.1200000000000494, -0.5352484590972298 
2.1300000000000705, -0.5308457397450713 
2.1400000000000916, -0.5274123219368112 
2.1500000000001127, -0.5247898791798328 
2.160000000000134, -0.5228249483944463 
2.170000000000155, -0.5213877115072058 
2.180000000000176, -0.5203751467748061 
2.190000000000197, -0.5197082065310655 
2.2000000000002182, -0.5193277302364853 
2.2100000000002393, -0.5191909496574703 
2.2200000000002604, -0.5192691105111401 
2.2300000000002815, -0.5195462084691258 
2.2400000000003026, -0.5200186350839695 
2.2500000000003237, -0.5206953374016295 
2.260000000000345, -0.5215976843404533 
2.270000000000366, -0.5227574692052344 
2.280000000000387, -0.5242104696101176 
2.290000000000408, -0.5259823970138964 
2.3000000000004293, -0.5280656058868444 
2.3100000000004504, -0.5303913724331861 
2.3200000000004715, -0.5328143630958602 
2.3300000000004926, -0.5351326303738095 
2.3400000000005137, -0.5371480563318236 
2.3500000000005348, -0.5387329255972845 
2.360000000000556, -0.5398560246920986 
2.370000000000577, -0.5405592344962435 
2.380000000000598, -0.5409142331343644 
2.390000000000619, -0.5409881600404853 
2.4000000000006403, -0.5408258170187306 
2.4100000000006614, -0.5404423734674803 
2.4200000000006825, -0.5398183441377374 
2.4300000000007036, -0.5388904470602496 
2.4400000000007247, -0.5375332678584803 
2.450000000000746, -0.5355276784572796 
2.460000000000767, -0.5325178964452354 
2.470000000000788, -0.5279831807883498 
2.480000000000809, -0.5213071055102261 
2.49000000000083, -0.512073098027994 
2.5000000000008513, -0.5005566920115012 
2.5100000000008724, -0.48795572343535987 
2.5200000000008935, -0.4758913314558676 
2.5300000000009146, -0.46557692098679543 
2.5400000000009357, -0.45745304703592166 
2.550000000000957, -0.4513808574124746 
2.560000000000978, -0.4469791686950317 
2.570000000000999, -0.4438453545999317 
2.58000000000102, -0.44164402104969624 
2.5900000000010412, -0.4401228882859818 
2.6000000000010624, -0.4391015822506404 
2.6100000000010835, -0.4384549989867546 
2.6200000000011046, -0.43809886625169686 
2.6300000000011257, -0.4379792049357767 
2.6400000000011468, -0.4380654362162887 
2.650000000001168, -0.4383464563383318 
2.660000000001189, -0.4388290046420993 
2.67000000000121, -0.4395375859781116 
2.680000000001231, -0.44051479281011774 
2.6900000000012523, -0.441819897828024 
2.7000000000012734, -0.4435219823575799 
2.7100000000012945, -0.4456821112969154 
2.7200000000013156, -0.4483194892435492 
2.7300000000013367, -0.451364920407475 
2.740000000001358, -0.4546261710103652 
2.750000000001379, -0.45780903153068087 
2.7600000000014, -0.46061230746033155 
2.770000000001421, -0.4628406283215153 
2.780000000001442, -0.4644494100434134 
2.7900000000014633, -0.4655055586546137 
2.8000000000014844, -0.46611830501058416 
2.8100000000015055, -0.46638879408448713 
2.8200000000015266, -0.46638779232000405 
2.8300000000015477, -0.46615007103545825 
2.840000000001569, -0.46567349605810227 
2.85000000000159, -0.4649162069772128 
2.860000000001611, -0.4637900585575734 
2.870000000001632, -0.4621537420706252 
2.8800000000016532, -0.45981818333245855 
2.8900000000016743, -0.45658932216068165 
2.9000000000016954, -0.4523709719272445 
2.9100000000017165, -0.4472966065458655 
2.9200000000017377, -0.4417721809824461 
2.9300000000017588, -0.43633729283665756 
2.94000000000178, -0.4314384847576826 
2.950000000001801, -0.42730062183359624 
2.960000000001822, -0.4239479000677364 
2.970000000001843, -0.42129210435941333 
2.9800000000018643, -0.4192095565795972 
2.9900000000018854, -0.41758388886908177 
3.0000000000019065, -0.41632262535657727 
3.0100000000019276, -0.4153601810475565 
3.0200000000019487, -0.4146557677642015 
3.03000000000197, -0.41419056674826954 
3.040000000001991, -0.41396610873098655 
3.050000000002012, -0.41400470380342186 
3.060000000002033, -0.4143524119815803 
3.070000000002054, -0.41508502400310465 
3.0800000000020753, -0.4163174689856094 
3.0900000000020964, -0.41821642387643665 
3.1000000000021175, -0.4210134694293573 
3.1100000000021386, -0.4250094457749502 
3.1200000000021597, -0.4305462063250515 
3.130000000002181, -0.43790140124859384 
3.140000000002202, -0.44706449095291123 
3.150000000002223, -0.4574569805251296 
3.160000000002244, -0.46788310224975704 
3.1700000000022652, -0.4769963338190292 
3.1800000000022863, -0.48399033089121096 
3.1900000000023074, -0.48883625682909304 
3.2000000000023285, -0.4919735077785303 
3.2100000000023496, -0.49392064825683457 
3.2200000000023707, -0.49508593170436416 
3.230000000002392, -0.49573967228941795 
3.240000000002413, -0.4960447633871784 
3.250000000002434, -0.4960909705978608 
3.260000000002455, -0.4959185452541532 
3.2700000000024763, -0.4955317616350997 
3.2800000000024974, -0.4949066612152519 
3.2900000000025185, -0.4939984479154097 
3.3000000000025396, -0.49275508923142086 
3.3100000000025607, -0.49114252280437765 
3.3200000000025818, -0.4891782150450843 
3.330000000002603, -0.48695394705331063 
3.340000000002624, -0.48462321667847064 
3.350000000002645, -0.48235261079434755 
3.360000000002666, -0.48026945145656547 
3.3700000000026873, -0.4784379545908518 
3.3800000000027084, -0.47686698776668945 
3.3900000000027295, -0.4755324299905225 
3.4000000000027506, -0.4743986040722345 
3.4100000000027717, -0.47343257465995575 
3.420000000002793, -0.4726115258041309 
3.430000000002814, -0.47192575091815503 
3.440000000002835, -0.47137988422598454 
3.450000000002856, -0.4709943205417112 
3.460000000002877, -0.47080807232895516 
3.4700000000028983, -0.47088392182952676 
3.4800000000029194, -0.47131665327531874 
3.4900000000029405, -0.47224518794624337 
3.5000000000029616, -0.47386911406912774 
3.5100000000029827, -0.4764682921182891 
3.520000000003004, -0.4804184028733924 
3.530000000003025, -0.4861808895030061 
3.540000000003046, -0.49421923426809106 
3.550000000003067, -0.5047716817753163 
3.5600000000030882, -0.5174728652108562 
3.5700000000031094, -0.5310724875636347 
3.5800000000031305, -0.5437393013842684 
3.5900000000031516, -0.5539831682101867 
3.6000000000031727, -0.5613382592919035 
3.6100000000031938, -0.5662004101548448 
3.620000000003215, -0.5692626571070204 
3.630000000003236, -0.5711364095291542 
3.640000000003257, -0.5722471926724766 
3.650000000003278, -0.572860221647024 
3.6600000000032993, -0.5731300797405081 
3.6700000000033204, -0.5731388435655417 
3.6800000000033415, -0.5729187045810556 
3.6900000000033626, -0.5724631253110368 
3.7000000000033837, -0.5717314748163297 
3.710000000003405, -0.5706529468655627 
3.720000000003426, -0.569138094738779 
3.730000000003447, -0.5671078585998812 
3.740000000003468, -0.5645421302646921 
3.750000000003489, -0.5615264370374128 
3.7600000000035103, -0.5582552084368732 
3.7700000000035314, -0.5549729826428249 
3.7800000000035525, -0.5518915282246378 
3.7900000000035736, -0.5491396201452922 
3.8000000000035947, -0.5467628315915836 
3.810000000003616, -0.5447515504124579 
3.820000000003637, -0.5430713656151819 
3.830000000003658, -0.5416839584221519 
3.840000000003679, -0.5405578078643176 
3.8500000000037002, -0.5396720479029764 
3.8600000000037213, -0.5390168380138143 
3.8700000000037424, -0.5385924916754254 
3.8800000000037635, -0.5384085922189095 
3.8900000000037847, -0.5384837006200218 
3.9000000000038058, -0.538845932874239 
3.910000000003827, -0.5395344634759813 
3.920000000003848, -0.5406016878745125 
3.930000000003869, -0.5421151042187183 
3.94000000000389, -0.5441566345786532 
3.9500000000039113, -0.5468148250383899 
3.9600000000039324, -0.5501625764358127 
3.9700000000039535, -0.5542127721601806 
3.9800000000039746, -0.558854429464243 
3.9900000000039957, -0.5638013117111556 
4.000000000004016, -0.5686166155579623 
4.010000000003993, -0.5728493492886532 
4.02000000000397, -0.5762076739539388 
4.030000000003946, -0.5786339584202226 
4.040000000003923, -0.5802452414544452 
4.0500000000039, -0.5812232686781373 
4.0600000000038765, -0.5817355086896054 
4.070000000003853, -0.5819033146855084 
4.08000000000383, -0.5817978555482497 
4.090000000003807, -0.5814440513081092 
4.100000000003783, -0.5808217313506315 
4.11000000000376, -0.5798592216084877 
4.120000000003737, -0.5784173606230838 
4.130000000003713, -0.5762657540948202 
4.14000000000369, -0.5730649958801892 
4.150000000003667, -0.568395931666333 
4.1600000000036434, -0.5619050561319576 
4.17000000000362, -0.5535849549401204 
4.180000000003597, -0.5440076265328609 
4.1900000000035735, -0.5342018087182564 
4.20000000000355, -0.5251852366265426 
4.210000000003527, -0.517571041713538 
4.220000000003504, -0.5115157161087357 
4.23000000000348, -0.5068858343721363 
4.240000000003457, -0.5034360749785336 
4.250000000003434, -0.5009153192968793 
4.26000000000341, -0.4991096394893776 
4.270000000003387, -0.4978512262002416 
4.280000000003364, -0.497013832987707 
4.2900000000033405, -0.49650489394910713 
4.300000000003317, -0.49625827084887186 
4.310000000003294, -0.49622875353867063 
4.320000000003271, -0.4963883765685372 
4.330000000003247, -0.4967242985084052 
4.340000000003224, -0.49723786512396584 
4.350000000003201, -0.4979442262975399 
4.360000000003177, -0.4988713091806871 
4.370000000003154, -0.5000560478395946 
4.380000000003131, -0.5015348677150419 
4.390000000003107, -0.5033255560852528 
4.400000000003084, -0.5054010107128784 
4.410000000003061, -0.507664414105002 
4.4200000000030375, -0.5099468858159794 
4.430000000003014, -0.5120461634829961 
4.440000000002991, -0.5137940605645095 
4.450000000002968, -0.5151076106654899 
4.460000000002944, -0.5159910432259756 
4.470000000002921, -0.516500453892298 
4.480000000002898, -0.5167038894099736 
4.490000000002874, -0.5166555583386986 
4.500000000002851, -0.5163838881972571 
4.510000000002828, -0.5158857317648284 
4.520000000002804, -0.5151194832943021 
4.530000000002781, -0.5139917380331679 
4.540000000002758, -0.5123336168009557 
4.5500000000027345, -0.5098670808626242 
4.560000000002711, -0.5061776924796871 
4.570000000002688, -0.5007507044791296 
4.580000000002665, -0.49317164366472543 
4.590000000002641, -0.48351293266335355 
4.600000000002618, -0.47261268369842363 
4.610000000002595, -0.4618078620248256 
4.620000000002571, -0.4522571603903695 
4.630000000002548, -0.44450934266981335 
4.640000000002525, -0.4385654116080788 
4.6500000000025015, -0.4341506323792609 
4.660000000002478, -0.4309290186116764 
4.670000000002455, -0.4286041585031806 
4.6800000000024315, -0.42694664150282396 
4.690000000002408, -0.425790152724039 
4.700000000002385, -0.4250189196167721 
4.710000000002362, -0.42455552703293364 
4.720000000002338, -0.4243517188562825 
4.730000000002315, -0.4243824415040696 
4.740000000002292, -0.4246427363112775 
4.750000000002268, -0.4251470090567989 
4.760000000002245, -0.4259301550602463 
4.770000000002222, -0.4270496529224065 
4.7800000000021985, -0.42858669615544426 
4.790000000002175, -0.430642274622498 
4.800000000002152, -0.43332069957223374 
4.810000000002129, -0.43669023996350226 
4.820000000002105, -0.44071603441463436 
4.830000000002082, -0.4451879162868268 
4.840000000002059, -0.4497102397699151 
4.850000000002035, -0.4538169523014165 
4.860000000002012, -0.4571618554191688 
4.870000000001989, -0.45963124823135243 
4.880000000001965, -0.46130655739309534 
4.890000000001942, -0.462353798291288 
