t, s[1].omega / s[0].omega 
0, -0.669997702952783 
0.009999999999999995, -0.6697597408475833 
0.019999999999999934, -0.6695014564799188 
0.029999999999999874, -0.6692132049869339 
0.04000000000000012, -0.6688848944166091 
0.050000000000000405, -0.6685110855019494 
0.06000000000000069, -0.6680937594970372 
0.07000000000000098, -0.6676428413829197 
0.08000000000000126, -0.6671761174428751 
0.09000000000000155, -0.66672019455866 
0.10000000000000184, -0.6663132982123001 
0.11000000000000212, -0.6660098371450947 
0.12000000000000241, -0.6658860253182912 
0.130000000000002, -0.6660453221200702 
0.1400000000000009, -0.6666218873099115 
0.1499999999999998, -0.6677795342020871 
0.1599999999999987, -0.6697025709160268 
0.1699999999999976, -0.6725731854861196 
0.1799999999999965, -0.6765283617602151 
0.1899999999999954, -0.6815917201551115 
0.1999999999999943, -0.6875911352496745 
0.2099999999999932, -0.6941073173380774 
0.2199999999999921, -0.7005268240058306 
0.229999999999991, -0.7062288878339598 
0.2399999999999899, -0.7108077144539414 
0.2499999999999888, -0.7141691816820417 
0.2599999999999877, -0.7164578227739735 
0.2699999999999866, -0.7179149324941017 
0.2799999999999855, -0.7187722518668591 
0.2899999999999844, -0.7192072600939706 
0.2999999999999833, -0.7193379634397923 
0.3099999999999822, -0.7192318799454229 
0.3199999999999811, -0.7189153374394768 
0.32999999999998, -0.7183778151224065 
0.3399999999999789, -0.7175697037420226 
0.3499999999999778, -0.7163929303466222 
0.35999999999997667, -0.7146850595138051 
0.36999999999997557, -0.7122020160845881 
0.37999999999997447, -0.7086171063339576 
0.38999999999997337, -0.7035755596226703 
0.39999999999997227, -0.6968517303201195 
0.40999999999997117, -0.6885884635527901 
0.41999999999997006, -0.6794422029718538 
0.42999999999996896, -0.6704180457766136 
0.43999999999996786, -0.6624542842701756 
0.44999999999996676, -0.6560888364073424 
0.45999999999996566, -0.6514110714756696 
0.46999999999996456, -0.6482119751597322 
0.47999999999996346, -0.6461623170353707 
0.48999999999996235, -0.6449322779701604 
0.49999999999996125, -0.6442468592374835 
0.5099999999999602, -0.643899603860813 
0.519999999999959, -0.6437459047251062 
0.529999999999958, -0.6436891424444158 
0.5399999999999568, -0.6436663906695232 
0.5499999999999557, -0.6436365504569594 
0.5599999999999546, -0.6435718304209924 
0.5699999999999535, -0.6434526915260667 
0.5799999999999524, -0.6432660582672908 
0.5899999999999513, -0.6430061552012897 
0.5999999999999502, -0.6426764093004185 
0.6099999999999491, -0.6422899076583507 
0.619999999999948, -0.6418662513267859 
0.6299999999999469, -0.6414250690073012 
0.6399999999999458, -0.6409793610688433 
0.6499999999999447, -0.6405324397068952 
0.6599999999999436, -0.6400798563969435 
0.6699999999999425, -0.6396145691622874 
0.6799999999999414, -0.6391322365011711 
0.6899999999999403, -0.6386345567775357 
0.6999999999999392, -0.6381306246146717 
0.7099999999999381, -0.6376375978825072 
0.719999999999937, -0.6371820046035627 
0.7299999999999359, -0.6368023492820678 
0.7399999999999348, -0.6365529822788297 
0.7499999999999337, -0.6365087049661742 
0.7599999999999326, -0.6367692142527925 
0.7699999999999315, -0.6374620686916247 
0.7799999999999304, -0.6387421339739118 
0.7899999999999293, -0.6407840425713286 
0.7999999999999282, -0.6437617707408947 
0.8099999999999271, -0.6478069196352376 
0.819999999999926, -0.6529394095905322 
0.8299999999999249, -0.6589813898451915 
0.8399999999999238, -0.6655036495897538 
0.8499999999999227, -0.6718842286964379 
0.8599999999999216, -0.6775066033666499 
0.8699999999999205, -0.6819852190091595 
0.8799999999999194, -0.6852507740060663 
0.8899999999999183, -0.6874638016772007 
0.8999999999999172, -0.6888695195175799 
0.9099999999999161, -0.6896960886454572 
0.919999999999915, -0.6901151316679834 
0.9299999999999139, -0.6902393160563333 
0.9399999999999128, -0.6901320880388399 
0.9499999999999117, -0.6898167544232405 
0.9599999999999106, -0.6892803305867612 
0.9699999999999095, -0.6884708904968835 
0.9799999999999084, -0.6872883140295506 
0.9899999999999073, -0.6855702130751262 
0.9999999999999062, -0.683080858473109 
1.0099999999999052, -0.6795244752282937 
1.019999999999904, -0.6746202024766901 
1.029999999999903, -0.668262718381605 
1.039999999999902, -0.6607053184849034 
1.0499999999999008, -0.6525949617744147 
1.0599999999998997, -0.6447562540145257 
1.0699999999998986, -0.6378703451164572 
1.0799999999998975, -0.6322897319704807 
1.0899999999998964, -0.6280549224768672 
1.0999999999998953, -0.6250126537147475 
1.1099999999998942, -0.6229314141846818 
1.119999999999893, -0.6215750286358138 
1.129999999999892, -0.6207377978469297 
1.1399999999998909, -0.6202556646575305 
1.1499999999998898, -0.6200051599486595 
1.1599999999998887, -0.6198971731534495 
1.1699999999998876, -0.6198693027863901 
1.1799999999998865, -0.6198787093995988 
1.1899999999998854, -0.6198964370470403 
1.1999999999998843, -0.6199036387823524 
1.2099999999998832, -0.6198897120726521 
1.219999999999882, -0.6198517710088937 
1.229999999999881, -0.6197941491326373 
1.2399999999998799, -0.6197262555547115 
1.2499999999998788, -0.6196579118113711 
1.2599999999998777, -0.6195933358292184 
1.2699999999998766, -0.6195267952282913 
1.2799999999998755, -0.6194427947493443 
1.2899999999998744, -0.6193211398751657 
1.2999999999998733, -0.6191440950291456 
1.3099999999998722, -0.6189017531470179 
1.319999999999871, -0.6185936125138775 
1.32999999999987, -0.6182273089610855 
1.3399999999998689, -0.6178169641049511 
1.3499999999998678, -0.6173832607464536 
1.3599999999998666, -0.616956385350202 
1.3699999999998655, -0.6165823796685628 
1.3799999999998644, -0.6163332772736607 
1.3899999999998633, -0.6163211738377632 
1.3999999999998622, -0.6167153712735186 
1.4099999999998611, -0.6177589074740085 
1.41999999999986, -0.6197746116801762 
1.429999999999859, -0.6231400873466963 
1.4399999999998578, -0.6281992809272535 
1.4499999999998567, -0.6350851884674447 
1.4599999999998556, -0.6434951011393036 
1.4699999999998545, -0.6525922637835069 
1.4799999999998534, -0.6612427600849063 
1.4899999999998523, -0.6685140985932361 
1.4999999999998512, -0.6740245297200632 
1.5099999999998501, -0.6778930502314305 
1.519999999999849, -0.6804713721589322 
1.529999999999848, -0.6821252669294751 
1.5399999999998468, -0.6831428564047708 
1.5499999999998457, -0.6837234413496311 
1.5599999999998446, -0.6839942623154103 
1.5699999999998435, -0.6840294567435362 
1.5799999999998424, -0.6838633902894784 
1.5899999999998413, -0.6834974643241665 
1.5999999999998402, -0.6829013835032806 
1.6099999999998391, -0.6820106810808169 
1.619999999999838, -0.6807242257224742 
1.629999999999837, -0.6789096347896411 
1.6399999999998358, -0.6764293884017836 
1.6499999999998347, -0.6731974180028493 
1.6599999999998336, -0.6692522991031037 
1.6699999999998325, -0.6647974430311281 
1.6799999999998314, -0.6601600124345466 
1.6899999999998303, -0.6556847407168956 
1.6999999999998292, -0.6516358944911262 
1.709999999999828, -0.6481593336559538 
1.719999999999827, -0.6452980384852444 
1.729999999999826, -0.6430278491435218 
1.7399999999998248, -0.6412894895097788 
1.7499999999998237, -0.6400095552298237 
1.7599999999998226, -0.6391121853536716 
1.7699999999998215, -0.6385251364895279 
1.7799999999998204, -0.6381830202999803 
1.7899999999998193, -0.6380290987383231 
1.7999999999998182, -0.6380161536620622 
1.809999999999817, -0.6381066253658444 
1.819999999999816, -0.6382722186869348 
1.8299999999998149, -0.6384932279408668 
1.8399999999998138, -0.638757714767066 
1.8499999999998127, -0.6390603002841979 
1.8599999999998116, -0.6393998677603775 
1.8699999999998105, -0.639775409881131 
1.8799999999998094, -0.6401801737921974 
1.8899999999998083, -0.64059610804614 
1.8999999999998072, -0.6409921341481629 
1.909999999999806, -0.6413289586521806 
1.919999999999805, -0.6415692725130114 
1.9299999999998039, -0.6416879069214463 
1.9399999999998028, -0.6416762979924283 
1.9499999999998017, -0.6415400875291042 
1.9599999999998006, -0.6412932353651197 
1.9699999999997995, -0.6409528888541756 
1.9799999999997984, -0.6405374443878946 
1.9899999999997973, -0.6400685119376297 
1.9999999999997962, -0.6395770494165189 
2.0099999999998173, -0.6391143691389914 
2.0199999999998384, -0.6387691314018794 
2.0299999999998595, -0.6386906956858946 
2.0399999999998806, -0.6391154537012145 
2.0499999999999017, -0.6403831318153376 
2.059999999999923, -0.6429125585397004 
2.069999999999944, -0.6470894062097934 
2.079999999999965, -0.6530395400020759 
2.089999999999986, -0.6603791630242373 
2.100000000000007, -0.668195333582252 
2.1100000000000283, -0.6754240318626247 
2.1200000000000494, -0.6813543587710765 
2.1300000000000705, -0.6858096567408991 
2.1400000000000916, -0.6889712384180433 
2.1500000000001127, -0.6911345975702438 
2.160000000000134, -0.6925720694927204 
2.170000000000155, -0.6934921809100378 
2.180000000000176, -0.6940414738989544 
2.190000000000197, -0.6943168076946911 
2.2000000000002182, -0.694376719212233 
2.2100000000002393, -0.6942490553806426 
2.2200000000002604, -0.6939346901062077 
2.2300000000002815, -0.6934079436422818 
2.2400000000003026, -0.6926152019112527 
2.2500000000003237, -0.6914751879565819 
2.260000000000345, -0.6898875616745256 
2.270000000000366, -0.6877585633881904 
2.280000000000387, -0.6850462837329343 
2.290000000000408, -0.6818084545712816 
2.3000000000004293, -0.6782166502088732 
2.3100000000004504, -0.6745146011983272 
2.3200000000004715, -0.6709440031844282 
2.3300000000004926, -0.6676859483476931 
2.3400000000005137, -0.6648429225257092 
2.3500000000005348, -0.6624516945590385 
2.360000000000556, -0.6605060705719406 
2.370000000000577, -0.6589760843386856 
2.380000000000598, -0.657820094745346 
2.390000000000619, -0.656991342372984 
2.4000000000006403, -0.656441530536288 
2.4100000000006614, -0.6561232563575633 
2.4200000000006825, -0.655992090361046 
2.4300000000007036, -0.6560083921844375 
2.4400000000007247, -0.6561386810815344 
2.450000000000746, -0.6563564319946386 
2.460000000000767, -0.6566423046037239 
2.470000000000788, -0.6569837986199998 
2.480000000000809, -0.6573740618408822 
2.49000000000083, -0.6578092405748821 
2.5000000000008513, -0.658283875841635 
2.5100000000008724, -0.658784951803964 
2.5200000000008935, -0.6592870953179999 
2.5300000000009146, -0.6597526112623524 
2.5400000000009357, -0.6601384437634314 
2.550000000000957, -0.6604075853820226 
2.560000000000978, -0.6605385710824145 
2.570000000000999, -0.6605279272193323 
2.58000000000102, -0.6603858659417072 
2.5900000000010412, -0.660129576976012 
2.6000000000010624, -0.6597783369580869 
2.6100000000010835, -0.6593524175485689 
2.6200000000011046, -0.6588762171972982 
2.6300000000011257, -0.6583858884954626 
2.6400000000011468, -0.6579422859492376 
2.650000000001168, -0.657650296716273 
2.660000000001189, -0.6576842740069953 
2.67000000000121, -0.6583143764423439 
2.680000000001231, -0.6599174279421074 
2.6900000000012523, -0.6629379483551624 
2.7000000000012734, -0.6677524684313787 
2.7100000000012945, -0.6744244726657096 
2.7200000000013156, -0.6824670330047123 
2.7300000000013367, -0.6908727245677082 
2.740000000001358, -0.6985343091513434 
2.750000000001379, -0.7047448221280608 
2.7600000000014, -0.7093527391049272 
2.770000000001421, -0.7125714586239493 
2.780000000001442, -0.7147292925729085 
2.7900000000014633, -0.7161261355699582 
2.8000000000014844, -0.7169892446508708 
2.8100000000015055, -0.7174752217685099 
2.8200000000015266, -0.717684338453075 
2.8300000000015477, -0.717673826572854 
2.840000000001569, -0.7174664644522836 
2.85000000000159, -0.7170540714659682 
2.860000000001611, -0.7163965494116911 
2.870000000001632, -0.7154181620887572 
2.8800000000016532, -0.7140053630338471 
2.8900000000016743, -0.7120153927316915 
2.9000000000016954, -0.7093092120994202 
2.9100000000017165, -0.7058156552273159 
2.9200000000017377, -0.7016049129916393 
2.9300000000017588, -0.6969163705906771 
2.94000000000178, -0.692101054653827 
2.950000000001801, -0.6875098448320658 
2.960000000001822, -0.6834022976091618 
2.970000000001843, -0.6799172160625062 
2.9800000000018643, -0.6770912467592397 
2.9900000000018854, -0.6748934464653955 
3.0000000000019065, -0.6732555087281102 
3.0100000000019276, -0.6720923133341975 
3.0200000000019487, -0.6713146670574309 
3.03000000000197, -0.6708372147738871 
3.040000000001991, -0.6705833891008194 
3.050000000002012, -0.6704881691068619 
3.060000000002033, -0.6704989892176407 
3.070000000002054, -0.670575223915147 
3.0800000000020753, -0.6706868901488247 
3.0900000000020964, -0.6708132492671097 
3.1000000000021175, -0.6709416961746085 
3.1100000000021386, -0.6710667065868579 
3.1200000000021597, -0.6711879721495169 
3.130000000002181, -0.6713068343577546 
3.140000000002202, -0.6714212655169242 
3.150000000002223, -0.6715214626656558 
3.160000000002244, -0.6715889802182211 
3.1700000000022652, -0.6716008117092347 
3.1800000000022863, -0.6715365633932712 
3.1900000000023074, -0.6713846343027612 
3.2000000000023285, -0.6711444094413618 
3.2100000000023496, -0.6708247748147592 
3.2200000000023707, -0.6704416010247988 
3.230000000002392, -0.6700168347313059 
3.240000000002413, -0.669580634162819 
3.250000000002434, -0.6691770018430343 
3.260000000002455, -0.6688729015768723 
3.2700000000024763, -0.6687704123439295 
3.2800000000024974, -0.6690204441825095 
3.2900000000025185, -0.6698343887446686 
3.3000000000025396, -0.6714863523294491 
3.3100000000025607, -0.6742931786022607 
3.3200000000025818, -0.6785539766196652 
3.330000000002603, -0.6844331949696612 
3.340000000002624, -0.6918002088938756 
3.350000000002645, -0.7001088778924416 
3.360000000002666, -0.7084631110572961 
3.3700000000026873, -0.7159291726864657 
3.3800000000027084, -0.7219064978144656 
3.3900000000027295, -0.7262700379453619 
3.4000000000027506, -0.7292362909300297 
3.4100000000027717, -0.7311433237986458 
3.420000000002793, -0.7323035738569362 
3.430000000002814, -0.7329509932770626 
3.440000000002835, -0.7332408509766439 
3.450000000002856, -0.733265634111468 
3.460000000002877, -0.7330698616384719 
3.4700000000028983, -0.7326584693004909 
3.4800000000029194, -0.731997837611952 
3.4900000000029405, -0.7310096351836937 
3.5000000000029616, -0.729558634643827 
3.5100000000029827, -0.7274394859888295 
3.520000000003004, -0.7243774818113491 
3.530000000003025, -0.7200741216182893 
3.540000000003046, -0.714331197445861 
3.550000000003067, -0.7072344885910744 
3.5600000000030882, -0.6992691289485435 
3.5700000000031094, -0.6912145546531898 
3.5800000000031305, -0.6838508158927363 
3.5900000000031516, -0.6776965101880136 
3.6000000000031727, -0.6729333321857272 
3.6100000000031938, -0.6694834868097826 
3.620000000003215, -0.6671313935354258 
3.630000000003236, -0.6656209720284304 
3.640000000003257, -0.6647126518635741 
3.650000000003278, -0.6642085057759617 
3.6600000000032993, -0.6639577533359564 
3.6700000000033204, -0.6638520409453602 
3.6800000000033415, -0.6638165663830373 
3.6900000000033626, -0.6638006543254416 
3.7000000000033837, -0.663769760367599 
3.710000000003405, -0.6636998809726283 
3.720000000003426, -0.6635747308890828 
3.730000000003447, -0.6633854545429042 
3.740000000003468, -0.663131741369029 
3.750000000003489, -0.6628222353958788 
3.7600000000035103, -0.6624721148450355 
3.7700000000035314, -0.6620975686115917 
3.7800000000035525, -0.6617096296944783 
3.7900000000035736, -0.6613109047228098 
3.8000000000035947, -0.6608969541544555 
3.810000000003616, -0.6604610388255386 
3.820000000003637, -0.659999264450634 
3.830000000003658, -0.6595139022931765 
3.840000000003679, -0.6590146978187137 
3.8500000000037002, -0.6585194246969415 
3.8600000000037213, -0.6580550432214387 
3.8700000000037424, -0.6576601104089893 
3.8800000000037635, -0.6573883052143472 
3.8900000000037847, -0.6573123746732479 
3.9000000000038058, -0.6575274443551511 
3.910000000003827, -0.6581523581219263 
3.920000000003848, -0.659327344152386 
3.930000000003869, -0.661205517231892 
3.94000000000389, -0.6639341957422763 
3.9500000000039113, -0.6676202864187591 
3.9600000000039324, -0.6722753532210132 
3.9700000000039535, -0.6777478173411402 
3.9800000000039746, -0.6836775509068023 
3.9900000000039957, -0.6895338397509174 
4.000000000004016, -0.6947674747904582 
4.010000000003993, -0.6990035700396171 
4.02000000000397, -0.7021376773357423 
4.030000000003946, -0.7042840514757702 
4.040000000003923, -0.705653730065382 
4.0500000000039, -0.7064564010562585 
4.0600000000038765, -0.7068556696850629 
4.070000000003853, -0.7069613277278762 
4.08000000000383, -0.7068360578779879 
4.090000000003807, -0.7065032443641618 
4.100000000003783, -0.7059504480477582 
4.11000000000376, -0.7051266697523791 
4.120000000003737, -0.703932662150342 
4.130000000003713, -0.7022047804168892 
4.14000000000369, -0.6996974887811535 
4.150000000003667, -0.6960824495002085 
4.1600000000036434, -0.6910042150185951 
4.17000000000362, -0.6842404337136312 
4.180000000003597, -0.675944006941359 
4.1900000000035735, -0.6667846255344434 
4.20000000000355, -0.657772768736325 
4.210000000003527, -0.6498375225068156 
4.220000000003504, -0.6434995698942724 
4.23000000000348, -0.6388347801737602 
4.240000000003457, -0.6356300694504466 
4.250000000003434, -0.6335599249799395 
4.26000000000341, -0.6323016329271098 
4.270000000003387, -0.6315871059676488 
4.280000000003364, -0.6312148784706755 
4.2900000000033405, -0.6310431682961923 
4.300000000003317, -0.6309765388718411 
4.310000000003294, -0.6309523442781768 
4.320000000003271, -0.6309295194406455 
4.330000000003247, -0.6308805215097575 
4.340000000003224, -0.6307865127130029 
4.350000000003201, -0.6306355588965337 
4.360000000003177, -0.6304231620479311 
4.370000000003154, -0.6301535870065715 
4.380000000003131, -0.6298396579008776 
4.390000000003107, -0.6294991939331221 
4.400000000003084, -0.6291485882655482 
4.410000000003061, -0.6287966480933493 
4.4200000000030375, -0.6284422121391561 
4.430000000003014, -0.628076715947334 
4.440000000002991, -0.6276898088994594 
4.450000000002968, -0.6272747786366029 
4.460000000002944, -0.6268316526109097 
4.470000000002921, -0.6263680733680947 
4.480000000002898, -0.6258994920628138 
4.490000000002874, -0.6254502710910167 
4.500000000002851, -0.6250565900933345 
4.510000000002828, -0.6247713618448205 
4.520000000002804, -0.62467088914593 
4.530000000002781, -0.6248625463799647 
4.540000000002758, -0.6254920541888976 
4.5500000000027345, -0.6267475594202752 
4.560000000002711, -0.6288551951952227 
4.570000000002688, -0.6320566370037108 
4.580000000002665, -0.6365547005121841 
4.590000000002641, -0.6424155173470227 
4.600000000002618, -0.6494420209057845 
4.610000000002595, -0.6570938835804887 
4.620000000002571, -0.664573782149642 
4.630000000002548, -0.6711097651143534 
4.640000000002525, -0.6762528828525827 
4.6500000000025015, -0.6799601614532371 
4.660000000002478, -0.6824562523286828 
4.670000000002455, -0.6840457519208923 
4.6800000000024315, -0.6849976983641779 
4.690000000002408, -0.685508674321207 
4.700000000002385, -0.6857064003827158 
4.710000000002362, -0.6856641269730591 
4.720000000002338, -0.6854126870664723 
4.730000000002315, -0.684946404011689 
4.740000000002292, -0.684222410866574 
4.750000000002268, -0.6831541043123747 
4.760000000002245, -0.6816014563826227 
4.770000000002222, -0.6793665552763163 
4.7800000000021985, -0.6762134090042213 
4.790000000002175, -0.6719390233075335 
4.800000000002152, -0.6665017071764987 
4.810000000002129, -0.6601421588597745 
4.820000000002105, -0.653377041918455 
4.830000000002082, -0.6468249859310305 
4.840000000002059, -0.6409876568886979 
4.850000000002035, -0.6361354436968506 
4.860000000002012, -0.6323228140843216 
4.870000000001989, -0.6294649769407779 
4.880000000001965, -0.6274126101462757 
4.890000000001942, -0.626001421484647 
4.900000000001919, -0.6250783597101035 
4.9100000000018955, -0.6245127768534042 
4.920000000001872, -0.6241993205991936 
