t, s[1].omega / s[0].omega 
0, -0.9199975952164768 
0.009999999999999995, -0.9197008945120014 
0.019999999999999934, -0.9192929178487809 
0.029999999999999874, -0.9187756829244798 
0.04000000000000012, -0.9181575540725422 
0.050000000000000405, -0.9174573919278253 
0.06000000000000069, -0.9167069600279902 
0.07000000000000098, -0.9159516100768272 
0.08000000000000126, -0.9152489789506262 
0.09000000000000155, -0.9146642327144667 
0.10000000000000184, -0.9142607072096904 
0.11000000000000212, -0.9140875130551922 
0.12000000000000241, -0.914168654454552 
0.130000000000002, -0.9144983430225311 
0.1400000000000009, -0.9150441250195452 
0.1499999999999998, -0.9157558337646196 
0.1599999999999987, -0.9165765047651924 
0.1699999999999976, -0.9174515119120075 
0.1799999999999965, -0.9183335668680088 
0.1899999999999954, -0.9191830141490639 
0.1999999999999943, -0.9199645284998523 
0.2099999999999932, -0.9206429003898056 
0.2199999999999921, -0.9211816717657518 
0.229999999999991, -0.9215473074110628 
0.2399999999999899, -0.9217175178636126 
0.2499999999999888, -0.9216883565378767 
0.2599999999999877, -0.9214755813812276 
0.2699999999999866, -0.9211111402878224 
0.2799999999999855, -0.920639629018563 
0.2899999999999844, -0.9201185427944614 
0.2999999999999833, -0.9196218758871832 
0.3099999999999822, -0.9192423293883827 
0.3199999999999811, -0.9190855562251171 
0.32999999999998, -0.9192529919917414 
0.3399999999999789, -0.9198180072715717 
0.3499999999999778, -0.9208072123331259 
0.35999999999997667, -0.9221967352717613 
0.36999999999997557, -0.9239231831322894 
0.37999999999997447, -0.9259005483494723 
0.38999999999997337, -0.928033714620818 
0.39999999999997227, -0.9302241202778095 
0.40999999999997117, -0.9323690837442399 
0.41999999999997006, -0.9343610513532139 
0.42999999999996896, -0.9360945738024927 
0.43999999999996786, -0.93748388615141 
0.44999999999996676, -0.9384832196464217 
0.45999999999996566, -0.9390955616579694 
0.46999999999996456, -0.939363269824106 
0.47999999999996346, -0.939348499489881 
0.48999999999996235, -0.9391170237656278 
0.49999999999996125, -0.938733475521983 
0.5099999999999602, -0.9382686536556321 
0.519999999999959, -0.9378152645309153 
0.529999999999958, -0.9375048499799965 
0.5399999999999568, -0.9375134926782096 
0.5499999999999557, -0.9380420767501685 
0.5599999999999546, -0.9392681549829025 
0.5699999999999535, -0.9412894625643276 
0.5799999999999524, -0.9440912211706808 
0.5899999999999513, -0.9475524566185991 
0.5999999999999502, -0.9514775345795806 
0.6099999999999491, -0.9556286533411027 
0.619999999999948, -0.9597481514275138 
0.6299999999999469, -0.9635781813626615 
0.6399999999999458, -0.9668916001438632 
0.6499999999999447, -0.9695343605600109 
0.6599999999999436, -0.9714572058812605 
0.6699999999999425, -0.9727113770534807 
0.6799999999999414, -0.9734095926633064 
0.6899999999999403, -0.9736791572974122 
0.6999999999999392, -0.973631562304188 
0.7099999999999381, -0.9733548372844906 
0.719999999999937, -0.9729238152952583 
0.7299999999999359, -0.9724229962124955 
0.7399999999999348, -0.9719779194841076 
0.7499999999999337, -0.9717854627085414 
0.7599999999999326, -0.9721205883361053 
0.7699999999999315, -0.9732916756235271 
0.7799999999999304, -0.9755428598592129 
0.7899999999999293, -0.9789522664667804 
0.7999999999999282, -0.9833913813164656 
0.8099999999999271, -0.9885620002401913 
0.819999999999926, -0.9940707498506104 
0.8299999999999249, -0.9994985730025399 
0.8399999999999238, -1.004457146567866 
0.8499999999999227, -1.0086442204723016 
0.8599999999999216, -1.0118947004997738 
0.8699999999999205, -1.0141998325814068 
0.8799999999999194, -1.0156746565955763 
0.8899999999999183, -1.0164920417515195 
0.8999999999999172, -1.016822541601544 
0.9099999999999161, -1.0168034929551455 
0.919999999999915, -1.0165365562169326 
0.9299999999999139, -1.016103991923767 
0.9399999999999128, -1.015597072211286 
0.9499999999999117, -1.0151521448864318 
0.9599999999999106, -1.0149818211084285 
0.9699999999999095, -1.0153725175149124 
0.9799999999999084, -1.0166187117383165 
0.9899999999999073, -1.01890773731064 
0.9999999999999062, -1.0222286012050106 
1.0099999999999052, -1.0263709937744865 
1.019999999999904, -1.0310012680515332 
1.029999999999903, -1.035750662796906 
1.039999999999902, -1.0402744849635879 
1.0499999999999008, -1.0442862092864922 
1.0599999999998997, -1.047585453317161 
1.0699999999998986, -1.0500820224399936 
1.0799999999998975, -1.0517988262613907 
1.0899999999998964, -1.05284227610402 
1.0999999999998953, -1.0533539053695342 
1.1099999999998942, -1.0534693784008264 
1.119999999999893, -1.0533000392758267 
1.129999999999892, -1.0529365056107056 
1.1399999999998909, -1.052467622564086 
1.1499999999998898, -1.052007246005395 
1.1599999999998887, -1.0517162458313267 
1.1699999999998876, -1.0517976113299308 
1.1799999999998865, -1.052446441661787 
1.1899999999998854, -1.0537719912516206 
1.1999999999998843, -1.0557472932219707 
1.2099999999998832, -1.058224865232496 
1.219999999999882, -1.060997361507013 
1.229999999999881, -1.0638549642686033 
1.2399999999998799, -1.0666146233549751 
1.2499999999998788, -1.0691265536586434 
1.2599999999998777, -1.0712741528093073 
1.2699999999998766, -1.072978398859759 
1.2799999999998755, -1.0742062427375951 
1.2899999999998744, -1.0749735347570424 
1.2999999999998733, -1.0753351162251514 
1.3099999999998722, -1.0753659524255887 
1.319999999999871, -1.0751447756610932 
1.32999999999987, -1.0747488779926635 
1.3399999999998689, -1.0742608211812716 
1.3499999999998678, -1.0737805495178765 
1.3599999999998666, -1.0734303140256738 
1.3699999999998655, -1.073338691828098 
1.3799999999998644, -1.07360307054268 
1.3899999999998633, -1.0742531150993049 
1.3999999999998622, -1.07524293543424 
1.4099999999998611, -1.0764748258199932 
1.41999999999986, -1.0778334894720127 
1.429999999999859, -1.0792114308499292 
1.4399999999998578, -1.0805203918704678 
1.4499999999998567, -1.081692393784888 
1.4599999999998556, -1.0826759163602468 
1.4699999999998545, -1.083432258416934 
1.4799999999998534, -1.0839353283111508 
1.4899999999998523, -1.0841747425831234 
1.4999999999998512, -1.0841588226460996 
1.5099999999998501, -1.0839141970938964 
1.519999999999849, -1.0834825924510414 
1.529999999999848, -1.082918534927868 
1.5399999999998468, -1.082290095039818 
1.5499999999998457, -1.081679553353002 
1.5599999999998446, -1.0811769793460122 
1.5699999999998435, -1.0808629476227183 
1.5799999999998424, -1.0807869025605652 
1.5899999999998413, -1.08095409921116 
1.5999999999998402, -1.0813276523693955 
1.6099999999998391, -1.0818415922067288 
1.619999999999838, -1.0824176131922867 
1.629999999999837, -1.082980114553837 
1.6399999999998358, -1.0834660525555428 
1.6499999999998347, -1.0838286210246924 
1.6599999999998336, -1.0840364144278332 
1.6699999999998325, -1.0840704908566958 
1.6799999999998314, -1.0839211807844573 
1.6899999999998303, -1.083586099263076 
1.6999999999998292, -1.0830703281637795 
1.709999999999828, -1.082388523757449 
1.719999999999827, -1.0815677564044672 
1.729999999999826, -1.0806500179874736 
1.7399999999998248, -1.0796933464810887 
1.7499999999998237, -1.0787694595859305 
1.7599999999998226, -1.0779555036853656 
1.7699999999998215, -1.077320155106866 
1.7799999999998204, -1.0769079235355088 
1.7899999999998193, -1.076726709073578 
1.7999999999998182, -1.0767434355093966 
1.809999999999817, -1.0768915014069753 
1.819999999999816, -1.0770881252369464 
1.8299999999998149, -1.077252441192645 
1.8399999999998138, -1.0773159651921105 
1.8499999999998127, -1.077225076896221 
1.8599999999998116, -1.0769406051523307 
1.8699999999998105, -1.0764382834195607 
1.8799999999998094, -1.0757096510257733 
1.8899999999998083, -1.07476114084442 
1.8999999999998072, -1.073611115809101 
1.909999999999806, -1.0722873787555556 
1.919999999999805, -1.070827615643741 
1.9299999999998039, -1.0692826619348477 
1.9399999999998028, -1.067720029810657 
1.9499999999998017, -1.0662240994793364 
1.9599999999998006, -1.0648895359965604 
1.9699999999997995, -1.0638056244337841 
1.9799999999997984, -1.0630324856053321 
1.9899999999997973, -1.0625775434520688 
1.9999999999997962, -1.0623876529943836 
2.0099999999998173, -1.0623659149752263 
2.0199999999998384, -1.0624024708036894 
2.0299999999998595, -1.0623983120785936 
2.0399999999998806, -1.0622719583243778 
2.0499999999999017, -1.0619546095961803 
2.059999999999923, -1.0613848301527986 
2.069999999999944, -1.0605101117112845 
2.079999999999965, -1.0592956889662575 
2.089999999999986, -1.0577345574526391 
2.100000000000007, -1.0558511444234313 
2.1100000000000283, -1.053696818119103 
2.1200000000000494, -1.0513428097510302 
2.1300000000000705, -1.0488771172793079 
2.1400000000000916, -1.0464064270470623 
2.1500000000001127, -1.0440578401918494 
2.160000000000134, -1.0419718649492995 
2.170000000000155, -1.0402791272373737 
2.180000000000176, -1.039062042818479 
2.190000000000197, -1.0383197198477911 
2.2000000000002182, -1.0379635800969598 
2.2100000000002393, -1.0378518487990374 
2.2200000000002604, -1.0378378890302367 
2.2300000000002815, -1.0378003680278836 
2.2400000000003026, -1.0376460125509637 
2.2500000000003237, -1.0372964826239117 
2.260000000000345, -1.0366744350858226 
2.270000000000366, -1.035698837176399 
2.280000000000387, -1.0342940635498357 
2.290000000000408, -1.0324104590048981 
2.3000000000004293, -1.0300454983449012 
2.3100000000004504, -1.0272520684118434 
2.3200000000004715, -1.024130289035956 
2.3300000000004926, -1.0208126583618036 
2.3400000000005137, -1.0174540468003324 
2.3500000000005348, -1.0142278218265792 
2.360000000000556, -1.0113185657691721 
2.370000000000577, -1.0088990251838281 
2.380000000000598, -1.0070881783838037 
2.390000000000619, -1.005907777650994 
2.4000000000006403, -1.0052696601196651 
2.4100000000006614, -1.0050102099608664 
2.4200000000006825, -1.0049495389763425 
2.4300000000007036, -1.004936021781646 
2.4400000000007247, -1.0048579506178048 
2.450000000000746, -1.0046312643424522 
2.460000000000767, -1.0041805197579687 
2.470000000000788, -1.0034254315547828 
2.480000000000809, -1.0022799086274155 
2.49000000000083, -1.0006665483846042 
2.5000000000008513, -0.9985424345568024 
2.5100000000008724, -0.9959223274170622 
2.5200000000008935, -0.992883800488263 
2.5300000000009146, -0.989552449634773 
2.5400000000009357, -0.9860807211247111 
2.550000000000957, -0.9826338396123191 
2.560000000000978, -0.9793836221959425 
2.570000000000999, -0.9765002845439756 
2.58000000000102, -0.9741316502530155 
2.5900000000010412, -0.9723690653230834 
2.6000000000010624, -0.971215591020723 
2.6100000000010835, -0.970580792749719 
2.6200000000011046, -0.9703120362418203 
2.6300000000011257, -0.9702437195557592 
2.6400000000011468, -0.9702344980050475 
2.650000000001168, -0.9701783037559787 
2.660000000001189, -0.9699955928162651 
2.67000000000121, -0.969618577222608 
2.680000000001231, -0.9689811527551171 
2.6900000000012523, -0.968019416083032 
2.7000000000012734, -0.9666839127675143 
2.7100000000012945, -0.964957927459327 
2.7200000000013156, -0.9628697816806205 
2.7300000000013367, -0.9604895615228326 
2.740000000001358, -0.9579130801884919 
2.750000000001379, -0.9552453481521089 
2.7600000000014, -0.9525925413024714 
2.770000000001421, -0.9500615261910206 
2.780000000001442, -0.947759765912134 
2.7900000000014633, -0.9457885548563041 
2.8000000000014844, -0.9442269073272189 
2.8100000000015055, -0.9431104288148029 
2.8200000000015266, -0.942416459219175 
2.8300000000015477, -0.9420671340523773 
2.840000000001569, -0.9419514382797773 
2.85000000000159, -0.9419538051530519 
2.860000000001611, -0.9419741108490352 
2.870000000001632, -0.9419333525648496 
2.8800000000016532, -0.9417696786266706 
2.8900000000016743, -0.9414329944471211 
2.9000000000016954, -0.9408841108604633 
2.9100000000017165, -0.9400996024296436 
2.9200000000017377, -0.9390783309317754 
2.9300000000017588, -0.9378431158967604 
2.94000000000178, -0.9364345379147462 
2.950000000001801, -0.934900823074409 
2.960000000001822, -0.9332907206139243 
2.970000000001843, -0.931652634025989 
2.9800000000018643, -0.9300379323609544 
2.9900000000018854, -0.9285040683577451 
3.0000000000019065, -0.9271139180088985 
3.0100000000019276, -0.9259297544518923 
3.0200000000019487, -0.9250025141531169 
3.03000000000197, -0.924359348500366 
3.040000000001991, -0.9239944020011752 
3.050000000002012, -0.9238678318103067 
3.060000000002033, -0.9239146872614341 
3.070000000002054, -0.9240597030614252 
3.0800000000020753, -0.9242310387601721 
3.0900000000020964, -0.9243683376672944 
3.1000000000021175, -0.9244253602941089 
3.1100000000021386, -0.924370198143958 
3.1200000000021597, -0.9241851668877924 
3.130000000002181, -0.9238659134028568 
3.140000000002202, -0.923418219518165 
3.150000000002223, -0.9228528483385577 
3.160000000002244, -0.9221813399583043 
3.1700000000022652, -0.9214155265210799 
3.1800000000022863, -0.9205706985728257 
3.1900000000023074, -0.9196700199703185 
3.2000000000023285, -0.9187478308971958 
3.2100000000023496, -0.9178505733561895 
3.2200000000023707, -0.9170344644538849 
3.230000000002392, -0.9163591069563065 
3.240000000002413, -0.9158774224491116 
3.250000000002434, -0.9156245624501084 
3.260000000002455, -0.9156098553835861 
3.2700000000024763, -0.9158149371018827 
3.2800000000024974, -0.9161986476944142 
3.2900000000025185, -0.9167066326008321 
3.3000000000025396, -0.917282033408843 
3.3100000000025607, -0.9178738594397465 
3.3200000000025818, -0.918441280568109 
3.330000000002603, -0.9189538138099683 
3.340000000002624, -0.919388339173676 
3.350000000002645, -0.9197246440821626 
3.360000000002666, -0.9199422207331104 
3.3700000000026873, -0.9200210594969935 
3.3800000000027084, -0.919946718546577 
3.3900000000027295, -0.919716486409488 
3.4000000000027506, -0.9193427870513498 
3.4100000000027717, -0.9188531079042909 
3.420000000002793, -0.918288957310852 
3.430000000002814, -0.9177061325827964 
3.440000000002835, -0.9171754290242176 
3.450000000002856, -0.9167798870592879 
3.460000000002877, -0.9166047539346925 
3.4700000000028983, -0.9167207706977802 
3.4800000000029194, -0.9171674503419018 
3.4900000000029405, -0.9179447967954972 
3.5000000000029616, -0.9190169426436144 
3.5100000000029827, -0.9203241276176912 
3.520000000003004, -0.9217961841492475 
3.530000000003025, -0.9233620048826291 
3.540000000003046, -0.9249527089141683 
3.550000000003067, -0.9264995853684622 
3.5600000000030882, -0.9279309371637036 
3.5700000000031094, -0.9291736461676404 
3.5800000000031305, -0.9301630893286061 
3.5900000000031516, -0.9308580135592444 
3.6000000000031727, -0.9312506288583859 
3.6100000000031938, -0.9313646824849722 
3.620000000003215, -0.931244248181498 
3.630000000003236, -0.9309425895224315 
3.640000000003257, -0.930518533181161 
3.650000000003278, -0.9300419618694015 
3.6600000000032993, -0.9296049569365371 
3.6700000000033204, -0.929330885796408 
3.6800000000033415, -0.9293707040448652 
3.6900000000033626, -0.9298786910432264 
3.7000000000033837, -0.9309727280007889 
3.710000000003405, -0.932698991209309 
3.720000000003426, -0.9350207136983979 
3.730000000003447, -0.9378328532417199 
3.740000000003468, -0.9409875326273797 
3.750000000003489, -0.9443141261996815 
3.7600000000035103, -0.9476292233580758 
3.7700000000035314, -0.9507439683230012 
3.7800000000035525, -0.9534809357894692 
3.7900000000035736, -0.955704552320709 
3.8000000000035947, -0.9573514439835609 
3.810000000003616, -0.9584384020739751 
3.820000000003637, -0.9590406885507466 
3.830000000003658, -0.9592566575164513 
3.840000000003679, -0.9591801905711346 
3.8500000000037002, -0.9588908405991148 
3.8600000000037213, -0.9584605534989012 
3.8700000000037424, -0.9579727064779565 
3.8800000000037635, -0.957548603673151 
3.8900000000037847, -0.9573714732922483 
3.9000000000038058, -0.9576883579720977 
3.910000000003827, -0.9587688084208006 
3.920000000003848, -0.9608229979271865 
3.930000000003869, -0.9639204016196208 
3.94000000000389, -0.9679586486482294 
3.9500000000039113, -0.9726924905019889 
3.9600000000039324, -0.9777907574397044 
3.9700000000039535, -0.9828887105183679 
3.9800000000039746, -0.9876312780214345 
3.9900000000039957, -0.9917203741346519 
4.000000000004016, -0.9949672737548504 
4.010000000003993, -0.997324757717912 
4.02000000000397, -0.9988721031071549 
4.030000000003946, -0.9997597771735464 
4.040000000003923, -1.0001493982326928 
4.0500000000039, -1.0001772963203304 
4.0600000000038765, -0.9999462188288508 
4.070000000003853, -0.9995371499323473 
4.08000000000383, -0.999034266978304 
4.090000000003807, -0.9985591975277499 
4.100000000003783, -0.9983058384783918 
4.11000000000376, -0.9985519877260035 
4.120000000003737, -0.9996148200346046 
4.130000000003713, -1.001744777416278 
4.14000000000369, -1.005013327572118 
4.150000000003667, -1.009272729924009 
4.1600000000036434, -1.0142064137459723 
4.17000000000362, -1.0194185335386245 
4.180000000003597, -1.0245093046184972 
4.1900000000035735, -1.0291257365803357 
4.20000000000355, -1.0330032798085391 
4.210000000003527, -1.0360023789919515 
4.220000000003504, -1.0381207300603426 
4.23000000000348, -1.0394645116581438 
4.240000000003457, -1.0401916329600804 
4.250000000003434, -1.0404591040243274 
4.26000000000341, -1.0403955641928018 
4.270000000003387, -1.0400997652157211 
4.280000000003364, -1.0396571435437978 
4.2900000000033405, -1.039167623076271 
4.300000000003317, -1.0387767422176937 
4.310000000003294, -1.0386922700922434 
4.320000000003271, -1.0391586554640972 
4.330000000003247, -1.0403788529503237 
4.340000000003224, -1.0424240356235317 
4.350000000003201, -1.0451992422652525 
4.360000000003177, -1.0484862857910273 
4.370000000003154, -1.0520195465795905 
4.380000000003131, -1.0555433603685733 
4.390000000003107, -1.0588373517079657 
4.400000000003084, -1.0617248887926072 
4.410000000003061, -1.064082001420521 
4.4200000000030375, -1.0658498080285717 
4.430000000003014, -1.0670392186388333 
4.440000000002991, -1.067717304745003 
4.450000000002968, -1.0679796860184507 
4.460000000002944, -1.0679245426736534 
4.470000000002921, -1.06764053385744 
4.480000000002898, -1.0672109307160436 
4.490000000002874, -1.0667290768995934 
4.500000000002851, -1.0663150476155137 
4.510000000002828, -1.0661174157092381 
4.520000000002804, -1.0662852262784306 
4.530000000002781, -1.0669164195853464 
4.540000000002758, -1.0680174175829718 
4.5500000000027345, -1.0695052274854737 
4.560000000002711, -1.0712454568016085 
4.570000000002688, -1.0730948508446096 
4.580000000002665, -1.0749270229876655 
4.590000000002641, -1.0766400020085616 
4.600000000002618, -1.0781537568713229 
4.610000000002595, -1.0794063481266094 
4.620000000002571, -1.0803541610147998 
4.630000000002548, -1.080976396006836 
4.640000000002525, -1.0812789016253623 
4.6500000000025015, -1.0812921922124519 
4.660000000002478, -1.0810640947393713 
4.670000000002455, -1.0806528620261435 
4.6800000000024315, -1.080126004530063 
4.690000000002408, -1.0795642987295493 
4.700000000002385, -1.079063712983363 
4.710000000002362, -1.0787255310977935 
4.720000000002338, -1.0786323756082061 
4.730000000002315, -1.0788224690424035 
4.740000000002292, -1.0792797188728096 
4.750000000002268, -1.0799442555731864 
4.760000000002245, -1.0807332999159804 
4.770000000002222, -1.081560948922523 
4.7800000000021985, -1.0823515769184198 
4.790000000002175, -1.0830459482885222 
4.800000000002152, -1.0836013877417643 
4.810000000002129, -1.0839886302761506 
4.820000000002105, -1.0841882107418435 
4.830000000002082, -1.0841886558141751 
4.840000000002059, -1.0839873324090223 
4.850000000002035, -1.0835928863482391 
4.860000000002012, -1.0830273948048783 
4.870000000001989, -1.0823275706689024 
4.880000000001965, -1.081545570202127 
4.890000000001942, -1.0807486939485282 
4.900000000001919, -1.0800147181555544 
4.9100000000018955, -1.0794200814460888 
4.920000000001872, -1.0790233263156193 
4.930000000001849, -1.0788507821290394 
