t, s[1].omega / s[0].omega 
0, -0.6799301653341467 
0.009999999999999995, -0.6730802487302152 
0.019999999999999934, -0.6668012714303365 
0.029999999999999874, -0.6613866104870293 
0.04000000000000012, -0.6569354956098488 
0.050000000000000405, -0.653418440489445 
0.06000000000000069, -0.6507396841140627 
0.07000000000000098, -0.6487776716804994 
0.08000000000000126, -0.647406597617147 
0.09000000000000155, -0.6465069634554079 
0.10000000000000184, -0.645970956322936 
0.11000000000000212, -0.6457054089684942 
0.12000000000000241, -0.6456331960059021 
0.130000000000002, -0.6456932694993388 
0.1400000000000009, -0.6458396316905893 
0.1499999999999998, -0.6460398099565402 
0.1599999999999987, -0.6462734174315132 
0.1699999999999976, -0.6465309350772561 
0.1799999999999965, -0.6468120043669731 
0.1899999999999954, -0.647121819674388 
0.1999999999999943, -0.6474646115430187 
0.2099999999999932, -0.6478352407156198 
0.2199999999999921, -0.648212617854066 
0.229999999999991, -0.6485596981683261 
0.2399999999999899, -0.648832081594408 
0.2499999999999888, -0.6489914646144823 
0.2599999999999877, -0.6490161898782002 
0.2699999999999866, -0.6489035819520619 
0.2799999999999855, -0.6486653481424487 
0.2899999999999844, -0.6483214043482782 
0.2999999999999833, -0.6478967851176032 
0.3099999999999822, -0.6474238601440795 
0.3199999999999811, -0.6469508210256475 
0.32999999999998, -0.6465576734917932 
0.3399999999999789, -0.6463817209449001 
0.3499999999999778, -0.6466543323335063 
0.35999999999997667, -0.6477475588941385 
0.36999999999997557, -0.6502190855378263 
0.37999999999997447, -0.6548210027276082 
0.38999999999997337, -0.6623987553624271 
0.39999999999997227, -0.6735765668911643 
0.40999999999997117, -0.6882091656274794 
0.41999999999997006, -0.7049128073189002 
0.42999999999996896, -0.7213233859707058 
0.43999999999996786, -0.7352363939159756 
0.44999999999996676, -0.7456416171143081 
0.45999999999996566, -0.752741754819685 
0.46999999999996456, -0.7573086859614022 
0.47999999999996346, -0.7601375574327878 
0.48999999999996235, -0.7618323883633211 
0.49999999999996125, -0.7627934046280986 
0.5099999999999602, -0.7632660034935234 
0.519999999999959, -0.7633891454989106 
0.529999999999958, -0.7632274725933214 
0.5399999999999568, -0.7627869292166778 
0.5499999999999557, -0.7620160430844247 
0.5599999999999546, -0.7607940972018572 
0.5699999999999535, -0.758907986683448 
0.5799999999999524, -0.756026671617466 
0.5899999999999513, -0.7517026626441451 
0.5999999999999502, -0.745461251417356 
0.6099999999999491, -0.7370343008263777 
0.619999999999948, -0.7266684583949784 
0.6299999999999469, -0.7152391167965351 
0.6399999999999458, -0.7039625852872844 
0.6499999999999447, -0.6939018313132992 
0.6599999999999436, -0.6856549579918325 
0.6699999999999425, -0.6793522621475987 
0.6799999999999414, -0.6748170186376239 
0.6899999999999403, -0.6717323104190177 
0.6999999999999392, -0.6697531832963756 
0.7099999999999381, -0.6685661621253636 
0.719999999999937, -0.667913951759362 
0.7299999999999359, -0.6676000105459372 
0.7399999999999348, -0.6674823833429089 
0.7499999999999337, -0.6674627564399143 
0.7599999999999326, -0.667474659326855 
0.7699999999999315, -0.6674733129739179 
0.7799999999999304, -0.6674285530003891 
0.7899999999999293, -0.6673213914589917 
0.7999999999999282, -0.6671437655672106 
0.8099999999999271, -0.6668995831701918 
0.819999999999926, -0.6666039487934361 
0.8299999999999249, -0.6662781053394686 
0.8399999999999238, -0.6659408612358982 
0.8499999999999227, -0.6656007618288615 
0.8599999999999216, -0.6652535833300732 
0.8699999999999205, -0.6648864111877146 
0.8799999999999194, -0.6644854772401096 
0.8899999999999183, -0.6640433058335374 
0.8999999999999172, -0.6635624980375565 
0.9099999999999161, -0.6630566586032639 
0.919999999999915, -0.6625507932152853 
0.9299999999999139, -0.6620832234614514 
0.9399999999999128, -0.6617097933687751 
0.9499999999999117, -0.6615099664052354 
0.9599999999999106, -0.6615936214237306 
0.9699999999999095, -0.6621068442916764 
0.9799999999999084, -0.6632346625433623 
0.9899999999999073, -0.6651982215785488 
0.9999999999999062, -0.6682426201390316 
1.0099999999999052, -0.6726084956355151 
1.019999999999904, -0.67847586235154 
1.029999999999903, -0.6858686427583097 
1.039999999999902, -0.6945291619856115 
1.0499999999999008, -0.7038301892031649 
1.0599999999998997, -0.7128520869076505 
1.0699999999998986, -0.720686048749741 
1.0799999999998975, -0.7267907333760107 
1.0899999999998964, -0.7311182738862938 
1.0999999999998953, -0.7339585701480494 
1.1099999999998942, -0.7357020858621486 
1.119999999999893, -0.7366886679720608 
1.129999999999892, -0.7371599039492314 
1.1399999999998909, -0.7372654462558844 
1.1499999999998898, -0.7370825341528487 
1.1599999999998887, -0.736630532848387 
1.1699999999998876, -0.7358748860772182 
1.1799999999998865, -0.7347184832590566 
1.1899999999998854, -0.7329781043794613 
1.1999999999998843, -0.7303435604823414 
1.2099999999998832, -0.7263240999250327 
1.219999999999882, -0.720215546811681 
1.229999999999881, -0.7111901210988512 
1.2399999999998799, -0.6986741487362448 
1.2499999999998788, -0.6830109605979349 
1.2599999999998777, -0.6658571399180736 
1.2699999999998766, -0.6495968425443693 
1.2799999999998755, -0.636120977879583 
1.2899999999998744, -0.6261363651335764 
1.2999999999998733, -0.619367199496923 
1.3099999999998722, -0.6150969663013913 
1.319999999999871, -0.6125717101017688 
1.32999999999987, -0.611176473092431 
1.3399999999998689, -0.610468977679299 
1.3499999999998678, -0.6101541700157675 
1.3599999999998666, -0.6100447102628591 
1.3699999999998655, -0.6100252849159398 
1.3799999999998644, -0.6100255743544415 
1.3899999999998633, -0.6100017545043304 
1.3999999999998622, -0.6099251273969027 
1.4099999999998611, -0.6097765692603908 
1.41999999999986, -0.609545690445334 
1.429999999999859, -0.6092330796479637 
1.4399999999998578, -0.6088526385164205 
1.4499999999998567, -0.6084301640124419 
1.4599999999998556, -0.6079961588130514 
1.4699999999998545, -0.607575222498573 
1.4799999999998534, -0.607177616698223 
1.4899999999998523, -0.6067975592686056 
1.4999999999998512, -0.606418601447863 
1.5099999999998501, -0.6060225251937827 
1.519999999999849, -0.605597094080069 
1.529999999999848, -0.6051400393011178 
1.5399999999998468, -0.604659883850424 
1.5499999999998457, -0.604176084137255 
1.5599999999998446, -0.6037208549027664 
1.5699999999998435, -0.6033440541925804 
1.5799999999998424, -0.6031217090726533 
1.5899999999998413, -0.6031683495745532 
1.5999999999998402, -0.6036529214095424 
1.6099999999998391, -0.6048170859905901 
1.619999999999838, -0.6069922322580177 
1.629999999999837, -0.6106056653029434 
1.6399999999998358, -0.6161544335484976 
1.6499999999998347, -0.6241070221276527 
1.6599999999998336, -0.6346854136469784 
1.6699999999998325, -0.6475393538827472 
1.6799999999998314, -0.6615127948929227 
1.6899999999998303, -0.6748710661579835 
1.6999999999998292, -0.6860592367489384 
1.709999999999828, -0.6943873144512389 
1.719999999999827, -0.7000487889669704 
1.729999999999826, -0.7036651529794182 
1.7399999999998248, -0.7058754477853131 
1.7499999999998237, -0.7071651560315593 
1.7599999999998226, -0.7078534101753646 
1.7699999999998215, -0.7081315911012414 
1.7799999999998204, -0.7081018152861455 
1.7899999999998193, -0.7078013644636614 
1.7999999999998182, -0.7072123578602906 
1.809999999999817, -0.7062581663097605 
1.819999999999816, -0.7047879225494368 
1.8299999999998149, -0.7025533813921553 
1.8399999999998138, -0.6991945180895736 
1.8499999999998127, -0.6942761025032856 
1.8599999999998116, -0.6874381107575274 
1.8699999999998105, -0.6786664189243479 
1.8799999999998094, -0.6685112162924445 
1.8899999999998083, -0.6579854218155414 
1.8999999999998072, -0.6481475627204002 
1.909999999999806, -0.6397156606799037 
1.919999999999805, -0.6329638955793668 
1.9299999999998039, -0.6278372725445642 
1.9399999999998028, -0.6241129641483601 
1.9499999999998017, -0.6215168206363058 
1.9599999999998006, -0.6197852117247915 
1.9699999999997995, -0.6186906969407875 
1.9799999999997984, -0.6180489362063775 
1.9899999999997973, -0.6177170163942851 
1.9999999999997962, -0.6175881389330633 
2.0099999999998173, -0.6175850475955345 
2.0199999999998384, -0.617653555112567 
2.0299999999998595, -0.6177571066260195 
2.0399999999998806, -0.6178729834333884 
2.0499999999999017, -0.6179902223173075 
2.059999999999923, -0.6181084680673349 
2.069999999999944, -0.6182360291728698 
2.079999999999965, -0.6183852227460855 
2.089999999999986, -0.6185645836424125 
2.100000000000007, -0.6187703212912066 
2.1100000000000283, -0.6189815603827616 
2.1200000000000494, -0.6191632180046817 
2.1300000000000705, -0.6192762608646956 
2.1400000000000916, -0.6192899664394382 
2.1500000000001127, -0.6191893945850151 
2.160000000000134, -0.6189754244638458 
2.170000000000155, -0.6186602065661324 
2.180000000000176, -0.6182628473418204 
2.190000000000197, -0.6178087190088225 
2.2000000000002182, -0.6173339808248254 
2.2100000000002393, -0.6168964236259313 
2.2200000000002604, -0.616594388062196 
2.2300000000002815, -0.616596243693049 
2.2400000000003026, -0.6171822499646498 
2.2500000000003237, -0.6187956333661788 
2.260000000000345, -0.6220844207819393 
2.270000000000366, -0.627881110355157 
2.280000000000387, -0.6370155300841926 
2.290000000000408, -0.6498508933190824 
2.3000000000004293, -0.6656513368612161 
2.3100000000004504, -0.6823749736237655 
2.3200000000004715, -0.6975130195713272 
2.3300000000004926, -0.7094295135016886 
2.3400000000005137, -0.7178739736560781 
2.3500000000005348, -0.7234702792330072 
2.360000000000556, -0.727039073124401 
2.370000000000577, -0.7292575878268367 
2.380000000000598, -0.7305949809636875 
2.390000000000619, -0.7313505107284504 
2.4000000000006403, -0.7317045415876169 
2.4100000000006614, -0.7317563547994855 
2.4200000000006825, -0.7315463098761562 
2.4300000000007036, -0.7310649455098851 
2.4400000000007247, -0.7302514754273155 
2.450000000000746, -0.7289841908208307 
2.460000000000767, -0.7270687822501367 
2.470000000000788, -0.7242407226116052 
2.480000000000809, -0.7202127528411028 
2.49000000000083, -0.7147967644939887 
2.5000000000008513, -0.70807095098564 
2.5100000000008724, -0.7004657338667655 
2.5200000000008935, -0.6926507801366618 
2.5300000000009146, -0.685286167298657 
2.5400000000009357, -0.6788271837411699 
2.550000000000957, -0.673479446094208 
2.560000000000978, -0.6692569948400996 
2.570000000000999, -0.6660624438802011 
2.58000000000102, -0.6637478017514578 
2.5900000000010412, -0.66215080389661 
2.6000000000010624, -0.6611145425871955 
2.6100000000010835, -0.66049789870752 
2.6200000000011046, -0.6601808491208809 
2.6300000000011257, -0.660066293822199 
2.6400000000011468, -0.6600792107161378 
2.650000000001168, -0.6601640337457023 
2.660000000001189, -0.6602813994152953 
2.67000000000121, -0.6604053634619912 
2.680000000001231, -0.660521669069554 
2.6900000000012523, -0.6606266508542138 
2.7000000000012734, -0.6607252651500999 
2.7100000000012945, -0.6608265163941052 
2.7200000000013156, -0.6609361156465984 
2.7300000000013367, -0.6610489964206684 
2.740000000001358, -0.6611460441028427 
2.750000000001379, -0.6611979651927551 
2.7600000000014, -0.6611748808358073 
2.770000000001421, -0.6610562206761575 
2.780000000001442, -0.6608357134063119 
2.7900000000014633, -0.660520645055088 
2.8000000000014844, -0.6601286799995842 
2.8100000000015055, -0.6596862931819659 
2.8200000000015266, -0.6592313247996997 
2.8300000000015477, -0.6588206839701571 
2.840000000001569, -0.6585435958894565 
2.85000000000159, -0.6585404139687168 
2.860000000001611, -0.6590259604087063 
2.870000000001632, -0.6603137107794541 
2.8800000000016532, -0.662831797475304 
2.8900000000016743, -0.6671121460073456 
2.9000000000016954, -0.6737192332448225 
2.9100000000017165, -0.6830728329187202 
2.9200000000017377, -0.6951451873600851 
2.9300000000017588, -0.709141982794059 
2.94000000000178, -0.7234820870506546 
2.950000000001801, -0.7363487004146181 
2.960000000001822, -0.7465181881612601 
2.970000000001843, -0.753747210347946 
2.9800000000018643, -0.7584987379457264 
2.9900000000018854, -0.7614546516670075 
3.0000000000019065, -0.7632100834407094 
3.0100000000019276, -0.7641856683214023 
3.0200000000019487, -0.7646463208435315 
3.03000000000197, -0.7647434605792292 
3.040000000001991, -0.764548399777764 
3.050000000002012, -0.7640700815612786 
3.060000000002033, -0.7632574098809464 
3.070000000002054, -0.7619862770258922 
3.0800000000020753, -0.7600303294263483 
3.0900000000020964, -0.757017847540293 
3.1000000000021175, -0.7523946287639494 
3.1100000000021386, -0.7454575087169937 
3.1200000000021597, -0.7355780781615001 
3.130000000002181, -0.7226766069266841 
3.140000000002202, -0.7076755903083511 
3.150000000002223, -0.6923709136685293 
3.160000000002244, -0.6786229281573614 
3.1700000000022652, -0.6675722905246497 
3.1800000000022863, -0.6594657340294918 
3.1900000000023074, -0.6539504042656443 
3.2000000000023285, -0.6504385194519505 
3.2100000000023496, -0.6483436320413712 
3.2200000000023707, -0.6471832169826531 
3.230000000002392, -0.646600498174837 
3.240000000002413, -0.6463497386668157 
3.250000000002434, -0.6462700390204769 
3.260000000002455, -0.6462593930924534 
3.2700000000024763, -0.6462535644734771 
3.2800000000024974, -0.6462109388293349 
3.2900000000025185, -0.6461031912705787 
3.3000000000025396, -0.6459112563432655 
3.3100000000025607, -0.6456257216996628 
3.3200000000025818, -0.645249633536245 
3.330000000002603, -0.6448000985318791 
3.340000000002624, -0.6443049468860149 
3.350000000002645, -0.643793874163604 
3.360000000002666, -0.6432881455638441 
3.3700000000026873, -0.6427946676302164 
3.3800000000027084, -0.6423073368009521 
3.3900000000027295, -0.641813953040512 
3.4000000000027506, -0.6413043425024371 
3.4100000000027717, -0.6407760697280628 
3.420000000002793, -0.6402369474159055 
3.430000000002814, -0.6397059295802039 
3.440000000002835, -0.6392144798465479 
3.450000000002856, -0.6388096480949467 
3.460000000002877, -0.6385589919773197 
3.4700000000028983, -0.6385567051428727 
3.4800000000029194, -0.6389298586311456 
3.4900000000029405, -0.639843345327143 
3.5000000000029616, -0.6415016380812457 
3.5100000000029827, -0.6441441804754596 
3.520000000003004, -0.6480280789073118 
3.530000000003025, -0.6533862458550252 
3.540000000003046, -0.6603446006848009 
3.550000000003067, -0.6687919689899937 
3.5600000000030882, -0.6782450515607359 
3.5700000000031094, -0.6878338098330242 
3.5800000000031305, -0.6965379268348215 
3.5900000000031516, -0.7035947858662792 
3.6000000000031727, -0.7087616773452442 
3.6100000000031938, -0.7122435015468239 
3.620000000003215, -0.7144385945018209 
3.630000000003236, -0.7157335988281364 
3.640000000003257, -0.7164192734487299 
3.650000000003278, -0.7166843448927864 
3.6600000000032993, -0.7166352197938538 
3.6700000000033204, -0.7163147039653053 
3.6800000000033415, -0.7157108013655857 
3.6900000000033626, -0.7147531312136486 
3.7000000000033837, -0.7132951370406262 
3.710000000003405, -0.7110800931974501 
3.720000000003426, -0.7076940907978562 
3.730000000003447, -0.7025319675771499 
3.740000000003468, -0.6948571335369681 
3.750000000003489, -0.6840917839872961 
3.7600000000035103, -0.6703601271714508 
3.7700000000035314, -0.6548852319230906 
3.7800000000035525, -0.6396382962580225 
3.7900000000035736, -0.626380301884034 
3.8000000000035947, -0.615984306552309 
3.810000000003616, -0.6084607113138624 
3.820000000003637, -0.603344459119799 
3.830000000003658, -0.6000414232900411 
3.840000000003679, -0.5980119011656148 
3.8500000000037002, -0.596831805198592 
3.8600000000037213, -0.5961934350513014 
3.8700000000037424, -0.5958845922848501 
3.8800000000037635, -0.5957639923732204 
3.8900000000037847, -0.5957397335290358 
3.9000000000038058, -0.5957527062359731 
3.910000000003827, -0.5957650157546258 
3.920000000003848, -0.5957529566005566 
3.930000000003869, -0.5957038783071534 
3.94000000000389, -0.595615807451687 
3.9500000000039113, -0.5954977413277817 
3.9600000000039324, -0.5953677836715181 
3.9700000000039535, -0.5952471611324812 
3.9800000000039746, -0.5951510993894532 
3.9900000000039957, -0.5950806387571215 
4.000000000004016, -0.595020040665801 
4.010000000003993, -0.5949417285107341 
4.02000000000397, -0.5948163215636977 
4.030000000003946, -0.5946222974675852 
4.040000000003923, -0.5943507890536426 
4.0500000000039, -0.5940051529132175 
4.0600000000038765, -0.5935983792161883 
4.070000000003853, -0.5931519072620635 
4.08000000000383, -0.5926981679267149 
4.090000000003807, -0.5922881930232557 
4.100000000003783, -0.5920056029293231 
4.11000000000376, -0.5919887668212018 
4.120000000003737, -0.592462970049386 
4.130000000003713, -0.5937823141437393 
4.14000000000369, -0.5964731445352615 
4.150000000003667, -0.6012499715079109 
4.1600000000036434, -0.6089338799647681 
4.17000000000362, -0.6201601646173429 
4.180000000003597, -0.6348235153232061 
4.1900000000035735, -0.6515552571922973 
4.20000000000355, -0.6679477015775449 
4.210000000003527, -0.6817589752344356 
4.220000000003504, -0.6920154324579393 
4.23000000000348, -0.6989899450993354 
4.240000000003457, -0.7034922796663542 
4.250000000003434, -0.7063151205007799 
4.26000000000341, -0.708043525452145 
4.270000000003387, -0.7090602978704899 
4.280000000003364, -0.7096008029772641 
4.2900000000033405, -0.7098012930967441 
4.300000000003317, -0.7097300952746415 
4.310000000003294, -0.7094037382629274 
4.320000000003271, -0.7087914594167788 
4.330000000003247, -0.7078109860081843 
4.340000000003224, -0.706319890435269 
4.350000000003201, -0.7041129589224318 
4.360000000003177, -0.7009474275558155 
4.370000000003154, -0.6966236485445177 
4.380000000003131, -0.6911187370133693 
4.390000000003107, -0.6846941084575278 
4.400000000003084, -0.6778612546844622 
4.410000000003061, -0.6711991396973767 
4.4200000000030375, -0.6651618562898222 
4.430000000003014, -0.6599979722465188 
4.440000000002991, -0.6557771879664666 
4.450000000002968, -0.6524564218000954 
4.460000000002944, -0.6499369724793049 
4.470000000002921, -0.6480998450345203 
4.480000000002898, -0.6468240326697023 
4.490000000002874, -0.6459954154951942 
4.500000000002851, -0.6455113950741259 
4.510000000002828, -0.645283531482389 
4.520000000002804, -0.6452387989094661 
4.530000000002781, -0.6453195889530278 
4.540000000002758, -0.645482748609495 
4.5500000000027345, -0.6456981975815578 
4.560000000002711, -0.6459476348875874 
4.570000000002688, -0.6462233335516915 
4.580000000002665, -0.6465261673010081 
4.590000000002641, -0.6468614507465744 
4.600000000002618, -0.647231859973133 
4.610000000002595, -0.6476289619939382 
4.620000000002571, -0.6480274850373091 
4.630000000002548, -0.6483869611941641 
4.640000000002525, -0.6486618971031768 
4.6500000000025015, -0.6488155863297199 
4.660000000002478, -0.6488295418360348 
4.670000000002455, -0.6487042105932026 
4.6800000000024315, -0.6484534077394853 
4.690000000002408, -0.6480981483766559 
4.700000000002385, -0.6476641813626574 
4.710000000002362, -0.6471850875951739 
4.720000000002338, -0.6467118472115562 
4.730000000002315, -0.6463302816112266 
4.740000000002292, -0.6461885683181405 
4.750000000002268, -0.6465366026969906 
4.760000000002245, -0.6477749612008871 
4.770000000002222, -0.6504991794767465 
4.7800000000021985, -0.6554983438108779 
4.790000000002175, -0.6636243207434498 
4.800000000002152, -0.6754257887724224 
4.810000000002129, -0.6905653275927739 
4.820000000002105, -0.7074223143453311 
4.830000000002082, -0.7235409454052479 
4.840000000002059, -0.7368686793348211 
4.850000000002035, -0.7466459569762527 
4.860000000002012, -0.7532361128161172 
4.870000000001989, -0.7574469314280232 
4.880000000001965, -0.7600453978352932 
4.890000000001942, -0.7615951997331608 
4.900000000001919, -0.7624640630469638 
4.9100000000018955, -0.7628751817040657 
4.920000000001872, -0.7629528211881469 
