t, s[1].omega / s[0].omega 
0, -1.1399976351775838 
0.009999999999999995, -1.1396324389809986 
0.019999999999999934, -1.1390134620638674 
0.029999999999999874, -1.138149274462205 
0.04000000000000012, -1.1370678476866067 
0.050000000000000405, -1.1358268046560307 
0.06000000000000069, -1.1345153809821773 
0.07000000000000098, -1.133245138447523 
0.08000000000000126, -1.1321347559164694 
0.09000000000000155, -1.1312950483198507 
0.10000000000000184, -1.1308004495414157 
0.11000000000000212, -1.130640308626611 
0.12000000000000241, -1.1306978255535087 
0.130000000000002, -1.1307953686060583 
0.1400000000000009, -1.130758499647346 
0.1499999999999998, -1.13044086861973 
0.1599999999999987, -1.1297192710681523 
0.1699999999999976, -1.1284960699819377 
0.1799999999999965, -1.1267194095891517 
0.1899999999999954, -1.1243980802239053 
0.1999999999999943, -1.1215887639906286 
0.2099999999999932, -1.1183677969846924 
0.2199999999999921, -1.1148184153480216 
0.229999999999991, -1.1110477720718401 
0.2399999999999899, -1.1072269045941656 
0.2499999999999888, -1.1036321222858854 
0.2599999999999877, -1.1006338371341315 
0.2699999999999866, -1.0985591892906 
0.2799999999999855, -1.0974747652885368 
0.2899999999999844, -1.0971214644694294 
0.2999999999999833, -1.0970974580907307 
0.3099999999999822, -1.097062560115353 
0.3199999999999811, -1.096780308955639 
0.32999999999998, -1.0960463158284048 
0.3399999999999789, -1.0946041773097208 
0.3499999999999778, -1.0921066945342932 
0.35999999999997667, -1.088165747785773 
0.36999999999997557, -1.0825030825531643 
0.37999999999997447, -1.0751084521911307 
0.38999999999997337, -1.0662623156960631 
0.39999999999997227, -1.0564333123088194 
0.40999999999997117, -1.0462071474894064 
0.41999999999997006, -1.0363192043380216 
0.42999999999996896, -1.0276743902670737 
0.43999999999996786, -1.0211462283033896 
0.44999999999996676, -1.0171354906388872 
0.45999999999996566, -1.0152937798051556 
0.46999999999996456, -1.0147914552248292 
0.47999999999996346, -1.0148352745919103 
0.48999999999996235, -1.0149235228190765 
0.49999999999996125, -1.0147908736168025 
0.5099999999999602, -1.014256442632249 
0.519999999999959, -1.0130957723779448 
0.529999999999958, -1.010955731692729 
0.5399999999999568, -1.0073356486222866 
0.5499999999999557, -1.001705686609389 
0.5599999999999546, -0.9937873927703081 
0.5699999999999535, -0.983806876970871 
0.5799999999999524, -0.9724512950487578 
0.5899999999999513, -0.9605880222494839 
0.5999999999999502, -0.9490518452802729 
0.6099999999999491, -0.9386057047015968 
0.619999999999948, -0.9299339674000205 
0.6299999999999469, -0.9235235495032872 
0.6399999999999458, -0.9194639263673459 
0.6499999999999447, -0.9173727070308751 
0.6599999999999436, -0.9165823767150755 
0.6699999999999425, -0.9164410742741483 
0.6799999999999414, -0.9164883507123676 
0.6899999999999403, -0.9164530154758292 
0.6999999999999392, -0.9161686844891244 
0.7099999999999381, -0.9154928091176969 
0.719999999999937, -0.9142636529620176 
0.7299999999999359, -0.9123109482625488 
0.7399999999999348, -0.909526210485917 
0.7499999999999337, -0.9059519078415117 
0.7599999999999326, -0.9017986322970587 
0.7699999999999315, -0.8973557131814908 
0.7799999999999304, -0.8928799423363522 
0.7899999999999293, -0.8885513540454583 
0.7999999999999282, -0.8844945035234969 
0.8099999999999271, -0.8808174678818073 
0.819999999999926, -0.8776340970178517 
0.8299999999999249, -0.8750573994554369 
0.8399999999999238, -0.8731661666947961 
0.8499999999999227, -0.8719619735421826 
0.8599999999999216, -0.8713479493710271 
0.8699999999999205, -0.8711517508189132 
0.8799999999999194, -0.8711789153021944 
0.8899999999999183, -0.8712590672308376 
0.8999999999999172, -0.8712636008939175 
0.9099999999999161, -0.8711033111370433 
0.919999999999915, -0.8707252026917672 
0.9299999999999139, -0.8701168204051939 
0.9399999999999128, -0.8693085250479066 
0.9499999999999117, -0.8683589863141568 
0.9599999999999106, -0.8673264354809966 
0.9699999999999095, -0.8662465012128585 
0.9799999999999084, -0.8651317488553386 
0.9899999999999073, -0.8639885599395959 
0.9999999999999062, -0.8628367387711721 
1.0099999999999052, -0.8617208321388149 
1.019999999999904, -0.8607098876195122 
1.029999999999903, -0.8598865223719604 
1.039999999999902, -0.8593284318598091 
1.0499999999999008, -0.8590888399159577 
1.0599999999998997, -0.8591835127315653 
1.0699999999998986, -0.8595882815417683 
1.0799999999998975, -0.8602466980098206 
1.0899999999998964, -0.8610853090606803 
1.0999999999998953, -0.8620319835232023 
1.1099999999998942, -0.8630308848318325 
1.119999999999893, -0.864048302018317 
1.129999999999892, -0.8650660788120526 
1.1399999999998909, -0.8660636505448994 
1.1499999999998898, -0.866997432422142 
1.1599999999998887, -0.8677939342903828 
1.1699999999998876, -0.8683689844270192 
1.1799999999998865, -0.8686637704543378 
1.1899999999998854, -0.868669644053929 
1.1999999999998843, -0.8684268122756628 
1.2099999999998832, -0.8680116771306449 
1.219999999999882, -0.8675346455004225 
1.229999999999881, -0.8671527470342952 
1.2399999999998799, -0.8670802247998448 
1.2499999999998788, -0.8675697717257073 
1.2599999999998777, -0.8688519667217119 
1.2699999999998766, -0.8710615360335692 
1.2799999999998755, -0.8742034467412602 
1.2899999999998744, -0.8781795632485533 
1.2999999999998733, -0.8828436293538346 
1.3099999999998722, -0.8880378650329472 
1.319999999999871, -0.8935866328596316 
1.32999999999987, -0.8992517075074016 
1.3399999999998689, -0.9046870982030771 
1.3499999999998678, -0.9094656662098941 
1.3599999999998666, -0.9132211075426873 
1.3699999999998655, -0.9158130895999289 
1.3799999999998644, -0.9173529704586255 
1.3899999999998633, -0.9180814131157023 
1.3999999999998622, -0.9182362132508981 
1.4099999999998611, -0.9179988916041372 
1.41999999999986, -0.9175155647325005 
1.429999999999859, -0.9169706607680715 
1.4399999999998578, -0.9167073062604761 
1.4499999999998567, -0.9173636720687924 
1.4599999999998556, -0.9199032576100507 
1.4699999999998545, -0.9253669784942837 
1.4799999999998534, -0.9343830963264435 
1.4899999999998523, -0.9468077713754703 
1.4999999999998512, -0.9617833484462739 
1.5099999999998501, -0.9780390229293272 
1.519999999999849, -0.9941208361512742 
1.529999999999848, -1.0085449730633949 
1.5399999999998468, -1.0200972699333035 
1.5499999999998457, -1.0282624485918836 
1.5599999999998446, -1.0333608462936739 
1.5699999999998435, -1.036189860109243 
1.5799999999998424, -1.0375483456950636 
1.5899999999998413, -1.038005550947375 
1.5999999999998402, -1.0379017391973235 
1.6099999999998391, -1.037443067901073 
1.619999999999838, -1.036831640576769 
1.629999999999837, -1.0364373547964025 
1.6399999999998358, -1.0369695858807368 
1.6499999999998347, -1.0394294403356918 
1.6599999999998336, -1.0446145382114982 
1.6699999999998325, -1.0525089959239144 
1.6799999999998314, -1.0622683047760229 
1.6899999999998303, -1.072766020440574 
1.6999999999998292, -1.0830406379220507 
1.709999999999828, -1.09238069799844 
1.719999999999827, -1.1002586530243734 
1.729999999999826, -1.1063354117755468 
1.7399999999998248, -1.1105478440922016 
1.7499999999998237, -1.1131282550537716 
1.7599999999998226, -1.1144744625626413 
1.7699999999998215, -1.1149779755276092 
1.7799999999998204, -1.1149375348791468 
1.7899999999998193, -1.1145742542707142 
1.7999999999998182, -1.1141067608622084 
1.809999999999817, -1.1138340529557995 
1.819999999999816, -1.1141364816077113 
1.8299999999998149, -1.1153148881328818 
1.8399999999998138, -1.117385751242241 
1.8499999999998127, -1.120082723740184 
1.8599999999998116, -1.123052882221619 
1.8699999999998105, -1.1260157316419688 
1.8799999999998094, -1.1287953484597972 
1.8899999999998083, -1.1312879316275255 
1.8999999999998072, -1.1334228350565916 
1.909999999999806, -1.1351383603361875 
1.919999999999805, -1.1363812414100662 
1.9299999999998039, -1.1371270130731663 
1.9399999999998028, -1.137399750457251 
1.9499999999998017, -1.1372709930845675 
1.9599999999998006, -1.1368451168309048 
1.9699999999997995, -1.136252664541684 
1.9799999999997984, -1.1356518391199915 
1.9899999999997973, -1.1352099691498287 
1.9999999999997962, -1.1350506063190635 
2.0099999999998173, -1.1352085883050864 
2.0199999999998384, -1.1356387231631009 
2.0299999999998595, -1.1362522533504082 
2.0399999999998806, -1.1369395947005445 
2.0499999999999017, -1.137585565227212 
2.059999999999923, -1.138089536285892 
2.069999999999944, -1.1383808009734455 
2.079999999999965, -1.1384215717345065 
2.089999999999986, -1.1382002559813158 
2.100000000000007, -1.1377195211637823 
2.1100000000000283, -1.1369859168884533 
2.1200000000000494, -1.136008831309219 
2.1300000000000705, -1.1348096932998024 
2.1400000000000916, -1.133434323991674 
2.1500000000001127, -1.1319599582789959 
2.160000000000134, -1.1304924220958836 
2.170000000000155, -1.1291565221688973 
2.180000000000176, -1.1280832328892672 
2.190000000000197, -1.1273784605115826 
2.2000000000002182, -1.127062857385823 
2.2100000000002393, -1.1270334910838828 
2.2200000000002604, -1.1271043138236854 
2.2300000000002815, -1.1270827466502948 
2.2400000000003026, -1.1268055781563093 
2.2500000000003237, -1.126131659070443 
2.260000000000345, -1.1249357830997098 
2.270000000000366, -1.1231287752564152 
2.280000000000387, -1.1206872599656492 
2.290000000000408, -1.1176574237338626 
2.3000000000004293, -1.1141262706981379 
2.3100000000004504, -1.110193881906021 
2.3200000000004715, -1.1059778001938216 
2.3300000000004926, -1.1016518371558812 
2.3400000000005137, -1.0974980504785483 
2.3500000000005348, -1.0939171154836125 
2.360000000000556, -1.091309211125237 
2.370000000000577, -1.0898322103276008 
2.380000000000598, -1.0892698467278241 
2.390000000000619, -1.089189995943199 
2.4000000000006403, -1.0891961750559216 
2.4100000000006614, -1.0890181058233643 
2.4200000000006825, -1.0884508633058423 
2.4300000000007036, -1.0872578599099147 
2.4400000000007247, -1.0851051245742678 
2.450000000000746, -1.0815711227018765 
2.460000000000767, -1.0762723993605563 
2.470000000000788, -1.069061903343496 
2.480000000000809, -1.0601369218130121 
2.49000000000083, -1.0499663093862417 
2.5000000000008513, -1.039166806698704 
2.5100000000008724, -1.0284793920359345 
2.5200000000008935, -1.018802293679427 
2.5300000000009146, -1.0110796926434642 
2.5400000000009357, -1.0059239702980032 
2.550000000000957, -1.003232897237705 
2.560000000000978, -1.0022696898590515 
2.570000000000999, -1.0021592403057333 
2.58000000000102, -1.0022716513499947 
2.5900000000010412, -1.0022620230382704 
2.6000000000010624, -1.0019348860660784 
2.6100000000010835, -1.0011041175549307 
2.6200000000011046, -0.9994945703194532 
2.6300000000011257, -0.996695969977793 
2.6400000000011468, -0.9922176337978507 
2.650000000001168, -0.9856978870140766 
2.660000000001189, -0.9771739813911996 
2.67000000000121, -0.9671509299719865 
2.680000000001231, -0.956385815658885 
2.6900000000012523, -0.9456352012548628 
2.7000000000012734, -0.9355686685943478 
2.7100000000012945, -0.9267900864763917 
2.7200000000013156, -0.9198122283288037 
2.7300000000013367, -0.9149193739626977 
2.740000000001358, -0.912016953897945 
2.750000000001379, -0.9106481646427166 
2.7600000000014, -0.9102078177164157 
2.770000000001421, -0.9101737203034959 
2.780000000001442, -0.9101985153278268 
2.7900000000014633, -0.9100741371534167 
2.8000000000014844, -0.9096560694245571 
2.8100000000015055, -0.9088058514412477 
2.8200000000015266, -0.9073760311435346 
2.8300000000015477, -0.9052481895870563 
2.840000000001569, -0.9024069232812386 
2.85000000000159, -0.8989835481877382 
2.860000000001611, -0.8952105871099689 
2.870000000001632, -0.8913234411606403 
2.8800000000016532, -0.8874969423364774 
2.8900000000016743, -0.8838463218714744 
2.9000000000016954, -0.8804602830081648 
2.9100000000017165, -0.8774295655916469 
2.9200000000017377, -0.8748544080959827 
2.9300000000017588, -0.8728283946001814 
2.94000000000178, -0.871404672329556 
2.950000000001801, -0.870561951058627 
2.960000000001822, -0.8701957170254556 
2.970000000001843, -0.870146278095853 
2.9800000000018643, -0.870245127177639 
2.9900000000018854, -0.8703495815204412 
3.0000000000019065, -0.8703544747204286 
3.0100000000019276, -0.8701916459606633 
3.0200000000019487, -0.8698306699746009 
3.03000000000197, -0.8692810095292507 
3.040000000001991, -0.8685841265246842 
3.050000000002012, -0.8677905669262871 
3.060000000002033, -0.8669353630544049 
3.070000000002054, -0.8660298207138116 
3.0800000000020753, -0.865073152167081 
3.0900000000020964, -0.8640725645809841 
3.1000000000021175, -0.8630586970775455 
3.1100000000021386, -0.862090664001402 
3.1200000000021597, -0.8612505438709518 
3.130000000002181, -0.8606282627556009 
3.140000000002202, -0.8603003114917023 
3.150000000002223, -0.8603104145544754 
3.160000000002244, -0.8606603296772252 
3.1700000000022652, -0.8613129658884389 
3.1800000000022863, -0.8622048379112797 
3.1900000000023074, -0.8632634288629674 
3.2000000000023285, -0.8644242069925994 
3.2100000000023496, -0.8656412544377002 
3.2200000000023707, -0.8668864462249626 
3.230000000002392, -0.8681354880434126 
3.240000000002413, -0.8693460201969633 
3.250000000002434, -0.8704426401433453 
3.260000000002455, -0.8713269118116778 
3.2700000000024763, -0.8719139742394231 
3.2800000000024974, -0.8721692332286356 
3.2900000000025185, -0.8721165869950563 
3.3000000000025396, -0.8718225874525463 
3.3100000000025607, -0.8713838932589002 
3.3200000000025818, -0.870934856556291 
3.330000000002603, -0.8706684972863651 
3.340000000002624, -0.8708445444029561 
3.350000000002645, -0.8717534460823859 
3.360000000002666, -0.8736339325200256 
3.3700000000026873, -0.8765930899924015 
3.3800000000027084, -0.8805886674020896 
3.3900000000027295, -0.8854768275239951 
3.4000000000027506, -0.891073031014465 
3.4100000000027717, -0.8971753429412122 
3.420000000002793, -0.9035353856951869 
3.430000000002814, -0.9098029958721551 
3.440000000002835, -0.9155152844736469 
3.450000000002856, -0.9202087698779345 
3.460000000002877, -0.923618386656848 
3.4700000000028983, -0.9257798340916406 
3.4800000000029194, -0.9269368058557497 
3.4900000000029405, -0.9273741790163501 
3.5000000000029616, -0.9273195183680903 
3.5100000000029827, -0.9269363927027673 
3.520000000003004, -0.9263797989163888 
3.530000000003025, -0.9259012240629761 
3.540000000003046, -0.9259957666662196 
3.550000000003067, -0.9275165241296687 
3.5600000000030882, -0.9315715525021335 
3.5700000000031094, -0.9390844639140731 
3.5800000000031305, -0.9502738391983097 
3.5900000000031516, -0.964506212917088 
3.6000000000031727, -0.980570517842131 
3.6100000000031938, -0.9970103303448358 
3.620000000003215, -1.0123142977784014 
3.630000000003236, -1.0251292179813192 
3.640000000003257, -1.0346448029203614 
3.650000000003278, -1.0408811492636059 
3.6600000000032993, -1.0445089645240861 
3.6700000000033204, -1.0463691408096694 
3.6800000000033415, -1.0471315226895914 
3.6900000000033626, -1.0472201654253823 
3.7000000000033837, -1.0468834891646344 
3.710000000003405, -1.0463123907992435 
3.720000000003426, -1.0457939325574488 
3.730000000003447, -1.045886803036414 
3.740000000003468, -1.0474660712355115 
3.750000000003489, -1.0513812751195633 
3.7600000000035103, -1.057853529833489 
3.7700000000035314, -1.066275689374759 
3.7800000000035525, -1.0756399291258716 
3.7900000000035736, -1.0850288476277632 
3.8000000000035947, -1.09377051820253 
3.810000000003616, -1.1013751978192658 
3.820000000003637, -1.107488275330068 
3.830000000003658, -1.1119446276595584 
3.840000000003679, -1.1148340895621742 
3.8500000000037002, -1.1164521419535574 
3.8600000000037213, -1.117156101065437 
3.8700000000037424, -1.1172507018580768 
3.8800000000037635, -1.1169659011053374 
3.8900000000037847, -1.1165075464206542 
3.9000000000038058, -1.1161343997643263 
3.910000000003827, -1.1161863638581406 
3.920000000003848, -1.116976245016821 
3.930000000003869, -1.1185962674518093 
3.94000000000389, -1.1208621737822377 
3.9500000000039113, -1.1234616534317006 
3.9600000000039324, -1.1261188193439482 
3.9700000000039535, -1.1286497260912365 
3.9800000000039746, -1.130944684998857 
3.9900000000039957, -1.1329348883268897 
4.000000000004016, -1.1345658536849383 
4.010000000003993, -1.1357870968818373 
4.02000000000397, -1.1365627696895662 
4.030000000003946, -1.1368926052133643 
4.040000000003923, -1.1368218499480756 
4.0500000000039, -1.1364341634221016 
4.0600000000038765, -1.1358430697187407 
4.070000000003853, -1.13519099375757 
4.08000000000383, -1.1346378789522769 
4.090000000003807, -1.1343191757450672 
4.100000000003783, -1.1342979221654408 
4.11000000000376, -1.1345582278989517 
4.120000000003737, -1.1350325084128856 
4.130000000003713, -1.1356222434023258 
4.14000000000369, -1.1362117451571472 
4.150000000003667, -1.136690016954941 
4.1600000000036434, -1.1369715964507847 
4.17000000000362, -1.1370047619033845 
4.180000000003597, -1.1367687842628273 
4.1900000000035735, -1.13626423131547 
4.20000000000355, -1.1355005235325946 
4.210000000003527, -1.1344889940733824 
4.220000000003504, -1.133247210241885 
4.23000000000348, -1.1318109843548432 
4.240000000003457, -1.1302451245773777 
4.250000000003434, -1.1286461454735899 
4.26000000000341, -1.1271372289953787 
4.270000000003387, -1.1258589117599298 
4.280000000003364, -1.1249430601138046 
4.2900000000033405, -1.1244512438546879 
4.300000000003317, -1.124315478098566 
4.310000000003294, -1.124357294179984 
4.320000000003271, -1.124370196892593 
4.330000000003247, -1.1241749399255072 
4.340000000003224, -1.123618573783814 
4.350000000003201, -1.1225595009295217 
4.360000000003177, -1.120878305281606 
4.370000000003154, -1.1185132943452127 
4.380000000003131, -1.1154836025276158 
4.390000000003107, -1.1118717929098845 
4.400000000003084, -1.1077870277750428 
4.410000000003061, -1.1033518485926066 
4.4200000000030375, -1.098730206814687 
4.430000000003014, -1.0941825481358973 
4.440000000002991, -1.090101399106106 
4.450000000002968, -1.086937419405089 
4.460000000002944, -1.0849682762491584 
4.470000000002921, -1.0840879420331975 
4.480000000002898, -1.0838814780387251 
4.490000000002874, -1.0838991372740543 
4.500000000002851, -1.0838197309724074 
4.510000000002828, -1.083425386105514 
4.520000000002804, -1.0825018611889379 
4.530000000002781, -1.0807525394928563 
4.540000000002758, -1.077770234956505 
4.5500000000027345, -1.0731152189275848 
4.560000000002711, -1.0665076329031515 
4.570000000002688, -1.0580068174632213 
4.580000000002665, -1.0480117068757402 
4.590000000002641, -1.037123248097278 
4.600000000002618, -1.026058267651757 
4.610000000002595, -1.0156684047680309 
4.620000000002571, -1.0069097669650047 
4.630000000002548, -1.0005736302457924 
4.640000000002525, -0.9968616056189735 
4.6500000000025015, -0.9952481266497027 
4.660000000002478, -0.9948525049365154 
4.670000000002455, -0.9949189209145509 
4.6800000000024315, -0.9949921849220776 
4.690000000002408, -0.9948314883667444 
4.700000000002385, -0.9942637841060363 
4.710000000002362, -0.9930696693142416 
4.720000000002338, -0.9909157326466036 
4.730000000002315, -0.9873606049524338 
4.740000000002292, -0.9819930420620231 
4.750000000002268, -0.9746845649387502 
4.760000000002245, -0.9657520378443956 
4.770000000002222, -0.9558423941185699 
4.7800000000021985, -0.9456717795099349 
4.790000000002175, -0.9358757542485262 
4.800000000002152, -0.9270114991306001 
4.810000000002129, -0.9195815529986966 
4.820000000002105, -0.913966711890088 
4.830000000002082, -0.9102782815341391 
4.840000000002059, -0.9082702979565179 
4.850000000002035, -0.9074382077100445 
4.860000000002012, -0.9072397299387707 
4.870000000001989, -0.9072581097340144 
4.880000000001965, -0.9072295332621977 
4.890000000001942, -0.9069877863400571 
4.900000000001919, -0.9063996288857364 
4.9100000000018955, -0.9053301023747651 
4.920000000001872, -0.903654456555875 
4.930000000001849, -0.9013145591974104 
