t, s[1].omega / s[0].omega 
0, -0.7299976805058394 
0.009999999999999995, -0.7297504369367519 
0.019999999999999934, -0.7294683334174101 
0.029999999999999874, -0.7291405883122125 
0.04000000000000012, -0.7287569561468598 
0.050000000000000405, -0.7283142044541926 
0.06000000000000069, -0.7278195986592475 
0.07000000000000098, -0.7272917605582208 
0.08000000000000126, -0.7267610549425354 
0.09000000000000155, -0.7262711836273537 
0.10000000000000184, -0.7258820600296576 
0.11000000000000212, -0.7256725904866497 
0.12000000000000241, -0.7257412999240397 
0.130000000000002, -0.7262030374264417 
0.1400000000000009, -0.727181234304714 
0.1499999999999998, -0.7287966792097273 
0.1599999999999987, -0.7311542249692335 
0.1699999999999976, -0.7343272856165147 
0.1799999999999965, -0.7383370927679412 
0.1899999999999954, -0.7431225820203037 
0.1999999999999943, -0.7485029180600797 
0.2099999999999932, -0.754152331507663 
0.2199999999999921, -0.7596270336014459 
0.229999999999991, -0.7644722987120111 
0.2399999999999899, -0.7683701409936127 
0.2499999999999888, -0.7712268392942963 
0.2599999999999877, -0.7731428163449588 
0.2699999999999866, -0.774311722243838 
0.2799999999999855, -0.7749295662341807 
0.2899999999999844, -0.7751491009559254 
0.2999999999999833, -0.7750698972348854 
0.3099999999999822, -0.7747439525661106 
0.3199999999999811, -0.7741839677580767 
0.32999999999998, -0.7733698309457697 
0.3399999999999789, -0.7722542152475937 
0.3499999999999778, -0.7707720438871816 
0.35999999999997667, -0.7688622898313495 
0.36999999999997557, -0.7665120049418499 
0.37999999999997447, -0.7638223355172973 
0.38999999999997337, -0.7610612195904987 
0.39999999999997227, -0.758623884467768 
0.40999999999997117, -0.7568684564792237 
0.41999999999997006, -0.7559812013601213 
0.42999999999996896, -0.7560304623126174 
0.43999999999996786, -0.7570127470519787 
0.44999999999996676, -0.7587364912481988 
0.45999999999996566, -0.7608096545143518 
0.46999999999996456, -0.7628267639712047 
0.47999999999996346, -0.7645295239924099 
0.48999999999996235, -0.7658257546414753 
0.49999999999996125, -0.7667289005536354 
0.5099999999999602, -0.7672941866276355 
0.519999999999959, -0.7675784688943958 
0.529999999999958, -0.7676207223284988 
0.5399999999999568, -0.7674332378601738 
0.5499999999999557, -0.7669958777145298 
0.5599999999999546, -0.7662495245655084 
0.5699999999999535, -0.7650889537590156 
0.5799999999999524, -0.7633612438167502 
0.5899999999999513, -0.7608839004153761 
0.5999999999999502, -0.7575001051090423 
0.6099999999999491, -0.753169351230864 
0.619999999999948, -0.7480452258139573 
0.6299999999999469, -0.7424679042820694 
0.6399999999999458, -0.7368580147384758 
0.6499999999999447, -0.7315873469037493 
0.6599999999999436, -0.7269064211377493 
0.6699999999999425, -0.722940867107933 
0.6799999999999414, -0.7197221238046897 
0.6899999999999403, -0.7172205761542172 
0.6999999999999392, -0.7153690834991782 
0.7099999999999381, -0.71407792435023 
0.719999999999937, -0.7132456057431151 
0.7299999999999359, -0.7127683768460342 
0.7399999999999348, -0.7125487116707478 
0.7499999999999337, -0.7125016135970668 
0.7599999999999326, -0.7125577947047943 
0.7699999999999315, -0.7126639035739315 
0.7799999999999304, -0.7127810061512012 
0.7899999999999293, -0.7128828124377329 
0.7999999999999282, -0.7129545261024088 
0.8099999999999271, -0.7129919110735989 
0.819999999999926, -0.712998994071395 
0.8299999999999249, -0.7129830207569748 
0.8399999999999238, -0.712947443770969 
0.8499999999999227, -0.712886339129431 
0.8599999999999216, -0.7127840014497161 
0.8699999999999205, -0.7126205232452982 
0.8799999999999194, -0.7123801010130459 
0.8899999999999183, -0.7120573229410804 
0.8999999999999172, -0.7116591639631034 
0.9099999999999161, -0.7112041796555241 
0.919999999999915, -0.7107220476569204 
0.9299999999999139, -0.7102557046295649 
0.9399999999999128, -0.7098665256212942 
0.9499999999999117, -0.7096414682379516 
0.9599999999999106, -0.7096999937977964 
0.9699999999999095, -0.7101978455863505 
0.9799999999999084, -0.7113246608382104 
0.9899999999999073, -0.7132930063139706 
0.9999999999999062, -0.7163169794371695 
1.0099999999999052, -0.7205776172108633 
1.019999999999904, -0.7261701215557761 
1.029999999999903, -0.7330295147726404 
1.039999999999902, -0.7408485339564036 
1.0499999999999008, -0.7490413999351337 
1.0599999999998997, -0.7568369451605239 
1.0699999999998986, -0.7635219045421484 
1.0799999999998975, -0.7686966093074566 
1.0899999999998964, -0.7723502071402656 
1.0999999999998953, -0.7747327854139245 
1.1099999999998942, -0.7761711366956352 
1.119999999999893, -0.7769496759629527 
1.129999999999892, -0.7772709388419827 
1.1399999999998909, -0.7772592414494928 
1.1499999999998898, -0.776975803257212 
1.1599999999998887, -0.7764305158628336 
1.1699999999998876, -0.7755859237138868 
1.1799999999998865, -0.7743529009203917 
1.1899999999998854, -0.7725787626718823 
1.1999999999998843, -0.7700299993070996 
1.2099999999998832, -0.7663756510581097 
1.219999999999882, -0.7611868441596242 
1.229999999999881, -0.7539910602054303 
1.2399999999998799, -0.744461997830297 
1.2499999999998788, -0.7328185981795908 
1.2599999999998777, -0.7202314307631446 
1.2699999999998766, -0.7086143464968162 
1.2799999999998755, -0.6996178845627308 
1.2899999999998744, -0.6937844535348061 
1.2999999999998733, -0.6906390932675127 
1.3099999999998722, -0.6893057867682024 
1.319999999999871, -0.6889878419464595 
1.32999999999987, -0.6891370323965649 
1.3399999999998689, -0.6894351150356546 
1.3499999999998678, -0.6897195590148366 
1.3599999999998666, -0.6899157341958182 
1.3699999999998655, -0.6899907349197754 
1.3799999999998644, -0.6899257930817659 
1.3899999999998633, -0.6897008587456527 
1.3999999999998622, -0.6892867935749746 
1.4099999999998611, -0.68864374043506 
1.41999999999986, -0.687727001613696 
1.429999999999859, -0.6865022449660352 
1.4399999999998578, -0.6849673134933819 
1.4499999999998567, -0.6831690890861151 
1.4599999999998556, -0.6812004906861319 
1.4699999999998545, -0.6791749261670096 
1.4799999999998534, -0.6771940870487967 
1.4899999999998523, -0.6753284136288423 
1.4999999999998512, -0.6736160339025958 
1.5099999999998501, -0.6720730824518644 
1.519999999999849, -0.6707059247828241 
1.529999999999848, -0.66951989534454 
1.5399999999998468, -0.6685234203498733 
1.5499999999998457, -0.6677285266879769 
1.5599999999998446, -0.667149205359448 
1.5699999999998435, -0.666798921713551 
1.5799999999998424, -0.6666883112171097 
1.5899999999998413, -0.666823842918997 
1.5999999999998402, -0.6672078733097825 
1.6099999999998391, -0.6678400221776174 
1.619999999999838, -0.6687192517793036 
1.629999999999837, -0.6698454915026908 
1.6399999999998358, -0.6712191404142754 
1.6499999999998347, -0.6728364292563714 
1.6599999999998336, -0.6746790341928859 
1.6699999999998325, -0.6766987751407195 
1.6799999999998314, -0.6788037375264495 
1.6899999999998303, -0.68085844087232 
1.6999999999998292, -0.6827091268972214 
1.709999999999828, -0.6842281355787666 
1.719999999999827, -0.6853506688964105 
1.729999999999826, -0.6860800376821814 
1.7399999999998248, -0.6864641664476321 
1.7499999999998237, -0.6865647448173294 
1.7599999999998226, -0.6864355128029053 
1.7699999999998215, -0.6861128188709488 
1.7799999999998204, -0.6856145711724275 
1.7899999999998193, -0.6849437995597132 
1.7999999999998182, -0.6840959114559764 
1.809999999999817, -0.6830717930198367 
1.819999999999816, -0.6819011846579877 
1.8299999999998149, -0.6806800385101265 
1.8399999999998138, -0.6796152598038053 
1.8499999999998127, -0.6790396572115311 
1.8599999999998116, -0.679315030443002 
1.8699999999998105, -0.6805660416851895 
1.8799999999998094, -0.6824304007110966 
1.8899999999998083, -0.6842626818433091 
1.8999999999998072, -0.6857365740756654 
1.909999999999806, -0.6870253821575232 
1.919999999999805, -0.6883775245347115 
1.9299999999998039, -0.6898109247465005 
1.9399999999998028, -0.6911869480999221 
1.9499999999998017, -0.6923708945241872 
1.9599999999998006, -0.6932973481842406 
1.9699999999997995, -0.693959952934462 
1.9799999999997984, -0.6943812671764708 
1.9899999999997973, -0.694588761255851 
1.9999999999997962, -0.694600712512184 
2.0099999999998173, -0.6944185657484001 
2.0199999999998384, -0.6940223424433066 
2.0299999999998595, -0.6933679628466328 
2.0399999999998806, -0.6923885153363429 
2.0499999999999017, -0.6910049073622675 
2.059999999999923, -0.6891519511403497 
2.069999999999944, -0.6868176681044195 
2.079999999999965, -0.6840757673974445 
2.089999999999986, -0.6810823414287095 
2.100000000000007, -0.678030385993176 
2.1100000000000283, -0.6750921543354689 
2.1200000000000494, -0.6723851349019491 
2.1300000000000705, -0.6699704842591305 
2.1400000000000916, -0.6678697389016405 
2.1500000000001127, -0.6660835380138987 
2.160000000000134, -0.6646043982819546 
2.170000000000155, -0.6634226589071031 
2.180000000000176, -0.6625277123997477 
2.190000000000197, -0.6619070316039181 
2.2000000000002182, -0.661544923933848 
2.2100000000002393, -0.6614221649523542 
2.2200000000002604, -0.6615169252088525 
2.2300000000002815, -0.6618068039542662 
2.2400000000003026, -0.6622714017860335 
2.2500000000003237, -0.6628947004140364 
2.260000000000345, -0.6636664295276408 
2.270000000000366, -0.6645814092837905 
2.280000000000387, -0.6656356309810063 
2.290000000000408, -0.6668181657850906 
2.3000000000004293, -0.6680998360649489 
2.3100000000004504, -0.6694233147187135 
2.3200000000004715, -0.6707028974213849 
2.3300000000004926, -0.6718403473348251 
2.3400000000005137, -0.6727524448096207 
2.3500000000005348, -0.6733940606346288 
2.360000000000556, -0.6737625343567624 
2.370000000000577, -0.6738844657318666 
2.380000000000598, -0.6737971820800512 
2.390000000000619, -0.6735352349870115 
2.4000000000006403, -0.6731249871266142 
2.4100000000006614, -0.6725862032594153 
2.4200000000006825, -0.6719397522903597 
2.4300000000007036, -0.6712228741118851 
2.4400000000007247, -0.6705161733603211 
2.450000000000746, -0.6699879245408392 
2.460000000000767, -0.6699574688213674 
2.470000000000788, -0.6709611732692559 
2.480000000000809, -0.673758306229782 
2.49000000000083, -0.679148268857685 
2.5000000000008513, -0.6874895124551547 
2.5100000000008724, -0.698126501182954 
2.5200000000008935, -0.7093987333400423 
2.5300000000009146, -0.7195510216921647 
2.5400000000009357, -0.7276522600071502 
2.550000000000957, -0.733645636175848 
2.560000000000978, -0.7378875726175295 
2.570000000000999, -0.7407999147500713 
2.58000000000102, -0.742743021049757 
2.5900000000010412, -0.7439926781763904 
2.6000000000010624, -0.744746670060556 
2.6100000000010835, -0.7451376950237936 
2.6200000000011046, -0.7452456815925578 
2.6300000000011257, -0.7451064128191258 
2.6400000000011468, -0.7447149012995746 
2.650000000001168, -0.7440230624267462 
2.660000000001189, -0.7429328809476318 
2.67000000000121, -0.7412902649860829 
2.680000000001231, -0.738892868239437 
2.6900000000012523, -0.7355339363038842 
2.7000000000012734, -0.7310964920178405 
2.7100000000012945, -0.7256660224751094 
2.7200000000013156, -0.71957291102733 
2.7300000000013367, -0.7133020204443525 
2.740000000001358, -0.707326189183082 
2.750000000001379, -0.7019826033382672 
2.7600000000014, -0.6974442058480023 
2.770000000001421, -0.6937540814963306 
2.780000000001442, -0.6908737539218637 
2.7900000000014633, -0.6887203615529722 
2.8000000000014844, -0.6871895617590277 
2.8100000000015055, -0.6861691992493092 
2.8200000000015266, -0.6855485567041084 
2.8300000000015477, -0.6852253862863672 
2.840000000001569, -0.6851109118631956 
2.85000000000159, -0.6851324032445829 
2.860000000001611, -0.6852333829369309 
2.870000000001632, -0.6853722529365591 
2.8800000000016532, -0.6855204885655722 
2.8900000000016743, -0.6856612414806176 
2.9000000000016954, -0.6857882453351672 
2.9100000000017165, -0.6859037826150967 
2.9200000000017377, -0.6860141767886431 
2.9300000000017588, -0.6861227577248494 
2.94000000000178, -0.6862229377552882 
2.950000000001801, -0.6862956000023684 
2.960000000001822, -0.6863133485531182 
2.970000000001843, -0.6862498070567284 
2.9800000000018643, -0.6860885879630797 
2.9900000000018854, -0.6858273556967818 
3.0000000000019065, -0.6854768199214247 
3.0100000000019276, -0.6850581019885966 
3.0200000000019487, -0.6846022089657156 
3.03000000000197, -0.6841536756819607 
3.040000000001991, -0.683778872344857 
3.050000000002012, -0.6835785283810973 
3.060000000002033, -0.6837030955996332 
3.070000000002054, -0.6843680707366826 
3.0800000000020753, -0.6858641314697022 
3.0900000000020964, -0.6885538378408057 
3.1000000000021175, -0.6928422517770689 
3.1100000000021386, -0.6991030868608296 
3.1200000000021597, -0.7075403980244583 
3.130000000002181, -0.7179890898253405 
3.140000000002202, -0.7297369431691622 
3.150000000002223, -0.7415591140019531 
3.160000000002244, -0.752110514447262 
3.1700000000022652, -0.7604837457466944 
3.1800000000022863, -0.7664827790853409 
3.1900000000023074, -0.7704491606305933 
3.2000000000023285, -0.7729134158790161 
3.2100000000023496, -0.7743546610013198 
3.2200000000023707, -0.7751191629822384 
3.230000000002392, -0.7754266726194805 
3.240000000002413, -0.7754004833378044 
3.250000000002434, -0.7750926377566604 
3.260000000002455, -0.7744965142751973 
3.2700000000024763, -0.7735456451765238 
3.2800000000024974, -0.7720978311623089 
3.2900000000025185, -0.7699025855292219 
3.3000000000025396, -0.7665524455733684 
3.3100000000025607, -0.7614345443281716 
3.3200000000025818, -0.7537459110105713 
3.330000000002603, -0.7427141626653022 
3.340000000002624, -0.7281532522422031 
3.350000000002645, -0.711113645307879 
3.360000000002666, -0.6938520498943517 
3.3700000000026873, -0.678765517304496 
3.3800000000027084, -0.6672297481913935 
3.3900000000027295, -0.6593510166631269 
3.4000000000027506, -0.6544611517850243 
3.4100000000027717, -0.6516836054158419 
3.420000000002793, -0.6502518032658082 
3.430000000002814, -0.6496060222278929 
3.440000000002835, -0.6493787811783699 
3.450000000002856, -0.6493453942615479 
3.460000000002877, -0.6493747935022942 
3.4700000000028983, -0.6493916944879149 
3.4800000000029194, -0.64935091284714 
3.4900000000029405, -0.6492215753083588 
3.5000000000029616, -0.6489790133109743 
3.5100000000029827, -0.6486030613500747 
3.520000000003004, -0.6480818131379648 
3.530000000003025, -0.6474185148176653 
3.540000000003046, -0.6466366189914746 
3.550000000003067, -0.6457772959222696 
3.5600000000030882, -0.6448881649997158 
3.5700000000031094, -0.6440090553912515 
3.5800000000031305, -0.643163012025738 
3.5900000000031516, -0.6423563294775168 
3.6000000000031727, -0.6415853345576893 
3.6100000000031938, -0.6408449806165637 
3.620000000003215, -0.6401355031495569 
3.630000000003236, -0.6394661300774959 
3.640000000003257, -0.638856843111257 
3.650000000003278, -0.6383395822223641 
3.6600000000032993, -0.6379596232681817 
3.6700000000033204, -0.6377770667738274 
3.6800000000033415, -0.6378679668998578 
3.6900000000033626, -0.6383246465628233 
3.7000000000033837, -0.6392549559256928 
3.710000000003405, -0.6407802202624884 
3.720000000003426, -0.6430308347910276 
3.730000000003447, -0.6461363854198844 
3.740000000003468, -0.6502038644547874 
3.750000000003489, -0.6552750359527135 
3.7600000000035103, -0.6612588862090456 
3.7700000000035314, -0.6678586606036676 
3.7800000000035525, -0.6745549566259225 
3.7900000000035736, -0.6807184399302583 
3.8000000000035947, -0.6858338692214204 
3.810000000003616, -0.6896799212211644 
3.820000000003637, -0.6923303059919912 
3.830000000003658, -0.6940192097500861 
3.840000000003679, -0.6950034093827859 
3.8500000000037002, -0.6954894265543785 
3.8600000000037213, -0.6956158340939045 
3.8700000000037424, -0.6954595521917089 
3.8800000000037635, -0.6950451852192097 
3.8900000000037847, -0.6943481664497513 
3.9000000000038058, -0.6932877611455306 
3.910000000003827, -0.6917067065589594 
3.920000000003848, -0.6893338948471674 
3.930000000003869, -0.6857307296879183 
3.94000000000389, -0.6802442802589497 
3.9500000000039113, -0.6720529862020463 
3.9600000000039324, -0.6604727456936812 
3.9700000000039535, -0.6455938781258357 
3.9800000000039746, -0.6288004419125743 
3.9900000000039957, -0.6123789404119224 
4.000000000004016, -0.5983344802531148 
4.010000000003993, -0.5875712499912578 
4.02000000000397, -0.579980054411407 
4.030000000003946, -0.5749490493076911 
4.040000000003923, -0.5717775940802119 
4.0500000000039, -0.5698694042134587 
4.0600000000038765, -0.5687795987070483 
4.070000000003853, -0.5681991632099821 
4.08000000000383, -0.5679226285509185 
4.090000000003807, -0.5678171986749334 
4.100000000003783, -0.5677985180511488 
4.11000000000376, -0.5678134125656848 
4.120000000003737, -0.5678286015481209 
4.130000000003713, -0.5678242754538448 
4.14000000000369, -0.567791489038219 
4.150000000003667, -0.5677319617710838 
4.1600000000036434, -0.5676580439895167 
4.17000000000362, -0.567590106033592 
4.180000000003597, -0.5675497538125163 
4.1900000000035735, -0.5675502393796819 
4.20000000000355, -0.5675882887357117 
4.210000000003527, -0.5676419984148187 
4.220000000003504, -0.5676767908131243 
4.23000000000348, -0.5676568329745036 
4.240000000003457, -0.5675558241705387 
4.250000000003434, -0.5673619606492383 
4.26000000000341, -0.5670766000154299 
4.270000000003387, -0.5667101289049981 
4.280000000003364, -0.5662790293980072 
4.2900000000033405, -0.565806586134294 
4.300000000003317, -0.565328521183757 
4.310000000003294, -0.5649049673048926 
4.320000000003271, -0.5646411694068254 
4.330000000003247, -0.564720119672248 
4.340000000003224, -0.5654488342265125 
4.350000000003201, -0.5673107862266283 
4.360000000003177, -0.5709888767971052 
4.370000000003154, -0.577265087597005 
4.380000000003131, -0.5866505884369259 
4.390000000003107, -0.5987410634481363 
4.400000000003084, -0.6118358759401616 
4.410000000003061, -0.6236597122106687 
4.4200000000030375, -0.6327927021621111 
4.430000000003014, -0.6391879710947708 
4.440000000002991, -0.6435095957473377 
4.450000000002968, -0.6464319287551629 
4.460000000002944, -0.6484190108806281 
4.470000000002921, -0.649760810873624 
4.480000000002898, -0.6506417150859712 
4.490000000002874, -0.6511824052501309 
4.500000000002851, -0.6514606104835797 
4.510000000002828, -0.6515213279940009 
4.520000000002804, -0.6513817848372356 
4.530000000002781, -0.6510333239510654 
4.540000000002758, -0.6504419331555591 
4.5500000000027345, -0.6495504885485761 
4.560000000002711, -0.6482881857106897 
4.570000000002688, -0.6465934571358984 
4.580000000002665, -0.6444502065361959 
4.590000000002641, -0.641920909505394 
4.600000000002618, -0.6391485427118372 
4.610000000002595, -0.6363163322862918 
4.620000000002571, -0.6335906262924926 
4.630000000002548, -0.6310838971167374 
4.640000000002525, -0.6288508110927935 
4.6500000000025015, -0.6269049476849023 
4.660000000002478, -0.6252391406559504 
4.670000000002455, -0.6238402820076512 
4.6800000000024315, -0.6226970191092148 
4.690000000002408, -0.6218021849829037 
4.700000000002385, -0.6211523277823681 
4.710000000002362, -0.6207461664766069 
4.720000000002338, -0.620583148039927 
4.730000000002315, -0.620662770063624 
4.740000000002292, -0.6209849274567655 
4.750000000002268, -0.6215511751215067 
4.760000000002245, -0.6223664265084965 
4.770000000002222, -0.6234401700759961 
4.7800000000021985, -0.6247857034625541 
4.790000000002175, -0.6264152235866994 
4.800000000002152, -0.6283284378176132 
4.810000000002129, -0.6304941231845407 
4.820000000002105, -0.6328296831764264 
4.830000000002082, -0.6351926200830141 
4.840000000002059, -0.6374012164090379 
4.850000000002035, -0.6392857983484815 
4.860000000002012, -0.6407422273050428 
4.870000000001989, -0.6417512677141723 
4.880000000001965, -0.6423572122673945 
4.890000000001942, -0.642629944837981 
4.900000000001919, -0.6426347279509945 
4.9100000000018955, -0.6424168148233403 
4.920000000001872, -0.6419963311172758 
