t, s[1].omega / s[0].omega 
0, -1.2599965809856297 
0.009999999999999995, -1.2594841426181194 
0.019999999999999934, -1.2586351712826003 
0.029999999999999874, -1.2574536721986918 
0.04000000000000012, -1.2559485250157267 
0.050000000000000405, -1.2541363525979805 
0.06000000000000069, -1.252044438491944 
0.07000000000000098, -1.249713003778519 
0.08000000000000126, -1.2471964063433558 
0.09000000000000155, -1.2445637098331608 
0.10000000000000184, -1.2419002835989763 
0.11000000000000212, -1.2393115268984942 
0.12000000000000241, -1.236925138197606 
0.130000000000002, -1.2348818981386473 
0.1400000000000009, -1.2333057151471292 
0.1499999999999998, -1.232258885494593 
0.1599999999999987, -1.2317084929681814 
0.1699999999999976, -1.231529926648721 
0.1799999999999965, -1.2315459387595495 
0.1899999999999954, -1.2315727189210346 
0.1999999999999943, -1.2314458702025504 
0.2099999999999932, -1.231020040722013 
0.2199999999999921, -1.230151686959528 
0.229999999999991, -1.228677082807905 
0.2399999999999899, -1.2263944047442121 
0.2499999999999888, -1.2230563320001229 
0.2599999999999877, -1.2183787559926913 
0.2699999999999866, -1.212068711864321 
0.2799999999999855, -1.2038679051275287 
0.2899999999999844, -1.1935995067503302 
0.2999999999999833, -1.181202868189961 
0.3099999999999822, -1.16674907058982 
0.3199999999999811, -1.1504448360641406 
0.32999999999998, -1.1326407085581331 
0.3399999999999789, -1.1138531174041686 
0.3499999999999778, -1.0947903756489483 
0.35999999999997667, -1.076348740487428 
0.36999999999997557, -1.0595327054912074 
0.37999999999997447, -1.0452764607844323 
0.38999999999997337, -1.0342093891559927 
0.39999999999997227, -1.026477725616965 
0.40999999999997117, -1.021731592584828 
0.41999999999997006, -1.0192882413945157 
0.42999999999996896, -1.0183711557883874 
0.43999999999996786, -1.0183012373058555 
0.44999999999996676, -1.018581365217551 
0.45999999999996566, -1.018890609618056 
0.46999999999996456, -1.019034363401165 
0.47999999999996346, -1.018887107409464 
0.48999999999996235, -1.0183439527915532 
0.49999999999996125, -1.0172828023186995 
0.5099999999999602, -1.0155336397485237 
0.519999999999959, -1.0128523748060798 
0.529999999999958, -1.008901674126008 
0.5399999999999568, -1.0032492241667716 
0.5499999999999557, -0.99540202126448 
0.5599999999999546, -0.98489503348785 
0.5699999999999535, -0.9714314190338534 
0.5799999999999524, -0.9550289013571208 
0.5899999999999513, -0.9360943853872554 
0.5999999999999502, -0.9153720673901687 
0.6099999999999491, -0.8937861425584714 
0.619999999999948, -0.8722598638584603 
0.6299999999999469, -0.8515857336545389 
0.6399999999999458, -0.8323699793444064 
0.6499999999999447, -0.8150318495736595 
0.6599999999999436, -0.7998270492022007 
0.6699999999999425, -0.7868739860350663 
0.6799999999999414, -0.7761748118054735 
0.6899999999999403, -0.767632172135643 
0.6999999999999392, -0.76106590803363 
0.7099999999999381, -0.7562332011229145 
0.719999999999937, -0.7528528494385366 
0.7299999999999359, -0.7506313903169046 
0.7399999999999348, -0.7492870967946139 
0.7499999999999337, -0.7485680777902869 
0.7599999999999326, -0.7482624327367212 
0.7699999999999315, -0.748200626511316 
0.7799999999999304, -0.7482519636895415 
0.7899999999999293, -0.748317787621555 
0.7999999999999282, -0.748323924594913 
0.8099999999999271, -0.7482143282942778 
0.819999999999926, -0.7479471772678805 
0.8299999999999249, -0.7474939196204063 
0.8399999999999238, -0.7468408495820412 
0.8499999999999227, -0.7459917312381023 
0.8599999999999216, -0.7449691292957082 
0.8699999999999205, -0.7438121878716449 
0.8799999999999194, -0.7425700555350965 
0.8899999999999183, -0.7412923919882051 
0.8999999999999172, -0.7400199735200158 
0.9099999999999161, -0.7387783367488414 
0.919999999999915, -0.7375759762519366 
0.9299999999999139, -0.7364069268160688 
0.9399999999999128, -0.7352563946357844 
0.9499999999999117, -0.7341076125011294 
0.9599999999999106, -0.732948190585495 
0.9699999999999095, -0.731774811331529 
0.9799999999999084, -0.7305959475873515 
0.9899999999999073, -0.7294329853558953 
0.9999999999999062, -0.7283203981948609 
1.0099999999999052, -0.7273054324771369 
1.019999999999904, -0.726447355745813 
1.029999999999903, -0.7258159808702286 
1.039999999999902, -0.7254890937167471 
1.0499999999999008, -0.7255486249829513 
1.0599999999998997, -0.7260758294760171 
1.0699999999998986, -0.7271461842828931 
1.0799999999998975, -0.7288249801338614 
1.0899999999998964, -0.7311645172001332 
1.0999999999998953, -0.7342034292816199 
1.1099999999998942, -0.7379680828487677 
1.119999999999893, -0.7424754061349571 
1.129999999999892, -0.7477360154003173 
1.1399999999998909, -0.7537561388713803 
1.1499999999998898, -0.7605365613949129 
1.1599999999998887, -0.7680666543296489 
1.1699999999998876, -0.7763117546407644 
1.1799999999998865, -0.7851933068969587 
1.1899999999998854, -0.7945642076536676 
1.1999999999998843, -0.8041872951870729 
1.2099999999998832, -0.8137313268282863 
1.219999999999882, -0.8228001974121868 
1.229999999999881, -0.8309995775736418 
1.2399999999998799, -0.8380210698431647 
1.2499999999998788, -0.8437053559492741 
1.2599999999998777, -0.848054155585265 
1.2699999999998766, -0.8511923521190596 
1.2799999999998755, -0.8533077091202729 
1.2899999999998744, -0.8545971816226243 
1.2999999999998733, -0.8552338357454576 
1.3099999999998722, -0.855354024325627 
1.319999999999871, -0.8550585567436031 
1.32999999999987, -0.85442236874612 
1.3399999999998689, -0.8535106058410724 
1.3499999999998678, -0.8524027116340419 
1.3599999999998666, -0.8512292862501953 
1.3699999999998655, -0.8502286364334323 
1.3799999999998644, -0.8498296166921578 
1.3899999999998633, -0.850761447186622 
1.3999999999998622, -0.854175284441476 
1.4099999999998611, -0.8617330350195317 
1.41999999999986, -0.8755786002280376 
1.429999999999859, -0.8980710890029012 
1.4399999999998578, -0.9311705290647401 
1.4499999999998567, -0.9755028656439277 
1.4599999999998556, -1.0294495245079391 
1.4699999999998545, -1.0889319754337912 
1.4799999999998534, -1.1483861435782974 
1.4899999999998523, -1.2025471782944555 
1.4999999999998512, -1.247947516770449 
1.5099999999998501, -1.2833696280988216 
1.519999999999849, -1.309385277245988 
1.529999999999848, -1.3275524617941354 
1.5399999999998468, -1.3397118837701734 
1.5499999999998457, -1.3475482966388188 
1.5599999999998446, -1.352401659361188 
1.5699999999998435, -1.3552443498933264 
1.5799999999998424, -1.3567396063839272 
1.5899999999998413, -1.357323845656891 
1.5999999999998402, -1.3572855018153185 
1.6099999999998391, -1.356833249242282 
1.619999999999838, -1.3561541093123322 
1.629999999999837, -1.3554574176920944 
1.6399999999998358, -1.354988059186588 
1.6499999999998347, -1.3549882191705394 
1.6599999999998336, -1.3556154950787656 
1.6699999999998325, -1.3568751705997653 
1.6799999999998314, -1.3586281858379183 
1.6899999999998303, -1.360667565869538 
1.6999999999998292, -1.3627980446573447 
1.709999999999828, -1.3648720302448056 
1.719999999999827, -1.3667861537785253 
1.729999999999826, -1.368465305584399 
1.7399999999998248, -1.3698516291157714 
1.7499999999998237, -1.3709004022122542 
1.7599999999998226, -1.3715785125904263 
1.7699999999998215, -1.3718626847654158 
1.7799999999998204, -1.3717371279136563 
1.7899999999998193, -1.3711911026220935 
1.7999999999998182, -1.3702167884409735 
1.809999999999817, -1.368807771145318 
1.819999999999816, -1.3669585456959972 
1.8299999999998149, -1.3646653738286745 
1.8399999999998138, -1.3619286029171025 
1.8499999999998127, -1.358756434791043 
1.8599999999998116, -1.35517067768182 
1.8699999999998105, -1.351216720150725 
1.8799999999998094, -1.3469818379003171 
1.8899999999998083, -1.3426233187356424 
1.8999999999998072, -1.3383941827260453 
1.909999999999806, -1.3346324202963935 
1.919999999999805, -1.3316769245614803 
1.9299999999998039, -1.3297257015878015 
1.9399999999998028, -1.3287323518694156 
1.9499999999998017, -1.3284330549099006 
1.9599999999998006, -1.3284772792021873 
1.9699999999997995, -1.3285491275386916 
1.9799999999997984, -1.3284089513728985 
1.9899999999997973, -1.3278660192487215 
1.9999999999997962, -1.326719446229028 
2.0099999999998173, -1.3246867918190623 
2.0199999999998384, -1.321317710583641 
2.0299999999998595, -1.3158797683103902 
2.0399999999998806, -1.307207113515902 
2.0499999999999017, -1.293527068509094 
2.059999999999923, -1.2723415775162343 
2.069999999999944, -1.2405508809489578 
2.079999999999965, -1.1951174688299466 
2.089999999999986, -1.1344834353383006 
2.100000000000007, -1.0603691096485959 
2.1100000000000283, -0.9786230229702634 
2.1200000000000494, -0.8977327706959658 
2.1300000000000705, -0.825530345394747 
2.1400000000000916, -0.7665557131570642 
2.1500000000001127, -0.7216814237024451 
2.160000000000134, -0.6893505725240056 
2.170000000000155, -0.6670313125711413 
2.180000000000176, -0.652167434027554 
2.190000000000197, -0.6425993267376807 
2.2000000000002182, -0.6366623299751936 
2.2100000000002393, -0.6331410398807816 
2.2200000000002604, -0.6311792669956142 
2.2300000000002815, -0.6301894041778889 
2.2400000000003026, -0.6297762348427182 
2.2500000000003237, -0.6296778922202559 
2.260000000000345, -0.6297222060178925 
2.270000000000366, -0.6297955031426075 
2.280000000000387, -0.6298210395457395 
2.290000000000408, -0.6297448003998397 
2.3000000000004293, -0.629527061823889 
2.3100000000004504, -0.6291386498449153 
2.3200000000004715, -0.6285610628480024 
2.3300000000004926, -0.6277893662817633 
2.3400000000005137, -0.6268360396853856 
2.3500000000005348, -0.6257332081030069 
2.360000000000556, -0.6245307766334426 
2.370000000000577, -0.6232895092808918 
2.380000000000598, -0.6220705245455694 
2.390000000000619, -0.6209244640297679 
2.4000000000006403, -0.6198835521881988 
2.4100000000006614, -0.6189582540987775 
2.4200000000006825, -0.618138554113434 
2.4300000000007036, -0.6173988686801914 
2.4400000000007247, -0.6167051867152804 
2.450000000000746, -0.6160228298516877 
2.460000000000767, -0.6153232310764472 
2.470000000000788, -0.6145885886745056 
2.480000000000809, -0.6138141552428868 
2.49000000000083, -0.6130088518695366 
2.5000000000008513, -0.6121953991542677 
2.5100000000008724, -0.6114111160506973 
2.5200000000008935, -0.6107101701775527 
2.5300000000009146, -0.6101676480246752 
2.5400000000009357, -0.6098855018167704 
2.550000000000957, -0.610000236062068 
2.560000000000978, -0.6106920742465446 
2.570000000000999, -0.6121952452429701 
2.58000000000102, -0.6148089036387032 
2.5900000000010412, -0.6189079680296381 
2.6000000000010624, -0.6249526499131386 
2.6100000000010835, -0.6334943156420266 
2.6200000000011046, -0.6451730447167776 
2.6300000000011257, -0.6606981872189459 
2.6400000000011468, -0.6807970942800008 
2.650000000001168, -0.7061103643404747 
2.660000000001189, -0.7370102467007451 
2.67000000000121, -0.7733362145596949 
2.680000000001231, -0.8140982679361407 
2.6900000000012523, -0.857296797194345 
2.7000000000012734, -0.9000808915270306 
2.7100000000012945, -0.9393681876369986 
2.7200000000013156, -0.9727221211048435 
2.7300000000013367, -0.9989941904354765 
2.740000000001358, -1.0183690109991423 
2.750000000001379, -1.0319080251490675 
2.7600000000014, -1.0409745807638637 
2.770000000001421, -1.046831533347975 
2.780000000001442, -1.0504702494981744 
2.7900000000014633, -1.0525953924443407 
2.8000000000014844, -1.0536765179145178 
2.8100000000015055, -1.054012497077731 
2.8200000000015266, -1.0537878498053108 
2.8300000000015477, -1.0531190288769463 
2.840000000001569, -1.0520976347878555 
2.85000000000159, -1.0508418163298194 
2.860000000001611, -1.0495681390335492 
2.870000000001632, -1.0486896990768018 
2.8800000000016532, -1.048922825819333 
2.8900000000016743, -1.051339494054997 
2.9000000000016954, -1.0572599978239616 
2.9100000000017165, -1.0679095796393931 
2.9200000000017377, -1.0839177115104774 
2.9300000000017588, -1.1049312648696925 
2.94000000000178, -1.1296199948992525 
2.950000000001801, -1.1560910797109767 
2.960000000001822, -1.1824417165034566 
2.970000000001843, -1.207151667663906 
2.9800000000018643, -1.2292161526849674 
2.9900000000018854, -1.2480999792853325 
3.0000000000019065, -1.2636326262112458 
3.0100000000019276, -1.27591220812584 
3.0200000000019487, -1.2852291622540126 
3.03000000000197, -1.2919965893205367 
3.040000000001991, -1.2966799237866031 
3.050000000002012, -1.299732966576131 
3.060000000002033, -1.301552685356633 
3.070000000002054, -1.3024591634269957 
3.0800000000020753, -1.3026981945807035 
3.0900000000020964, -1.3024594479182505 
3.1000000000021175, -1.3019029222126146 
3.1100000000021386, -1.301186383794082 
3.1200000000021597, -1.3004834945456243 
3.130000000002181, -1.2999791778792567 
3.140000000002202, -1.2998355279486489 
3.150000000002223, -1.3001439029320279 
3.160000000002244, -1.3008983306440436 
3.1700000000022652, -1.3020123996265995 
3.1800000000022863, -1.3033641264748759 
3.1900000000023074, -1.3048344977472988 
3.2000000000023285, -1.3063218968588493 
3.2100000000023496, -1.3077393763065317 
3.2200000000023707, -1.3090094217204593 
3.230000000002392, -1.3100631934487075 
3.240000000002413, -1.3108426307370986 
3.250000000002434, -1.3113019154337764 
3.260000000002455, -1.3114071131848999 
3.2700000000024763, -1.3111346434096025 
3.2800000000024974, -1.3104693024764804 
3.2900000000025185, -1.309402087145188 
3.3000000000025396, -1.3079280408817557 
3.3100000000025607, -1.3060446822537042 
3.3200000000025818, -1.303751721112339 
3.330000000002603, -1.301052490720174 
3.340000000002624, -1.2979570788859263 
3.350000000002645, -1.2944870135870232 
3.360000000002666, -1.2906819853688425 
3.3700000000026873, -1.2866103720667181 
3.3800000000027084, -1.2823855131098145 
3.3900000000027295, -1.2781848908762579 
3.4000000000027506, -1.2742573969226854 
3.4100000000027717, -1.270892849692347 
3.420000000002793, -1.2683394347094674 
3.430000000002814, -1.2667002784284889 
3.440000000002835, -1.2658813849058725 
3.450000000002856, -1.2656353279557417 
3.460000000002877, -1.2656633349041844 
3.4700000000028983, -1.2656991127153865 
3.4800000000029194, -1.2655346181912681 
3.4900000000029405, -1.2649981920192843 
3.5000000000029616, -1.26391064933963 
3.5100000000029827, -1.2620344929968823 
3.520000000003004, -1.2590194376282502 
3.530000000003025, -1.2543445033153293 
3.540000000003046, -1.2472642496474242 
3.550000000003067, -1.2367830620188076 
3.5600000000030882, -1.2217011742726445 
3.5700000000031094, -1.200783229489091 
3.5800000000031305, -1.1730712165276092 
3.5900000000031516, -1.1382906239527053 
3.6000000000031727, -1.0972129211894737 
3.6100000000031938, -1.0517954387974409 
3.620000000003215, -1.0049622810064796 
3.630000000003236, -0.9600252963416056 
3.640000000003257, -0.9199314466349325 
3.650000000003278, -0.8866426686466682 
3.6600000000032993, -0.860886331305324 
3.6700000000033204, -0.8422992388889508 
3.6800000000033415, -0.8298052897103146 
3.6900000000033626, -0.822028869569093 
3.7000000000033837, -0.8176150241771153 
3.710000000003405, -0.8154149597481216 
3.720000000003426, -0.8145532071522716 
3.730000000003447, -0.8144161021428006 
3.740000000003468, -0.8146014255396036 
3.750000000003489, -0.8148581972329367 
3.7600000000035103, -0.8150326295583558 
3.7700000000035314, -0.8150261071485574 
3.7800000000035525, -0.8147652442011744 
3.7900000000035736, -0.8141819142913783 
3.8000000000035947, -0.8132013381093627 
3.810000000003616, -0.8117376786612194 
3.820000000003637, -0.8096981133488059 
3.830000000003658, -0.8069967842103546 
3.840000000003679, -0.803577871175933 
3.8500000000037002, -0.7994417659928336 
3.8600000000037213, -0.7946626675143732 
3.8700000000037424, -0.7893858733072542 
3.8800000000037635, -0.783802209524562 
3.8900000000037847, -0.7781100409426494 
3.9000000000038058, -0.7724813584770055 
3.910000000003827, -0.7670433125379166 
3.920000000003848, -0.7618764496842495 
3.930000000003869, -0.7570239599818815 
3.94000000000389, -0.7525049258731669 
3.9500000000039113, -0.7483266051229324 
3.9600000000039324, -0.7444933880181063 
3.9700000000039535, -0.7410119281382455 
3.9800000000039746, -0.7378929219502045 
3.9900000000039957, -0.7351503826941123 
4.000000000004016, -0.7327993026073637 
4.010000000003993, -0.7308525145158173 
4.02000000000397, -0.7293174497566266 
4.030000000003946, -0.7281933784784306 
4.040000000003923, -0.7274696028362321 
4.0500000000039, -0.7271249275590416 
4.0600000000038765, -0.7271285363675007 
4.070000000003853, -0.7274421670537199 
4.08000000000383, -0.7280232520223874 
4.090000000003807, -0.7288285437029428 
4.100000000003783, -0.7298177203429228 
4.11000000000376, -0.7309565494599471 
4.120000000003737, -0.7322192937811817 
4.130000000003713, -0.7335900852366765 
4.14000000000369, -0.7350629337946106 
4.150000000003667, -0.7366399537702034 
4.1600000000036434, -0.7383274371815655 
4.17000000000362, -0.7401297253987555 
4.180000000003597, -0.7420414661186531 
4.1900000000035735, -0.7440397147484441 
4.20000000000355, -0.746078251917677 
4.210000000003527, -0.7480869973513233 
4.220000000003504, -0.7499787110813879 
4.23000000000348, -0.7516626530454127 
4.240000000003457, -0.7530612453063208 
4.250000000003434, -0.7541235250688224 
4.26000000000341, -0.7548305425031316 
4.270000000003387, -0.7551921783889117 
4.280000000003364, -0.7552389047310298 
4.2900000000033405, -0.7550133040492116 
4.300000000003317, -0.7545649571098921 
4.310000000003294, -0.7539504101735507 
4.320000000003271, -0.7532386797933773 
4.330000000003247, -0.7525223473151487 
4.340000000003224, -0.7519342478821457 
4.350000000003201, -0.7516694424385506 
4.360000000003177, -0.7520110823107714 
4.370000000003154, -0.7533567096450586 
4.380000000003131, -0.7562386762862311 
4.390000000003107, -0.7613294185041667 
4.400000000003084, -0.7694203845244675 
4.410000000003061, -0.7813635692979027 
4.4200000000030375, -0.7979677535627906 
4.430000000003014, -0.8198487227903721 
4.440000000002991, -0.8472456019705907 
4.450000000002968, -0.8798350760320541 
4.460000000002944, -0.9165985480750277 
4.470000000002921, -0.9558130573777266 
4.480000000002898, -0.995226893388112 
4.490000000002874, -1.032429257210667 
4.500000000002851, -1.0653328104692512 
4.510000000002828, -1.0925996820145605 
4.520000000002804, -1.1138312003460569 
4.530000000002781, -1.1294531180432834 
4.540000000002758, -1.1403928998557018 
4.5500000000027345, -1.1477291662791507 
4.560000000002711, -1.152446197276267 
4.570000000002688, -1.155324141033581 
4.580000000002665, -1.156927488443371 
4.590000000002641, -1.1576413705243973 
4.600000000002618, -1.1577215392194904 
4.610000000002595, -1.1573436668259542 
4.620000000002571, -1.156650549729226 
4.630000000002548, -1.1558007689448038 
4.640000000002525, -1.155019080319676 
4.6500000000025015, -1.1546358889333814 
4.660000000002478, -1.1550846315337915 
4.670000000002455, -1.1568222923619753 
4.6800000000024315, -1.160178489054193 
4.690000000002408, -1.1652107305475385 
4.700000000002385, -1.1716681998878922 
4.710000000002362, -1.1790907563107267 
4.720000000002338, -1.186967995766022 
4.730000000002315, -1.1948627467988797 
4.740000000002292, -1.202460067707727 
4.750000000002268, -1.2095590275220889 
4.760000000002245, -1.2160408299788312 
4.770000000002222, -1.2218366896550972 
4.7800000000021985, -1.2269051347803335 
4.790000000002175, -1.2312203808701465 
4.800000000002152, -1.2347700679801215 
4.810000000002129, -1.2375589106530183 
4.820000000002105, -1.2396136030287725 
4.830000000002082, -1.2409845462249234 
4.840000000002059, -1.2417423906117033 
4.850000000002035, -1.241970929124216 
4.860000000002012, -1.2417602055175292 
4.870000000001989, -1.2412033717204776 
4.880000000001965, -1.2403982283445878 
4.890000000001942, -1.2394508327781004 
4.900000000001919, -1.2384756813209656 
4.9100000000018955, -1.2375871762808406 
4.920000000001872, -1.236882573140359 
4.930000000001849, -1.236424955175569 
