t, s[1].omega / s[0].omega 
0, -0.6399991857620575 
0.009999999999999995, -0.6399202970739771 
0.019999999999999934, -0.6398348552607094 
0.029999999999999874, -0.6397191102432914 
0.04000000000000012, -0.6395485306626909 
0.050000000000000405, -0.6393065480408467 
0.06000000000000069, -0.6389888308318817 
0.07000000000000098, -0.6386030226001427 
0.08000000000000126, -0.6381669693054407 
0.09000000000000155, -0.637708736521144 
0.10000000000000184, -0.637270405965564 
0.11000000000000212, -0.6369164954387551 
0.12000000000000241, -0.6367473233257008 
0.130000000000002, -0.636917219990981 
0.1400000000000009, -0.6376564159360488 
0.1499999999999998, -0.6392928335596162 
0.1599999999999987, -0.6422644640507911 
0.1699999999999976, -0.6471022808259665 
0.1799999999999965, -0.6543468438782265 
0.1899999999999954, -0.66435009553165 
0.1999999999999943, -0.6769526606035425 
0.2099999999999932, -0.6911853286307816 
0.2199999999999921, -0.705349389534235 
0.229999999999991, -0.717684266767855 
0.2399999999999899, -0.7271747343455885 
0.2499999999999888, -0.7337828331796146 
0.2599999999999877, -0.738067614266052 
0.2699999999999866, -0.740711464047395 
0.2799999999999855, -0.7422710108540312 
0.2899999999999844, -0.7431263170055575 
0.2999999999999833, -0.7435116437702372 
0.3099999999999822, -0.7435575880397607 
0.3199999999999811, -0.7433211042052986 
0.32999999999998, -0.742799819567641 
0.3399999999999789, -0.7419315356224165 
0.3499999999999778, -0.7405792381891261 
0.35999999999997667, -0.7385020589015315 
0.36999999999997557, -0.7353194904926215 
0.37999999999997447, -0.7304995719690326 
0.38999999999997337, -0.7234454914693653 
0.39999999999997227, -0.7137717723711461 
0.40999999999997117, -0.7017200149348278 
0.41999999999997006, -0.6883648762234148 
0.42999999999996896, -0.6752608876032566 
0.43999999999996786, -0.6637531893492448 
0.44999999999996676, -0.6545386578669998 
0.45999999999996566, -0.6476869657490151 
0.46999999999996456, -0.6428931809159881 
0.47999999999996346, -0.6397165938378824 
0.48999999999996235, -0.6377232926234028 
0.49999999999996125, -0.6365479282415085 
0.5099999999999602, -0.63590899070807 
0.519999999999959, -0.6356022886709771 
0.529999999999958, -0.6354862394129623 
0.5399999999999568, -0.6354657747365119 
0.5499999999999557, -0.6354781170307887 
0.5599999999999546, -0.6354818744897675 
0.5699999999999535, -0.6354499867315273 
0.5799999999999524, -0.6353664728381938 
0.5899999999999513, -0.6352261681427476 
0.5999999999999502, -0.6350354265015595 
0.6099999999999491, -0.6348107858628937 
0.619999999999948, -0.6345734064694544 
0.6299999999999469, -0.6343402417198061 
0.6399999999999458, -0.6341161821557604 
0.6499999999999447, -0.6338917305651504 
0.6599999999999436, -0.6336476147055444 
0.6699999999999425, -0.6333635377030239 
0.6799999999999414, -0.6330261871028985 
0.6899999999999403, -0.6326332191731272 
0.6999999999999392, -0.6321935393298961 
0.7099999999999381, -0.6317266214938546 
0.719999999999937, -0.6312636301270168 
0.7299999999999359, -0.6308519224989227 
0.7399999999999348, -0.6305634806707081 
0.7499999999999337, -0.6305072397295362 
0.7599999999999326, -0.6308447248944821 
0.7699999999999315, -0.6318073262640433 
0.7799999999999304, -0.6337112305773211 
0.7899999999999293, -0.6369612383729791 
0.7999999999999282, -0.6420254733099259 
0.8099999999999271, -0.6493491766804189 
0.819999999999926, -0.6591691360172436 
0.8299999999999249, -0.6712321980348764 
0.8399999999999238, -0.6845649394408303 
0.8499999999999227, -0.6976014718006316 
0.8599999999999216, -0.7088046729306345 
0.8699999999999205, -0.7173478388430042 
0.8799999999999194, -0.723264096425158 
0.8899999999999183, -0.7270861618457986 
0.8999999999999172, -0.7294338335292065 
0.9099999999999161, -0.7308051825822517 
0.919999999999915, -0.7315377925689314 
0.9299999999999139, -0.731837891200377 
0.9399999999999128, -0.7318176230267637 
0.9499999999999117, -0.731520673366779 
0.9599999999999106, -0.7309331377578696 
0.9699999999999095, -0.729980106659159 
0.9799999999999084, -0.7285079194432542 
0.9899999999999073, -0.7262529725950848 
0.9999999999999062, -0.7228071261771528 
1.0099999999999052, -0.7176174846041938 
1.019999999999904, -0.7101035642162057 
1.029999999999903, -0.6999729050013813 
1.039999999999902, -0.6876310806030645 
1.0499999999999008, -0.674290552106501 
1.0599999999998997, -0.6615075826083919 
1.0699999999998986, -0.6505005735893218 
1.0799999999998975, -0.6418130495577282 
1.0899999999998964, -0.6354124295083102 
1.0999999999998953, -0.6309551400152411 
1.1099999999998942, -0.6280042525814233 
1.119999999999893, -0.6261486075861277 
1.129999999999892, -0.6250494695514096 
1.1399999999998909, -0.6244485200289922 
1.1499999999998898, -0.6241589730004351 
1.1599999999998887, -0.624051051514341 
1.1699999999998876, -0.6240371469445977 
1.1799999999998865, -0.624059095114543 
1.1899999999998854, -0.6240786254279901 
1.1999999999998843, -0.6240713433411254 
1.2099999999998832, -0.6240240721828216 
1.219999999999882, -0.6239345705877478 
1.229999999999881, -0.6238114952766307 
1.2399999999998799, -0.6236718458760413 
1.2499999999998788, -0.6235343911249355 
1.2599999999998777, -0.623410759328211 
1.2699999999998766, -0.6232986155615738 
1.2799999999998755, -0.6231810636098849 
1.2899999999998744, -0.6230329750897823 
1.2999999999998733, -0.6228307215980328 
1.3099999999998722, -0.6225600278316364 
1.319999999999871, -0.622218909932332 
1.32999999999987, -0.6218167126888079 
1.3399999999998689, -0.6213725609825254 
1.3499999999998678, -0.6209162138933444 
1.3599999999998666, -0.6204930064380644 
1.3699999999998655, -0.6201737332365378 
1.3799999999998644, -0.6200700956825338 
1.3899999999998633, -0.6203560633324893 
1.3999999999998622, -0.6212943004357012 
1.4099999999998611, -0.6232633432950417 
1.41999999999986, -0.6267730378371869 
1.429999999999859, -0.6324392531757933 
1.4399999999998578, -0.6408641806434018 
1.4499999999998567, -0.6523590945447334 
1.4599999999998556, -0.6665299140317194 
1.4699999999998545, -0.6819976828738928 
1.4799999999998534, -0.6967197238810346 
1.4899999999998523, -0.7089355493919404 
1.4999999999998512, -0.7179358519984342 
1.5099999999998501, -0.724004598052554 
1.519999999999849, -0.7278629061962146 
1.529999999999848, -0.7302191000691391 
1.5399999999998468, -0.7315996235213114 
1.5499999999998457, -0.7323469909057031 
1.5599999999998446, -0.7326662643700915 
1.5699999999998435, -0.7326680116308497 
1.5799999999998424, -0.7323951917676463 
1.5899999999998413, -0.7318342228421585 
1.5999999999998402, -0.7309121208986958 
1.6099999999998391, -0.7294809265217357 
1.619999999999838, -0.7272927387270124 
1.629999999999837, -0.7239796420566675 
1.6399999999998358, -0.719078667846294 
1.6499999999998347, -0.7121692353856457 
1.6599999999998336, -0.7031507540313201 
1.6699999999998325, -0.6925109746412156 
1.6799999999998314, -0.6812887046783123 
1.6899999999998303, -0.6706603703027672 
1.6999999999998292, -0.6614858546709105 
1.709999999999828, -0.6541373399425668 
1.719999999999827, -0.6485942817827878 
1.729999999999826, -0.644620550642023 
1.7399999999998248, -0.6419047434070542 
1.7499999999998237, -0.6401401225192297 
1.7599999999998226, -0.6390606159091524 
1.7699999999998215, -0.6384521271254152 
1.7799999999998204, -0.6381514624012864 
1.7899999999998193, -0.6380395000047432 
1.7999999999998182, -0.6380322295777926 
1.809999999999817, -0.6380718788642499 
1.819999999999816, -0.6381195729659138 
1.8299999999998149, -0.6381503834615256 
1.8399999999998138, -0.6381509562565072 
1.8499999999998127, -0.6381189259224765 
1.8599999999998116, -0.6380621463562866 
1.8699999999998105, -0.6379953081415148 
1.8799999999998094, -0.6379329652925276 
1.8899999999998083, -0.6378810737507605 
1.8999999999998072, -0.6378314635937544 
1.909999999999806, -0.637762908304714 
1.919999999999805, -0.6376486982202004 
1.9299999999998039, -0.6374664888556812 
1.9399999999998028, -0.6372051428066675 
1.9499999999998017, -0.6368663307557242 
1.9599999999998006, -0.636462778546684 
1.9699999999997995, -0.6360167741206388 
1.9799999999997984, -0.6355617316259314 
1.9899999999997973, -0.6351482104425804 
1.9999999999997962, -0.6348550220825107 
2.0099999999998173, -0.6348057715480924 
2.0199999999998384, -0.6351906189290415 
2.0299999999998595, -0.6362913219075692 
2.0399999999998806, -0.6385034786680253 
2.0499999999999017, -0.6423411822123793 
2.059999999999923, -0.6483934570231698 
2.069999999999944, -0.6571820014309814 
2.079999999999965, -0.6688743320792709 
2.089999999999986, -0.6829088694505174 
2.100000000000007, -0.6978239113862685 
2.1100000000000283, -0.7116785671427348 
2.1200000000000494, -0.7229509258186667 
2.1300000000000705, -0.7311392477804043 
2.1400000000000916, -0.7366061559415038 
2.1500000000001127, -0.7400530806047781 
2.160000000000134, -0.7421359133439511 
2.170000000000155, -0.743332720577198 
2.180000000000176, -0.7439508393287115 
2.190000000000197, -0.7441712447679574 
2.2000000000002182, -0.7440871547148457 
2.2100000000002393, -0.7437268707328386 
2.2200000000002604, -0.7430610845378633 
2.2300000000002815, -0.7419957577353511 
2.2400000000003026, -0.7403508623036539 
2.2500000000003237, -0.7378279131730742 
2.260000000000345, -0.7339829107091674 
2.270000000000366, -0.7282546997168876 
2.280000000000387, -0.72013636793162 
2.290000000000408, -0.7095286954819808 
2.3000000000004293, -0.6970795822668412 
2.3100000000004504, -0.6841155594057703 
2.3200000000004715, -0.6720849063006342 
2.3300000000004926, -0.6619785313018121 
2.3400000000005137, -0.6541477463843346 
2.3500000000005348, -0.64846402520901 
2.360000000000556, -0.644563204010078 
2.370000000000577, -0.6420244199485521 
2.380000000000598, -0.6404634657129891 
2.390000000000619, -0.6395679641278706 
2.4000000000006403, -0.6391017763322164 
2.4100000000006614, -0.6388956119941022 
2.4200000000006825, -0.638832875816883 
2.4300000000007036, -0.638835383991369 
2.4400000000007247, -0.6388512840538654 
2.450000000000746, -0.6388462780929317 
2.460000000000767, -0.638798533073331 
2.470000000000788, -0.6386970010296026 
2.480000000000809, -0.6385418433914636 
2.49000000000083, -0.6383443925600202 
2.5000000000008513, -0.6381237959822359 
2.5100000000008724, -0.6378995230536897 
2.5200000000008935, -0.6376824998683931 
2.5300000000009146, -0.63746970413609 
2.5400000000009357, -0.6372454996796262 
2.550000000000957, -0.6369889153588738 
2.560000000000978, -0.6366825819792175 
2.570000000000999, -0.636318827963853 
2.58000000000102, -0.6359014647466192 
2.5900000000010412, -0.6354451445403034 
2.6000000000010624, -0.6349753169088822 
2.6100000000010835, -0.6345309766666637 
2.6200000000011046, -0.6341711603697731 
2.6300000000011257, -0.6339853487891307 
2.6400000000011468, -0.6341074002310668 
2.650000000001168, -0.6347318554407816 
2.660000000001189, -0.6361298598554016 
2.67000000000121, -0.6386586937338634 
2.680000000001231, -0.6427524316534947 
2.6900000000012523, -0.6488700392533355 
2.7000000000012734, -0.6573651705524833 
2.7100000000012945, -0.6682528814228522 
2.7200000000013156, -0.6809350642409261 
2.7300000000013367, -0.6941179119714059 
2.740000000001358, -0.7061926936235905 
2.750000000001379, -0.715948478632168 
2.7600000000014, -0.7230188588875991 
2.770000000001421, -0.7277360115780223 
2.780000000001442, -0.7307030119519425 
2.7900000000014633, -0.7324810621890105 
2.8000000000014844, -0.7334797819260778 
2.8100000000015055, -0.7339620447164316 
2.8200000000015266, -0.7340803734690754 
2.8300000000015477, -0.7339085768928584 
2.840000000001569, -0.733459452297861 
2.85000000000159, -0.732687997639323 
2.860000000001611, -0.7314802808665715 
2.870000000001632, -0.7296276014318707 
2.8800000000016532, -0.7267894024284407 
2.8900000000016743, -0.7224656627222756 
2.9000000000016954, -0.7160399629870294 
2.9100000000017165, -0.7069949142787517 
2.9200000000017377, -0.6953260308879148 
2.9300000000017588, -0.6818868403558753 
2.94000000000178, -0.668215459171991 
2.950000000001801, -0.6558486464154296 
2.960000000001822, -0.6457218208737228 
2.970000000001843, -0.6380623341737829 
2.9800000000018643, -0.6326248679633597 
2.9900000000018854, -0.6289675402550908 
3.0000000000019065, -0.6266307161161944 
3.0100000000019276, -0.6252187410668902 
3.0200000000019487, -0.624423103032964 
3.03000000000197, -0.6240179883667796 
3.040000000001991, -0.6238455106266 
3.050000000002012, -0.623798928493351 
3.060000000002033, -0.6238075721746335 
3.070000000002054, -0.6238250161876111 
3.0800000000020753, -0.6238210242892717 
3.0900000000020964, -0.6237772572117575 
3.1000000000021175, -0.6236861377127833 
3.1100000000021386, -0.6235512517918242 
3.1200000000021597, -0.6233865806025404 
3.130000000002181, -0.6232120344445892 
3.140000000002202, -0.6230452211179878 
3.150000000002223, -0.6228928242906882 
3.160000000002244, -0.622746390685714 
3.1700000000022652, -0.6225852230361884 
3.1800000000022863, -0.6223848521203247 
3.1900000000023074, -0.6221262909721148 
3.2000000000023285, -0.6218015809105238 
3.2100000000023496, -0.6214146489684375 
3.2200000000023707, -0.6209798941086297 
3.230000000002392, -0.6205217888868576 
3.240000000002413, -0.6200777677937298 
3.250000000002434, -0.6197055323918585 
3.260000000002455, -0.6194953878958331 
3.2700000000024763, -0.6195880082772282 
3.2800000000024974, -0.6201973727754141 
3.2900000000025185, -0.6216365516434167 
3.3000000000025396, -0.624338875315478 
3.3100000000025607, -0.628855870850703 
3.3200000000025818, -0.6357934538241254 
3.330000000002603, -0.6456268422517553 
3.340000000002624, -0.6583573021863869 
3.350000000002645, -0.6731307564191906 
3.360000000002666, -0.6882061384705765 
3.3700000000026873, -0.7016083518401578 
3.3800000000027084, -0.7120759803783371 
3.3900000000027295, -0.7194386224897495 
3.4000000000027506, -0.7242492909811655 
3.4100000000027717, -0.7272433463784566 
3.420000000002793, -0.7290356404680403 
3.430000000002814, -0.7300507602034781 
3.440000000002835, -0.7305534027024578 
3.450000000002856, -0.7306951139734897 
3.460000000002877, -0.7305489721991584 
3.4700000000028983, -0.7301279517632596 
3.4800000000029194, -0.7293885365388044 
3.4900000000029405, -0.7282209680430427 
3.5000000000029616, -0.7264276355554885 
3.5100000000029827, -0.7236968197276499 
3.520000000003004, -0.7195974608198701 
3.530000000003025, -0.7136525405481245 
3.540000000003046, -0.7055555382390037 
3.550000000003067, -0.6954840413304858 
3.5600000000030882, -0.6842525732377541 
3.5700000000031094, -0.6730588571085286 
3.5800000000031305, -0.6629814000582678 
3.5900000000031516, -0.6546405070310797 
3.6000000000031727, -0.6481838940288467 
3.6100000000031938, -0.6434514586838281 
3.620000000003215, -0.6401464744710226 
3.630000000003236, -0.637946623488641 
3.640000000003257, -0.6365592353494273 
3.650000000003278, -0.6357422094616786 
3.6600000000032993, -0.6353071967228243 
3.6700000000033204, -0.6351144046446753 
3.6800000000033415, -0.635063942985193 
3.6900000000033626, -0.635086478433859 
3.7000000000033837, -0.635134921092467 
3.710000000003405, -0.6351782203504196 
3.720000000003426, -0.6351977643098177 
3.730000000003447, -0.6351860862815123 
3.740000000003468, -0.6351464605021863 
3.750000000003489, -0.6350910146140036 
3.7600000000035103, -0.6350354122615819 
3.7700000000035314, -0.6349906217773919 
3.7800000000035525, -0.6349553338605702 
3.7900000000035736, -0.634913523104063 
3.8000000000035947, -0.6348391961491646 
3.810000000003616, -0.6347059553220259 
3.820000000003637, -0.6344960016581483 
3.830000000003658, -0.6342043521617462 
3.840000000003679, -0.6338382326006664 
3.8500000000037002, -0.6334148484090176 
3.8600000000037213, -0.6329610053746701 
3.8700000000037424, -0.6325166835106515 
3.8800000000037635, -0.632143545473238 
3.8900000000037847, -0.6319389707147661 
3.9000000000038058, -0.632055978004695 
3.910000000003827, -0.6327284536498645 
3.920000000003848, -0.6342983256100214 
3.930000000003869, -0.6372348583996521 
3.94000000000389, -0.6421231247727746 
3.9500000000039113, -0.6495774325011038 
3.9600000000039324, -0.6600192164276922 
3.9700000000039535, -0.6733036261286837 
3.9800000000039746, -0.6883711349225089 
3.9900000000039957, -0.7033470499949896 
4.000000000004016, -0.7163173952836999 
4.010000000003993, -0.7262251499926845 
4.02000000000397, -0.7330805508394744 
4.030000000003946, -0.7375094922029584 
4.040000000003923, -0.7402416935991962 
4.0500000000039, -0.7418598345250984 
4.0600000000038765, -0.742757368386758 
4.070000000003853, -0.7431758681971677 
4.08000000000383, -0.743250563064362 
4.090000000003807, -0.74304202311913 
4.100000000003783, -0.7425514990697832 
4.11000000000376, -0.741721440847711 
4.120000000003737, -0.7404220481182371 
4.130000000003713, -0.7384250237961948 
4.14000000000369, -0.7353727678845139 
4.150000000003667, -0.7307735936589792 
4.1600000000036434, -0.7240916353628695 
4.17000000000362, -0.7150057126181666 
4.180000000003597, -0.7037728427776087 
4.1900000000035735, -0.6913807824046014 
4.20000000000355, -0.6792156388953077 
4.210000000003527, -0.6684682722836056 
4.220000000003504, -0.6597689049008565 
4.23000000000348, -0.6532058587244018 
4.240000000003457, -0.6485352280240291 
4.250000000003434, -0.6453818055582672 
4.26000000000341, -0.6433630824551421 
4.270000000003387, -0.6421469772206756 
4.280000000003364, -0.6414700195949273 
4.2900000000033405, -0.64113570159531 
4.300000000003317, -0.6410042072407253 
4.310000000003294, -0.640979507593047 
4.320000000003271, -0.640997058086081 
4.330000000003247, -0.6410138446005875 
4.340000000003224, -0.6410016441903463 
4.350000000003201, -0.640943706357858 
4.360000000003177, -0.6408342133670204 
4.370000000003154, -0.640678646274609 
4.380000000003131, -0.6404922188598968 
4.390000000003107, -0.6402943121573597 
4.400000000003084, -0.6400998594089882 
4.410000000003061, -0.6399117988612794 
4.4200000000030375, -0.6397190428687217 
4.430000000003014, -0.6395013170056368 
4.440000000002991, -0.63923800857494 
4.450000000002968, -0.6389160847136894 
4.460000000002944, -0.6385338318665973 
4.470000000002921, -0.638100873745741 
4.480000000002898, -0.637637336961441 
4.490000000002874, -0.6371749695068666 
4.500000000002851, -0.636761764782616 
4.510000000002828, -0.6364705894829911 
4.520000000002804, -0.6364117074302227 
4.530000000002781, -0.6367484851092649 
4.540000000002758, -0.6377144013954288 
4.5500000000027345, -0.6396271109159493 
4.560000000002711, -0.6428905621595282 
4.570000000002688, -0.6479672657063704 
4.580000000002665, -0.6552898673472999 
4.590000000002641, -0.6650761593845282 
4.600000000002618, -0.6770547898496523 
4.610000000002595, -0.6902489898176771 
4.620000000002571, -0.7031142773488159 
4.630000000002548, -0.7141498974511158 
4.640000000002525, -0.7225569693843401 
4.6500000000025015, -0.7283759267485401 
4.660000000002478, -0.7321327623106888 
4.670000000002455, -0.7344371419350366 
4.6800000000024315, -0.7357788887615822 
4.690000000002408, -0.7364900174037663 
4.700000000002385, -0.7367731186594971 
4.710000000002362, -0.7367377765474232 
4.720000000002338, -0.7364255217648137 
4.730000000002315, -0.7358201240792097 
4.740000000002292, -0.7348434998204743 
4.750000000002268, -0.7333369032615596 
4.760000000002245, -0.7310278317078858 
4.770000000002222, -0.7274921250088231 
4.7800000000021985, -0.7221493098094693 
4.790000000002175, -0.7143785051045441 
4.800000000002152, -0.7038475924795293 
4.810000000002129, -0.690959477862648 
4.820000000002105, -0.6769931492967133 
4.830000000002082, -0.6636193098479973 
4.840000000002059, -0.6521528096560913 
4.850000000002035, -0.6431723369391797 
4.860000000002012, -0.6366263053906371 
4.870000000001989, -0.6321276222769125 
4.880000000001965, -0.6291951446368732 
4.890000000001942, -0.6273837538558432 
4.900000000001919, -0.626332996249088 
4.9100000000018955, -0.6257729427737562 
4.920000000001872, -0.6255120541498241 
4.930000000001849, -0.6254197074170812 
