t, s[1].omega / s[0].omega 
0, -1.0099973776045483 
0.009999999999999995, -1.009672910872375 
0.019999999999999934, -1.009459105992236 
0.029999999999999874, -1.0091563593975912 
0.04000000000000012, -1.008888114520504 
0.050000000000000405, -1.008626242231343 
0.06000000000000069, -1.008297251437435 
0.07000000000000098, -1.0080690768078215 
0.08000000000000126, -1.0077136398845132 
0.09000000000000155, -1.007482027514528 
0.10000000000000184, -1.0071434060938975 
0.11000000000000212, -1.0068606952301227 
0.12000000000000241, -1.0065669707255016 
0.130000000000002, -1.0062182613930883 
0.1400000000000009, -1.0059690148072102 
0.1499999999999998, -1.005586341437981 
0.1599999999999987, -1.00534287849128 
0.1699999999999976, -1.0049749199585196 
0.1799999999999965, -1.0046817491323816 
0.1899999999999954, -1.0043640348229539 
0.1999999999999943, -1.003999953363158 
0.2099999999999932, -1.0037364690577213 
0.2199999999999921, -1.003333151699586 
0.229999999999991, -1.0030828025490452 
0.2399999999999899, -1.002694528653148 
0.2499999999999888, -1.0023951453536668 
0.2599999999999877, -1.0020627593146132 
0.2699999999999866, -1.0016895121737797 
0.2799999999999855, -1.0014188049154078 
0.2899999999999844, -1.001004529304437 
0.2999999999999833, -1.0007516940486332 
0.3099999999999822, -1.0003549126614415 
0.3199999999999811, -1.0000537233118776 
0.32999999999998, -0.9997175797969893 
0.3399999999999789, -0.9993426824572963 
0.3499999999999778, -0.9990721529661334 
0.35999999999997667, -0.9986586138936736 
0.36999999999997557, -0.9984074218294594 
0.37999999999997447, -0.9980154258224433 
0.38999999999997337, -0.9977168964754989 
0.39999999999997227, -0.9973884520353062 
0.40999999999997117, -0.9970197832835207 
0.41999999999997006, -0.996756804594514 
0.42999999999996896, -0.99635571293546 
0.43999999999996786, -0.9961102502317826 
0.44999999999996676, -0.995735643889356 
0.45999999999996566, -0.9954442014419885 
0.46999999999996456, -0.9951339893319574 
0.47999999999996346, -0.9947787136692214 
0.48999999999996235, -0.9945301513577631 
0.49999999999996125, -0.9941512150660798 
0.5099999999999602, -0.9939157838063516 
0.519999999999959, -0.9935686847681613 
0.529999999999958, -0.9932886094071439 
0.5399999999999568, -0.993005360221358 
0.5499999999999557, -0.9926690535993296 
0.5599999999999546, -0.9924412907076045 
0.5699999999999535, -0.9920910725871042 
0.5799999999999524, -0.9918705562116957 
0.5899999999999513, -0.9915581754765989 
0.5999999999999502, -0.9912934903526567 
0.6099999999999491, -0.9910444962159571 
0.619999999999948, -0.9907306977686128 
0.6299999999999469, -0.9905305009648451 
0.6399999999999458, -0.9902125975035547 
0.6499999999999447, -0.9900129568293212 
0.6599999999999436, -0.989740799517969 
0.6699999999999425, -0.9894951899836892 
0.6799999999999414, -0.9892880528270074 
0.6899999999999403, -0.9889982653964998 
0.6999999999999392, -0.9888345827975324 
0.7099999999999381, -0.9885510378777205 
0.719999999999937, -0.9883799509385225 
0.7299999999999359, -0.9881543476788504 
0.7399999999999348, -0.9879311108623955 
0.7499999999999337, -0.9877768843748923 
0.7599999999999326, -0.9875109186479935 
0.7699999999999315, -0.9873976796680937 
0.7799999999999304, -0.9871513494068358 
0.7899999999999293, -0.9870190546743556 
0.7999999999999282, -0.9868508864585906 
0.8099999999999271, -0.9866527860131041 
0.819999999999926, -0.9865709848429066 
0.8299999999999249, -0.9863275858776059 
0.8399999999999238, -0.9862877961889537 
0.8499999999999227, -0.9860855794131878 
0.8599999999999216, -0.9860060152786904 
0.8699999999999205, -0.985916284672412 
0.8799999999999194, -0.9857449598809612 
0.8899999999999183, -0.985771798301886 
0.8999999999999172, -0.9855497429857031 
0.9099999999999161, -0.9856213569001826 
0.919999999999915, -0.9854785700986561 
0.9299999999999139, -0.9854707043127422 
0.9399999999999128, -0.9854996899268957 
0.9499999999999117, -0.9853540035728166 
0.9599999999999106, -0.9855558171983582 
0.9699999999999095, -0.98535600024148 
0.9799999999999084, -0.9855993808848968 
0.9899999999999073, -0.9855456439590206 
0.9999999999999062, -0.9856337430484231 
1.0099999999999052, -0.9858555179082118 
1.019999999999904, -0.9857284972978548 
1.029999999999903, -0.9862191860500806 
1.039999999999902, -0.9860477053740423 
1.0499999999999008, -0.986550399615662 
1.0599999999998997, -0.986635570290959 
1.0699999999998986, -0.9868438801522184 
1.0799999999998975, -0.987380507333414 
1.0899999999998964, -0.9872571781978007 
1.0999999999998953, -0.9882000239828413 
1.1099999999998942, -0.9880690711258278 
1.119999999999893, -0.9889295256562239 
1.129999999999892, -0.9892186595638892 
1.1399999999998909, -0.9895534470434701 
1.1499999999998898, -0.9905502226311987 
1.1599999999998887, -0.9904133956415749 
1.1699999999998876, -0.9919426087586921 
1.1799999999998865, -0.9918617391766434 
1.1899999999998854, -0.9931125254445532 
1.1999999999998843, -0.9936386790214085 
1.2099999999998832, -0.9940658986843355 
1.219999999999882, -0.9955454864130168 
1.229999999999881, -0.9953903451656794 
1.2399999999998799, -0.9974039205107741 
1.2499999999998788, -0.997360961616657 
1.2599999999998777, -0.9988466526386434 
1.2699999999998766, -0.9995176501689754 
1.2799999999998755, -0.9999710713404327 
1.2899999999998744, -1.0016384182538267 
1.2999999999998733, -1.0014773541927875 
1.3099999999998722, -1.0035310718612176 
1.319999999999871, -1.0034862126644992 
1.32999999999987, -1.0048853374539732 
1.3399999999998689, -1.0054885194455083 
1.3499999999998678, -1.005898187757045 
1.3599999999998666, -1.0072892410196057 
1.3699999999998655, -1.0071379891192587 
1.3799999999998644, -1.0087570581373837 
1.3899999999998633, -1.0086710272127195 
1.3999999999998622, -1.009729856852021 
1.4099999999998611, -1.010110996783952 
1.41999999999986, -1.0104186288601245 
1.429999999999859, -1.0113083867067594 
1.4399999999998578, -1.0111694971629488 
1.4499999999998567, -1.012200183563052 
1.4599999999998556, -1.01206175277043 
1.4699999999998545, -1.0127335256171601 
1.4799999999998534, -1.0128861551377926 
1.4899999999998523, -1.0130671390890644 
1.4999999999998512, -1.0135220642065084 
1.5099999999998501, -1.0133832599699368 
1.519999999999849, -1.0139357236833675 
1.529999999999848, -1.0137548575373696 
1.5399999999998468, -1.0141181280635674 
1.5499999999998457, -1.0141047331160638 
1.5599999999998446, -1.0141699271296374 
1.5699999999998435, -1.0143377346667255 
1.5799999999998424, -1.0141844644110218 
1.5899999999998413, -1.0144233044868296 
1.5999999999998402, -1.0142123465286392 
1.6099999999998391, -1.0143628653820191 
1.619999999999838, -1.0142424181915615 
1.629999999999837, -1.0142166353758515 
1.6399999999998358, -1.0142100070252436 
1.6499999999998347, -1.0140340946946091 
1.6599999999998336, -1.0140817656318244 
1.6699999999998325, -1.0138474489543943 
1.6799999999998314, -1.0138583789452273 
1.6899999999998303, -1.0136687865221927 
1.6999999999998292, -1.0135755118865963 
1.709999999999828, -1.0134610285618977 
1.719999999999827, -1.0132604085275208 
1.729999999999826, -1.0131906699552493 
1.7399999999998248, -1.012935008618327 
1.7499999999998237, -1.0128548425399813 
1.7599999999998226, -1.0126170313912761 
1.7699999999998215, -1.0124743586435345 
1.7799999999998204, -1.0122882176458365 
1.7899999999998193, -1.0120640676523796 
1.7999999999998182, -1.0119181771745935 
1.809999999999817, -1.01164115280029 
1.819999999999816, -1.0115003843941606 
1.8299999999998149, -1.0112248618504018 
1.8399999999998138, -1.011046097014075 
1.8499999999998127, -1.0108075950430633 
1.8599999999998116, -1.0105624175782504 
1.8699999999998105, -1.0103631867300567 
1.8799999999998094, -1.0100645897042875 
1.8899999999998083, -1.0098821489021794 
1.8999999999998072, -1.0095740178961146 
1.909999999999806, -1.0093690512511135 
1.919999999999805, -1.0090888731437402 
1.9299999999998039, -1.0088257190870458 
1.9399999999998028, -1.0085863879630876 
1.9499999999998017, -1.00826684727584 
1.9599999999998006, -1.0080548111789782 
1.9699999999997995, -1.0077172964774088 
1.9799999999997984, -1.0074937021119788 
1.9899999999997973, -1.0071789430612788 
1.9999999999997962, -1.0069012169800209 
2.0099999999998173, -1.0066307742833225 
2.0199999999998384, -1.0062923630344118 
2.0299999999998595, -1.0060591778176387 
2.0399999999998806, -1.0056960866654248 
2.0499999999999017, -1.0054598900693086 
2.059999999999923, -1.0051172718938015 
2.069999999999944, -1.0048287145492376 
2.079999999999965, -1.0045350918937386 
2.089999999999986, -1.0041816400730905 
2.100000000000007, -1.0039342316434925 
2.1100000000000283, -1.0035514638170016 
2.1200000000000494, -1.0033076815452606 
2.1300000000000705, -1.002945456877043 
2.1400000000000916, -1.0026501188090418 
2.1500000000001127, -1.002341902392292 
2.160000000000134, -1.0019789659179519 
2.170000000000155, -1.0017239423344462 
2.180000000000176, -1.0013299249092857 
2.190000000000197, -1.0010829573758295 
2.2000000000002182, -1.0007114647218631 
2.2100000000002393, -1.0004136238961967 
2.2200000000002604, -1.0001004924670982 
2.2300000000002815, -0.9997349087688763 
2.2400000000003026, -0.999478983026796 
2.2500000000003237, -0.9990839687656723 
2.260000000000345, -0.9988378977977961 
2.270000000000366, -0.9984687940226541 
2.280000000000387, -0.9981728342820302 
2.290000000000408, -0.9978649791979867 
2.3000000000004293, -0.9975040561616931 
2.3100000000004504, -0.9972539294728566 
2.3200000000004715, -0.9968684583882982 
2.3300000000004926, -0.9966272988548515 
2.3400000000005137, -0.9962719842971861 
2.3500000000005348, -0.9959822581384646 
2.360000000000556, -0.9956893640865252 
2.370000000000577, -0.9953399116736013 
2.380000000000598, -0.9951020283156883 
2.390000000000619, -0.9947352416470798 
2.4000000000006403, -0.9945032042947174 
2.4100000000006614, -0.9941713768729549 
2.4200000000006825, -0.9938920644845444 
2.4300000000007036, -0.9936226214827796 
2.4400000000007247, -0.9932901158918901 
2.450000000000746, -0.993070742398836 
2.460000000000767, -0.9927293177729735 
2.470000000000788, -0.992511130011409 
2.480000000000809, -0.992210320204385 
2.49000000000083, -0.9919452999606403 
2.5000000000008513, -0.991706841601496 
2.5100000000008724, -0.9913949440678873 
2.5200000000008935, -0.9912008858471933 
2.5300000000009146, -0.9908890535051537 
2.5400000000009357, -0.9906903620701372 
2.550000000000957, -0.9904267896423758 
2.560000000000978, -0.9901795412009559 
2.570000000000999, -0.9899800521731736 
2.58000000000102, -0.9896905480177093 
2.5900000000010412, -0.98953063404066 
2.6000000000010624, -0.9892513042212628 
2.6100000000010835, -0.9890791819779399 
2.6200000000011046, -0.9888598397889542 
2.6300000000011257, -0.9886333668338001 
2.6400000000011468, -0.9884839685239769 
2.650000000001168, -0.9882170749204272 
2.660000000001189, -0.9881044914223268 
2.67000000000121, -0.987861305857396 
2.680000000001231, -0.9877249120347531 
2.6900000000012523, -0.9875608275017655 
2.7000000000012734, -0.9873574860001056 
2.7100000000012945, -0.9872768021433056 
2.7200000000013156, -0.9870318123452682 
2.7300000000013367, -0.9869874845013128 
2.740000000001358, -0.9867877074001328 
2.750000000001379, -0.9866991536254528 
2.7600000000014, -0.986610345414531 
2.770000000001421, -0.9864312956637796 
2.780000000001442, -0.9864525218004029 
2.7900000000014633, -0.9862289389190053 
2.8000000000014844, -0.9862862453803726 
2.8100000000015055, -0.986144687429496 
2.8200000000015266, -0.98611996600335 
2.8300000000015477, -0.986143428931981 
2.840000000001569, -0.9859872682629516 
2.85000000000159, -0.98616930884241 
2.860000000001611, -0.9859688326461183 
2.870000000001632, -0.9861793760728363 
2.8800000000016532, -0.9861236287073937 
2.8900000000016743, -0.9861825552203802 
2.9000000000016954, -0.9863845451119624 
2.9100000000017165, -0.9862449784719406 
2.9200000000017377, -0.9866864533309385 
2.9300000000017588, -0.9865156807136534 
2.94000000000178, -0.9869528188279996 
2.950000000001801, -0.9870286102791862 
2.960000000001822, -0.9871904202854687 
2.970000000001843, -0.987678456356636 
2.9800000000018643, -0.9875428502445798 
2.9900000000018854, -0.9883840515013539 
3.0000000000019065, -0.9882552058242594 
3.0100000000019276, -0.9890020323080289 
3.0200000000019487, -0.9892699702301837 
3.03000000000197, -0.9895397288811949 
3.040000000001991, -0.9904449651831245 
3.050000000002012, -0.9902988270491158 
3.060000000002033, -0.9916637288125525 
3.070000000002054, -0.991587271964367 
3.0800000000020753, -0.9926801074526015 
3.0900000000020964, -0.9931783859976068 
3.1000000000021175, -0.9935300951566756 
3.1100000000021386, -0.9948946978840566 
3.1200000000021597, -0.9947327051963817 
3.130000000002181, -0.9965667214573337 
3.140000000002202, -0.9965339478244759 
3.150000000002223, -0.9978646104662315 
3.160000000002244, -0.9985268878098513 
3.1700000000022652, -0.9989085758740736 
3.1800000000022863, -1.000510682813965 
3.1900000000023074, -1.0003413182215612 
3.2000000000023285, -1.0022932265660454 
3.2100000000023496, -1.0022670568874779 
3.2200000000023707, -1.0035749590193361 
3.230000000002392, -1.004210870628732 
3.240000000002413, -1.004566951259843 
3.250000000002434, -1.0059881089579334 
3.260000000002455, -1.0058246099968964 
3.2700000000024763, -1.0074530810008215 
3.2800000000024974, -1.0073905062009978 
3.2900000000025185, -1.0084329680819974 
3.3000000000025396, -1.0088733417255729 
3.3100000000025607, -1.0091538409825818 
3.3200000000025818, -1.010128105082162 
3.330000000002603, -1.0099756910470024 
3.340000000002624, -1.0110770168209329 
3.350000000002645, -1.010959638805516 
3.360000000002666, -1.0116570989346476 
3.3700000000026873, -1.0118677979126227 
3.3800000000027084, -1.0120433026948827 
3.3900000000027295, -1.0125824886120531 
3.4000000000027506, -1.0124336744758569 
3.4100000000027717, -1.0130635645456394 
3.420000000002793, -1.0128977743567942 
3.430000000002814, -1.013298567126002 
3.440000000002835, -1.0133302831457087 
3.450000000002856, -1.0134013729391842 
3.460000000002877, -1.0136336508453367 
3.4700000000028983, -1.0134757519571507 
3.4800000000029194, -1.0137770619801445 
3.4900000000029405, -1.0135761232576723 
3.5000000000029616, -1.0137623637262123 
3.5100000000029827, -1.0136745891727954 
3.520000000003004, -1.013658962685898 
3.530000000003025, -1.0136986447748786 
3.540000000003046, -1.0135225163490262 
3.550000000003067, -1.013616442646423 
3.5600000000030882, -1.013389583226079 
3.5700000000031094, -1.0134306297999476 
3.5800000000031305, -1.0132651409022344 
3.5900000000031516, -1.0131830038127279 
3.6000000000031727, -1.0131027958576313 
3.6100000000031938, -1.0129047588191906 
3.620000000003215, -1.0128696668599755 
3.630000000003236, -1.0126209178465175 
3.640000000003257, -1.012565350910838 
3.650000000003278, -1.0123467473076422 
3.6600000000032993, -1.012214913805613 
3.6700000000033204, -1.0120561682309104 
3.6800000000033415, -1.0118361687121213 
3.6900000000033626, -1.0117179457113505 
3.7000000000033837, -1.0114484010174503 
3.710000000003405, -1.01132803034164 
3.720000000003426, -1.0110695998872545 
3.730000000003447, -1.010900894885946 
3.740000000003468, -1.0106864661489807 
3.750000000003489, -1.0104462271523804 
3.7600000000035103, -1.0102710787609102 
3.7700000000035314, -1.009980965803347 
3.7800000000035525, -1.0098161932859546 
3.7900000000035736, -1.0095249204348826 
3.8000000000035947, -1.0093290704928892 
3.810000000003616, -1.0090719415030984 
3.820000000003637, -1.0088140134154298 
3.830000000003658, -1.0085973706205422 
3.840000000003679, -1.008287328164696 
3.8500000000037002, -1.0080914339178038 
3.8600000000037213, -1.0077715855704563 
3.8700000000037424, -1.0075561455675113 
3.8800000000037635, -1.0072647042251934 
3.8900000000037847, -1.0069921304011389 
3.9000000000038058, -1.0067441595655546 
3.910000000003827, -1.0064159816050056 
3.920000000003848, -1.0061981731375644 
3.930000000003869, -1.0058537981343576 
3.94000000000389, -1.0056248382537691 
3.9500000000039113, -1.0053061780141537 
3.9600000000039324, -1.005022412320675 
3.9700000000039535, -1.0047513445837397 
3.9800000000039746, -1.0044083707087783 
3.9900000000039957, -1.0041758402027938 
4.000000000004016, -1.003812354757899 
4.010000000003993, -1.003574946995356 
4.02000000000397, -1.0032368442925417 
4.030000000003946, -1.0029457097607217 
4.040000000003923, -1.0026597023674302 
4.0500000000039, -1.002306864405446 
4.0600000000038765, -1.002066046707148 
4.070000000003853, -1.0016908637301403 
4.08000000000383, -1.0014494405101722 
4.090000000003807, -1.0011011407039985 
4.100000000003783, -1.000806746867811 
4.11000000000376, -1.0005145862515679 
4.120000000003737, -1.0001580722160353 
4.130000000003713, -0.9999152351727028 
4.14000000000369, -0.9995374000995074 
4.150000000003667, -0.9992960389654111 
4.1600000000036434, -0.998947917564224 
4.17000000000362, -0.998654528646198 
4.180000000003597, -0.9983654296720255 
4.1900000000035735, -0.9980120006117638 
4.20000000000355, -0.9977733568718233 
4.210000000003527, -0.9974024048752667 
4.220000000003504, -0.9971650795740988 
4.23000000000348, -0.9968275490576264 
4.240000000003457, -0.9965394231900985 
4.250000000003434, -0.9962623686590958 
4.26000000000341, -0.9959184949666201 
4.270000000003387, -0.9956901434377968 
4.280000000003364, -0.9953347120578289 
4.2900000000033405, -0.9951055452305371 
4.300000000003317, -0.994787912578463 
4.310000000003294, -0.9945091348825794 
4.320000000003271, -0.9942523594998863 
4.330000000003247, -0.9939234270675883 
4.340000000003224, -0.9937114831199226 
4.350000000003201, -0.9933783320178802 
4.360000000003177, -0.9931618773877331 
4.370000000003154, -0.9928718723219491 
4.380000000003131, -0.9926062042507947 
4.390000000003107, -0.992377353085631 
4.400000000003084, -0.9920671578563792 
4.410000000003061, -0.9918783538635928 
4.4200000000030375, -0.9915722506359659 
4.430000000003014, -0.9913738238227373 
4.440000000002991, -0.9911181893386668 
4.450000000002968, -0.9908689512515515 
4.460000000002944, -0.9906762096036323 
4.470000000002921, -0.9903868402909918 
4.480000000002898, -0.9902297452937479 
4.490000000002874, -0.9899543355527737 
4.500000000002851, -0.9897804163439331 
4.510000000002828, -0.9895666060788483 
4.520000000002804, -0.9893365756041403 
4.530000000002781, -0.9891909412609317 
4.540000000002758, -0.9889230435398302 
4.5500000000027345, -0.9888099876234464 
4.560000000002711, -0.9885695461391925 
4.570000000002688, -0.988428290908027 
4.580000000002665, -0.9882672923866649 
4.590000000002641, -0.9880585202238326 
4.600000000002618, -0.9879775590298471 
4.610000000002595, -0.9877309708350558 
4.620000000002571, -0.9876808077812461 
4.630000000002548, -0.9874827966280069 
4.640000000002525, -0.9873846858513923 
4.6500000000025015, -0.9872953777695771 
4.660000000002478, -0.9871087005831557 
4.670000000002455, -0.9871225439281305 
4.6800000000024315, -0.9868974187039541 
4.690000000002408, -0.9869392827763217 
4.700000000002385, -0.9867978455945582 
4.710000000002362, -0.986756313084441 
4.720000000002338, -0.9867723651554686 
4.730000000002315, -0.9866063034603434 
4.740000000002292, -0.9867668232220486 
4.750000000002268, -0.9865654832708817 
4.760000000002245, -0.9867432472465852 
4.770000000002222, -0.9866838452485355 
4.7800000000021985, -0.9867150399843675 
4.790000000002175, -0.9868952651477624 
4.800000000002152, -0.9867442776488273 
4.810000000002129, -0.9871363519759535 
4.820000000002105, -0.9869656625030299 
4.830000000002082, -0.9873406175769537 
4.840000000002059, -0.9874048730573388 
4.850000000002035, -0.9875240947691721 
4.860000000002012, -0.9879627050749528 
4.870000000001989, -0.9878162278819608 
4.880000000001965, -0.9885600229316273 
4.890000000001942, -0.9884320899943729 
4.900000000001919, -0.9890743439992574 
4.9100000000018955, -0.9893183304235942 
4.920000000001872, -0.9895298048247959 
4.930000000001849, -0.9903446963467981 
