t, s[1].omega / s[0].omega 
0, -1.2999400566537322 
0.009999999999999995, -1.2931497077274794 
0.019999999999999934, -1.2850651653440823 
0.029999999999999874, -1.2765950291544503 
0.04000000000000012, -1.2691916195289914 
0.050000000000000405, -1.2641869537983317 
0.06000000000000069, -1.2618876935943069 
0.07000000000000098, -1.2614867519653161 
0.08000000000000126, -1.2618897576397972 
0.09000000000000155, -1.2623793320912873 
0.10000000000000184, -1.2626614575358936 
0.11000000000000212, -1.2626571315634483 
0.12000000000000241, -1.2623357551266898 
0.130000000000002, -1.261626550662827 
0.1400000000000009, -1.2603623317641413 
0.1499999999999998, -1.2582251398679989 
0.1599999999999987, -1.254714598550359 
0.1699999999999976, -1.2492810182641798 
0.1799999999999965, -1.2419653609725154 
0.1899999999999954, -1.2347194546265685 
0.1999999999999943, -1.2319460055728397 
0.2099999999999932, -1.2373768434519694 
0.2199999999999921, -1.2495126242537302 
0.229999999999991, -1.262887253892519 
0.2399999999999899, -1.2733986818015288 
0.2499999999999888, -1.2801800405571895 
0.2599999999999877, -1.284067927990424 
0.2699999999999866, -1.2861125264556352 
0.2799999999999855, -1.287064829998106 
0.2899999999999844, -1.287365921098949 
0.2999999999999833, -1.2872497947665713 
0.3099999999999822, -1.2868361224626106 
0.3199999999999811, -1.2862082037492213 
0.32999999999998, -1.2855038678599269 
0.3399999999999789, -1.285028018800732 
0.3499999999999778, -1.2853002950463224 
0.35999999999997667, -1.2868567813658025 
0.36999999999997557, -1.289840557717139 
0.37999999999997447, -1.2938293054193595 
0.38999999999997337, -1.2981258392707864 
0.39999999999997227, -1.3021378032060393 
0.40999999999997117, -1.3055229181227754 
0.41999999999997006, -1.3081508329945228 
0.42999999999996896, -1.310024689012941 
0.43999999999996786, -1.3112216714025484 
0.44999999999996676, -1.311853511027074 
0.45999999999996566, -1.312038807480548 
0.46999999999996456, -1.3118862737656964 
0.47999999999996346, -1.3114913147441574 
0.48999999999996235, -1.3109447624052113 
0.49999999999996125, -1.3103452092627998 
0.5099999999999602, -1.3097996521225581 
0.519999999999959, -1.3094026513533328 
0.529999999999958, -1.3092073834504832 
0.5399999999999568, -1.3092132919055997 
0.5499999999999557, -1.3093731782785316 
0.5599999999999546, -1.3096074621193785 
0.5699999999999535, -1.3098223643518632 
0.5799999999999524, -1.309928253835528 
0.5899999999999513, -1.309848323022381 
0.5999999999999502, -1.3095162677744745 
0.6099999999999491, -1.3088714303346343 
0.619999999999948, -1.3078584613902091 
0.6299999999999469, -1.3064322062586187 
0.6399999999999458, -1.3045654324180869 
0.6499999999999447, -1.302259280087838 
0.6599999999999436, -1.2995608106047747 
0.6699999999999425, -1.2965927829224613 
0.6799999999999414, -1.2935893851283207 
0.6899999999999403, -1.290898832646132 
0.6999999999999392, -1.28888330901067 
0.7099999999999381, -1.287718384714626 
0.719999999999937, -1.2872725365461182 
0.7299999999999359, -1.2872218443752752 
0.7399999999999348, -1.2872598088572846 
0.7499999999999337, -1.2871903491014813 
0.7599999999999326, -1.286894212480452 
0.7699999999999315, -1.2862549894646362 
0.7799999999999304, -1.285084400351706 
0.7899999999999293, -1.283039788785439 
0.7999999999999282, -1.2795241119513152 
0.8099999999999271, -1.273607094014665 
0.819999999999926, -1.264138072799652 
0.8299999999999249, -1.2504027843294425 
0.8399999999999238, -1.2334870377933032 
0.8499999999999227, -1.2171968032631248 
0.8599999999999216, -1.2062059667539422 
0.8699999999999205, -1.2022166163265369 
0.8799999999999194, -1.2030702699997453 
0.8899999999999183, -1.205611980773925 
0.8999999999999172, -1.2079625200777457 
0.9099999999999161, -1.2095637733696636 
0.919999999999915, -1.2104593466780826 
0.9299999999999139, -1.2108217567870279 
0.9399999999999128, -1.2107822816550262 
0.9499999999999117, -1.2103959358087941 
0.9599999999999106, -1.2096431161666241 
0.9699999999999095, -1.2084423763921557 
0.9799999999999084, -1.2066998535846547 
0.9899999999999073, -1.2044802212205692 
0.9999999999999062, -1.202418583256415 
1.0099999999999052, -1.2022571175127943 
1.019999999999904, -1.2066312975783176 
1.029999999999903, -1.2171160068610047 
1.039999999999902, -1.2320902930279682 
1.0499999999999008, -1.2476030889161822 
1.0599999999998997, -1.260372096482429 
1.0699999999998986, -1.2692976420153275 
1.0799999999998975, -1.2748620089776002 
1.0899999999998964, -1.2780465741119829 
1.0999999999998953, -1.2797184775611827 
1.1099999999998942, -1.280470196009413 
1.119999999999893, -1.2806586262165114 
1.129999999999892, -1.2804874453573636 
1.1399999999998909, -1.2800827833177928 
1.1499999999998898, -1.2795614111606142 
1.1599999999998887, -1.2790945787330052 
1.1699999999998876, -1.2789373940420057 
1.1799999999998865, -1.2793601827480547 
1.1899999999998854, -1.2804880085831427 
1.1999999999998843, -1.2822038633979291 
1.2099999999998832, -1.284229041225271 
1.219999999999882, -1.2862772566833278 
1.229999999999881, -1.2881420561068793 
1.2399999999998799, -1.289703992649225 
1.2499999999998788, -1.2909065297384605 
1.2599999999998777, -1.2917328825039918 
1.2699999999998766, -1.292191771444259 
1.2799999999998755, -1.2923096999518175 
1.2899999999998744, -1.2921258673877756 
1.2999999999998733, -1.291688467255237 
1.3099999999998722, -1.2910539811793353 
1.319999999999871, -1.2902903004572273 
1.32999999999987, -1.2894796257661774 
1.3399999999998689, -1.2887136684089116 
1.3499999999998678, -1.2880788621383175 
1.3599999999998666, -1.2876377620718442 
1.3699999999998655, -1.2874113864816097 
1.3799999999998644, -1.2873662337583585 
1.3899999999998633, -1.2874190638974103 
1.3999999999998622, -1.287463661021231 
1.4099999999998611, -1.2873978800717427 
1.41999999999986, -1.2871305350538043 
1.429999999999859, -1.2865717570438995 
1.4399999999998578, -1.285622225092663 
1.4499999999998567, -1.2841724445109928 
1.4599999999998556, -1.2821152863965404 
1.4699999999998545, -1.2793690314905326 
1.4799999999998534, -1.2759074980614595 
1.4899999999998523, -1.2717998829799415 
1.4999999999998512, -1.2672658650461925 
1.5099999999998501, -1.262727982264821 
1.519999999999849, -1.2587809173344298 
1.529999999999848, -1.2559729975408858 
1.5399999999998468, -1.2544792034041259 
1.5499999999998457, -1.2540026321176119 
1.5599999999998446, -1.2540385051064364 
1.5699999999998435, -1.2541800700749393 
1.5799999999998424, -1.2542043149204782 
1.5899999999998413, -1.2540018356051266 
1.5999999999998402, -1.253483093689618 
1.6099999999998391, -1.2525019986838575 
1.619999999999838, -1.2507805138027976 
1.629999999999837, -1.2478133561338534 
1.6399999999998358, -1.2427681902695373 
1.6499999999998347, -1.2345106657034002 
1.6599999999998336, -1.2220986935341338 
1.6699999999998325, -1.2060924430693913 
1.6799999999998314, -1.1898884675351815 
1.6899999999998303, -1.1785132092574064 
1.6999999999998292, -1.174537159361713 
1.709999999999828, -1.1761531327419141 
1.719999999999827, -1.1798287926999946 
1.729999999999826, -1.18321984499048 
1.7399999999998248, -1.1855828008721248 
1.7499999999998237, -1.1869831428787756 
1.7599999999998226, -1.1876782497513312 
1.7699999999998215, -1.1878800178738778 
1.7799999999998204, -1.187708041634918 
1.7899999999998193, -1.1871976931899437 
1.7999999999998182, -1.1863163492881923 
1.809999999999817, -1.184991979224289 
1.819999999999816, -1.1832004413859432 
1.8299999999998149, -1.181204279940643 
1.8399999999998138, -1.179993578363149 
1.8499999999998127, -1.1815882481848838 
1.8599999999998116, -1.1882566899787017 
1.8699999999998105, -1.2004505080091894 
1.8799999999998094, -1.2156979135712283 
1.8899999999998083, -1.2302965816590494 
1.8999999999998072, -1.2417771715483386 
1.909999999999806, -1.2496072819075281 
1.919999999999805, -1.254426403384712 
1.9299999999998039, -1.257159222003084 
1.9399999999998028, -1.2585713302762906 
1.9499999999998017, -1.259174551704408 
1.9599999999998006, -1.2592752714639603 
1.9699999999997995, -1.2590497722614227 
1.9799999999997984, -1.2586129405830564 
1.9899999999997973, -1.2580828033519953 
1.9999999999997962, -1.257641328243299 
2.0099999999998173, -1.2575563988427563 
2.0199999999998384, -1.2581019839267717 
2.0299999999998595, -1.2593935056651395 
2.0399999999998806, -1.261298309770283 
2.0499999999999017, -1.2635232187378793 
2.059999999999923, -1.2657698407754956 
2.069999999999944, -1.2678217504342852 
2.079999999999965, -1.269552073244947 
2.089999999999986, -1.2708997760979561 
2.100000000000007, -1.2718468268076424 
2.1100000000000283, -1.2724041351979278 
2.1200000000000494, -1.2726033289484207 
2.1300000000000705, -1.2724902187187142 
2.1400000000000916, -1.2721192797113021 
2.1500000000001127, -1.2715516660308332 
2.160000000000134, -1.2708580693501812 
2.170000000000155, -1.2701221254154504 
2.180000000000176, -1.2694357298103385 
2.190000000000197, -1.2688827735166108 
2.2000000000002182, -1.2685194450391566 
2.2100000000002393, -1.268360358969247 
2.2200000000002604, -1.26837232314054 
2.2300000000002815, -1.2684799998395424 
2.2400000000003026, -1.2685867683520717 
2.2500000000003237, -1.2685980402598176 
2.260000000000345, -1.2684307769395198 
2.270000000000366, -1.2680093185129306 
2.280000000000387, -1.2672590063942493 
2.290000000000408, -1.266106549100811 
2.3000000000004293, -1.264488489766876 
2.3100000000004504, -1.2623640241245353 
2.3200000000004715, -1.2597291340009131 
2.3300000000004926, -1.2566345042676514 
2.3400000000005137, -1.2532129928258824 
2.3500000000005348, -1.2497130859376768 
2.360000000000556, -1.2465046295975966 
2.370000000000577, -1.2439915429183792 
2.380000000000598, -1.2424167843563567 
2.390000000000619, -1.2417090037658407 
2.4000000000006403, -1.2415517339272388 
2.4100000000006614, -1.2415984022590505 
2.4200000000006825, -1.2416090123865313 
2.4300000000007036, -1.241446654968225 
2.4400000000007247, -1.241011743528627 
2.450000000000746, -1.2401727029167091 
2.460000000000767, -1.2386986965583444 
2.470000000000788, -1.2361819910486287 
2.480000000000809, -1.2319558916977091 
2.49000000000083, -1.2250787260462705 
2.5000000000008513, -1.2145746393845829 
2.5100000000008724, -1.2001803537689442 
2.5200000000008935, -1.1834416349401202 
2.5300000000009146, -1.1679505992249817 
2.5400000000009357, -1.1574027709196482 
2.550000000000957, -1.152884872720168 
2.560000000000978, -1.1526302757300897 
2.570000000000999, -1.1541427822475934 
2.58000000000102, -1.1558163792795733 
2.5900000000010412, -1.157050237503115 
2.6000000000010624, -1.157768359352452 
2.6100000000010835, -1.1580514016126773 
2.6200000000011046, -1.1579763117921031 
2.6300000000011257, -1.157565306553888 
2.6400000000011468, -1.156768396423041 
2.650000000001168, -1.1554490037089253 
2.660000000001189, -1.1533761911965896 
2.67000000000121, -1.150273336403107 
2.680000000001231, -1.1460547188007564 
2.6900000000012523, -1.141419214340175 
2.7000000000012734, -1.13859099394295 
2.7100000000012945, -1.1409541255132667 
2.7200000000013156, -1.1504168331452806 
2.7300000000013367, -1.1648609459434405 
2.740000000001358, -1.1796228991808917 
2.750000000001379, -1.1912708443773532 
2.7600000000014, -1.19901983318905 
2.770000000001421, -1.2036399903038706 
2.780000000001442, -1.2061888335047692 
2.7900000000014633, -1.2074765675184762 
2.8000000000014844, -1.208006717140092 
2.8100000000015055, -1.2080592144952893 
2.8200000000015266, -1.2077771361522305 
2.8300000000015477, -1.2072334142033487 
2.840000000001569, -1.2064956448382151 
2.85000000000159, -1.2057184062720379 
2.860000000001611, -1.2052687587170106 
2.870000000001632, -1.2057907522134488 
2.8800000000016532, -1.2080027237698137 
2.8900000000016743, -1.2122083897244025 
2.9000000000016954, -1.2179784326479424 
2.9100000000017165, -1.224387525995939 
2.9200000000017377, -1.230515085608233 
2.9300000000017588, -1.235749752816871 
2.94000000000178, -1.2398256244247263 
2.950000000001801, -1.2427363622233845 
2.960000000001822, -1.2446302209632472 
2.970000000001843, -1.2457189143667675 
2.9800000000018643, -1.2462117678185425 
2.9900000000018854, -1.2462814836402867 
3.0000000000019065, -1.2460592413708156 
3.0100000000019276, -1.2456502682718333 
3.0200000000019487, -1.245159080256451 
3.03000000000197, -1.2447094730628645 
3.040000000001991, -1.244438013103898 
3.050000000002012, -1.2444515596463046 
3.060000000002033, -1.2447789113805847 
3.070000000002054, -1.2453632492504485 
3.0800000000020753, -1.2460977041656152 
3.0900000000020964, -1.2468669285072427 
3.1000000000021175, -1.2475714953632533 
3.1100000000021386, -1.2481364036567648 
3.1200000000021597, -1.2485105031755082 
3.130000000002181, -1.2486619181940244 
3.140000000002202, -1.2485731793051396 
3.150000000002223, -1.248237976122527 
3.160000000002244, -1.2476598970490578 
3.1700000000022652, -1.246853057859067 
3.1800000000022863, -1.2458446482371806 
3.1900000000023074, -1.2446792623070864 
3.2000000000023285, -1.2434236754606314 
3.2100000000023496, -1.2421688660493875 
3.2200000000023707, -1.2410248269919175 
3.230000000002392, -1.2401023902608643 
3.240000000002413, -1.2394777167540756 
3.250000000002434, -1.2391522810196607 
3.260000000002455, -1.239043610995401 
3.2700000000024763, -1.2390222069351784 
3.2800000000024974, -1.238959719564621 
3.2900000000025185, -1.2387481709688524 
3.3000000000025396, -1.2382878245216316 
3.3100000000025607, -1.2374635620715617 
3.3200000000025818, -1.2361269710542613 
3.330000000002603, -1.2340953085411268 
3.340000000002624, -1.231175470561155 
3.350000000002645, -1.2272151395787558 
3.360000000002666, -1.2221745872384118 
3.3700000000026873, -1.216209276175803 
3.3800000000027084, -1.2097483998893257 
3.3900000000027295, -1.2035158808777457 
3.4000000000027506, -1.1983770763707207 
3.4100000000027717, -1.1949569911804763 
3.420000000002793, -1.193280558105258 
3.430000000002814, -1.1928281716673899 
3.440000000002835, -1.1929478171526586 
3.450000000002856, -1.1931767590284925 
3.460000000002877, -1.193283686171312 
3.4700000000028983, -1.1931697210761198 
3.4800000000029194, -1.1927677663949856 
3.4900000000029405, -1.1919715414959113 
3.5000000000029616, -1.1905742693218417 
3.5100000000029827, -1.1881935797720167 
3.520000000003004, -1.184180232647304 
3.530000000003025, -1.1775718395830563 
3.540000000003046, -1.167293708953568 
3.550000000003067, -1.1529318494051117 
3.5600000000030882, -1.1360072481211085 
3.5700000000031094, -1.1203754574716212 
3.5800000000031305, -1.1100875713127751 
3.5900000000031516, -1.1063112245403588 
3.6000000000031727, -1.1070546399142402 
3.6100000000031938, -1.1095357254796743 
3.620000000003215, -1.1119840407411912 
3.630000000003236, -1.1137713479164733 
3.640000000003257, -1.1148667878898386 
3.650000000003278, -1.1154134142161194 
3.6600000000032993, -1.1155452732910311 
3.6700000000033204, -1.1153354583432573 
3.6800000000033415, -1.1147866503428385 
3.6900000000033626, -1.1138257874082695 
3.7000000000033837, -1.1122949694222264 
3.710000000003405, -1.109956426498123 
3.720000000003426, -1.1065749198158383 
3.730000000003447, -1.102208363328257 
3.740000000003468, -1.0978040081155043 
3.750000000003489, -1.095724551622634 
3.7600000000035103, -1.099005333966368 
3.7700000000035314, -1.1088202826807378 
3.7800000000035525, -1.122727297407271 
3.7900000000035736, -1.1364788583338417 
3.8000000000035947, -1.1472031027859146 
3.810000000003616, -1.1543435822843766 
3.820000000003637, -1.1586337225072783 
3.830000000003658, -1.1610259733219206 
3.840000000003679, -1.162248256662489 
3.8500000000037002, -1.162755910740579 
3.8600000000037213, -1.162802818123174 
3.8700000000037424, -1.162515270397541 
3.8800000000037635, -1.1619472826152826 
3.8900000000037847, -1.161132555008214 
3.9000000000038058, -1.1601647535163537 
3.910000000003827, -1.1593382726374437 
3.920000000003848, -1.1593178403838922 
3.930000000003869, -1.1611308638519402 
3.94000000000389, -1.1656997511336467 
3.9500000000039113, -1.1730946245398597 
3.9600000000039324, -1.182281730179995 
3.9700000000039535, -1.1916946761712688 
3.9800000000039746, -1.2000140117182894 
3.9900000000039957, -1.2065491208326706 
4.000000000004016, -1.2111984183020263 
4.010000000003993, -1.2142225836103084 
4.02000000000397, -1.2160133879386288 
4.030000000003946, -1.2169406477448832 
4.040000000003923, -1.2172877652803167 
4.0500000000039, -1.2172484290628993 
4.0600000000038765, -1.216953003615414 
4.070000000003853, -1.216506371957367 
4.08000000000383, -1.2160285363310903 
4.090000000003807, -1.2156828557463597 
4.100000000003783, -1.215661364145404 
4.11000000000376, -1.2161112233522133 
4.120000000003737, -1.2170525633513498 
4.130000000003713, -1.2183693257047996 
4.14000000000369, -1.2198772223003185 
4.150000000003667, -1.2213986847060794 
4.1600000000036434, -1.2227990971564107 
4.17000000000362, -1.2239899283136144 
4.180000000003597, -1.2249188474926638 
4.1900000000035735, -1.2255592502777148 
4.20000000000355, -1.2259035610371192 
4.210000000003527, -1.2259600858564166 
4.220000000003504, -1.2257512480703414 
4.23000000000348, -1.2253118213622298 
4.240000000003457, -1.224688037777757 
4.250000000003434, -1.2239389503976812 
4.26000000000341, -1.2231382792979109 
4.270000000003387, -1.2223710887640862 
4.280000000003364, -1.2217213134296494 
4.2900000000033405, -1.221253739084245 
4.300000000003317, -1.2209975260885197 
4.310000000003294, -1.220935584399871 
4.320000000003271, -1.2210055587627169 
4.330000000003247, -1.2211171188432082 
4.340000000003224, -1.2211761862261852 
4.350000000003201, -1.2210994095344143 
4.360000000003177, -1.220814395557309 
4.370000000003154, -1.220254410422347 
4.380000000003131, -1.2193570925273234 
4.390000000003107, -1.2180701745662132 
4.400000000003084, -1.2163610916495382 
4.410000000003061, -1.2142259935209991 
4.4200000000030375, -1.2116976200917253 
4.430000000003014, -1.2088561584872586 
4.440000000002991, -1.205846103385953 
4.450000000002968, -1.2028913600484183 
4.460000000002944, -1.2002813785861595 
4.470000000002921, -1.1982927036192375 
4.480000000002898, -1.1970583891819162 
4.490000000002874, -1.1964892434098262 
4.500000000002851, -1.1963378557989357 
4.510000000002828, -1.1963407437438833 
4.520000000002804, -1.1963059495039732 
4.530000000002781, -1.196110869855202 
4.540000000002758, -1.1956560525963005 
4.5500000000027345, -1.1948131417864278 
4.560000000002711, -1.193375544262766 
4.570000000002688, -1.191012105055564 
4.580000000002665, -1.1872400125148763 
4.590000000002641, -1.1814667796911984 
4.600000000002618, -1.1731788069401279 
4.610000000002595, -1.1623153531382253 
4.620000000002571, -1.14969917933368 
4.630000000002548, -1.1371500478330439 
4.640000000002525, -1.1268746488087915 
4.6500000000025015, -1.120295063780174 
4.660000000002478, -1.1173050504177264 
4.670000000002455, -1.1166913238268172 
4.6800000000024315, -1.117132466646303 
4.690000000002408, -1.1177831410567012 
4.700000000002385, -1.118274352368083 
4.710000000002362, -1.11849971844739 
4.720000000002338, -1.1184424697782798 
4.730000000002315, -1.1180831604480954 
4.740000000002292, -1.1173510792840722 
4.750000000002268, -1.1160830937672763 
4.760000000002245, -1.1139685475813814 
4.770000000002222, -1.1104777796105876 
4.7800000000021985, -1.104817038251245 
4.790000000002175, -1.0960564852553998 
4.800000000002152, -1.0836921087911502 
4.810000000002129, -1.068684892185912 
4.820000000002105, -1.0540628144572395 
4.830000000002082, -1.0435845193073057 
4.840000000002059, -1.0390569641921554 
4.850000000002035, -1.0393321777302806 
4.860000000002012, -1.041904142819449 
4.870000000001989, -1.0447930385920647 
4.880000000001965, -1.0470979327359788 
4.890000000001942, -1.0486454811587325 
4.900000000001919, -1.0495492452206252 
4.9100000000018955, -1.0499667130990624 
4.920000000001872, -1.0500118835918761 
4.930000000001849, -1.049735069538742 
4.940000000001826, -1.0491183999290867 
