t, s[1].omega / s[0].omega 
0, -0.6799683284096644 
0.009999999999999995, -0.6768440006169419 
0.019999999999999934, -0.6739009133504361 
0.029999999999999874, -0.6712353465202296 
0.04000000000000012, -0.6688906727142532 
0.050000000000000405, -0.6668772775888353 
0.06000000000000069, -0.6651898757866894 
0.07000000000000098, -0.6638176251502823 
0.08000000000000126, -0.662747964816322 
0.09000000000000155, -0.661966785714948 
0.10000000000000184, -0.6614573310687596 
0.11000000000000212, -0.6611994467371416 
0.12000000000000241, -0.6611699736973479 
0.130000000000002, -0.6613443623730962 
0.1400000000000009, -0.661699088350809 
0.1499999999999998, -0.6622142084560136 
0.1599999999999987, -0.6628753302406777 
0.1699999999999976, -0.663674173458846 
0.1799999999999965, -0.6646066610619544 
0.1899999999999954, -0.6656673706979118 
0.1999999999999943, -0.6668400124748967 
0.2099999999999932, -0.6680862225053363 
0.2199999999999921, -0.6693389139162998 
0.229999999999991, -0.6705082810396807 
0.2399999999999899, -0.6715030227930562 
0.2499999999999888, -0.6722570069544872 
0.2599999999999877, -0.6727446714348801 
0.2699999999999866, -0.6729771458136056 
0.2799999999999855, -0.6729860375186845 
0.2899999999999844, -0.6728070750421405 
0.2999999999999833, -0.6724705866062021 
0.3099999999999822, -0.6719996085569377 
0.3199999999999811, -0.6714144269622759 
0.32999999999998, -0.67074371456936 
0.3399999999999789, -0.6700450205766456 
0.3499999999999778, -0.6694396659501587 
0.35999999999997667, -0.6691667510704915 
0.36999999999997557, -0.6696520409259634 
0.37999999999997447, -0.6715582231430426 
0.38999999999997337, -0.6757240142725314 
0.39999999999997227, -0.6828489929410206 
0.40999999999997117, -0.6929041095068849 
0.41999999999997006, -0.704699756171329 
0.42999999999996896, -0.7163078064808495 
0.43999999999996786, -0.7261652385800164 
0.44999999999996676, -0.7337071877946518 
0.45999999999996566, -0.739120763570174 
0.46999999999996456, -0.7428590310939007 
0.47999999999996346, -0.745367142156557 
0.48999999999996235, -0.7469999711877259 
0.49999999999996125, -0.7480163639452108 
0.5099999999999602, -0.7485936889154013 
0.519999999999959, -0.7488446507223959 
0.529999999999958, -0.7488305706705057 
0.5399999999999568, -0.748568972539284 
0.5499999999999557, -0.7480347317900201 
0.5599999999999546, -0.7471550784976788 
0.5699999999999535, -0.7458010296882801 
0.5799999999999524, -0.7437836817449315 
0.5899999999999513, -0.7408740625687417 
0.5999999999999502, -0.7368713969381344 
0.6099999999999491, -0.7317217696892278 
0.619999999999948, -0.7256246190680231 
0.6299999999999469, -0.7190242130950787 
0.6399999999999458, -0.7124629460744537 
0.6499999999999447, -0.7064034773694154 
0.6599999999999436, -0.7011345069927095 
0.6699999999999425, -0.6967743890478227 
0.6799999999999414, -0.6933206180798993 
0.6899999999999403, -0.6906999334927564 
0.6999999999999392, -0.6888031067183804 
0.7099999999999381, -0.6875061122972116 
0.719999999999937, -0.6866834460664265 
0.7299999999999359, -0.6862174137439723 
0.7399999999999348, -0.6860045896618505 
0.7499999999999337, -0.6859593628951907 
0.7599999999999326, -0.6860145915921719 
0.7699999999999315, -0.6861200976674483 
0.7799999999999304, -0.6862402731515096 
0.7899999999999293, -0.68635202162972 
0.7999999999999282, -0.6864435306340043 
0.8099999999999271, -0.6865131573149508 
0.819999999999926, -0.6865667273560249 
0.8299999999999249, -0.6866119683549227 
0.8399999999999238, -0.6866510748971947 
0.8499999999999227, -0.6866749980150517 
0.8599999999999216, -0.6866633560574006 
0.8699999999999205, -0.6865908210569126 
0.8799999999999194, -0.6864364700462056 
0.8899999999999183, -0.6861907808381023 
0.8999999999999172, -0.6858575365158094 
0.9099999999999161, -0.68545219400039 
0.919999999999915, -0.6850003605019099 
0.9299999999999139, -0.6845392516624084 
0.9399999999999128, -0.6841232844131289 
0.9499999999999117, -0.6838336557421052 
0.9599999999999106, -0.6837908234863598 
0.9699999999999095, -0.6841676996033257 
0.9799999999999084, -0.6851998435121496 
0.9899999999999073, -0.6871870343077651 
0.9999999999999062, -0.6904780673811695 
1.0099999999999052, -0.6954267483376835 
1.019999999999904, -0.7023027803337061 
1.029999999999903, -0.7111457686345927 
1.039999999999902, -0.7215878419666006 
1.0499999999999008, -0.7327573380349912 
1.0599999999998997, -0.74343915166252 
1.0699999999998986, -0.7525222860301073 
1.0799999999998975, -0.7594374632847546 
1.0899999999998964, -0.7642348349520802 
1.0999999999998953, -0.7673296295938916 
1.1099999999998942, -0.7692075448834064 
1.119999999999893, -0.7702656098485403 
1.129999999999892, -0.7707759528849925 
1.1399999999998909, -0.7709036977469783 
1.1499999999998898, -0.7707336866736566 
1.1599999999998887, -0.7702887805930144 
1.1699999999998876, -0.7695356580199084 
1.1799999999998865, -0.7683771897265272 
1.1899999999998854, -0.7666298289189369 
1.1999999999998843, -0.763984297216371 
1.2099999999998832, -0.7599541912258436 
1.219999999999882, -0.7538432785068401 
1.229999999999881, -0.7448255723648101 
1.2399999999998799, -0.7323000965682352 
1.2499999999998788, -0.7165514895387689 
1.2599999999998777, -0.6992179511840444 
1.2699999999998766, -0.6827845274566116 
1.2799999999998755, -0.6693002955597106 
1.2899999999998744, -0.6595467535708779 
1.2999999999998733, -0.6531988115693066 
1.3099999999998722, -0.6494306665459706 
1.319999999999871, -0.6473889054809843 
1.32999999999987, -0.6463986216593856 
1.3399999999998689, -0.6459954383962819 
1.3499999999998678, -0.6458866436809525 
1.3599999999998666, -0.6458983973881518 
1.3699999999998655, -0.6459309203771411 
1.3799999999998644, -0.6459264679619525 
1.3899999999998633, -0.6458486638055204 
1.3999999999998622, -0.6456706107494558 
1.4099999999998611, -0.6453699339799492 
1.41999999999986, -0.6449297782205228 
1.429999999999859, -0.6443444441268531 
1.4399999999998578, -0.6436261957564946 
1.4499999999998567, -0.6428074626279152 
1.4599999999998556, -0.6419340996223843 
1.4699999999998545, -0.6410517464186547 
1.4799999999998534, -0.6401930810891625 
1.4899999999998523, -0.6393728173451796 
1.4999999999998512, -0.6385913182336486 
1.5099999999998501, -0.6378428189072044 
1.519999999999849, -0.6371234856439586 
1.529999999999848, -0.6364367420680378 
1.5399999999998468, -0.6357959333696052 
1.5499999999998457, -0.6352257152961304 
1.5599999999998446, -0.6347633782597814 
1.5699999999998435, -0.6344604970082804 
1.5799999999998424, -0.6343846245143426 
1.5899999999998413, -0.6346205093856706 
1.5999999999998402, -0.6352704176059507 
1.6099999999998391, -0.6364532769242081 
1.619999999999838, -0.6383020524125919 
1.629999999999837, -0.640957406196545 
1.6399999999998358, -0.6445528736181025 
1.6499999999998347, -0.6491831519306146 
1.6599999999998336, -0.6548465386157203 
1.6699999999998325, -0.661364989097145 
1.6799999999998314, -0.6683214793040645 
1.6899999999998303, -0.6750958044062354 
1.6999999999998292, -0.6810494861197023 
1.709999999999828, -0.6857675260326823 
1.719999999999827, -0.68917037677804 
1.729999999999826, -0.6914331367000622 
1.7399999999998248, -0.6928261007229881 
1.7499999999998237, -0.6935986189518785 
1.7599999999998226, -0.6939337665470393 
1.7699999999998215, -0.6939456353422823 
1.7799999999998204, -0.6936896850445118 
1.7899999999998193, -0.6931706947678546 
1.7999999999998182, -0.6923421960018972 
1.809999999999817, -0.6910942303040117 
1.819999999999816, -0.6892261215385049 
1.8299999999998149, -0.6864019057314387 
1.8399999999998138, -0.6820967399722326 
1.8499999999998127, -0.6755811375896482 
1.8599999999998116, -0.666067562769192 
1.8699999999998105, -0.6531719029970924 
1.8799999999998094, -0.6375556290029811 
1.8899999999998083, -0.6210678099719611 
1.8999999999998072, -0.605914681084379 
1.909999999999806, -0.5935718641288126 
1.919999999999805, -0.5844237657801535 
1.9299999999998039, -0.5781040876820066 
1.9399999999998028, -0.5739671386855123 
1.9499999999998017, -0.571380356504315 
1.9599999999998006, -0.5698357062817686 
1.9699999999997995, -0.5689632210689024 
1.9799999999997984, -0.5685082267812182 
1.9899999999997973, -0.568301599815557 
1.9999999999997962, -0.5682336785620354 
2.0099999999998173, -0.5682343871982779 
2.0199999999998384, -0.5682593432094876 
2.0299999999998595, -0.5682810568863845 
2.0399999999998806, -0.5682843063669195 
2.0499999999999017, -0.5682646320470325 
2.059999999999923, -0.568228280199848 
2.069999999999944, -0.5681911138870697 
2.079999999999965, -0.5681740959078626 
2.089999999999986, -0.5681949250535594 
2.100000000000007, -0.5682585482827303 
2.1100000000000283, -0.5683512895994342 
2.1200000000000494, -0.5684424872377399 
2.1300000000000705, -0.5684937736629617 
2.1400000000000916, -0.5684713747460913 
2.1500000000001127, -0.5683548504133548 
2.160000000000134, -0.5681388214911613 
2.170000000000155, -0.567829445480059 
2.180000000000176, -0.5674399648765376 
2.190000000000197, -0.5669887980537868 
2.2000000000002182, -0.566501919790767 
2.2100000000002393, -0.5660206369044763 
2.2200000000002604, -0.5656164706557045 
2.2300000000002815, -0.56541596011941 
2.2400000000003026, -0.5656384125294265 
2.2500000000003237, -0.5666456649515355 
2.260000000000345, -0.568986917388149 
2.270000000000366, -0.5733804436342019 
2.280000000000387, -0.5805086310966944 
2.290000000000408, -0.5905088919043273 
2.3000000000004293, -0.6023728485543602 
2.3100000000004504, -0.6140483831805066 
2.3200000000004715, -0.6236582016566405 
2.3300000000004926, -0.6305999838198639 
2.3400000000005137, -0.6353302173764757 
2.3500000000005348, -0.6385485399450181 
2.360000000000556, -0.6407727064777646 
2.370000000000577, -0.6423165946405859 
2.380000000000598, -0.6433712492743379 
2.390000000000619, -0.6440613530357647 
2.4000000000006403, -0.6444709729297371 
2.4100000000006614, -0.6446541987670062 
2.4200000000006825, -0.6446397726130312 
2.4300000000007036, -0.6444329897747378 
2.4400000000007247, -0.6440161972372029 
2.450000000000746, -0.6433496533428212 
2.460000000000767, -0.6423763339396368 
2.470000000000788, -0.6410360713875831 
2.480000000000809, -0.6392924682883386 
2.49000000000083, -0.6371657388997499 
2.5000000000008513, -0.6347502748906815 
2.5100000000008724, -0.6321967779635438 
2.5200000000008935, -0.6296654622480203 
2.5300000000009146, -0.6272816694000134 
2.5400000000009357, -0.6251180682898857 
2.550000000000957, -0.6232022819093491 
2.560000000000978, -0.6215350697894029 
2.570000000000999, -0.6201068819324951 
2.58000000000102, -0.6189082025081531 
2.5900000000010412, -0.6179340797090002 
2.6000000000010624, -0.6171848716388796 
2.6100000000010835, -0.616665120039579 
2.6200000000011046, -0.6163818893446275 
2.6300000000011257, -0.6163434173465239 
2.6400000000011468, -0.6165585719254931 
2.650000000001168, -0.6170372951770877 
2.660000000001189, -0.6177918553870263 
2.67000000000121, -0.6188382620359213 
2.680000000001231, -0.6201965645035865 
2.6900000000012523, -0.6218879259809578 
2.7000000000012734, -0.6239256194524745 
2.7100000000012945, -0.6262975308583763 
2.7200000000013156, -0.628941659305801 
2.7300000000013367, -0.631725438471603 
2.740000000001358, -0.6344500345640683 
2.750000000001379, -0.6368957164137369 
2.7600000000014, -0.6388923787804444 
2.770000000001421, -0.640368496564521 
2.780000000001442, -0.6413472696599795 
2.7900000000014633, -0.6419051241018094 
2.8000000000014844, -0.6421279403511769 
2.8100000000015055, -0.6420844241895568 
2.8200000000015266, -0.6418156861261667 
2.8300000000015477, -0.641332696963161 
2.840000000001569, -0.640614552154037 
2.85000000000159, -0.6396030744921724 
2.860000000001611, -0.6381901936635387 
2.870000000001632, -0.6361933936860957 
2.8800000000016532, -0.6333123022329425 
2.8900000000016743, -0.6290622537944346 
2.9000000000016954, -0.6227120926478653 
2.9100000000017165, -0.6133591535695178 
2.9200000000017377, -0.6004047532476976 
2.9300000000017588, -0.5844281679144644 
2.94000000000178, -0.567548542109207 
2.950000000001801, -0.55237401156329 
2.960000000001822, -0.5405127954440081 
2.970000000001843, -0.5321756338861456 
2.9800000000018643, -0.5267420269430555 
2.9900000000018854, -0.5233901412218039 
3.0000000000019065, -0.5214142988654511 
3.0100000000019276, -0.5203026208533862 
3.0200000000019487, -0.5197136130203333 
3.03000000000197, -0.5194296141806662 
3.040000000001991, -0.5193154467980656 
3.050000000002012, -0.5192883266152599 
3.060000000002033, -0.5192978916480471 
3.070000000002054, -0.5193138846281597 
3.0800000000020753, -0.519319416738721 
3.0900000000020964, -0.5193082535402058 
3.1000000000021175, -0.5192845639444795 
3.1100000000021386, -0.5192629876146443 
3.1200000000021597, -0.5192663841910432 
3.130000000002181, -0.5193194332119746 
3.140000000002202, -0.51943877271346 
3.150000000002223, -0.5196232607635465 
3.160000000002244, -0.5198492929703883 
3.1700000000022652, -0.5200748206698133 
3.1800000000022863, -0.5202515042109952 
3.1900000000023074, -0.5203390731098126 
3.2000000000023285, -0.5203142080360643 
3.2100000000023496, -0.5201706347708303 
3.2200000000023707, -0.5199132445419348 
3.230000000002392, -0.519551288093895 
3.240000000002413, -0.5190939530938264 
3.250000000002434, -0.5185492546949683 
3.260000000002455, -0.5179260909905532 
3.2700000000024763, -0.5172392808972981 
3.2800000000024974, -0.516517117256444 
3.2900000000025185, -0.5158081593590012 
3.3000000000025396, -0.5151740251142612 
3.3100000000025607, -0.5146312104236692 
3.3200000000025818, -0.5139760971402352 
3.330000000002603, -0.5124828062860594 
3.340000000002624, -0.5088021596454708 
3.350000000002645, -0.501774724085903 
3.360000000002666, -0.49190737364876186 
3.3700000000026873, -0.4814472127338951 
3.3800000000027084, -0.47258590378252185 
3.3900000000027295, -0.4661891855622442 
3.4000000000027506, -0.46203780398546773 
3.4100000000027717, -0.45952820131204986 
3.420000000002793, -0.45808973829493793 
3.430000000002814, -0.4573062139911297 
3.440000000002835, -0.4569063055121128 
3.450000000002856, -0.4567226385067461 
3.460000000002877, -0.45665483840572774 
3.4700000000028983, -0.4566436168103733 
3.4800000000029194, -0.456654504062764 
3.4900000000029405, -0.45666856679461326 
3.5000000000029616, -0.4566779930104488 
3.5100000000029827, -0.45668493967046303 
3.520000000003004, -0.456701957370315 
3.530000000003025, -0.45675176186125926 
3.540000000003046, -0.4568639181398657 
3.550000000003067, -0.4570670985929065 
3.5600000000030882, -0.45737795058883596 
3.5700000000031094, -0.4577901395858518 
3.5800000000031305, -0.45826880880722565 
3.5900000000031516, -0.4587553803037719 
3.6000000000031727, -0.4591832108021475 
3.6100000000031938, -0.4594969114421941 
3.620000000003215, -0.45966444009374596 
3.630000000003236, -0.4596767067017134 
3.640000000003257, -0.4595383711294441 
3.650000000003278, -0.45925673080834084 
3.6600000000032993, -0.4588326790750424 
3.6700000000033204, -0.45825365753753877 
3.6800000000033415, -0.45748601614302703 
3.6900000000033626, -0.4564625239815877 
3.7000000000033837, -0.4550581736159277 
3.710000000003405, -0.4530430127198315 
3.720000000003426, -0.44999882939965613 
3.730000000003447, -0.4452110273853944 
3.740000000003468, -0.43765863375281383 
3.750000000003489, -0.42642367101221507 
3.7600000000035103, -0.41168130972434175 
3.7700000000035314, -0.3953507814593326 
3.7800000000035525, -0.3801231374937641 
3.7900000000035736, -0.3677732052149035 
3.8000000000035947, -0.35864662155206106 
3.810000000003616, -0.352242881704831 
3.820000000003637, -0.34785560716691716 
3.830000000003658, -0.3448759052504468 
3.840000000003679, -0.34286014600891684 
3.8500000000037002, -0.3415081830802635 
3.8600000000037213, -0.3406245435073175 
3.8700000000037424, -0.340085852020677 
3.8800000000037635, -0.33981835472293825 
3.8900000000037847, -0.33978401999128155 
3.9000000000038058, -0.3399730681049618 
3.910000000003827, -0.3404013357200476 
3.920000000003848, -0.3411114500843162 
3.930000000003869, -0.3421769358359371 
3.94000000000389, -0.3437076785921568 
3.9500000000039113, -0.3458527985003043 
3.9600000000039324, -0.3487915879834517 
3.9700000000039535, -0.35269440533477076 
3.9800000000039746, -0.35763103072649843 
3.9900000000039957, -0.36343161840241206 
4.000000000004016, -0.36959304928618475 
4.010000000003993, -0.3753913853346651 
4.02000000000397, -0.3802072236808903 
4.030000000003946, -0.38378887895940383 
4.040000000003923, -0.38623383552828644 
4.0500000000039, -0.38779847330066175 
4.0600000000038765, -0.38873952755860064 
4.070000000003853, -0.3892500980002243 
4.08000000000383, -0.38945483886030857 
4.090000000003807, -0.3894241143464548 
4.100000000003783, -0.3891884690200383 
4.11000000000376, -0.38874920873021934 
4.120000000003737, -0.38808700805803126 
4.130000000003713, -0.38717284456900597 
4.14000000000369, -0.38598556881637186 
4.150000000003667, -0.3845358580373491 
4.1600000000036434, -0.3828860543537592 
4.17000000000362, -0.3811481033917637 
4.180000000003597, -0.3794527291929524 
4.1900000000035735, -0.3779076328162527 
4.20000000000355, -0.3765714511755027 
4.210000000003527, -0.37545312425308 
4.220000000003504, -0.3745272793054807 
4.23000000000348, -0.3737527475321565 
4.240000000003457, -0.3730871294637342 
4.250000000003434, -0.37249558263149174 
4.26000000000341, -0.37195458244733554 
4.270000000003387, -0.3714525501392967 
4.280000000003364, -0.3709895769567695 
4.2900000000033405, -0.3705782078929317 
4.300000000003317, -0.3702468396618441 
4.310000000003294, -0.3700471759711407 
4.320000000003271, -0.3700673672008132 
4.330000000003247, -0.37045211886453644 
4.340000000003224, -0.3714273367565383 
4.350000000003201, -0.37331165327117577 
4.360000000003177, -0.37645320017255623 
4.370000000003154, -0.38094921841053786 
4.380000000003131, -0.38601517439630806 
4.390000000003107, -0.3894300190644575 
4.400000000003084, -0.38852090087333724 
4.410000000003061, -0.38283290781122814 
4.4200000000030375, -0.3748332851806183 
4.430000000003014, -0.367363101820693 
4.440000000002991, -0.3617275843204416 
4.450000000002968, -0.3579410535356632 
4.460000000002944, -0.35554971378273914 
4.470000000002921, -0.3540912985198293 
4.480000000002898, -0.35322462925514364 
4.490000000002874, -0.3527263431823128 
4.500000000002851, -0.3524580498555031 
4.510000000002828, -0.3523369142206398 
4.520000000002804, -0.3523155768703271 
4.530000000002781, -0.3523700555803434 
4.540000000002758, -0.352493327712231 
4.5500000000027345, -0.3526927146202772 
4.560000000002711, -0.35298948762734755 
4.570000000002688, -0.3534189722728248 
4.580000000002665, -0.3540289809020492 
4.590000000002641, -0.35487395550647494 
4.600000000002618, -0.3560020516406995 
4.610000000002595, -0.35743342441075315 
4.620000000002571, -0.35913287707865144 
4.630000000002548, -0.3609909643497916 
4.640000000002525, -0.36283630162454156 
4.6500000000025015, -0.36448747353875727 
4.660000000002478, -0.36581568620908284 
4.670000000002455, -0.36677408940004597 
4.6800000000024315, -0.3673820196751805 
4.690000000002408, -0.36768879608965815 
4.700000000002385, -0.3677430765299178 
4.710000000002362, -0.36757567423422943 
4.720000000002338, -0.3671915972469745 
4.730000000002315, -0.3665651892413203 
4.740000000002292, -0.36563510517289116 
4.750000000002268, -0.3643005646197672 
4.760000000002245, -0.36242755171672875 
4.770000000002222, -0.35988226280452296 
4.7800000000021985, -0.35660641805712057 
4.790000000002175, -0.3527109384852782 
4.800000000002152, -0.3485046570788056 
4.810000000002129, -0.3443921326975804 
4.820000000002105, -0.34070613945806566 
4.830000000002082, -0.3376104828327207 
4.840000000002059, -0.3351148612027304 
4.850000000002035, -0.33314224452775487 
4.860000000002012, -0.33158870790883455 
4.870000000001989, -0.3303572910850173 
4.880000000001965, -0.3293715732184469 
4.890000000001942, -0.3285785495291028 
4.900000000001919, -0.32794748097608034 
