t, s[1].omega / s[0].omega 
0, -0.739997676623817 
0.009999999999999995, -0.7397492520745332 
0.019999999999999934, -0.7394639871135288 
0.029999999999999874, -0.7391301546856832 
0.04000000000000012, -0.7387366785580105 
0.050000000000000405, -0.7382802297456152 
0.06000000000000069, -0.7377690485959864 
0.07000000000000098, -0.7372239123692669 
0.08000000000000126, -0.7366785863784783 
0.09000000000000155, -0.7361814746257458 
0.10000000000000184, -0.7357983289410585 
0.11000000000000212, -0.7356142843926282 
0.12000000000000241, -0.735732914053232 
0.130000000000002, -0.736270722700546 
0.1400000000000009, -0.737347313247977 
0.1499999999999998, -0.7390732679016608 
0.1599999999999987, -0.7415379608003516 
0.1699999999999976, -0.7447972354527721 
0.1799999999999965, -0.7488572956500452 
0.1899999999999954, -0.7536495974751857 
0.1999999999999943, -0.7589970581437642 
0.2099999999999932, -0.7645886720859487 
0.2199999999999921, -0.7700002374815298 
0.229999999999991, -0.774791655296801 
0.2399999999999899, -0.7786488010927752 
0.2499999999999888, -0.7814737795027064 
0.2599999999999877, -0.7833613175477303 
0.2699999999999866, -0.7845014425355104 
0.2799999999999855, -0.7850884972194191 
0.2899999999999844, -0.7852743058065659 
0.2999999999999833, -0.7851575875468163 
0.3099999999999822, -0.7847898013770187 
0.3199999999999811, -0.7841847833073735 
0.32999999999998, -0.7833286773660697 
0.3399999999999789, -0.7821934023859363 
0.3499999999999778, -0.7807628671830145 
0.35999999999997667, -0.7790871663398471 
0.36999999999997557, -0.7773803689683484 
0.37999999999997447, -0.7761525985628908 
0.38999999999997337, -0.7762865930567223 
0.39999999999997227, -0.7788537334733125 
0.40999999999997117, -0.784521001061621 
0.41999999999997006, -0.7928900924634398 
0.42999999999996896, -0.8025387122358959 
0.43999999999996786, -0.8118477265868215 
0.44999999999996676, -0.819736433654972 
0.45999999999996566, -0.8258092503109353 
0.46999999999996456, -0.8301551520575634 
0.47999999999996346, -0.833092522880601 
0.48999999999996235, -0.8349810884252964 
0.49999999999996125, -0.836125293021588 
0.5099999999999602, -0.8367454657933335 
0.519999999999959, -0.8369819205888411 
0.529999999999958, -0.8369072155275508 
0.5399999999999568, -0.8365340051621187 
0.5499999999999557, -0.8358128426763844 
0.5599999999999546, -0.8346168145361281 
0.5699999999999535, -0.8327117596976417 
0.5799999999999524, -0.8297182807770627 
0.5899999999999513, -0.8250946726365844 
0.5999999999999502, -0.8182119806622985 
0.6099999999999491, -0.8086108958838277 
0.619999999999948, -0.7964086144018299 
0.6299999999999469, -0.7825524535760344 
0.6399999999999458, -0.7685737200364934 
0.6499999999999447, -0.7559590843484256 
0.6599999999999436, -0.7456440023412962 
0.6699999999999425, -0.737906628702026 
0.6799999999999414, -0.7325422991365762 
0.6899999999999403, -0.729100800645085 
0.6999999999999392, -0.7270709541207687 
0.7099999999999381, -0.7259901236685297 
0.719999999999937, -0.7254923005766629 
0.7299999999999359, -0.7253150335388839 
0.7399999999999348, -0.7252837352892817 
0.7499999999999337, -0.7252876848616061 
0.7599999999999326, -0.7252568190450849 
0.7699999999999315, -0.7251437586951947 
0.7799999999999304, -0.7249126366202341 
0.7899999999999293, -0.7245350837546268 
0.7999999999999282, -0.7239928860851997 
0.8099999999999271, -0.7232847663716746 
0.819999999999926, -0.7224316375957953 
0.8299999999999249, -0.7214740002774953 
0.8399999999999238, -0.7204603005364357 
0.8499999999999227, -0.7194326481699289 
0.8599999999999216, -0.7184183621298024 
0.8699999999999205, -0.7174306506694221 
0.8799999999999194, -0.7164754958622118 
0.8899999999999183, -0.7155596672587854 
0.8999999999999172, -0.7146964982090773 
0.9099999999999161, -0.7139086852962129 
0.919999999999915, -0.7132287558628725 
0.9299999999999139, -0.7126978192535596 
0.9399999999999128, -0.7123627822983051 
0.9499999999999117, -0.7122722165956626 
0.9599999999999106, -0.7124715908661267 
0.9699999999999095, -0.7129991136934102 
0.9799999999999084, -0.7138833833863486 
0.9899999999999073, -0.715143202954273 
0.9999999999999062, -0.7167885545042252 
1.0099999999999052, -0.7188203298967538 
1.019999999999904, -0.7212255187842727 
1.029999999999903, -0.7239650237728356 
1.039999999999902, -0.7269547684266842 
1.0499999999999008, -0.7300488637491738 
1.0599999999998997, -0.7330431721891467 
1.0699999999998986, -0.735715415512248 
1.0799999999998975, -0.7378915080782775 
1.0899999999998964, -0.7394964012474201 
1.0999999999998953, -0.7405548882285239 
1.1099999999998942, -0.7411512555483559 
1.119999999999893, -0.7413828347762343 
1.129999999999892, -0.7413307406640915 
1.1399999999998909, -0.7410495728823117 
1.1499999999998898, -0.7405687408898828 
1.1599999999998887, -0.7398998532801103 
1.1699999999998876, -0.7390498345399542 
1.1799999999998865, -0.7380448436831577 
1.1899999999998854, -0.736975093781998 
1.1999999999998843, -0.7360727735051291 
1.2099999999998832, -0.7358243867413489 
1.219999999999882, -0.7370731411910865 
1.229999999999881, -0.7409690121658348 
1.2399999999998799, -0.7485430960887142 
1.2499999999998788, -0.7598890929117295 
1.2599999999998777, -0.7735962137020236 
1.2699999999998766, -0.7873159933721958 
1.2799999999998755, -0.799100124884884 
1.2899999999998744, -0.8081420600678737 
1.2999999999998733, -0.8145579681802595 
1.3099999999998722, -0.8188696472538393 
1.319999999999871, -0.8216500950357591 
1.32999999999987, -0.8233723383227021 
1.3399999999998689, -0.8243765049097732 
1.3499999999998678, -0.8248852277483503 
1.3599999999998666, -0.8250296118925773 
1.3699999999998655, -0.8248696422990076 
1.3799999999998644, -0.8244034760034081 
1.3899999999998633, -0.8235635582424526 
1.3999999999998622, -0.8221980119530266 
1.4099999999998611, -0.8200375477816566 
1.41999999999986, -0.8166581747965804 
1.429999999999859, -0.8114784976426901 
1.4399999999998578, -0.8038747939015363 
1.4499999999998567, -0.7934934251375615 
1.4599999999998556, -0.780664676301422 
1.4699999999998545, -0.7665501746837681 
1.4799999999998534, -0.7527490257666888 
1.4899999999998523, -0.7406372560727986 
1.4999999999998512, -0.7309594956753018 
1.5099999999998501, -0.7238308998246026 
1.519999999999849, -0.718956195035466 
1.529999999999848, -0.71586013828974 
1.5399999999998468, -0.7140470838271709 
1.5499999999998457, -0.7130868314390623 
1.5599999999998446, -0.7126468841373159 
1.5699999999998435, -0.7124916063248219 
1.5799999999998424, -0.7124646278942766 
1.5899999999998413, -0.7124661437436913 
1.5999999999998402, -0.712432130199226 
1.6099999999998391, -0.7123188088006266 
1.619999999999838, -0.7120935343448844 
1.629999999999837, -0.7117322882547075 
1.6399999999998358, -0.7112228662103757 
1.6499999999998347, -0.7105705647296772 
1.6599999999998336, -0.7098006927576732 
1.6699999999998325, -0.7089531105887592 
1.6799999999998314, -0.7080698764402201 
1.6899999999998303, -0.7071830872235692 
1.6999999999998292, -0.7063097896953396 
1.709999999999828, -0.70545520770985 
1.719999999999827, -0.704620491291486 
1.729999999999826, -0.7038102847905435 
1.7399999999998248, -0.7030376232403616 
1.7499999999998237, -0.7023261719104965 
1.7599999999998226, -0.7017108035832893 
1.7699999999998215, -0.7012370827186475 
1.7799999999998204, -0.700959521686357 
1.7899999999998193, -0.7009383408445363 
1.7999999999998182, -0.7012350021745464 
1.809999999999817, -0.7019075145028015 
1.819999999999816, -0.7030067505301509 
1.8299999999998149, -0.7045743348498898 
1.8399999999998138, -0.7066411223797705 
1.8499999999998127, -0.709223398603199 
1.8599999999998116, -0.7123125812398211 
1.8699999999998105, -0.7158550482743489 
1.8799999999998094, -0.7197246804653327 
1.8899999999998083, -0.7237037756442377 
1.8999999999998072, -0.7275006168478166 
1.909999999999806, -0.7308208363273687 
1.919999999999805, -0.7334629050731543 
1.9299999999998039, -0.7353716137877633 
1.9399999999998028, -0.7366159681688936 
1.9499999999998017, -0.7373236119213551 
1.9599999999998006, -0.7376222992766555 
1.9699999999997995, -0.7376098107779543 
1.9799999999997984, -0.7373464817057431 
1.9899999999997973, -0.736858148654155 
1.9999999999997962, -0.736142015469867 
2.0099999999998173, -0.73517388832684 
2.0199999999998384, -0.7339199974568779 
2.0299999999998595, -0.7323607396240941 
2.0399999999998806, -0.7305358278302155 
2.0499999999999017, -0.7286125500927716 
2.059999999999923, -0.7269439781674485 
2.069999999999944, -0.7260180082311366 
2.079999999999965, -0.7261932730812527 
2.089999999999986, -0.7273752667866631 
2.100000000000007, -0.7291101634650626 
2.1100000000000283, -0.7310944528212604 
2.1200000000000494, -0.7333174099260029 
2.1300000000000705, -0.7357271312528578 
2.1400000000000916, -0.7380929279365052 
2.1500000000001127, -0.740165220210401 
2.160000000000134, -0.7418097555667976 
2.170000000000155, -0.7430112258110071 
2.180000000000176, -0.7438193752925434 
2.190000000000197, -0.7443003586669794 
2.2000000000002182, -0.7445090077803189 
2.2100000000002393, -0.7444761796876546 
2.2200000000002604, -0.7442026084831644 
2.2300000000002815, -0.7436536931539376 
2.2400000000003026, -0.7427535247751517 
2.2500000000003237, -0.7413813384434869 
2.260000000000345, -0.7393805410459497 
2.270000000000366, -0.7365962846477865 
2.280000000000387, -0.7329490270042518 
2.290000000000408, -0.7285156272330957 
2.3000000000004293, -0.7235525977999762 
2.3100000000004504, -0.7184235809244292 
2.3200000000004715, -0.7134789060036907 
2.3300000000004926, -0.7089709989462869 
2.3400000000005137, -0.7050377420027243 
2.3500000000005348, -0.7017285248770615 
2.360000000000556, -0.6990380947076574 
2.370000000000577, -0.6969308361044544 
2.380000000000598, -0.6953537288236595 
2.390000000000619, -0.6942424334068812 
2.4000000000006403, -0.6935251342960227 
2.4100000000006614, -0.693126732495275 
2.4200000000006825, -0.6929738045968383 
2.4300000000007036, -0.6929994149460847 
2.4400000000007247, -0.6931466777672561 
2.450000000000746, -0.6933706051901526 
2.460000000000767, -0.6936385629311059 
2.470000000000788, -0.6939299390823919 
2.480000000000809, -0.6942351359919867 
2.49000000000083, -0.6945530540169428 
2.5000000000008513, -0.6948858630569716 
2.5100000000008724, -0.6952311322348892 
2.5200000000008935, -0.6955740931802972 
2.5300000000009146, -0.6958848087462275 
2.5400000000009357, -0.6961236453455734 
2.550000000000957, -0.6962532802656093 
2.560000000000978, -0.6962503691300006 
2.570000000000999, -0.6961104104553657 
2.58000000000102, -0.6958452700553834 
2.5900000000010412, -0.6954780850744928 
2.6000000000010624, -0.6950407844568128 
2.6100000000010835, -0.694577122050617 
2.6200000000011046, -0.6941521361627888 
2.6300000000011257, -0.6938681083216263 
2.6400000000011468, -0.6938863566025253 
2.650000000001168, -0.6944523580554433 
2.660000000001189, -0.6959180934019988 
2.67000000000121, -0.6987499606003876 
2.680000000001231, -0.7035028776784207 
2.6900000000012523, -0.7107314800545096 
2.7000000000012734, -0.7208043685580139 
2.7100000000012945, -0.7336159306725372 
2.7200000000013156, -0.7483035912832907 
2.7300000000013367, -0.7632520522972566 
2.740000000001358, -0.7766275859715661 
2.750000000001379, -0.7871834246226616 
2.7600000000014, -0.7946610678837321 
2.770000000001421, -0.799537403182225 
2.780000000001442, -0.8025292972192375 
2.7900000000014633, -0.8042671991055924 
2.8000000000014844, -0.8051959903670667 
2.8100000000015055, -0.8055928139338085 
2.8200000000015266, -0.8056121268919159 
2.8300000000015477, -0.8053214808227562 
2.840000000001569, -0.8047199495790804 
2.85000000000159, -0.8037392818392197 
2.860000000001611, -0.8022276622677165 
2.870000000001632, -0.7999140684076121 
2.8800000000016532, -0.7963523880752225 
2.8900000000016743, -0.7908580274211868 
2.9000000000016954, -0.7824959799054796 
2.9100000000017165, -0.7702752952925371 
2.9200000000017377, -0.7537586309594209 
2.9300000000017588, -0.7339569224933715 
2.94000000000178, -0.7135718722444659 
2.950000000001801, -0.6957605142206754 
2.960000000001822, -0.6824239931465208 
2.970000000001843, -0.6736943955960588 
2.9800000000018643, -0.668617293877164 
2.9900000000018854, -0.66599204051288 
3.0000000000019065, -0.6648236210407681 
3.0100000000019276, -0.6644313274784602 
3.0200000000019487, -0.664400467663869 
3.03000000000197, -0.6644978860460177 
3.040000000001991, -0.6645993899696585 
3.050000000002012, -0.664639391749438 
3.060000000002033, -0.66457955454224 
3.070000000002054, -0.664390834005058 
3.0800000000020753, -0.6640448886674484 
3.0900000000020964, -0.6635132062004083 
3.1000000000021175, -0.6627736099868182 
3.1100000000021386, -0.6618223073968283 
3.1200000000021597, -0.6606850746307958 
3.130000000002181, -0.6594180296537131 
3.140000000002202, -0.6580936038804 
3.150000000002223, -0.6567790155309968 
3.160000000002244, -0.6555204031560652 
3.1700000000022652, -0.6543397532378772 
3.1800000000022863, -0.6532420955000144 
3.1900000000023074, -0.6522261634164335 
3.2000000000023285, -0.6512932510323455 
3.2100000000023496, -0.6504524293178349 
3.2200000000023707, -0.6497226945853376 
3.230000000002392, -0.6491332738463351 
3.240000000002413, -0.6487228993780035 
3.250000000002434, -0.6485383505240744 
3.260000000002455, -0.648632433849367 
3.2700000000024763, -0.6490617746717449 
3.2800000000024974, -0.6498849779711051 
3.2900000000025185, -0.651161513344495 
3.3000000000025396, -0.652950847424672 
3.3100000000025607, -0.6553098302147771 
3.3200000000025818, -0.6582843370960965 
3.330000000002603, -0.661889586976511 
3.340000000002624, -0.6660751913473457 
3.350000000002645, -0.6706812596868874 
3.360000000002666, -0.6754136157449533 
3.3700000000026873, -0.6798825471820225 
3.3800000000027084, -0.6837193585253963 
3.3900000000027295, -0.6867059846046555 
3.4000000000027506, -0.6888210581472333 
3.4100000000027717, -0.690183697365476 
3.420000000002793, -0.6909615646734053 
3.430000000002814, -0.6913052911787584 
3.440000000002835, -0.6913216776043561 
3.450000000002856, -0.6910701036938929 
3.460000000002877, -0.6905657387938575 
3.4700000000028983, -0.6897802494425272 
3.4800000000029194, -0.6886354456037462 
3.4900000000029405, -0.686986403093686 
3.5000000000029616, -0.6845892081342023 
3.5100000000029827, -0.6810465499006868 
3.520000000003004, -0.6757298509167151 
3.530000000003025, -0.6677191330862187 
3.540000000003046, -0.6559360596283713 
3.550000000003067, -0.6397922240621935 
3.5600000000030882, -0.6202732415462591 
3.5700000000031094, -0.600214353181755 
3.5800000000031305, -0.5827803850864282 
3.5900000000031516, -0.5696639461503872 
3.6000000000031727, -0.5608265466606005 
3.6100000000031938, -0.5553355785808307 
3.620000000003215, -0.5521333671084336 
3.630000000003236, -0.5503728050762542 
3.640000000003257, -0.5494696749134521 
3.650000000003278, -0.5490514004861307 
3.6600000000032993, -0.5488907992380461 
3.6700000000033204, -0.5488528224794175 
3.6800000000033415, -0.5488578730896074 
3.6900000000033626, -0.5488584895399141 
3.7000000000033837, -0.548825632681399 
3.710000000003405, -0.5487418457049518 
3.720000000003426, -0.5485994446345401 
3.730000000003447, -0.5484018872109497 
3.740000000003468, -0.5481654929822566 
3.750000000003489, -0.5479178830907447 
3.7600000000035103, -0.5476908396559157 
3.7700000000035314, -0.547509101197815 
3.7800000000035525, -0.547380135503841 
3.7900000000035736, -0.5472901834469484 
3.8000000000035947, -0.5472088540819897 
3.810000000003616, -0.5471001282942931 
3.820000000003637, -0.5469341182183022 
3.830000000003658, -0.5466940276696893 
3.840000000003679, -0.5463767687270707 
3.8500000000037002, -0.5459899747427833 
3.8600000000037213, -0.5455494399397891 
3.8700000000037424, -0.5450798977444133 
3.8800000000037635, -0.5446208839047979 
3.8900000000037847, -0.5442394659248027 
3.9000000000038058, -0.5440527285452399 
3.910000000003827, -0.5442642457287657 
3.920000000003848, -0.5452183452684374 
3.930000000003869, -0.54746814091725 
3.94000000000389, -0.5518241623410352 
3.9500000000039113, -0.5592786316852995 
3.9600000000039324, -0.5706040748866992 
3.9700000000039535, -0.5855191021261756 
3.9800000000039746, -0.6020009019980097 
3.9900000000039957, -0.6170192704444604 
4.000000000004016, -0.628535104762842 
4.010000000003993, -0.636429509488624 
4.02000000000397, -0.6416298384581685 
4.030000000003946, -0.6450745505045237 
4.040000000003923, -0.6473874042829724 
4.0500000000039, -0.6489408628698525 
4.0600000000038765, -0.6499626841996833 
4.070000000003853, -0.6505984398462189 
4.08000000000383, -0.6509411956424572 
4.090000000003807, -0.65104560676898 
4.100000000003783, -0.650934724083713 
4.11000000000376, -0.6506027399235539 
4.120000000003737, -0.650015723419867 
4.130000000003713, -0.6491136266155015 
4.14000000000369, -0.6478195371597879 
4.150000000003667, -0.6460635999197872 
4.1600000000036434, -0.6438227378653829 
4.17000000000362, -0.6411591482576859 
4.180000000003597, -0.6382254809820752 
4.1900000000035735, -0.6352216495085394 
4.20000000000355, -0.6323304149855987 
4.210000000003527, -0.6296747533846768 
4.220000000003504, -0.6273129884220565 
4.23000000000348, -0.6252577119533955 
4.240000000003457, -0.6234988483798182 
4.250000000003434, -0.6220203658142549 
4.26000000000341, -0.6208089018299758 
4.270000000003387, -0.6198564312051392 
4.280000000003364, -0.619159654989681 
4.2900000000033405, -0.6187181542307303 
4.300000000003317, -0.6185326156601216 
4.310000000003294, -0.6186038823300899 
4.320000000003271, -0.6189331580145967 
4.330000000003247, -0.6195233104090626 
4.340000000003224, -0.6203808223650217 
4.350000000003201, -0.6215174697166925 
4.360000000003177, -0.6229501609257235 
4.370000000003154, -0.62469656401432 
4.380000000003131, -0.6267636567793878 
4.390000000003107, -0.6291276488449437 
4.400000000003084, -0.6317092855299482 
4.410000000003061, -0.6343590138367902 
4.4200000000030375, -0.636873636191035 
4.430000000003014, -0.6390520113838198 
4.440000000002991, -0.6407612647421363 
4.450000000002968, -0.641967396547531 
4.460000000002944, -0.6427152864230354 
4.470000000002921, -0.6430844160736395 
4.480000000002898, -0.6431516077528465 
4.490000000002874, -0.6429715616933317 
4.500000000002851, -0.6425703196653761 
4.510000000002828, -0.6419436088710939 
4.520000000002804, -0.6410543586380559 
4.530000000002781, -0.63982578096761 
4.540000000002758, -0.6381263222035041 
4.5500000000027345, -0.6357397759209857 
4.560000000002711, -0.6323078112618675 
4.570000000002688, -0.6272316678011819 
4.580000000002665, -0.6195696197098906 
4.590000000002641, -0.6081577653589084 
4.600000000002618, -0.5923870574399706 
4.610000000002595, -0.5734536780119008 
4.620000000002571, -0.5544348787162449 
4.630000000002548, -0.5383855403836868 
4.640000000002525, -0.5266266302234688 
4.6500000000025015, -0.5188430575654858 
4.660000000002478, -0.5140400563452847 
4.670000000002455, -0.5112267506519637 
4.6800000000024315, -0.5096546434785657 
4.690000000002408, -0.5088232497473388 
4.700000000002385, -0.5084179451249128 
4.710000000002362, -0.5082473637873022 
4.720000000002338, -0.5081970782503278 
4.730000000002315, -0.5081990876917575 
4.740000000002292, -0.5082130411132858 
4.750000000002268, -0.5082156064903088 
4.760000000002245, -0.5081955244068034 
4.770000000002222, -0.508152501789622 
4.7800000000021985, -0.5080978571953825 
4.790000000002175, -0.5080540875236607 
4.800000000002152, -0.5080505307335917 
4.810000000002129, -0.5081142340269313 
4.820000000002105, -0.5082584049797861 
4.830000000002082, -0.5084732847380276 
4.840000000002059, -0.5087244797162267 
4.850000000002035, -0.5089612352874484 
4.860000000002012, -0.5091318015938806 
4.870000000001989, -0.5091979142861556 
4.880000000001965, -0.5091409720604818 
4.890000000001942, -0.5089589678595521 
4.900000000001919, -0.5086589164918673 
4.9100000000018955, -0.508249956986553 
4.920000000001872, -0.5077396060701819 
