t, s[1].omega / s[0].omega 
0, -1.0799983466757197 
0.009999999999999995, -1.0797248145219085 
0.019999999999999934, -1.0792465354803429 
0.029999999999999874, -1.0786511196582873 
0.04000000000000012, -1.0781345823271085 
0.050000000000000405, -1.0778785831875406 
0.06000000000000069, -1.0778778534973184 
0.07000000000000098, -1.0778929631337544 
0.08000000000000126, -1.0776827528106814 
0.09000000000000155, -1.0771509304434281 
0.10000000000000184, -1.0763414039911476 
0.11000000000000212, -1.0753390491866035 
0.12000000000000241, -1.0742752205006358 
0.130000000000002, -1.0734128212848513 
0.1400000000000009, -1.0730206294833429 
0.1499999999999998, -1.0729545539479302 
0.1599999999999987, -1.0727996394841615 
0.1699999999999976, -1.0722323253556518 
0.1799999999999965, -1.071054485346432 
0.1899999999999954, -1.069342614463202 
0.1999999999999943, -1.0673370833505889 
0.2099999999999932, -1.0653748470037505 
0.2199999999999921, -1.0640596819022854 
0.229999999999991, -1.0636656777420874 
0.2399999999999899, -1.0635984184527734 
0.2499999999999888, -1.063286268117842 
0.2599999999999877, -1.062265151609814 
0.2699999999999866, -1.0600182956910447 
0.2799999999999855, -1.0565803353552299 
0.2899999999999844, -1.0526040537322163 
0.2999999999999833, -1.0491352632286244 
0.3099999999999822, -1.0474253309818105 
0.3199999999999811, -1.0471595882861264 
0.32999999999998, -1.0471039798113564 
0.3399999999999789, -1.0466499532349318 
0.3499999999999778, -1.0451170409537172 
0.35999999999997667, -1.0413631888402977 
0.36999999999997557, -1.0351950298933508 
0.37999999999997447, -1.0281951404656342 
0.38999999999997337, -1.0228873432770766 
0.39999999999997227, -1.0209525243422755 
0.40999999999997117, -1.0208211696196299 
0.41999999999997006, -1.0207818301555942 
0.42999999999996896, -1.0202668930880194 
0.43999999999996786, -1.0184633279627529 
0.44999999999996676, -1.013720557883235 
0.45999999999996566, -1.005573453373868 
0.46999999999996456, -0.9964901709638639 
0.47999999999996346, -0.9900093643163581 
0.48999999999996235, -0.9877853772098382 
0.49999999999996125, -0.9876399767039024 
0.5099999999999602, -0.9876312617787868 
0.519999999999959, -0.9871921133575761 
0.529999999999958, -0.9856428832645823 
0.5399999999999568, -0.9816224925737471 
0.5499999999999557, -0.974788139975281 
0.5599999999999546, -0.9671579942741791 
0.5699999999999535, -0.9612697467169435 
0.5799999999999524, -0.9586630480400061 
0.5899999999999513, -0.9582477375403147 
0.5999999999999502, -0.9582482259653802 
0.6099999999999491, -0.9579734955478374 
0.619999999999948, -0.9569717651483644 
0.6299999999999469, -0.9545349466995124 
0.6399999999999458, -0.9505791381392317 
0.6499999999999447, -0.9461347948880457 
0.6599999999999436, -0.942272262503616 
0.6699999999999425, -0.9398666645605506 
0.6799999999999414, -0.9390634110313978 
0.6899999999999403, -0.9389754751672674 
0.6999999999999392, -0.9388537240319149 
0.7099999999999381, -0.9383318802984213 
0.719999999999937, -0.9370985736540597 
0.7299999999999359, -0.9351647575423069 
0.7399999999999348, -0.9329726871620329 
0.7499999999999337, -0.9309065513004822 
0.7599999999999326, -0.929277334682327 
0.7699999999999315, -0.9283827810313091 
0.7799999999999304, -0.9281424253641056 
0.7899999999999293, -0.9281044431853622 
0.7999999999999282, -0.9279090650065916 
0.8099999999999271, -0.9273689634259897 
0.819999999999926, -0.9264945109163655 
0.8299999999999249, -0.9254658672590748 
0.8399999999999238, -0.9244222938694173 
0.8499999999999227, -0.9234809648702137 
0.8599999999999216, -0.9228138985763333 
0.8699999999999205, -0.9225391659231678 
0.8799999999999194, -0.922548762427214 
0.8899999999999183, -0.9225886557920764 
0.8999999999999172, -0.9224835407202872 
0.9099999999999161, -0.9222080751879844 
0.919999999999915, -0.9218165614684376 
0.9299999999999139, -0.9213318102751927 
0.9399999999999128, -0.9208007176804931 
0.9499999999999117, -0.9203722237728826 
0.9599999999999106, -0.9202114251732693 
0.9699999999999095, -0.9203448383023415 
0.9799999999999084, -0.9206406041003149 
0.9899999999999073, -0.9209388962203956 
0.9999999999999062, -0.9211659657139405 
1.0099999999999052, -0.9212850529723897 
1.019999999999904, -0.9212206667038418 
1.029999999999903, -0.9209619118063929 
1.039999999999902, -0.9206550009581086 
1.0499999999999008, -0.920575899001118 
1.0599999999998997, -0.920933786115638 
1.0699999999998986, -0.9216684566725067 
1.0799999999998975, -0.9225899510255023 
1.0899999999998964, -0.9235491688388222 
1.0999999999998953, -0.9243833703025285 
1.1099999999998942, -0.924855779257919 
1.119999999999893, -0.9248965337688873 
1.129999999999892, -0.9246764774371559 
1.1399999999998909, -0.9245211281453234 
1.1499999999998898, -0.9249788557285562 
1.1599999999998887, -0.9264098446117516 
1.1699999999998876, -0.9285793466265228 
1.1799999999998865, -0.9310626451770799 
1.1899999999998854, -0.9333610001276277 
1.1999999999998843, -0.9348365871229746 
1.2099999999998832, -0.9353507868361229 
1.219999999999882, -0.9352895663724838 
1.229999999999881, -0.9350218477077976 
1.2399999999998799, -0.93518858272869 
1.2499999999998788, -0.9371166334387174 
1.2599999999998777, -0.9414494369677192 
1.2699999999998766, -0.9471944976834739 
1.2799999999998755, -0.9526790940884232 
1.2899999999998744, -0.956150287806027 
1.2999999999998733, -0.9574446836100341 
1.3099999999998722, -0.9576290377801504 
1.319999999999871, -0.9573600257406616 
1.32999999999987, -0.9571190640512363 
1.3399999999998689, -0.9586504056393486 
1.3499999999998678, -0.964849114920127 
1.3599999999998666, -0.9751319685827755 
1.3699999999998655, -0.98533035327587 
1.3799999999998644, -0.9915182506170934 
1.3899999999998633, -0.9937154055923664 
1.3999999999998622, -0.99413739714555 
1.4099999999998611, -0.9939253671955824 
1.41999999999986, -0.9935288283418875 
1.429999999999859, -0.9944897010171698 
1.4399999999998578, -1.0005535522464692 
1.4499999999998567, -1.0118076917009358 
1.4599999999998556, -1.0230404357362788 
1.4699999999998545, -1.0298096888426966 
1.4799999999998534, -1.032218834176941 
1.4899999999998523, -1.0326939057902456 
1.4999999999998512, -1.032502500550267 
1.5099999999998501, -1.0321566283076837 
1.519999999999849, -1.0330849392516621 
1.529999999999848, -1.0377502924174462 
1.5399999999998468, -1.0451932034554137 
1.5499999999998457, -1.0521975799495353 
1.5599999999998446, -1.0565972204997374 
1.5699999999998435, -1.0582968027398234 
1.5799999999998424, -1.0586042192675453 
1.5899999999998413, -1.058387880378838 
1.5999999999998402, -1.0581979592399293 
1.6099999999998391, -1.0591871591614137 
1.619999999999838, -1.0620395462444183 
1.629999999999837, -1.065626569186921 
1.6399999999998358, -1.0688088256802164 
1.6499999999998347, -1.0709100113460475 
1.6599999999998336, -1.0717696165745665 
1.6699999999998325, -1.0718379527565023 
1.6799999999998314, -1.071590872146051 
1.6899999999998303, -1.0715455610898261 
1.6999999999998292, -1.072307556175697 
1.709999999999828, -1.0737335214771795 
1.719999999999827, -1.0752516332679276 
1.729999999999826, -1.0765330393183157 
1.7399999999998248, -1.0773665940076937 
1.7499999999998237, -1.077641461925407 
1.7599999999998226, -1.077493358826024 
1.7699999999998215, -1.0772104272431458 
1.7799999999998204, -1.0771773577783914 
1.7899999999998193, -1.0775752308081403 
1.7999999999998182, -1.078190760021365 
1.809999999999817, -1.078768378473015 
1.819999999999816, -1.079172073072731 
1.8299999999998149, -1.0793319846610652 
1.8399999999998138, -1.0792015046839267 
1.8499999999998127, -1.0788425897413323 
1.8599999999998116, -1.0784635422452549 
1.8699999999998105, -1.0783024149882998 
1.8799999999998094, -1.078405346980696 
1.8899999999998083, -1.078617083048161 
1.8999999999998072, -1.078727617177999 
1.909999999999806, -1.078627284538326 
1.919999999999805, -1.0783087103201514 
1.9299999999998039, -1.0777888578890154 
1.9399999999998028, -1.077136794090245 
1.9499999999998017, -1.0765308928158037 
1.9599999999998006, -1.0761760521733443 
1.9699999999997995, -1.076116917476967 
1.9799999999997984, -1.076123202298059 
1.9899999999997973, -1.0759203238880728 
1.9999999999997962, -1.0753690106709892 
2.0099999999998173, -1.0744947626394457 
2.0199999999998384, -1.0733982880362856 
2.0299999999998595, -1.0722102386451573 
2.0399999999998806, -1.0711934893516482 
2.0499999999999017, -1.0706754332277475 
2.059999999999923, -1.070575106024732 
2.069999999999944, -1.0704492719105967 
2.079999999999965, -1.069936839387788 
2.089999999999986, -1.0687720899832183 
2.100000000000007, -1.0669619030372868 
2.1100000000000283, -1.0647681500023587 
2.1200000000000494, -1.0625492742451645 
2.1300000000000705, -1.0609474092789664 
2.1400000000000916, -1.0603945723725803 
2.1500000000001127, -1.0603241409409592 
2.160000000000134, -1.0600825752663032 
2.170000000000155, -1.0592023405658466 
2.180000000000176, -1.0570823647063476 
2.190000000000197, -1.0535588897954222 
2.2000000000002182, -1.0492701172845431 
2.2100000000002393, -1.045304467803998 
2.2200000000002604, -1.0430965995738672 
2.2300000000002815, -1.0426557057808172 
2.2400000000003026, -1.0426297137244764 
2.2500000000003237, -1.042292913880025 
2.260000000000345, -1.0410479049226284 
2.270000000000366, -1.0377396363604978 
2.280000000000387, -1.0317712414603755 
2.290000000000408, -1.0244964003998012 
2.3000000000004293, -1.0184308928006431 
2.3100000000004504, -1.015760424791359 
2.3200000000004715, -1.0154360534392892 
2.3300000000004926, -1.0154460468464712 
2.3400000000005137, -1.0150835243089207 
2.3500000000005348, -1.0137064210688365 
2.360000000000556, -1.0098380197232157 
2.370000000000577, -1.0025367039025366 
2.380000000000598, -0.9936712739854822 
2.390000000000619, -0.9865367872470168 
2.4000000000006403, -0.9834463229237744 
2.4100000000006614, -0.983034444976825 
2.4200000000006825, -0.9830639956296758 
2.4300000000007036, -0.9827750330565573 
2.4400000000007247, -0.9816401162639184 
2.450000000000746, -0.978522655814502 
2.460000000000767, -0.9727448021218986 
2.470000000000788, -0.9657576191447079 
2.480000000000809, -0.959772744420718 
2.49000000000083, -0.9565221828128961 
2.5000000000008513, -0.9557394921580824 
2.5100000000008724, -0.9557195908523909 
2.5200000000008935, -0.9555562910819491 
2.5300000000009146, -0.9548374044174517 
2.5400000000009357, -0.9529670695956477 
2.550000000000957, -0.949677116140304 
2.560000000000978, -0.9457270149542001 
2.570000000000999, -0.9420605049538885 
2.58000000000102, -0.9394583006630178 
2.5900000000010412, -0.9383420682391855 
2.6000000000010624, -0.938150533711759 
2.6100000000010835, -0.9380825234558915 
2.6200000000011046, -0.9377216868743372 
2.6300000000011257, -0.9367725815163673 
2.6400000000011468, -0.9351553532787247 
2.650000000001168, -0.9332105517857537 
2.660000000001189, -0.9313003694553609 
2.67000000000121, -0.9296874932546559 
2.680000000001231, -0.928663239707806 
2.6900000000012523, -0.9283015960453911 
2.7000000000012734, -0.9282581330267756 
2.7100000000012945, -0.9281464958329068 
2.7200000000013156, -0.9277490377306534 
2.7300000000013367, -0.9270268029748254 
2.740000000001358, -0.9261217982332445 
2.750000000001379, -0.9251690765971026 
2.7600000000014, -0.9242667016158665 
2.770000000001421, -0.9235689386950154 
2.780000000001442, -0.9232231517340529 
2.7900000000014633, -0.9231988224923368 
2.8000000000014844, -0.9232751440852356 
2.8100000000015055, -0.9232512923653963 
2.8200000000015266, -0.9230663451437349 
2.8300000000015477, -0.9227585747181937 
2.840000000001569, -0.9223473042748473 
2.85000000000159, -0.9218561369310795 
2.860000000001611, -0.9214119089920859 
2.870000000001632, -0.9211995647425075 
2.8800000000016532, -0.9212961015548469 
2.8900000000016743, -0.9216048255332024 
2.9000000000016954, -0.9219608602122058 
2.9100000000017165, -0.922265374327396 
2.9200000000017377, -0.9224742179195247 
2.9300000000017588, -0.9225049418071963 
2.94000000000178, -0.9223127191117603 
2.950000000001801, -0.9220079272738403 
2.960000000001822, -0.9218536439701088 
2.970000000001843, -0.9221265096669221 
2.9800000000018643, -0.9228451383819329 
2.9900000000018854, -0.9238206229261475 
3.0000000000019065, -0.9248782293439421 
3.0100000000019276, -0.9258543481198065 
3.0200000000019487, -0.9264939158198126 
3.03000000000197, -0.9266588997372077 
3.040000000001991, -0.9264890085029773 
3.050000000002012, -0.9262725742224273 
3.060000000002033, -0.9265325299633306 
3.070000000002054, -0.9277939719607854 
3.0800000000020753, -0.9299653910074256 
3.0900000000020964, -0.9325919345646534 
3.1000000000021175, -0.9351625359213547 
3.1100000000021386, -0.9369830797452352 
3.1200000000021597, -0.9377384787421831 
3.130000000002181, -0.9377887868929015 
3.140000000002202, -0.9375331977567817 
3.150000000002223, -0.9374845463829647 
3.160000000002244, -0.9388937980576262 
3.1700000000022652, -0.9428461054135652 
3.1800000000022863, -0.9486436056191014 
3.1900000000023074, -0.9546005638461664 
3.2000000000023285, -0.9587703392592989 
3.2100000000023496, -0.9605205754604893 
3.2200000000023707, -0.9608879176748326 
3.230000000002392, -0.9606916061199283 
3.240000000002413, -0.9603603909845168 
3.250000000002434, -0.9612113073380852 
3.260000000002455, -0.9662183977166316 
3.2700000000024763, -0.9758828758263849 
3.2800000000024974, -0.9864781553591766 
3.2900000000025185, -0.9936887660325394 
3.3000000000025396, -0.9965620364381477 
3.3100000000025607, -0.9972278918378062 
3.3200000000025818, -0.99711223490987 
3.330000000002603, -0.9967066570139257 
3.340000000002624, -0.9971098529957811 
3.350000000002645, -1.0017052763371077 
3.360000000002666, -1.011765626904304 
3.3700000000026873, -1.0229226516731091 
3.3800000000027084, -1.030479146305007 
3.3900000000027295, -1.0335181672348768 
3.4000000000027506, -1.034232535043501 
3.4100000000027717, -1.034132880313536 
3.420000000002793, -1.0337715698570913 
3.430000000002814, -1.0342262429306026 
3.440000000002835, -1.0378733115734449 
3.450000000002856, -1.0445705140184625 
3.460000000002877, -1.0514180214543316 
3.4700000000028983, -1.0561650564512426 
3.4800000000029194, -1.0582409720528798 
3.4900000000029405, -1.0587229888953729 
3.5000000000029616, -1.0585725953989942 
3.5100000000029827, -1.0583179443736699 
3.520000000003004, -1.058937063577637 
3.530000000003025, -1.0613317171432513 
3.540000000003046, -1.064667452781812 
3.550000000003067, -1.067796678500901 
3.5600000000030882, -1.070032160848914 
3.5700000000031094, -1.0710758391513324 
3.5800000000031305, -1.0712513232386183 
3.5900000000031516, -1.0710331755623022 
3.6000000000031727, -1.0708899979732787 
3.6100000000031938, -1.071438991971051 
3.620000000003215, -1.0727116429410262 
3.630000000003236, -1.074167267261007 
3.640000000003257, -1.0754458636284414 
3.650000000003278, -1.0763398526984367 
3.6600000000032993, -1.076704855210158 
3.6700000000033204, -1.0766159102234778 
3.6800000000033415, -1.0763278161353076 
3.6900000000033626, -1.0762063846823875 
3.7000000000033837, -1.0765038559114672 
3.710000000003405, -1.0770713925380597 
3.720000000003426, -1.0776451302378849 
3.730000000003447, -1.0780665639636293 
3.740000000003468, -1.0782626353127112 
3.750000000003489, -1.078180000200435 
3.7600000000035103, -1.0778482750280556 
3.7700000000035314, -1.077444125292185 
3.7800000000035525, -1.0772153868612069 
3.7900000000035736, -1.0772595942614014 
3.8000000000035947, -1.0774574632954108 
3.810000000003616, -1.0775941489795462 
3.820000000003637, -1.0775308490937268 
3.830000000003658, -1.0772458923249446 
3.840000000003679, -1.0767557107915278 
3.8500000000037002, -1.0761109064958942 
3.8600000000037213, -1.0754669534454973 
3.8700000000037424, -1.0750371777513907 
3.8800000000037635, -1.07492112746596 
3.8900000000037847, -1.0749373229895145 
3.9000000000038058, -1.0747947346167297 
3.910000000003827, -1.0743176467904243 
3.920000000003848, -1.0734978439787732 
3.930000000003869, -1.0724319540326364 
3.94000000000389, -1.07123870092111 
3.9500000000039113, -1.0701454925261786 
3.9600000000039324, -1.0694976790817128 
3.9700000000039535, -1.0693389942481673 
3.9800000000039746, -1.0692547650792603 
3.9900000000039957, -1.068856919569269 
4.000000000004016, -1.0678528188024254 
4.010000000003993, -1.0661718996139877 
4.02000000000397, -1.0640434628021285 
4.030000000003946, -1.061793708090964 
4.040000000003923, -1.0599905411987562 
4.0500000000039, -1.0592176806811053 
4.0600000000038765, -1.0591078930666997 
4.070000000003853, -1.058946326716654 
4.08000000000383, -1.0582678411394653 
4.090000000003807, -1.0564971488806076 
4.100000000003783, -1.0533073361683574 
4.11000000000376, -1.0491850088659898 
4.120000000003737, -1.0450868844591905 
4.130000000003713, -1.0424122211368232 
4.14000000000369, -1.0416754185352601 
4.150000000003667, -1.0416435996895317 
4.1600000000036434, -1.0414211549430845 
4.17000000000362, -1.0404829810940825 
4.180000000003597, -1.0378194857277314 
4.1900000000035735, -1.0325634110463968 
4.20000000000355, -1.0256189439588692 
4.210000000003527, -1.0192017622948695 
4.220000000003504, -1.015747304144582 
4.23000000000348, -1.0150865190642742 
4.240000000003457, -1.0151114307470013 
4.250000000003434, -1.0148765268705462 
4.26000000000341, -1.0138521927756552 
4.270000000003387, -1.0107972948035318 
4.280000000003364, -1.004449370868396 
4.2900000000033405, -0.9959914430539952 
4.300000000003317, -0.9884071798409216 
4.310000000003294, -0.984419869590459 
4.320000000003271, -0.983619817573145 
4.330000000003247, -0.983648696153703 
4.340000000003224, -0.9834700773009564 
4.350000000003201, -0.9826212842164084 
4.360000000003177, -0.9801325235847631 
4.370000000003154, -0.9750503940745342 
4.380000000003131, -0.9683350783049661 
4.390000000003107, -0.9620875239582921 
4.400000000003084, -0.9581886564598878 
4.410000000003061, -0.9569822993820449 
4.4200000000030375, -0.9569012529957621 
4.430000000003014, -0.9568092793291566 
4.440000000002991, -0.956266911908247 
4.450000000002968, -0.9547321222721427 
4.460000000002944, -0.9517663459170514 
4.470000000002921, -0.9479180446456169 
4.480000000002898, -0.9441503999032644 
4.490000000002874, -0.9412589630021482 
4.500000000002851, -0.9398206492796691 
4.510000000002828, -0.9394996923304556 
4.520000000002804, -0.9394510674648662 
4.530000000002781, -0.9391835634214446 
4.540000000002758, -0.9383888423075077 
4.5500000000027345, -0.9369009989988513 
4.560000000002711, -0.9349842643517959 
4.570000000002688, -0.9330316787650446 
4.580000000002665, -0.9313154150839975 
4.590000000002641, -0.9301299693410681 
4.600000000002618, -0.9296358996039684 
4.610000000002595, -0.9295596954587115 
4.620000000002571, -0.9294856402402184 
4.630000000002548, -0.9291574276306314 
4.640000000002525, -0.9284884736415099 
4.6500000000025015, -0.9275933629811182 
4.660000000002478, -0.9266260231373156 
4.670000000002455, -0.9256856209240714 
4.6800000000024315, -0.9249143382077346 
4.690000000002408, -0.9244768139314858 
4.700000000002385, -0.9243921884987948 
4.710000000002362, -0.9244621356166803 
4.720000000002338, -0.9244615792892972 
4.730000000002315, -0.9242960743250596 
4.740000000002292, -0.9239940563139809 
4.750000000002268, -0.9235885126973991 
4.760000000002245, -0.9230944777779095 
4.770000000002222, -0.9226135067712662 
4.7800000000021985, -0.9223283984165238 
4.790000000002175, -0.9223491913739134 
4.800000000002152, -0.9226110999370895 
4.810000000002129, -0.9229487352926367 
4.820000000002105, -0.923242949294549 
4.830000000002082, -0.9234501390815879 
4.840000000002059, -0.9235041180599476 
4.850000000002035, -0.9233416767061067 
4.860000000002012, -0.9230357325935057 
4.870000000001989, -0.9228171229605023 
4.880000000001965, -0.9229721133196284 
4.890000000001942, -0.9235748514441917 
4.900000000001919, -0.9244611203925741 
4.9100000000018955, -0.925450196260603 
4.920000000001872, -0.9263979265526541 
4.930000000001849, -0.9270819702451462 
