t, s[1].omega / s[0].omega 
0, -1.319997695841088 
0.009999999999999995, -1.3195759204313904 
0.019999999999999934, -1.3187788425205889 
0.029999999999999874, -1.3176237503234065 
0.04000000000000012, -1.3161569367397394 
0.050000000000000405, -1.3144712890566097 
0.06000000000000069, -1.3127400186550338 
0.07000000000000098, -1.311269123699676 
0.08000000000000126, -1.3103914251529374 
0.09000000000000155, -1.3101175539611218 
0.10000000000000184, -1.3100827777273913 
0.11000000000000212, -1.309884102996685 
0.12000000000000241, -1.3091812351937682 
0.130000000000002, -1.3074835305641717 
0.1400000000000009, -1.3038345719782862 
0.1499999999999998, -1.296531117784649 
0.1599999999999987, -1.2831868145804661 
0.1699999999999976, -1.2615958695722524 
0.1799999999999965, -1.2318172673085737 
0.1899999999999954, -1.199515789059842 
0.1999999999999943, -1.175722066863821 
0.2099999999999932, -1.1660502193383866 
0.2199999999999921, -1.165081552606126 
0.229999999999991, -1.166274111094026 
0.2399999999999899, -1.1671797765947391 
0.2499999999999888, -1.1674466641801053 
0.2599999999999877, -1.1670711068126187 
0.2699999999999866, -1.165802028969802 
0.2799999999999855, -1.1626966470552065 
0.2899999999999844, -1.1550099875269688 
0.2999999999999833, -1.13532708233622 
0.3099999999999822, -1.0871212584557655 
0.3199999999999811, -0.9906332540249667 
0.32999999999998, -0.8570620260568523 
0.3399999999999789, -0.7380678925564127 
0.3499999999999778, -0.6680151539737977 
0.35999999999997667, -0.6380392179104062 
0.36999999999997557, -0.6278375326305132 
0.37999999999997447, -0.6251853299630042 
0.38999999999997337, -0.6249559103274102 
0.39999999999997227, -0.6253139382244297 
0.40999999999997117, -0.6256682492218775 
0.41999999999997006, -0.6258448131338433 
0.42999999999996896, -0.625783371568783 
0.43999999999996786, -0.6254314953629144 
0.44999999999996676, -0.6247185246796392 
0.45999999999996566, -0.623583340299506 
0.46999999999996456, -0.6220461438801553 
0.47999999999996346, -0.620260588588655 
0.48999999999996235, -0.6184584161927476 
0.49999999999996125, -0.616823612510405 
0.5099999999999602, -0.6154259264539124 
0.519999999999959, -0.6142462652743041 
0.529999999999958, -0.6132351250445544 
0.5399999999999568, -0.6123580151639196 
0.5499999999999557, -0.6116169393803885 
0.5599999999999546, -0.6110551838524225 
0.5699999999999535, -0.6107556192889719 
0.5799999999999524, -0.6108372903621104 
0.5899999999999513, -0.611451026061642 
0.5999999999999502, -0.6127763545809732 
0.6099999999999491, -0.6150256808598211 
0.619999999999948, -0.6184615184007817 
0.6299999999999469, -0.6234230975408644 
0.6399999999999458, -0.6303309982458876 
0.6499999999999447, -0.6395747110456063 
0.6599999999999436, -0.651108458318154 
0.6699999999999425, -0.6637681448330283 
0.6799999999999414, -0.6752135906122595 
0.6899999999999403, -0.6834796907858753 
0.6999999999999392, -0.6883844468986379 
0.7099999999999381, -0.6909051276196276 
0.719999999999937, -0.6920224815339211 
0.7299999999999359, -0.6923239914875181 
0.7399999999999348, -0.69205649423702 
0.7499999999999337, -0.6912090588780538 
0.7599999999999326, -0.6894810774576619 
0.7699999999999315, -0.6860308091621421 
0.7799999999999304, -0.6787121500157506 
0.7899999999999293, -0.6621383514346042 
0.7999999999999282, -0.6249254121708387 
0.8099999999999271, -0.5561861290808607 
0.819999999999926, -0.4725123109606982 
0.8299999999999249, -0.4084917471962654 
0.8399999999999238, -0.37191218417029115 
0.8499999999999227, -0.35290241081287904 
0.8599999999999216, -0.3429636663406872 
0.8699999999999205, -0.33759036482006666 
0.8799999999999194, -0.3346064610867702 
0.8899999999999183, -0.3329519330528795 
0.8999999999999172, -0.33209606778305206 
0.9099999999999161, -0.3317726877259519 
0.919999999999915, -0.33186196308133614 
0.9299999999999139, -0.33234184007603584 
0.9399999999999128, -0.3332786397392675 
0.9499999999999117, -0.33484810835118023 
0.9599999999999106, -0.33738951999669736 
0.9699999999999095, -0.34149656364574776 
0.9799999999999084, -0.3481056464291781 
0.9899999999999073, -0.35833563753533954 
0.9999999999999062, -0.3724384850196516 
1.0099999999999052, -0.3879892035040723 
1.019999999999904, -0.4007299625182716 
1.029999999999903, -0.40869799994596384 
1.039999999999902, -0.4129137659962977 
1.0499999999999008, -0.4149701314233388 
1.0599999999998997, -0.4158835539949915 
1.0699999999998986, -0.41614260977227663 
1.0799999999998975, -0.4159302489271296 
1.0899999999998964, -0.4152508642249745 
1.0999999999998953, -0.41399195459302746 
1.1099999999998942, -0.4120014329846497 
1.119999999999893, -0.40925432429927255 
1.129999999999892, -0.4060359543795137 
1.1399999999998909, -0.4028718871687841 
1.1499999999998898, -0.40019451586707183 
1.1599999999998887, -0.39814588201521517 
1.1699999999998876, -0.39665193914939206 
1.1799999999998865, -0.3955632977483209 
1.1899999999998854, -0.39473939256212476 
1.1999999999998843, -0.3940821821502567 
1.2099999999998832, -0.393545074486669 
1.219999999999882, -0.39313399489411655 
1.229999999999881, -0.3929161081790584 
1.2399999999998799, -0.39305414841622455 
1.2499999999998788, -0.3938956400705278 
1.2599999999998777, -0.39618445887769427 
1.2699999999998766, -0.4015664211120249 
1.2799999999998755, -0.41381557422891563 
1.2899999999998744, -0.4416138875261992 
1.2999999999998733, -0.5025098354365725 
1.3099999999998722, -0.6153291628340937 
1.319999999999871, -0.7580433394789767 
1.32999999999987, -0.8686191848452776 
1.3399999999998689, -0.9271811718097478 
1.3499999999998678, -0.952757043649209 
1.3599999999998666, -0.9632790039890089 
1.3699999999998655, -0.9675933525597238 
1.3799999999998644, -0.9693130684316762 
1.3899999999998633, -0.9698297365769194 
1.3999999999998622, -0.9696224190135803 
1.4099999999998611, -0.9687079179594922 
1.41999999999986, -0.9666771575972631 
1.429999999999859, -0.9623995042858542 
1.4399999999998578, -0.9532864032790168 
1.4499999999998567, -0.9342310045077957 
1.4599999999998556, -0.8977579340623879 
1.4699999999998545, -0.837487228439488 
1.4799999999998534, -0.7535890717356759 
1.4899999999998523, -0.6666806540961057 
1.4999999999998512, -0.608486830159045 
1.5099999999998501, -0.5817259988823366 
1.519999999999849, -0.5720579967102021 
1.529999999999848, -0.5692490363853877 
1.5399999999998468, -0.568783006077463 
1.5499999999998457, -0.5689747687116612 
1.5599999999998446, -0.5692444525636808 
1.5699999999998435, -0.5694016322872538 
1.5799999999998424, -0.5693764035352825 
1.5899999999998413, -0.5691237168367888 
1.5999999999998402, -0.568600531404608 
1.6099999999998391, -0.5677869782889566 
1.619999999999838, -0.5667311725770517 
1.629999999999837, -0.5655661896890061 
1.6399999999998358, -0.5644554733843619 
1.6499999999998347, -0.5635091847702688 
1.6599999999998336, -0.5627483703615512 
1.6699999999998325, -0.5621274881721793 
1.6799999999998314, -0.5615804338177424 
1.6899999999998303, -0.5610604286158244 
1.6999999999998292, -0.5605604697519916 
1.709999999999828, -0.5601199085707349 
1.719999999999827, -0.5598338124378205 
1.729999999999826, -0.5598786794125671 
1.7399999999998248, -0.5605619752926735 
1.7499999999998237, -0.5624028158057658 
1.7599999999998226, -0.5662576448370631 
1.7699999999998215, -0.5735133531425946 
1.7799999999998204, -0.5863508822708795 
1.7899999999998193, -0.6078995753219567 
1.7999999999998182, -0.6413902662835107 
1.809999999999817, -0.6863452254195357 
1.819999999999816, -0.7332874708733814 
1.8299999999998149, -0.7687687421390358 
1.8399999999998138, -0.7888536147541082 
1.8499999999998127, -0.7984144368363516 
1.8599999999998116, -0.8026569479850958 
1.8699999999998105, -0.8044503440297212 
1.8799999999998094, -0.8050610532499831 
1.8899999999998083, -0.8049730982177912 
1.8999999999998072, -0.8042630358273826 
1.909999999999806, -0.8026618366080008 
1.919999999999805, -0.7993292416637169 
1.9299999999998039, -0.7921000601138496 
1.9399999999998028, -0.7755521883832937 
1.9499999999998017, -0.7377311221345519 
1.9599999999998006, -0.6633928194301948 
1.9699999999997995, -0.5620625928262398 
1.9799999999997984, -0.476047106782161 
1.9899999999997973, -0.4248172147955408 
1.9999999999997962, -0.398526283265292 
2.0099999999998173, -0.38532021736515293 
2.0199999999998384, -0.3785445355525436 
2.0299999999998595, -0.37499293335753214 
2.0399999999998806, -0.3731323763868387 
2.0499999999999017, -0.3722076468462747 
2.059999999999923, -0.37183661826680864 
2.069999999999944, -0.37182800495186435 
2.079999999999965, -0.3720994622131608 
2.089999999999986, -0.3726446118613772 
2.100000000000007, -0.37352735543681576 
2.1100000000000283, -0.3748928116244967 
2.1200000000000494, -0.3769846904603053 
2.1300000000000705, -0.3801444769481138 
2.1400000000000916, -0.38471754776594835 
2.1500000000001127, -0.390731381949592 
2.160000000000134, -0.397428332781275 
2.170000000000155, -0.4034005484057365 
2.180000000000176, -0.4076520559534019 
2.190000000000197, -0.410178404127281 
2.2000000000002182, -0.41147175334518366 
2.2100000000002393, -0.4119773495504251 
2.2200000000002604, -0.41193637807913486 
2.2300000000002815, -0.41139907819042415 
2.2400000000003026, -0.4102378355051922 
2.2500000000003237, -0.4081334427394461 
2.260000000000345, -0.40462457987929196 
2.270000000000366, -0.3994330349085725 
2.280000000000387, -0.3930387175291154 
2.290000000000408, -0.3866771559424707 
2.3000000000004293, -0.3814058022536279 
2.3100000000004504, -0.37751202761245617 
2.3200000000004715, -0.374774218493693 
2.3300000000004926, -0.3728574918201583 
2.3400000000005137, -0.3714886912730205 
2.3500000000005348, -0.37048914879144584 
2.360000000000556, -0.36976456680560255 
2.370000000000577, -0.3692919365236372 
2.380000000000598, -0.36911806154577653 
2.390000000000619, -0.36938015137085384 
2.4000000000006403, -0.3703654123392487 
2.4100000000006614, -0.3726483713310646 
2.4200000000006825, -0.3774001574327649 
2.4300000000007036, -0.3870934572205724 
2.4400000000007247, -0.4070513244126437 
2.450000000000746, -0.44801668980052994 
2.460000000000767, -0.5249281690786936 
2.470000000000788, -0.6342234009251854 
2.480000000000809, -0.7318465284085004 
2.49000000000083, -0.7877283102913906 
2.5000000000008513, -0.8127757728540644 
2.5100000000008724, -0.8233072746687958 
2.5200000000008935, -0.8277888014742412 
2.5300000000009146, -0.8296933733302887 
2.5400000000009357, -0.8303838395158146 
2.550000000000957, -0.830362453358496 
2.560000000000978, -0.8297081217198072 
2.570000000000999, -0.8281390625222332 
2.58000000000102, -0.8247754865945742 
2.5900000000010412, -0.8174299005746278 
2.6000000000010624, -0.8012646064840062 
2.6100000000010835, -0.7684634620377393 
2.6200000000011046, -0.7152974019940629 
2.6300000000011257, -0.6540115839171136 
2.6400000000011468, -0.603461162799102 
2.650000000001168, -0.5701583260248352 
2.660000000001189, -0.5505473831864509 
2.67000000000121, -0.5395666534942316 
2.680000000001231, -0.5336083896880424 
2.6900000000012523, -0.5304931449354795 
2.7000000000012734, -0.5289615459156461 
2.7100000000012945, -0.5282942319256881 
2.7200000000013156, -0.5280836440629413 
2.7300000000013367, -0.5281022778859346 
2.740000000001358, -0.5282278204476902 
2.750000000001379, -0.528403881416949 
2.7600000000014, -0.5286238238551266 
2.770000000001421, -0.5289249188614409 
2.780000000001442, -0.529376194652154 
2.7900000000014633, -0.5300472647312171 
2.8000000000014844, -0.5309593395795368 
2.8100000000015055, -0.532036960534824 
2.8200000000015266, -0.5331034540026 
2.8300000000015477, -0.5339575991146362 
2.840000000001569, -0.5344779162956792 
2.85000000000159, -0.5346498116402223 
2.860000000001611, -0.5345126245204809 
2.870000000001632, -0.5341004010566094 
2.8800000000016532, -0.5334122570757719 
2.8900000000016743, -0.5324046384059329 
2.9000000000016954, -0.5309913072461168 
2.9100000000017165, -0.5290156929506611 
2.9200000000017377, -0.5259104478248076 
2.9300000000017588, -0.5181961624080148 
2.94000000000178, -0.4881279298908208 
2.950000000001801, -0.39394115382002187 
2.960000000001822, -0.2553089278258308 
2.970000000001843, -0.16501297803106676 
2.9800000000018643, -0.12616152818491314 
2.9900000000018854, -0.11009011312846385 
3.0000000000019065, -0.10283763167525897 
3.0100000000019276, -0.09924647247065707 
3.0200000000019487, -0.09736157697399142 
3.03000000000197, -0.09639206489180852 
3.040000000001991, -0.0960223637739897 
3.050000000002012, -0.09618009732383785 
3.060000000002033, -0.09698775834800132 
3.070000000002054, -0.09884629723087246 
3.0800000000020753, -0.10274237357783496 
3.0900000000020964, -0.1111533769067635 
3.1000000000021175, -0.13073471606965908 
3.1100000000021386, -0.17918422381028667 
3.1200000000021597, -0.2860621301452947 
3.130000000002181, -0.42307819988507694 
3.140000000002202, -0.4966896716794863 
3.150000000002223, -0.516419482866777 
3.160000000002244, -0.5212046430112125 
3.1700000000022652, -0.5232508966991068 
3.1800000000022863, -0.5245762709280577 
3.1900000000023074, -0.5254660028269303 
3.2000000000023285, -0.5260096590154052 
3.2100000000023496, -0.526266056329948 
3.2200000000023707, -0.5262625580443218 
3.230000000002392, -0.5259907175599594 
3.240000000002413, -0.5254160765748467 
3.250000000002434, -0.5245129514873998 
3.260000000002455, -0.5233227081149479 
3.2700000000024763, -0.521987755592462 
3.2800000000024974, -0.5207011790720676 
3.2900000000025185, -0.5196067363518051 
3.3000000000025396, -0.5187464778011436 
3.3100000000025607, -0.518079228208564 
3.3200000000025818, -0.5175288777126571 
3.330000000002603, -0.5170290644454534 
3.340000000002624, -0.5165493991437546 
3.350000000002645, -0.5161040911379153 
3.360000000002666, -0.5157583252961984 
3.3700000000026873, -0.5156509228503986 
3.3800000000027084, -0.5160499516041064 
3.3900000000027295, -0.5174644877570956 
3.4000000000027506, -0.5208578488420916 
3.4100000000027717, -0.5280494940086822 
3.420000000002793, -0.542431368334086 
3.430000000002814, -0.5699277791892106 
3.440000000002835, -0.6186190405824697 
3.450000000002856, -0.6913495977907129 
3.460000000002877, -0.7710617648157634 
3.4700000000028983, -0.8300383460943921 
3.4800000000029194, -0.8614216756011648 
3.4900000000029405, -0.8754140544220699 
3.5000000000029616, -0.8813200945762066 
3.5100000000029827, -0.8837665092624402 
3.520000000003004, -0.8846651915362092 
3.530000000003025, -0.8847420451310659 
3.540000000003046, -0.8841842917009237 
3.550000000003067, -0.8828151540569598 
3.5600000000030882, -0.8799655476089726 
3.5700000000031094, -0.8739378936746558 
3.5800000000031305, -0.8606169897661119 
3.5900000000031516, -0.8303898249387714 
3.6000000000031727, -0.7640890280647102 
3.6100000000031938, -0.6433205808553482 
3.620000000003215, -0.4998840973782766 
3.630000000003236, -0.3998640997629998 
3.640000000003257, -0.35063829463796853 
3.650000000003278, -0.32875083241400554 
3.6600000000032993, -0.3188299753264689 
3.6700000000033204, -0.3141250111608859 
3.6800000000033415, -0.3118224809698958 
3.6900000000033626, -0.31070614231702604 
3.7000000000033837, -0.31022493764743314 
3.710000000003405, -0.3101251144130152 
3.720000000003426, -0.31030143611022387 
3.730000000003447, -0.3107396411929599 
3.740000000003468, -0.3115028161779736 
3.750000000003489, -0.31274392385659505 
3.7600000000035103, -0.31473665972123455 
3.7700000000035314, -0.3179103767944532 
3.7800000000035525, -0.3228215930068325 
3.7900000000035736, -0.3298561040906512 
3.8000000000035947, -0.3384852170131432 
3.810000000003616, -0.3468696303837234 
3.820000000003637, -0.3531688220544265 
3.830000000003658, -0.3570121548711855 
3.840000000003679, -0.3590565766285201 
3.8500000000037002, -0.3600104604367159 
3.8600000000037213, -0.36030157825187004 
3.8700000000037424, -0.3601124061476436 
3.8800000000037635, -0.3594562330941369 
3.8900000000037847, -0.35822638291252923 
3.9000000000038058, -0.3562649902493255 
3.910000000003827, -0.35352496119954663 
3.920000000003848, -0.3502733469577645 
3.930000000003869, -0.3470542751833569 
3.94000000000389, -0.344342103545465 
3.9500000000039113, -0.34230343299121074 
3.9600000000039324, -0.3408636324688793 
3.9700000000039535, -0.3398603716150633 
3.9800000000039746, -0.33913484415476103 
3.9900000000039957, -0.3385674071522504 
4.000000000004016, -0.3380876940958175 
4.010000000003993, -0.3376736792005056 
4.02000000000397, -0.3373523106785718 
4.030000000003946, -0.337218687026064 
4.040000000003923, -0.3375006271913638 
4.0500000000039, -0.33873009270793153 
4.0600000000038765, -0.34218174020416897 
4.070000000003853, -0.3509476112064061 
4.08000000000383, -0.3718713135045267 
4.090000000003807, -0.41301519938373393 
4.100000000003783, -0.45018135868440184 
4.11000000000376, -0.40331486610870876 
4.120000000003737, -0.29655371287907656 
4.130000000003713, -0.22622413544215675 
4.14000000000369, -0.19538514207749094 
4.150000000003667, -0.1824349052022955 
4.1600000000036434, -0.17663304099808158 
4.17000000000362, -0.17384929766304763 
4.180000000003597, -0.17247194359090115 
4.1900000000035735, -0.17183644610915177 
4.20000000000355, -0.17166847146239783 
4.210000000003527, -0.17188443591918653 
4.220000000003504, -0.17253088875269484 
4.23000000000348, -0.17379847708487894 
4.240000000003457, -0.17611210129737068 
4.250000000003434, -0.18035392100060413 
4.26000000000341, -0.1883389385010033 
4.270000000003387, -0.20353492636137377 
4.280000000003364, -0.23047451485784748 
4.2900000000033405, -0.26768290719240184 
4.300000000003317, -0.3006931652334458 
4.310000000003294, -0.3193395190749665 
4.320000000003271, -0.3275510633255112 
4.330000000003247, -0.3310432099651735 
4.340000000003224, -0.332612385392367 
4.350000000003201, -0.33333183729222227 
4.360000000003177, -0.33360461180357665 
4.370000000003154, -0.3335818414649804 
4.380000000003131, -0.3333141625561503 
4.390000000003107, -0.33282104571734356 
4.400000000003084, -0.33214263133331945 
4.410000000003061, -0.33137708929662957 
4.4200000000030375, -0.3306731818519863 
4.430000000003014, -0.33017423400780954 
4.440000000002991, -0.32996274075112225 
4.450000000002968, -0.3300392422094759 
4.460000000002944, -0.3303240611566047 
4.470000000002921, -0.3306794238977057 
4.480000000002898, -0.33096157468683246 
4.490000000002874, -0.3310735426477774 
4.500000000002851, -0.33097337246078223 
4.510000000002828, -0.33063988110494286 
4.520000000002804, -0.3300235615782964 
4.530000000002781, -0.32897994240277667 
4.540000000002758, -0.3271225693644023 
4.5500000000027345, -0.3234079897456688 
4.560000000002711, -0.3150440956096397 
4.570000000002688, -0.29604644327404533 
4.580000000002665, -0.261681297588741 
4.590000000002641, -0.22218759456841933 
4.600000000002618, -0.19342380570868872 
4.610000000002595, -0.17720158944024245 
4.620000000002571, -0.1686172830343737 
4.630000000002548, -0.16394466372113206 
4.640000000002525, -0.1612617296161909 
4.6500000000025015, -0.15964626478407204 
4.660000000002478, -0.15865790266769694 
4.670000000002455, -0.15809934305531137 
4.6800000000024315, -0.15792058936944545 
4.690000000002408, -0.1582032073662324 
4.700000000002385, -0.15922161826316375 
4.710000000002362, -0.16164805012848307 
4.720000000002338, -0.16712977169368007 
4.730000000002315, -0.1799148916176663 
4.740000000002292, -0.2108711128376357 
4.750000000002268, -0.2788662540867312 
4.760000000002245, -0.36114192225636704 
4.770000000002222, -0.3454473669082879 
4.7800000000021985, -0.2591422861260776 
4.790000000002175, -0.2025639852213467 
4.800000000002152, -0.1778732479472584 
4.810000000002129, -0.16741355309969524 
4.820000000002105, -0.16268267025204278 
4.830000000002082, -0.1604042157753614 
4.840000000002059, -0.15928939523716826 
4.850000000002035, -0.15880690863214042 
4.860000000002012, -0.1587455846952842 
4.870000000001989, -0.15906040789261722 
4.880000000001965, -0.15983422618945753 
4.890000000001942, -0.16131111086920188 
