t, s[1].omega / s[0].omega 
0, -1.5899959454946286 
0.009999999999999995, -1.5893043220275118 
0.019999999999999934, -1.5880422087959314 
0.029999999999999874, -1.5861980816645707 
0.04000000000000012, -1.583752977529783 
0.050000000000000405, -1.5806812074842072 
0.06000000000000069, -1.5769519258180595 
0.07000000000000098, -1.5725333994569402 
0.08000000000000126, -1.5674051024203406 
0.09000000000000155, -1.5615873001481646 
0.10000000000000184, -1.5551979274191912 
0.11000000000000212, -1.548530323314991 
0.12000000000000241, -1.54210371765352 
0.130000000000002, -1.5365950947284717 
0.1400000000000009, -1.5325988381671094 
0.1499999999999998, -1.5303312279382348 
0.1599999999999987, -1.5295283428053652 
0.1699999999999976, -1.5296304397356388 
0.1799999999999965, -1.5300647826916116 
0.1899999999999954, -1.5304083897803846 
0.1999999999999943, -1.5303930137893864 
0.2099999999999932, -1.5298294921760716 
0.2199999999999921, -1.5285152805381452 
0.229999999999991, -1.5261383775950204 
0.2399999999999899, -1.5221557828024925 
0.2499999999999888, -1.5156024710999627 
0.2599999999999877, -1.504764079657768 
0.2699999999999866, -1.4866263779034297 
0.2799999999999855, -1.4560520837981372 
0.2899999999999844, -1.4049088451543736 
0.2999999999999833, -1.3221418390268593 
0.3099999999999822, -1.1964821125896579 
0.3199999999999811, -1.0210263105645336 
0.32999999999998, -0.7934495167103023 
0.3399999999999789, -0.5138602458567713 
0.3499999999999778, -0.20353083818558923 
0.35999999999997667, 0.07301624481280367 
0.36999999999997557, 0.261152523131413 
0.37999999999997447, 0.36788604144975995 
0.38999999999997337, 0.42479014461744785 
0.39999999999997227, 0.4554863881960303 
0.40999999999997117, 0.47268983810291343 
0.41999999999997006, 0.482725761720554 
0.42999999999996896, 0.4887685126972141 
0.43999999999996786, 0.49247465031486737 
0.44999999999996676, 0.49475142251873677 
0.45999999999996566, 0.49612173173003343 
0.46999999999996456, 0.4969039143194713 
0.47999999999996346, 0.49730479265497035 
0.48999999999996235, 0.4974710704448713 
0.49999999999996125, 0.4975205836601524 
0.5099999999999602, 0.49756428430102867 
0.519999999999959, 0.49772472880345703 
0.529999999999958, 0.498153788826632 
0.5399999999999568, 0.49904920122012353 
0.5499999999999557, 0.5006647377655294 
0.5599999999999546, 0.5033013993701336 
0.5699999999999535, 0.5072599857378224 
0.5799999999999524, 0.5127397097440545 
0.5899999999999513, 0.5197001560639455 
0.5999999999999502, 0.5277618854340504 
0.6099999999999491, 0.5362462525368412 
0.619999999999948, 0.544375610695839 
0.6299999999999469, 0.5515184164233792 
0.6399999999999458, 0.5573280507136992 
0.6499999999999447, 0.5617294429949046 
0.6599999999999436, 0.5648176013377072 
0.6699999999999425, 0.5667491434775677 
0.6799999999999414, 0.5676660164628261 
0.6899999999999403, 0.5676524387224059 
0.6999999999999392, 0.5667115549564884 
0.7099999999999381, 0.5647490595163832 
0.719999999999937, 0.5615575060200638 
0.7299999999999359, 0.5568046543935552 
0.7399999999999348, 0.5500447737624883 
0.7499999999999337, 0.5407953341878274 
0.7599999999999326, 0.5287386721948778 
0.7699999999999315, 0.5140633557011093 
0.7799999999999304, 0.4977821314147024 
0.7899999999999293, 0.4816585662731368 
0.7999999999999282, 0.4675498441836887 
0.8099999999999271, 0.4565984567519548 
0.819999999999926, 0.4489388306193493 
0.8299999999999249, 0.4440051778412912 
0.8399999999999238, 0.4410080449267832 
0.8499999999999227, 0.43924282155258965 
0.8599999999999216, 0.43819121736573635 
0.8699999999999205, 0.4375075529348602 
0.8799999999999194, 0.43696955060771714 
0.8899999999999183, 0.4364306204755326 
0.8999999999999172, 0.4357832432382127 
0.9099999999999161, 0.4349318614525807 
0.919999999999915, 0.4337704778219806 
0.9299999999999139, 0.4321592576091717 
0.9399999999999128, 0.42989297217863043 
0.9499999999999117, 0.4266501531940285 
0.9599999999999106, 0.42190250742972 
0.9699999999999095, 0.41474341820578714 
0.9799999999999084, 0.40354881697947126 
0.9899999999999073, 0.38528625565516034 
0.9999999999999062, 0.3541038850649976 
1.0099999999999052, 0.2986502214279992 
1.019999999999904, 0.19841030265127932 
1.029999999999903, 0.025172886378878365 
1.039999999999902, -0.23330349013087445 
1.0499999999999008, -0.5427830644197806 
1.0599999999998997, -0.8462863198680952 
1.0699999999998986, -1.1105837478492735 
1.0799999999998975, -1.3196946137107866 
1.0899999999998964, -1.4664637747547307 
1.0999999999998953, -1.5582569961564925 
1.1099999999998942, -1.6114616893323224 
1.119999999999893, -1.6412638036063993 
1.129999999999892, -1.657822090822461 
1.1399999999998909, -1.6670183871852056 
1.1499999999998898, -1.6720690823427973 
1.1599999999998887, -1.6747069067592892 
1.1699999999998876, -1.6758703302604634 
1.1799999999998865, -1.676080550662321 
1.1899999999998854, -1.6756535004888626 
1.1999999999998843, -1.6748342331744297 
1.2099999999998832, -1.6738922886328187 
1.219999999999882, -1.6731700911099192 
1.229999999999881, -1.6730413603432126 
1.2399999999998799, -1.6737671228277844 
1.2499999999998788, -1.6753502763392811 
1.2599999999998777, -1.6775379317551307 
1.2699999999998766, -1.6799768150073178 
1.2799999999998755, -1.6823740614582319 
1.2899999999998744, -1.6845548616001293 
1.2999999999998733, -1.6864327198073348 
1.3099999999998722, -1.687958007143944 
1.319999999999871, -1.6890853778614827 
1.32999999999987, -1.68976321488017 
1.3399999999998689, -1.6899320231361934 
1.3499999999998678, -1.6895218947455464 
1.3599999999998666, -1.6884470200956814 
1.3699999999998655, -1.6865988189637988 
1.3799999999998644, -1.6838387924940166 
1.3899999999998633, -1.6799906354157461 
1.3999999999998622, -1.6748303019373803 
1.4099999999998611, -1.6680732874187802 
1.41999999999986, -1.659361279428249 
1.429999999999859, -1.648257937162066 
1.4399999999998578, -1.6342803838730244 
1.4499999999998567, -1.6170223461258575 
1.4599999999998556, -1.5964518640675014 
1.4699999999998545, -1.5734171220330453 
1.4799999999998534, -1.550124485695256 
1.4899999999998523, -1.529911697507183 
1.4999999999998512, -1.5157892361111462 
1.5099999999998501, -1.5086504313098688 
1.519999999999849, -1.5069888043407274 
1.529999999999848, -1.5083061392482955 
1.5399999999998468, -1.510560736253841 
1.5499999999998457, -1.5126266010793323 
1.5599999999998446, -1.5140641618760082 
1.5699999999998435, -1.5147684768221064 
1.5799999999998424, -1.5147308517004758 
1.5899999999998413, -1.5139141510185536 
1.5999999999998402, -1.5121861441160602 
1.6099999999998391, -1.5092700327130968 
1.619999999999838, -1.5047002249857855 
1.629999999999837, -1.4978185245948739 
1.6399999999998358, -1.4879540819478592 
1.6499999999998347, -1.4751541606833898 
1.6599999999998336, -1.4620640168957735 
1.6699999999998325, -1.4570062644702786 
1.6799999999998314, -1.475466870011726 
1.6899999999998303, -1.5333209666757932 
1.6999999999998292, -1.6300403726090715 
1.709999999999828, -1.7406561022740334 
1.719999999999827, -1.8357820367452067 
1.729999999999826, -1.9036559949823806 
1.7399999999998248, -1.947623710895835 
1.7499999999998237, -1.9750379067800232 
1.7599999999998226, -1.9919378610336775 
1.7699999999998215, -2.002291915464871 
1.7799999999998204, -2.0085323809988256 
1.7899999999998193, -2.0121271629644166 
1.7999999999998182, -2.01396418164491 
1.809999999999817, -2.0145837112881964 
1.819999999999816, -2.0143178802306405 
1.8299999999998149, -2.0133769089265914 
1.8399999999998138, -2.011900917055155 
1.8499999999998127, -2.009982802982209 
1.8599999999998116, -2.00767195131778 
1.8699999999998105, -2.0049937633711132 
1.8799999999998094, -2.0020307343787866 
1.8899999999998083, -1.9990496264752124 
1.8999999999998072, -1.9965339977442838 
1.909999999999806, -1.9949535075162421 
1.919999999999805, -1.9943947323229372 
1.9299999999998039, -1.994483206016774 
1.9399999999998028, -1.9946771718247769 
1.9499999999998017, -1.9945330470683504 
1.9599999999998006, -1.993718444678782 
1.9699999999997995, -1.9918640123626765 
1.9799999999997984, -1.9883457298606768 
1.9899999999997973, -1.981974291658941 
1.9999999999997962, -1.970550164535603 
2.0099999999998173, -1.9506198756887683 
2.0199999999998384, -1.9196051690641323 
2.0299999999998595, -1.886368497017133 
2.0399999999998806, -1.8885467951662331 
2.0499999999999017, -1.9709036186779312 
2.059999999999923, -2.1083077359219153 
2.069999999999944, -2.2265251845626657 
2.079999999999965, -2.298879840582478 
2.089999999999986, -2.338056917941293 
2.100000000000007, -2.3589469554434817 
2.1100000000000283, -2.370233684430969 
2.1200000000000494, -2.3763227516119887 
2.1300000000000705, -2.3794259064907908 
2.1400000000000916, -2.3806751957654284 
2.1500000000001127, -2.380653940523865 
2.160000000000134, -2.37964899945084 
2.170000000000155, -2.3777688875916936 
2.180000000000176, -2.374985779577853 
2.190000000000197, -2.371143861425874 
2.2000000000002182, -2.3660446630101837 
2.2100000000002393, -2.3598117373346965 
2.2200000000002604, -2.353533317545982 
2.2300000000002815, -2.349224209824373 
2.2400000000003026, -2.3480180477427925 
2.2500000000003237, -2.34888576927319 
2.260000000000345, -2.3501118587557053 
2.270000000000366, -2.3507343931685254 
2.280000000000387, -2.35043921013925 
2.290000000000408, -2.3490681303796186 
2.3000000000004293, -2.346399945412831 
2.3100000000004504, -2.342365537484925 
2.3200000000004715, -2.3380878602276605 
2.3300000000004926, -2.337360876607637 
2.3400000000005137, -2.3444721185287665 
2.3500000000005348, -2.357846359884862 
2.360000000000556, -2.3715264538324408 
2.370000000000577, -2.382031862427347 
2.380000000000598, -2.389132694740932 
2.390000000000619, -2.393662864587213 
2.4000000000006403, -2.3963759589515403 
2.4100000000006614, -2.397731074857424 
2.4200000000006825, -2.397944350244494 
2.4300000000007036, -2.3970441429730642 
2.4400000000007247, -2.394876324939592 
2.450000000000746, -2.3910502249214955 
2.460000000000767, -2.3847991481589896 
2.470000000000788, -2.374695971228735 
2.480000000000809, -2.358166676613988 
2.49000000000083, -2.331063108368747 
2.5000000000008513, -2.2892208082153123 
2.5100000000008724, -2.2370200688560358 
2.5200000000008935, -2.197294665774839 
2.5300000000009146, -2.1888987503915227 
2.5400000000009357, -2.199781994574049 
2.550000000000957, -2.212021778713331 
2.560000000000978, -2.2199679255678535 
2.570000000000999, -2.2241959848662916 
2.58000000000102, -2.2260712970796015 
2.5900000000010412, -2.226497649165401 
2.6000000000010624, -2.2259796395269293 
2.6100000000010835, -2.2248814775403316 
2.6200000000011046, -2.2236878332876624 
2.6300000000011257, -2.2231144853659655 
2.6400000000011468, -2.2237794546314356 
2.650000000001168, -2.225632084614541 
2.660000000001189, -2.2279940085748513 
2.67000000000121, -2.2302014133335204 
2.680000000001231, -2.231963778068265 
2.6900000000012523, -2.233246431813528 
2.7000000000012734, -2.234051888265102 
2.7100000000012945, -2.2343168846213035 
2.7200000000013156, -2.2338973396445225 
2.7300000000013367, -2.2325461071911783 
2.740000000001358, -2.22982945263218 
2.750000000001379, -2.224949094238658 
2.7600000000014, -2.216391974194171 
2.770000000001421, -2.2012185670497963 
2.780000000001442, -2.173611133570763 
2.7900000000014633, -2.122224086770493 
2.8000000000014844, -2.027556559274846 
2.8100000000015055, -1.8696137617889728 
2.8200000000015266, -1.6641986725204776 
2.8300000000015477, -1.483312839862009 
2.840000000001569, -1.383769805876087 
2.85000000000159, -1.359165760241356 
2.860000000001611, -1.3748392830811254 
2.870000000001632, -1.4020965665368406 
2.8800000000016532, -1.4266777590697242 
2.8900000000016743, -1.4446280508200797 
2.9000000000016954, -1.4565059728269594 
2.9100000000017165, -1.4639573028705033 
2.9200000000017377, -1.4684385704299299 
2.9300000000017588, -1.4709616512510113 
2.94000000000178, -1.4721585398378547 
2.950000000001801, -1.4723953044224898 
2.960000000001822, -1.471865092163532 
2.970000000001843, -1.4706595143328969 
2.9800000000018643, -1.4688404696054587 
2.9900000000018854, -1.4665457184265673 
3.0000000000019065, -1.4641614134056677 
3.0100000000019276, -1.4625482835208565 
3.0200000000019487, -1.4631650764260469 
3.03000000000197, -1.4677653578040533 
3.040000000001991, -1.4775128324901585 
3.050000000002012, -1.4920709291059238 
3.060000000002033, -1.509606344353444 
3.070000000002054, -1.5277746884365084 
3.0800000000020753, -1.5447414820233805 
3.0900000000020964, -1.5595462536119544 
3.1000000000021175, -1.571928801238388 
3.1100000000021386, -1.5820127977257015 
3.1200000000021597, -1.5900680392217657 
3.130000000002181, -1.5963850104706416 
3.140000000002202, -1.6012253514657457 
3.150000000002223, -1.6048100783204218 
3.160000000002244, -1.607322402801456 
3.1700000000022652, -1.6089141698466864 
3.1800000000022863, -1.6097117616509495 
3.1900000000023074, -1.6098206641801074 
3.2000000000023285, -1.6093293672840867 
3.2100000000023496, -1.6083135365436363 
3.2200000000023707, -1.606840647904223 
3.230000000002392, -1.604973938703239 
3.240000000002413, -1.6027739828740029 
3.250000000002434, -1.6002986378344832 
3.260000000002455, -1.597607707607577 
3.2700000000024763, -1.5947814561124056 
3.2800000000024974, -1.5919524239276706 
3.2900000000025185, -1.5893271337443247 
3.3000000000025396, -1.587157891139838 
3.3100000000025607, -1.5856481807016236 
3.3200000000025818, -1.5848425803748911 
3.330000000002603, -1.584592265979788 
3.340000000002624, -1.5846251808335257 
3.350000000002645, -1.5846511065745146 
3.360000000002666, -1.5844198262093643 
3.3700000000026873, -1.583712150729493 
3.3800000000027084, -1.5822856872389235 
3.3900000000027295, -1.579792502068079 
3.4000000000027506, -1.5756614525364914 
3.4100000000027717, -1.5689129017993861 
3.420000000002793, -1.557848328665375 
3.430000000002814, -1.5395337207404778 
3.440000000002835, -1.5090084478453072 
3.450000000002856, -1.4583367369453757 
3.460000000002877, -1.3763024052530968 
3.4700000000028983, -1.2509392008514106 
3.4800000000029194, -1.0774392633931806 
3.4900000000029405, -0.868316356965221 
3.5000000000029616, -0.6535984473124802 
3.5100000000029827, -0.46526464159655617 
3.520000000003004, -0.32034700232537816 
3.530000000003025, -0.2183793423659076 
3.540000000003046, -0.1499294629982357 
3.550000000003067, -0.1046383022030369 
3.5600000000030882, -0.07449697254711882 
3.5700000000031094, -0.05411147956009293 
3.5800000000031305, -0.04004382861395583 
3.5900000000031516, -0.03013711904449304 
3.6000000000031727, -0.023033998768915317 
3.6100000000031938, -0.017870803921806525 
3.620000000003215, -0.014091277069208208 
3.630000000003236, -0.011334456671398057 
3.640000000003257, -0.009367268842996764 
3.650000000003278, -0.008044137961656695 
3.6600000000032993, -0.007283383196940669 
3.6700000000033204, -0.007054688685675337 
3.6800000000033415, -0.0073747476028900956 
3.6900000000033626, -0.008310125013693746 
3.7000000000033837, -0.009988051459893826 
3.710000000003405, -0.012617755976865853 
3.720000000003426, -0.01652766367624983 
3.730000000003447, -0.022228177539249674 
3.740000000003468, -0.030517165030077096 
3.750000000003489, -0.04265751235378184 
3.7600000000035103, -0.0606745046959255 
3.7700000000035314, -0.08784066974917994 
3.7800000000035525, -0.12940642607847685 
3.7900000000035736, -0.19348556720279678 
3.8000000000035947, -0.2914525923325879 
3.810000000003616, -0.4360564213308793 
3.820000000003637, -0.6348429539669368 
3.830000000003658, -0.8796787035974339 
3.840000000003679, -1.1399938786838226 
3.8500000000037002, -1.3715013269342184 
3.8600000000037213, -1.54275244186651 
3.8700000000037424, -1.6521014579533129 
3.8800000000037635, -1.7160823979830904 
3.8900000000037847, -1.752152137834558 
3.9000000000038058, -1.7723086966520827 
3.910000000003827, -1.7835752495956199 
3.920000000003848, -1.789827926997089 
3.930000000003869, -1.7931758620895308 
3.94000000000389, -1.7947743234508777 
3.9500000000039113, -1.7952715262334673 
3.9600000000039324, -1.7950560536759135 
3.9700000000039535, -1.7944015216567222 
3.9800000000039746, -1.7935504516461227 
3.9900000000039957, -1.7927405785907327 
4.000000000004016, -1.7921678989328678 
4.010000000003993, -1.7919201685794652 
4.02000000000397, -1.7919575525529334 
4.030000000003946, -1.7921754446207705 
4.040000000003923, -1.7924896854002583 
4.0500000000039, -1.7928652185883303 
4.0600000000038765, -1.7932785574407903 
4.070000000003853, -1.793667141814687 
4.08000000000383, -1.7939141486866685 
4.090000000003807, -1.7938658778278194 
4.100000000003783, -1.7933457421302499 
4.11000000000376, -1.7921402800346444 
4.120000000003737, -1.789954991104391 
4.130000000003713, -1.786342838200137 
4.14000000000369, -1.78059955555939 
4.150000000003667, -1.7716089530378556 
4.1600000000036434, -1.7576146606015364 
4.17000000000362, -1.7359035891006818 
4.180000000003597, -1.7024521951885252 
4.1900000000035735, -1.6518203547888932 
4.20000000000355, -1.5781313100582672 
4.210000000003527, -1.4785196145061363 
4.220000000003504, -1.3588353216529756 
4.23000000000348, -1.235840126854714 
4.240000000003457, -1.1293713828524536 
4.250000000003434, -1.0509750198494359 
4.26000000000341, -1.0009882968001407 
4.270000000003387, -0.9732954078324286 
4.280000000003364, -0.9604797817119001 
4.2900000000033405, -0.9564066257057525 
4.300000000003317, -0.956841622371055 
4.310000000003294, -0.9591980923647404 
4.320000000003271, -0.9620553727164709 
4.330000000003247, -0.9647192265345065 
4.340000000003224, -0.9669026028422757 
4.350000000003201, -0.968522367369582 
4.360000000003177, -0.9695813082901713 
4.370000000003154, -0.970103903290855 
4.380000000003131, -0.9701019687054568 
4.390000000003107, -0.969554378120627 
4.400000000003084, -0.9683908517782299 
4.410000000003061, -0.9664731789991435 
4.4200000000030375, -0.963568801949037 
4.430000000003014, -0.9593124126235697 
4.440000000002991, -0.9531525111490357 
4.450000000002968, -0.9442843163980044 
4.460000000002944, -0.9315826434747786 
4.470000000002921, -0.9135747118982033 
4.480000000002898, -0.8885352465512791 
4.490000000002874, -0.8548227448811873 
4.500000000002851, -0.8115325972359595 
4.510000000002828, -0.7593178560770252 
4.520000000002804, -0.7008732224682097 
4.530000000002781, -0.6405022666410402 
4.540000000002758, -0.5827886643905774 
4.5500000000027345, -0.5311942431632902 
4.560000000002711, -0.4874202170740036 
4.570000000002688, -0.45162330821899227 
4.580000000002665, -0.4230225514594183 
4.590000000002641, -0.400461557192302 
4.600000000002618, -0.38276171862191505 
4.610000000002595, -0.36888666694925715 
4.620000000002571, -0.3579905365867832 
4.630000000002548, -0.34941026248144796 
4.640000000002525, -0.3426374649697787 
4.6500000000025015, -0.33728707949125486 
4.660000000002478, -0.33306953401235545 
4.670000000002455, -0.3297683360794584 
4.6800000000024315, -0.32722290462273435 
4.690000000002408, -0.32531582888777927 
4.700000000002385, -0.3239636616198683 
4.710000000002362, -0.32311048629656186 
4.720000000002338, -0.32272368329174406 
4.730000000002315, -0.3227915003450479 
4.740000000002292, -0.3233221937343235 
4.750000000002268, -0.32434464973569593 
4.760000000002245, -0.325910528239824 
4.770000000002222, -0.32809809875923474 
4.7800000000021985, -0.33101806646382353 
4.790000000002175, -0.33482180440773474 
4.800000000002152, -0.33971248395574766 
4.810000000002129, -0.34595953622937864 
4.820000000002105, -0.35391646637917606 
4.830000000002082, -0.3640408195269886 
4.840000000002059, -0.3769121850333819 
4.850000000002035, -0.39323810589489333 
4.860000000002012, -0.4138270671928668 
4.870000000001989, -0.43949289345584314 
4.880000000001965, -0.47084481035585574 
4.890000000001942, -0.5079392440711624 
4.900000000001919, -0.5498649674451755 
4.9100000000018955, -0.5945001310862611 
4.920000000001872, -0.6387640114305294 
4.930000000001849, -0.6794425300769978 
