t, s[1].omega / s[0].omega 
0, -1.1699974528001205 
0.009999999999999995, -1.1696152353624694 
0.019999999999999934, -1.168984288395499 
0.029999999999999874, -1.1681174727417645 
0.04000000000000012, -1.1670413591787638 
0.050000000000000405, -1.1658015819495735 
0.06000000000000069, -1.1644664443426724 
0.07000000000000098, -1.1631259579118705 
0.08000000000000126, -1.161884827746118 
0.09000000000000155, -1.160849725095847 
0.10000000000000184, -1.1601078491570953 
0.11000000000000212, -1.1596939265586976 
0.12000000000000241, -1.1595628347901474 
0.130000000000002, -1.1595983465271997 
0.1400000000000009, -1.1596560781182352 
0.1499999999999998, -1.1596018262001189 
0.1599999999999987, -1.159320457801918 
0.1699999999999976, -1.1587054479056025 
0.1799999999999965, -1.1576509062927327 
0.1899999999999954, -1.156058837384015 
0.1999999999999943, -1.1538593884162083 
0.2099999999999932, -1.1510299022403994 
0.2199999999999921, -1.1475999424011665 
0.229999999999991, -1.1436452763210372 
0.2399999999999899, -1.139286960521488 
0.2499999999999888, -1.1347078708658997 
0.2599999999999877, -1.130180959157678 
0.2699999999999866, -1.1260764468267066 
0.2799999999999855, -1.1227925742408573 
0.2899999999999844, -1.1205907521514447 
0.2999999999999833, -1.1194417644941381 
0.3099999999999822, -1.1190465965495027 
0.3199999999999811, -1.119020017625807 
0.32999999999998, -1.119052034414391 
0.3399999999999789, -1.1189421567979247 
0.3499999999999778, -1.1185482886842617 
0.35999999999997667, -1.1177164995235342 
0.36999999999997557, -1.1162183230444804 
0.37999999999997447, -1.1137029921187074 
0.38999999999997337, -1.1096858728989303 
0.39999999999997227, -1.1036174867000357 
0.40999999999997117, -1.0950631618916706 
0.41999999999997006, -1.08394099710179 
0.42999999999996896, -1.0706903374708427 
0.43999999999996786, -1.0562876199374205 
0.44999999999996676, -1.0421193671537936 
0.45999999999996566, -1.0297101119340626 
0.46999999999996456, -1.020278896504409 
0.47999999999996346, -1.0142712168112253 
0.48999999999996235, -1.0112281000429018 
0.49999999999996125, -1.010155936097737 
0.5099999999999602, -1.0100707628206076 
0.519999999999959, -1.0103024750716156 
0.529999999999958, -1.0104970575358216 
0.5399999999999568, -1.010489591483409 
0.5499999999999557, -1.01018248547873 
0.5599999999999546, -1.0094611887206493 
0.5699999999999535, -1.0081323825137094 
0.5799999999999524, -1.0058693091665043 
0.5899999999999513, -1.0021732710224927 
0.5999999999999502, -0.9964017986165103 
0.6099999999999491, -0.9879416829873456 
0.619999999999948, -0.9765348370808196 
0.6299999999999469, -0.962576905124858 
0.6399999999999458, -0.9471311373172053 
0.6499999999999447, -0.9316284979742141 
0.6599999999999436, -0.9174741596559965 
0.6699999999999425, -0.9057420247440907 
0.6799999999999414, -0.8969904032208538 
0.6899999999999403, -0.8912037346037082 
0.6999999999999392, -0.8878915712070425 
0.7099999999999381, -0.8863235240298936 
0.719999999999937, -0.8857849518588463 
0.7299999999999359, -0.8857328915818211 
0.7399999999999348, -0.8858236673098643 
0.7499999999999337, -0.8858631037783411 
0.7599999999999326, -0.8857390303138446 
0.7699999999999315, -0.8853665913616862 
0.7799999999999304, -0.8846529757053817 
0.7899999999999293, -0.8834817538251893 
0.7999999999999282, -0.8817211231029635 
0.8099999999999271, -0.8792618241440706 
0.819999999999926, -0.8760753276141777 
0.8299999999999249, -0.8722551808915163 
0.8399999999999238, -0.8680021708756691 
0.8499999999999227, -0.8635598167640796 
0.8599999999999216, -0.8591496679554785 
0.8699999999999205, -0.854943309824859 
0.8799999999999194, -0.8510679365375861 
0.8899999999999183, -0.8476228318323337 
0.8999999999999172, -0.8446889872415628 
0.9099999999999161, -0.842325786380362 
0.919999999999915, -0.8405579810537331 
0.9299999999999139, -0.8393621588118464 
0.9399999999999128, -0.8386634491305734 
0.9499999999999117, -0.8383479277537033 
0.9599999999999106, -0.8382860697174429 
0.9699999999999095, -0.8383558104463857 
0.9799999999999084, -0.838456126834396 
0.9899999999999073, -0.8385101166448912 
0.9999999999999062, -0.8384627530966926 
1.0099999999999052, -0.8382791837336839 
1.019999999999904, -0.8379456818269032 
1.029999999999903, -0.8374702419070111 
1.039999999999902, -0.8368777146638144 
1.0499999999999008, -0.8361984139820642 
1.0599999999998997, -0.8354559332770138 
1.0699999999998986, -0.8346617899640185 
1.0799999999998975, -0.8338194113855039 
1.0899999999998964, -0.8329335931466018 
1.0999999999998953, -0.8320195620545657 
1.1099999999998942, -0.8311082601475015 
1.119999999999893, -0.8302475061228977 
1.129999999999892, -0.8294994017798952 
1.1399999999998909, -0.8289336479209982 
1.1499999999998898, -0.8286168723041529 
1.1599999999998887, -0.8286003032797158 
1.1699999999998876, -0.8289100852536802 
1.1799999999998865, -0.8295439475170918 
1.1899999999998854, -0.8304750476312728 
1.1999999999998843, -0.8316608425078833 
1.2099999999998832, -0.8330533444233243 
1.219999999999882, -0.834607017633914 
1.229999999999881, -0.8362812520586583 
1.2399999999998799, -0.8380356924928645 
1.2499999999998788, -0.8398193421058853 
1.2599999999998777, -0.8415589243136072 
1.2699999999998766, -0.8431566938337672 
1.2799999999998755, -0.8445065826575553 
1.2899999999998744, -0.8455248852963291 
1.2999999999998733, -0.8461761296529021 
1.3099999999998722, -0.8464762974609756 
1.319999999999871, -0.8464756758647887 
1.32999999999987, -0.8462386845050405 
1.3399999999998689, -0.8458351468726022 
1.3499999999998678, -0.8453474605044132 
1.3599999999998666, -0.8448917889356788 
1.3699999999998655, -0.8446475262306045 
1.3799999999998644, -0.8448826639481434 
1.3899999999998633, -0.8459543133720032 
1.3999999999998622, -0.8482646149603413 
1.4099999999998611, -0.8521737824436262 
1.41999999999986, -0.8579031484195585 
1.429999999999859, -0.865468839415416 
1.4399999999998578, -0.8746579312107647 
1.4499999999998567, -0.8850263935459143 
1.4599999999998556, -0.8959045017012587 
1.4699999999998545, -0.9064434802312009 
1.4799999999998534, -0.9157697834168561 
1.4899999999998523, -0.9232420420294822 
1.4999999999998512, -0.9286542242406439 
1.5099999999998501, -0.9322165655309244 
1.519999999999849, -0.9343512941642027 
1.529999999999848, -0.9354846081543455 
1.5399999999998468, -0.9359425044113863 
1.5499999999998457, -0.9359368314173248 
1.5599999999998446, -0.9355922467133564 
1.5699999999998435, -0.9349863233439695 
1.5799999999998424, -0.9342029727498824 
1.5899999999998413, -0.9334180342608016 
1.5999999999998402, -0.9330392797449516 
1.6099999999998391, -0.9338879460608267 
1.619999999999838, -0.9373064069783192 
1.629999999999837, -0.9449591533717301 
1.6399999999998358, -0.9581696632191855 
1.6499999999998347, -0.9770344143959189 
1.6599999999998336, -0.9999342338477047 
1.6699999999998325, -1.0239082470359826 
1.6799999999998314, -1.0457554672380986 
1.6899999999998303, -1.0632326271173143 
1.6999999999998292, -1.0756546054873128 
1.709999999999828, -1.0836362243249482 
1.719999999999827, -1.0883580429723418 
1.729999999999826, -1.0909481865072184 
1.7399999999998248, -1.0922257402446864 
1.7499999999998237, -1.0927006000860209 
1.7599999999998226, -1.0926622280776972 
1.7699999999998215, -1.09227189269998 
1.7799999999998204, -1.0916460345746015 
1.7899999999998193, -1.0909510857264393 
1.7999999999998182, -1.0905249019080088 
1.809999999999817, -1.0909765179532436 
1.819999999999816, -1.0931086086131514 
1.8299999999998149, -1.0975450637920994 
1.8399999999998138, -1.1042939254216972 
1.8499999999998127, -1.1126888782613862 
1.8599999999998116, -1.121747062918854 
1.8699999999998105, -1.1305565474023909 
1.8799999999998094, -1.1384482338513613 
1.8899999999998083, -1.14500923085683 
1.8999999999998072, -1.1500607161209584 
1.909999999999806, -1.1536365313754946 
1.919999999999805, -1.1559351799581652 
1.9299999999998039, -1.1572356646317654 
1.9399999999998028, -1.1578124169008326 
1.9499999999998017, -1.1578875464017995 
1.9599999999998006, -1.1576279496874027 
1.9699999999997995, -1.1571738400095386 
1.9799999999997984, -1.1566809016307151 
1.9899999999997973, -1.1563502331359625 
1.9999999999997962, -1.1564074223564957 
2.0099999999998173, -1.1570165965125492 
2.0199999999998384, -1.158193391928275 
2.0299999999998595, -1.1598056454769157 
2.0399999999998806, -1.1616542582616745 
2.0499999999999017, -1.1635521173650518 
2.059999999999923, -1.165357531753378 
2.069999999999944, -1.1669745237177875 
2.079999999999965, -1.1683414897425624 
2.089999999999986, -1.1694190049209645 
2.100000000000007, -1.170181534819518 
2.1100000000000283, -1.1706154787245888 
2.1200000000000494, -1.170722413142347 
2.1300000000000705, -1.1705229317508308 
2.1400000000000916, -1.1700574724718042 
2.1500000000001127, -1.169385380144194 
2.160000000000134, -1.1685851508770588 
2.170000000000155, -1.1677535230115006 
2.180000000000176, -1.1669956739589988 
2.190000000000197, -1.1664045180004816 
2.2000000000002182, -1.1660402753609262 
2.2100000000002393, -1.1659206839627578 
2.2200000000002604, -1.166018267024127 
2.2300000000002815, -1.1662620633713807 
2.2400000000003026, -1.1665512728818737 
2.2500000000003237, -1.1667790756061236 
2.260000000000345, -1.1668514215496666 
2.270000000000366, -1.1666930361885526 
2.280000000000387, -1.1662470090140953 
2.290000000000408, -1.1654755871916953 
2.3000000000004293, -1.1643621692342911 
2.3100000000004504, -1.1629103672617105 
2.3200000000004715, -1.161139628104697 
2.3300000000004926, -1.1590821801982998 
2.3400000000005137, -1.1567860918822084 
2.3500000000005348, -1.1543249720808093 
2.360000000000556, -1.151811084073824 
2.370000000000577, -1.1494052719174588 
2.380000000000598, -1.147308905166549 
2.390000000000619, -1.1457152112684261 
2.4000000000006403, -1.1447210940663088 
2.4100000000006614, -1.1442624693543968 
2.4200000000006825, -1.144144587220309 
2.4300000000007036, -1.1441399830130279 
2.4400000000007247, -1.144059717909149 
2.450000000000746, -1.1437575890667824 
2.460000000000767, -1.143094596694934 
2.470000000000788, -1.1418998897716073 
2.480000000000809, -1.1399503451424404 
2.49000000000083, -1.1369850775757766 
2.5000000000008513, -1.132763506746674 
2.5100000000008724, -1.1271495354583672 
2.5200000000008935, -1.120178666023556 
2.5300000000009146, -1.1120818320789856 
2.5400000000009357, -1.103287031146475 
2.550000000000957, -1.0944256879298258 
2.560000000000978, -1.086307041548692 
2.570000000000999, -1.0797597460552137 
2.58000000000102, -1.0753112606207893 
2.5900000000010412, -1.0729143826525858 
2.6000000000010624, -1.0720144355311934 
2.6100000000010835, -1.0719104826727148 
2.6200000000011046, -1.072061682605072 
2.6300000000011257, -1.0721562941641758 
2.6400000000011468, -1.0720315584866718 
2.650000000001168, -1.0715698572940067 
2.660000000001189, -1.0706151596408922 
2.67000000000121, -1.0689027101267814 
2.680000000001231, -1.0659930842776606 
2.6900000000012523, -1.061233030063978 
2.7000000000012734, -1.0538168040454434 
2.7100000000012945, -1.0430395108163641 
2.7200000000013156, -1.0287174046726668 
2.7300000000013367, -1.0115317553046053 
2.740000000001358, -0.9930181091817193 
2.750000000001379, -0.9751785355653595 
2.7600000000014, -0.9599092943159697 
2.770000000001421, -0.9484492154723652 
2.780000000001442, -0.9410540893409788 
2.7900000000014633, -0.9370786355069758 
2.8000000000014844, -0.9354220543360586 
2.8100000000015055, -0.9350264470527595 
2.8200000000015266, -0.9351452271987892 
2.8300000000015477, -0.9353554090875391 
2.840000000001569, -0.9354492611405781 
2.85000000000159, -0.9353203816180015 
2.860000000001611, -0.9348830752579774 
2.870000000001632, -0.9340204971543752 
2.8800000000016532, -0.9325507384608633 
2.8900000000016743, -0.9302131700734518 
2.9000000000016954, -0.9266970247130277 
2.9100000000017165, -0.9217389932829484 
2.9200000000017377, -0.9152722080818613 
2.9300000000017588, -0.907529458004616 
2.94000000000178, -0.8990023298126018 
2.950000000001801, -0.8902851611469833 
2.960000000001822, -0.8819278469904509 
2.970000000001843, -0.8743687823216992 
2.9800000000018643, -0.8679248066561426 
2.9900000000018854, -0.8627886666528598 
3.0000000000019065, -0.8590142813378859 
3.0100000000019276, -0.8565061695500376 
3.0200000000019487, -0.8550405178344033 
3.03000000000197, -0.8543242026973366 
3.040000000001991, -0.8540664786317468 
3.050000000002012, -0.8540292725974611 
3.060000000002033, -0.854041647543675 
3.070000000002054, -0.8539874797235566 
3.0800000000020753, -0.8537838228657293 
3.0900000000020964, -0.8533635759619781 
3.1000000000021175, -0.8526698031516331 
3.1100000000021386, -0.8516635788121937 
3.1200000000021597, -0.8503399100452109 
3.130000000002181, -0.8487381355148811 
3.140000000002202, -0.8469340056402934 
3.150000000002223, -0.845015568426905 
3.160000000002244, -0.8430593940477824 
3.1700000000022652, -0.8411210711005724 
3.1800000000022863, -0.8392402977290946 
3.1900000000023074, -0.837452050674336 
3.2000000000023285, -0.835795593260289 
3.2100000000023496, -0.8343173371795928 
3.2200000000023707, -0.8330672228229611 
3.230000000002392, -0.8320903571179368 
3.240000000002413, -0.8314167967297863 
3.250000000002434, -0.8310529359308395 
3.260000000002455, -0.8309777425070008 
3.2700000000024763, -0.831145698134535 
3.2800000000024974, -0.8314957440936948 
3.2900000000025185, -0.8319629790861203 
3.3000000000025396, -0.8324891392518378 
3.3100000000025607, -0.8330293776455037 
3.3200000000025818, -0.8335547377626396 
3.330000000002603, -0.8340502630813594 
3.340000000002624, -0.8345085728409101 
3.350000000002645, -0.8349201252329671 
3.360000000002666, -0.835264543016027 
3.3700000000026873, -0.835509094975734 
3.3800000000027084, -0.8356171389600717 
3.3900000000027295, -0.8355621066855976 
3.4000000000027506, -0.8353382559881325 
3.4100000000027717, -0.8349632882492323 
3.420000000002793, -0.8344758204274566 
3.430000000002814, -0.8339340381962943 
3.440000000002835, -0.8334186362173481 
3.450000000002856, -0.8330374863201605 
3.460000000002877, -0.8329253130476489 
3.4700000000028983, -0.833231679038315 
3.4800000000029194, -0.8340965708865197 
3.4900000000029405, -0.835622300202381 
3.5000000000029616, -0.837855131188039 
3.5100000000029827, -0.8407841280935353 
3.520000000003004, -0.8443528021628304 
3.530000000003025, -0.8484712534881673 
3.540000000003046, -0.8530172413849622 
3.550000000003067, -0.857822468747627 
3.5600000000030882, -0.8626538129611723 
3.5700000000031094, -0.8672150633119019 
3.5800000000031305, -0.8711968862533294 
3.5900000000031516, -0.8743682678765614 
3.6000000000031727, -0.8766501076618105 
3.6100000000031938, -0.8781130693199479 
3.620000000003215, -0.8789107110954959 
3.630000000003236, -0.8792064011839524 
3.640000000003257, -0.8791330666763659 
3.650000000003278, -0.8787877419500314 
3.6600000000032993, -0.8782499102351158 
3.6700000000033204, -0.8776191885826586 
3.6800000000033415, -0.8770768914563408 
3.6900000000033626, -0.8769747275623538 
3.7000000000033837, -0.8779307955947058 
3.710000000003405, -0.88086625093554 
3.720000000003426, -0.8868817491665087 
3.730000000003447, -0.8969228770887799 
3.740000000003468, -0.9113300548987722 
3.750000000003489, -0.9294890226641241 
3.7600000000035103, -0.9497793914415592 
3.7700000000035314, -0.9699132533450395 
3.7800000000035525, -0.9876260686528593 
3.7900000000035736, -1.001452568925258 
3.8000000000035947, -1.0111099868524678 
3.810000000003616, -1.017242859750659 
3.820000000003637, -1.020839037526508 
3.830000000003658, -1.022782927329207 
3.840000000003679, -1.0236963815459528 
3.8500000000037002, -1.023959142935385 
3.8600000000037213, -1.0237825032217749 
3.8700000000037424, -1.0232812001328617 
3.8800000000037635, -1.0225425630137326 
3.8900000000037847, -1.0217182282473132 
3.9000000000038058, -1.0211669681817908 
3.910000000003827, -1.021629634030307 
3.920000000003848, -1.0242844996881653 
3.930000000003869, -1.030425857432468 
3.94000000000389, -1.0407495771036657 
3.9500000000039113, -1.0547660264917222 
3.9600000000039324, -1.07089640582587 
3.9700000000039535, -1.0871294105837501 
3.9800000000039746, -1.1016982949271512 
3.9900000000039957, -1.11348113662656 
4.000000000004016, -1.1221186453070209 
4.010000000003993, -1.1278903483452745 
4.02000000000397, -1.1314228178173997 
4.030000000003946, -1.133388320042156 
4.040000000003923, -1.134327509073311 
4.0500000000039, -1.134608244669971 
4.0600000000038765, -1.134460744350784 
4.070000000003853, -1.134039142986675 
4.08000000000383, -1.1334927493836942 
4.090000000003807, -1.1330418074490984 
4.100000000003783, -1.1330248240201395 
4.11000000000376, -1.1338419612428516 
4.120000000003737, -1.1357657152940646 
4.130000000003713, -1.13876234565469 
4.14000000000369, -1.1425124505311397 
4.150000000003667, -1.1465948091226734 
4.1600000000036434, -1.150646364488152 
4.17000000000362, -1.1544129841585176 
4.180000000003597, -1.1577306416743482 
4.1900000000035735, -1.1604947667469747 
4.20000000000355, -1.1626454032934608 
4.210000000003527, -1.1641689363502419 
4.220000000003504, -1.165101886171549 
4.23000000000348, -1.1655225553243698 
4.240000000003457, -1.165531278974203 
4.250000000003434, -1.1652332010101518 
4.26000000000341, -1.1647353289385283 
4.270000000003387, -1.1641564147714836 
4.280000000003364, -1.1636338446393117 
4.2900000000033405, -1.1633066817323037 
4.300000000003317, -1.163273416522613 
4.310000000003294, -1.1635569404684383 
4.320000000003271, -1.164107775913061 
4.330000000003247, -1.164834436732701 
4.340000000003224, -1.16563189839948 
4.350000000003201, -1.1663994908421176 
4.360000000003177, -1.1670525363147637 
4.370000000003154, -1.1675284299326978 
4.380000000003131, -1.167786607235952 
4.390000000003107, -1.1678045466993603 
4.400000000003084, -1.167572538049738 
4.410000000003061, -1.1670893923230963 
4.4200000000030375, -1.1663610784033356 
4.430000000003014, -1.1654031146402708 
4.440000000002991, -1.164245589917713 
4.450000000002968, -1.162938580347895 
4.460000000002944, -1.1615552811916732 
4.470000000002921, -1.1601901484834045 
4.480000000002898, -1.1589510708601134 
4.490000000002874, -1.1579450914173735 
4.500000000002851, -1.157253041014621 
4.510000000002828, -1.1568937094798784 
4.520000000002804, -1.156802011942431 
4.530000000002781, -1.1568487199243662 
4.540000000002758, -1.156887460457784 
4.5500000000027345, -1.1567874858675569 
4.560000000002711, -1.1564359043040666 
4.570000000002688, -1.1557253070471243 
4.580000000002665, -1.1545481322218631 
4.590000000002641, -1.1528076408311758 
4.600000000002618, -1.150440247930104 
4.610000000002595, -1.1474334713700611 
4.620000000002571, -1.1438283366239275 
4.630000000002548, -1.1397125887682082 
4.640000000002525, -1.1352220596167446 
4.6500000000025015, -1.13056026556098 
4.660000000002478, -1.1260255337377685 
4.670000000002455, -1.1220064630597546 
4.6800000000024315, -1.1188907242649944 
4.690000000002408, -1.1168890654774044 
4.700000000002385, -1.1159070778156364 
4.710000000002362, -1.1156091965543546 
4.720000000002338, -1.1156140500925193 
4.730000000002315, -1.115633213065982 
4.740000000002292, -1.115482710587167 
4.750000000002268, -1.11502426424664 
4.760000000002245, -1.1140960023109323 
4.770000000002222, -1.1124527127634236 
4.7800000000021985, -1.1097234985946793 
4.790000000002175, -1.1054124780629004 
4.800000000002152, -1.0989875661273885 
4.810000000002129, -1.0900749755153312 
4.820000000002105, -1.0786875094251707 
4.830000000002082, -1.065358919355014 
4.840000000002059, -1.0511253960396743 
4.850000000002035, -1.0373775423618565 
4.860000000002012, -1.0255747654327707 
4.870000000001989, -1.0168050856680153 
4.880000000001965, -1.0113642798804658 
4.890000000001942, -1.0087011804744785 
4.900000000001919, -1.007822737462255 
4.9100000000018955, -1.0078032660135696 
4.920000000001872, -1.008034230114757 
4.930000000001849, -1.008200130167966 
