t, s[1].omega / s[0].omega 
0, -1.5899853401448072 
0.009999999999999995, -1.5882336421707013 
0.019999999999999934, -1.5859167963867218 
0.029999999999999874, -1.583035643950927 
0.04000000000000012, -1.5795909346161388 
0.050000000000000405, -1.5755833573163043 
0.06000000000000069, -1.5710135784533226 
0.07000000000000098, -1.565882287890335 
0.08000000000000126, -1.5601902526538582 
0.09000000000000155, -1.5539383783282983 
0.10000000000000184, -1.5471277780915742 
0.11000000000000212, -1.5397598492901061 
0.12000000000000241, -1.5318363573864702 
0.130000000000002, -1.5233595270356284 
0.1400000000000009, -1.5143321399582959 
0.1499999999999998, -1.5047576391854935 
0.1599999999999987, -1.4946402391488094 
0.1699999999999976, -1.4839850409878739 
0.1799999999999965, -1.4727981523396256 
0.1899999999999954, -1.4610868107607506 
0.1999999999999943, -1.4488595098105614 
0.2099999999999932, -1.436126126679192 
0.2199999999999921, -1.4228980500765174 
0.229999999999991, -1.4091883068908257 
0.2399999999999899, -1.3950116858743529 
0.2499999999999888, -1.3803848563093737 
0.2599999999999877, -1.3653264792538964 
0.2699999999999866, -1.3498573085675707 
0.2799999999999855, -1.3340002784944476 
0.2899999999999844, -1.3177805741583903 
0.2999999999999833, -1.3012256809495226 
0.3099999999999822, -1.284365408495198 
0.3199999999999811, -1.2672318847717723 
0.32999999999998, -1.2498595159795094 
0.3399999999999789, -1.2322849081224452 
0.3499999999999778, -1.2145467468451425 
0.35999999999997667, -1.1966856329970676 
0.36999999999997557, -1.1787438726158894 
0.37999999999997447, -1.1607652215082107 
0.38999999999997337, -1.142794586296269 
0.39999999999997227, -1.1248776856022766 
0.40999999999997117, -1.1070606768488689 
0.41999999999997006, -1.0893897558443515 
0.42999999999996896, -1.0719107377751038 
0.43999999999996786, -1.054668629336073 
0.44999999999996676, -1.0377072024080845 
0.45999999999996566, -1.021068579882767 
0.46999999999996456, -1.0047928439242801 
0.47999999999996346, -0.9889176761615177 
0.48999999999996235, -0.9734780380807084 
0.49999999999996125, -0.9585058983211782 
0.5099999999999602, -0.9440300117722078 
0.519999999999959, -0.9300757534423317 
0.529999999999958, -0.9166650081397926 
0.5399999999999568, -0.9038161151703775 
0.5499999999999557, -0.8915438656153469 
0.5599999999999546, -0.8798595483643225 
0.5699999999999535, -0.8687710399880882 
0.5799999999999524, -0.8582829327621978 
0.5899999999999513, -0.8483966946902175 
0.5999999999999502, -0.8391108552034322 
0.6099999999999491, -0.8304212102965213 
0.619999999999948, -0.8223210411522642 
0.6299999999999469, -0.8148013407649164 
0.6399999999999458, -0.8078510436436295 
0.6499999999999447, -0.8014572543194194 
0.6599999999999436, -0.7956054710520899 
0.6699999999999425, -0.790279801804092 
0.6799999999999414, -0.7854631701904454 
0.6899999999999403, -0.7811375097084009 
0.6999999999999392, -0.7772839450846938 
0.7099999999999381, -0.7738829600448427 
0.719999999999937, -0.7709145512053964 
0.7299999999999359, -0.7683583681174451 
0.7399999999999348, -0.7661938397518072 
0.7499999999999337, -0.7644002879187047 
0.7599999999999326, -0.7629570282641859 
0.7699999999999315, -0.7618434595892482 
0.7799999999999304, -0.7610391423028902 
0.7899999999999293, -0.7605238668541582 
0.7999999999999282, -0.760277712997197 
0.8099999999999271, -0.7602811007331537 
0.819999999999926, -0.7605148337486516 
0.8299999999999249, -0.7609601361367364 
0.8399999999999238, -0.7615986831462919 
0.8499999999999227, -0.7624126266627442 
0.8599999999999216, -0.7633846160786096 
0.8699999999999205, -0.764497815168678 
0.8799999999999194, -0.7657359155424014 
0.8899999999999183, -0.7670831472059513 
0.8999999999999172, -0.7685242867286733 
0.9099999999999161, -0.770044663473089 
0.919999999999915, -0.7716301643139181 
0.9299999999999139, -0.773267237239094 
0.9399999999999128, -0.7749428941938176 
0.9499999999999117, -0.7766447134964486 
0.9599999999999106, -0.778360842121644 
0.9699999999999095, -0.7800799981107606 
0.9799999999999084, -0.7817914733313609 
0.9899999999999073, -0.7834851367660539 
0.9999999999999062, -0.7851514384652383 
1.0099999999999052, -0.7867814142484666 
1.019999999999904, -0.7883666911848226 
1.029999999999903, -0.7898994938242918 
1.039999999999902, -0.7913726510900347 
1.0499999999999008, -0.7927796036766837 
1.0599999999998997, -0.7941144117334539 
1.0699999999998986, -0.7953717625446467 
1.0799999999998975, -0.7965469778558457 
1.0899999999998964, -0.7976360204340937 
1.0999999999998953, -0.7986354993968957 
1.1099999999998942, -0.79954267380069 
1.119999999999893, -0.8003554539469685 
1.129999999999892, -0.8010723998460216 
1.1399999999998909, -0.8016927162765737 
1.1499999999998898, -0.8022162438960994 
1.1599999999998887, -0.8026434458927153 
1.1699999999998876, -0.8029753897257219 
1.1799999999998865, -0.803213723577966 
1.1899999999998854, -0.8033606472380949 
1.1999999999998843, -0.8034188772425036 
1.2099999999998832, -0.8033916062325627 
1.219999999999882, -0.8032824566189786 
1.229999999999881, -0.8030954287876407 
1.2399999999998799, -0.802834844225537 
1.2499999999998788, -0.8025052840863521 
1.2599999999998777, -0.8021115238485076 
1.2699999999998766, -0.8016584648390942 
1.2799999999998755, -0.8011510635014814 
1.2899999999998744, -0.8005942593689966 
1.2999999999998733, -0.7999929027695897 
1.3099999999998722, -0.7993516833251837 
1.319999999999871, -0.798675060323974 
1.32999999999987, -0.7979671960344309 
1.3399999999998689, -0.7972318929972855 
1.3499999999998678, -0.796472536277927 
1.3599999999998666, -0.795692041588613 
1.3699999999998655, -0.7948928100999827 
1.3799999999998644, -0.7940766906571511 
1.3899999999998633, -0.7932449499996235 
1.3999999999998622, -0.792398251458741 
1.4099999999998611, -0.7915366424736158 
1.41999999999986, -0.7906595511285092 
1.429999999999859, -0.7897657917732853 
1.4399999999998578, -0.7888535796456971 
1.4499999999998567, -0.7879205542716865 
1.4599999999998556, -0.786963811279558 
1.4699999999998545, -0.7859799421278191 
1.4799999999998534, -0.7849650811171321 
1.4899999999998523, -0.7839149589366349 
1.4999999999998512, -0.782824961886757 
1.5099999999998501, -0.7816901958273638 
1.519999999999849, -0.7805055538245691 
1.529999999999848, -0.7792657864146056 
1.5399999999998468, -0.7779655733709818 
1.5499999999998457, -0.7765995958537224 
1.5599999999998446, -0.7751626078377889 
1.5699999999998435, -0.7736495057620233 
1.5799999999998424, -0.772055395409393 
1.5899999999998413, -0.7703756551221935 
1.5999999999998402, -0.7686059945693744 
1.6099999999998391, -0.7667425084137692 
1.619999999999838, -0.7647817243703461 
1.629999999999837, -0.7627206452978861 
1.6399999999998358, -0.7605567851207269 
1.6499999999998347, -0.7582881985292476 
1.6599999999998336, -0.7559135045530089 
1.6699999999998325, -0.7534319042345733 
1.6799999999998314, -0.7508431927514025 
1.6899999999998303, -0.7481477664352862 
1.6999999999998292, -0.7453466252214996 
1.709999999999828, -0.7424413711225265 
1.719999999999827, -0.7394342033636062 
1.729999999999826, -0.7363279108404294 
1.7399999999998248, -0.7331258625643695 
1.7499999999998237, -0.7298319967498132 
1.7599999999998226, -0.7264508091736732 
1.7699999999998215, -0.7229873414017921 
1.7799999999998204, -0.7194471694332464 
1.7899999999998193, -0.7158363932642149 
1.7999999999998182, -0.7121616278206112 
1.809999999999817, -0.7084299956552753 
1.819999999999816, -0.7046491217531643 
1.8299999999998149, -0.7008271307383017 
1.8399999999998138, -0.6969726467304692 
1.8499999999998127, -0.6930947960586704 
1.8599999999998116, -0.6892032130029199 
1.8699999999998105, -0.6853080487060449 
1.8799999999998094, -0.681419983373063 
1.8899999999998083, -0.6775502418569652 
1.8999999999998072, -0.6737106127159271 
1.909999999999806, -0.6699134708174403 
1.919999999999805, -0.6661718035587405 
1.9299999999998039, -0.6624992407691783 
1.9399999999998028, -0.6589100883577358 
1.9499999999998017, -0.6554193657664102 
1.9599999999998006, -0.6520428472861977 
1.9699999999997995, -0.6487971072853133 
1.9799999999997984, -0.6456995693872433 
1.9899999999997973, -0.6427685596171391 
1.9999999999997962, -0.6400233635066183 
2.0099999999998173, -0.6374842871064962 
2.0199999999998384, -0.6351727218012495 
2.0299999999998595, -0.6331112127445332 
2.0399999999998806, -0.6313235306376656 
2.0499999999999017, -0.6298347464479465 
2.059999999999923, -0.6286713085054454 
2.069999999999944, -0.6278611212193033 
2.079999999999965, -0.6274336244105206 
2.089999999999986, -0.6274198719598344 
2.100000000000007, -0.6278526081079452 
2.1100000000000283, -0.6287663393118806 
2.1200000000000494, -0.630197399046102 
2.1300000000000705, -0.6321840023307469 
2.1400000000000916, -0.634766286063738 
2.1500000000001127, -0.6379863304218867 
2.160000000000134, -0.6418881556756907 
2.170000000000155, -0.6465176877359138 
2.180000000000176, -0.6519226846282383 
2.190000000000197, -0.6581526148981686 
2.2000000000002182, -0.6652584777210121 
2.2100000000002393, -0.6732925532917631 
2.2200000000002604, -0.6823080709848596 
2.2300000000002815, -0.6923587819256776 
2.2400000000003026, -0.703498422165108 
2.2500000000003237, -0.7157800528006032 
2.260000000000345, -0.7292552643915813 
2.270000000000366, -0.7439732351649498 
2.280000000000387, -0.7599796361168026 
2.290000000000408, -0.7773153815114558 
2.3000000000004293, -0.7960152307450686 
2.3100000000004504, -0.8161062572697692 
2.3200000000004715, -0.8376062122872985 
2.3300000000004926, -0.8605218249799077 
2.3400000000005137, -0.88484709655751 
2.3500000000005348, -0.9105616613340791 
2.360000000000556, -0.9376293028950861 
2.370000000000577, -0.9659967252218563 
2.380000000000598, -0.9955926851179017 
2.390000000000619, -1.026327591088613 
2.4000000000006403, -1.0580936629211624 
2.4100000000006614, -1.090765724331712 
2.4200000000006825, -1.1242026681748967 
2.4300000000007036, -1.1582495914425859 
2.4400000000007247, -1.1927405489574483 
2.450000000000746, -1.2275018251699927 
2.460000000000767, -1.2623555786210285 
2.470000000000788, -1.297123679302649 
2.480000000000809, -1.3316315401990513 
2.49000000000083, -1.3657117436083144 
2.5000000000008513, -1.399207280753702 
2.5100000000008724, -1.4319742573231797 
2.5200000000008935, -1.4638839633285583 
2.5300000000009146, -1.4948242570948376 
2.5400000000009357, -1.5247002640508798 
2.550000000000957, -1.553434435833157 
2.560000000000978, -1.5809660500954896 
2.570000000000999, -1.6072502542861642 
2.58000000000102, -1.6322567673085417 
2.5900000000010412, -1.6559683527302482 
2.6000000000010624, -1.6783791683511735 
2.6100000000010835, -1.6994930822298526 
2.6200000000011046, -1.7193220274221053 
2.6300000000011257, -1.7378844490604968 
2.6400000000011468, -1.7552038797996354 
2.650000000001168, -1.7713076642641763 
2.660000000001189, -1.7862258405923817 
2.67000000000121, -1.799990177635813 
2.680000000001231, -1.8126333596891913 
2.6900000000012523, -1.8241883064096103 
2.7000000000012734, -1.8346876133681949 
2.7100000000012945, -1.8441630979695696 
2.7200000000013156, -1.8526454358235458 
2.7300000000013367, -1.8601638736774229 
2.740000000001358, -1.8667460064163945 
2.750000000001379, -1.872417607194327 
2.7600000000014, -1.877202501319369 
2.770000000001421, -1.8811224759972063 
2.780000000001442, -1.884197219381124 
2.7900000000014633, -1.8864442835739326 
2.8000000000014844, -1.8878790672724948 
2.8100000000015055, -1.8885148146521171 
2.8200000000015266, -1.888362627870972 
2.8300000000015477, -1.8874314912510253 
2.840000000001569, -1.8857283057780554 
2.85000000000159, -1.8832579330742316 
2.860000000001611, -1.8800232484470438 
2.870000000001632, -1.876025203022419 
2.8800000000016532, -1.8712628953436445 
2.8900000000016743, -1.865733653179756 
2.9000000000016954, -1.8594331266593318 
2.9100000000017165, -1.852355394254061 
2.9200000000017377, -1.8444930836104303 
2.9300000000017588, -1.8358375097973687 
2.94000000000178, -1.826378834230323 
2.950000000001801, -1.8161062483660786 
2.960000000001822, -1.805008187238447 
2.970000000001843, -1.7930725789954565 
2.9800000000018643, -1.7802871377374965 
2.9900000000018854, -1.766639708026631 
3.0000000000019065, -1.7521186702664446 
3.0100000000019276, -1.7367134165061353 
3.0200000000019487, -1.7204149058172167 
3.03000000000197, -1.7032163069078028 
3.040000000001991, -1.6851137327589696 
3.050000000002012, -1.6661070675169516 
3.060000000002033, -1.646200879483942 
3.070000000002054, -1.6254054058184133 
3.0800000000020753, -1.6037375847151303 
3.0900000000020964, -1.5812220999037292 
3.1000000000021175, -1.5578923911149227 
3.1100000000021386, -1.5337915738498344 
3.1200000000021597, -1.508973203724273 
3.130000000002181, -1.4835018163324616 
3.140000000002202, -1.4574531743962031 
3.150000000002223, -1.4309141610383547 
3.160000000002244, -1.4039822718851198 
3.1700000000022652, -1.3767646791171375 
3.1800000000022863, -1.3493768663924717 
3.1900000000023074, -1.321940862677778 
3.2000000000023285, -1.2945831326322312 
3.2100000000023496, -1.2674322080863092 
3.2200000000023707, -1.2406161662183486 
3.230000000002392, -1.2142600727132626 
3.240000000002413, -1.188483510963854 
3.250000000002434, -1.1633983109965618 
3.260000000002455, -1.1391065753265222 
3.2700000000024763, -1.1156990755258118 
3.2800000000024974, -1.0932540657834497 
3.2900000000025185, -1.0718365312302893 
3.3000000000025396, -1.0514978621369973 
3.3100000000025607, -1.0322759225047744 
3.3200000000025818, -1.014195464480092 
3.330000000002603, -0.997268829009037 
3.340000000002624, -0.9814968680222226 
3.350000000002645, -0.9668700234599816 
3.360000000002666, -0.9533695025188575 
3.3700000000026873, -0.9409684954030354 
3.3800000000027084, -0.9296333904186079 
3.3900000000027295, -0.919324950433221 
3.4000000000027506, -0.9099994237378928 
3.4100000000027717, -0.9016095706277464 
3.420000000002793, -0.8941055942201221 
3.430000000002814, -0.8874359699926241 
3.440000000002835, -0.8815481732311888 
3.450000000002856, -0.8763893071073606 
3.460000000002877, -0.8719066365916633 
3.4700000000028983, -0.8680480350214773 
3.4800000000029194, -0.8647623510484287 
3.4900000000029405, -0.8619997040540358 
3.5000000000029616, -0.8597117160874069 
3.5100000000029827, -0.8578516880673782 
3.520000000003004, -0.8563747275025322 
3.530000000003025, -0.8552378343936056 
3.540000000003046, -0.8543999513515215 
3.550000000003067, -0.8538219833323301 
3.5600000000030882, -0.8534667917855822 
3.5700000000031094, -0.8532991674526498 
3.5800000000031305, -0.8532857855457148 
3.5900000000031516, -0.8533951465902101 
3.6000000000031727, -0.8535975058231262 
3.6100000000031938, -0.853864793703672 
3.620000000003215, -0.8541705298068233 
3.630000000003236, -0.8544897321288732 
3.640000000003257, -0.8547988236316889 
3.650000000003278, -0.8550755376834709 
3.6600000000032993, -0.8552988239132907 
3.6700000000033204, -0.8554487558799017 
3.6800000000033415, -0.8555064418578883 
3.6900000000033626, -0.8554539399623652 
3.7000000000033837, -0.8552741787634225 
3.710000000003405, -0.8549508844799237 
3.720000000003426, -0.8544685157856106 
3.730000000003447, -0.8538122072052191 
3.740000000003468, -0.8529677220208015 
3.750000000003489, -0.8519214155446057 
3.7600000000035103, -0.8506602095405295 
3.7700000000035314, -0.849171578486807 
3.7800000000035525, -0.8474435482635118 
3.7900000000035736, -0.8454647077150463 
3.8000000000035947, -0.8432242333754557 
3.810000000003616, -0.8407119274493108 
3.820000000003637, -0.8379182689098349 
3.830000000003658, -0.834834477307221 
3.840000000003679, -0.8314525885736591 
3.8500000000037002, -0.8277655417698574 
3.8600000000037213, -0.8237672753458462 
3.8700000000037424, -0.8194528310949004 
3.8800000000037635, -0.8148184635752603 
3.8900000000037847, -0.8098617523751974 
3.9000000000038058, -0.804581714221424 
3.910000000003827, -0.7989789116002601 
3.920000000003848, -0.7930555542985652 
3.930000000003869, -0.7868155901010637 
3.94000000000389, -0.7802647808252784 
3.9500000000039113, -0.7734107599547295 
3.9600000000039324, -0.7662630683605268 
3.9700000000039535, -0.758833164989229 
3.9800000000039746, -0.7511344099404775 
3.9900000000039957, -0.7431820180514238 
4.000000000004016, -0.7349929819257675 
4.010000000003993, -0.7265859642630096 
4.02000000000397, -0.7179811603189638 
4.030000000003946, -0.709200132315964 
4.040000000003923, -0.7002656185712378 
4.0500000000039, -0.6912013209751081 
4.0600000000038765, -0.6820316751813529 
4.070000000003853, -0.6727816084317423 
4.08000000000383, -0.6634762902971292 
4.090000000003807, -0.654140881762875 
4.100000000003783, -0.6448002880143792 
4.11000000000376, -0.6354789200001323 
4.120000000003737, -0.6262004693881411 
4.130000000003713, -0.6169877009195704 
4.14000000000369, -0.6078622654407513 
4.150000000003667, -0.5988445361044911 
4.1600000000036434, -0.5899534694172256 
4.17000000000362, -0.581206492010523 
4.180000000003597, -0.5726194132689068 
4.1900000000035735, -0.5642063632791411 
4.20000000000355, -0.5559797549990086 
4.210000000003527, -0.5479502690881543 
4.220000000003504, -0.5401268595037741 
4.23000000000348, -0.5325167777369856 
4.240000000003457, -0.5251256134432049 
4.250000000003434, -0.5179573491892606 
4.26000000000341, -0.5110144270860326 
4.270000000003387, -0.5042978251817192 
4.280000000003364, -0.497807141640783 
4.2900000000033405, -0.4915406849116461 
4.300000000003317, -0.4854955682782536 
4.310000000003294, -0.4796678073848755 
4.320000000003271, -0.474052419510466 
4.330000000003247, -0.4686435235415624 
4.340000000003224, -0.463434439746419 
4.350000000003201, -0.4584177885853988 
4.360000000003177, -0.45358558790301834 
4.370000000003154, -0.44892934793646805 
4.380000000003131, -0.4444401636461232 
4.390000000003107, -0.44010880392854945 
4.400000000003084, -0.4359257973153958 
4.410000000003061, -0.43188151379600387 
4.4200000000030375, -0.4279662424312476 
4.430000000003014, -0.42417026445427813 
4.440000000002991, -0.42048392158330117 
4.450000000002968, -0.41689767930436833 
4.460000000002944, -0.41340218491986036 
4.470000000002921, -0.4099883202015973 
4.480000000002898, -0.40664724853631923 
4.490000000002874, -0.4033704565050879 
4.500000000002851, -0.40014978989582084 
4.510000000002828, -0.3969774842082357 
4.520000000002804, -0.3938461897711907 
4.530000000002781, -0.3907489916519489 
4.540000000002758, -0.3876794245934549 
4.5500000000027345, -0.38463148326760305 
4.560000000002711, -0.3815996281783014 
4.570000000002688, -0.378578787586719 
4.580000000002665, -0.37556435586169196 
4.590000000002641, -0.3725521886803797 
4.600000000002618, -0.3695385955178658 
4.610000000002595, -0.36652032986968325 
4.620000000002571, -0.36349457764874477 
4.630000000002548, -0.3604589441886162 
4.640000000002525, -0.35741144026936184 
4.6500000000025015, -0.35435046756137595 
4.660000000002478, -0.3512748038576921 
4.670000000002455, -0.34818358843734337 
4.6800000000024315, -0.34507630787240884 
4.690000000002408, -0.3419527825603517 
4.700000000002385, -0.33881315423195874 
4.710000000002362, -0.3356578746542858 
4.720000000002338, -0.33248769571802683 
4.730000000002315, -0.32930366107004694 
4.740000000002292, -0.32610709942465593 
4.750000000002268, -0.3228996196615728 
4.760000000002245, -0.3196831077944127 
4.770000000002222, -0.31645972587058785 
4.7800000000021985, -0.313231912841372 
4.790000000002175, -0.31000238741896036 
4.800000000002152, -0.3067741529148917 
4.810000000002129, -0.30355050403026906 
4.820000000002105, -0.3003350355416622 
4.830000000002082, -0.29713165279600534 
4.840000000002059, -0.2939445838915222 
4.850000000002035, -0.29077839337769656 
4.860000000002012, -0.2876379972530623 
4.870000000001989, -0.28452867897214656 
4.880000000001965, -0.28145610608857513 
4.890000000001942, -0.2784263470557055 
4.900000000001919, -0.27544588757370514 
4.9100000000018955, -0.2725216457060102 
4.920000000001872, -0.26966098478030004 
