t, s[1].omega / s[0].omega 
0, -0.5799977341468286 
0.009999999999999995, -0.5797833385453128 
0.019999999999999934, -0.5795854675639658 
0.029999999999999874, -0.5793847345576768 
0.04000000000000012, -0.5791580450516354 
0.050000000000000405, -0.5788869248478166 
0.06000000000000069, -0.5785623545535663 
0.07000000000000098, -0.5781854423168451 
0.08000000000000126, -0.5777660426829792 
0.09000000000000155, -0.5773220935614192 
0.10000000000000184, -0.5768816420838626 
0.11000000000000212, -0.5764887162396369 
0.12000000000000241, -0.5762140088352918 
0.130000000000002, -0.5761715270391866 
0.1400000000000009, -0.5765422071199645 
0.1499999999999998, -0.5776037001125729 
0.1599999999999987, -0.5797594499224561 
0.1699999999999976, -0.5835450679377676 
0.1799999999999965, -0.5895619124242822 
0.1899999999999954, -0.598261203788128 
0.1999999999999943, -0.6095500375802068 
0.2099999999999932, -0.6224264388881131 
0.2199999999999921, -0.6351294722185001 
0.229999999999991, -0.645978034423217 
0.2399999999999899, -0.6541810773094973 
0.2499999999999888, -0.6598755228645802 
0.2599999999999877, -0.6636341174419151 
0.2699999999999866, -0.6660466839641148 
0.2799999999999855, -0.6675612906006393 
0.2899999999999844, -0.6684781096516463 
0.2999999999999833, -0.6689862882854786 
0.3099999999999822, -0.6691988349240827 
0.3199999999999811, -0.6691759582378085 
0.32999999999998, -0.6689379563336674 
0.3399999999999789, -0.668470358226557 
0.3499999999999778, -0.6677240204492094 
0.35999999999997667, -0.6666140387436721 
0.36999999999997557, -0.6650247605564192 
0.37999999999997447, -0.6628325452725231 
0.38999999999997337, -0.6599557201164796 
0.39999999999997227, -0.6564205808356086 
0.40999999999997117, -0.6523995496908342 
0.41999999999997006, -0.648176840419808 
0.42999999999996896, -0.6440546082797556 
0.43999999999996786, -0.6402657954103664 
0.44999999999996676, -0.6369413067330675 
0.45999999999996566, -0.6341252198958534 
0.46999999999996456, -0.6318072745482433 
0.47999999999996346, -0.6299507938257258 
0.48999999999996235, -0.6285096542237469 
0.49999999999996125, -0.627436292697206 
0.5099999999999602, -0.6266846448462556 
0.519999999999959, -0.6262110612769703 
0.529999999999958, -0.6259748910078324 
0.5399999999999568, -0.6259393520012677 
0.5499999999999557, -0.6260726849587063 
0.5599999999999546, -0.6263493424694786 
0.5699999999999535, -0.6267509397106776 
0.5799999999999524, -0.6272666676338647 
0.5899999999999513, -0.6278926563736136 
0.5999999999999502, -0.6286293858746073 
0.6099999999999491, -0.6294760742362386 
0.619999999999948, -0.6304218031328023 
0.6299999999999469, -0.6314355654557263 
0.6399999999999458, -0.6324607519099426 
0.6499999999999447, -0.6334207504736805 
0.6599999999999436, -0.6342372349655625 
0.6699999999999425, -0.6348525765775854 
0.6799999999999414, -0.6352427260500332 
0.6899999999999403, -0.6354142736024276 
0.6999999999999392, -0.6353912814923377 
0.7099999999999381, -0.6352015984255146 
0.719999999999937, -0.6348682863129279 
0.7299999999999359, -0.6344067985229784 
0.7399999999999348, -0.6338266672695483 
0.7499999999999337, -0.6331371006450437 
0.7599999999999326, -0.6323573749805024 
0.7699999999999315, -0.6315339416396972 
0.7799999999999304, -0.630764958599345 
0.7899999999999293, -0.6302255527739653 
0.7999999999999282, -0.6301676721222874 
0.8099999999999271, -0.6308406522346357 
0.819999999999926, -0.6322917662227155 
0.8299999999999249, -0.634161398141332 
0.8399999999999238, -0.6358031549523304 
0.8499999999999227, -0.6368080182390745 
0.8599999999999216, -0.6373206533604084 
0.8699999999999205, -0.6377364289392895 
0.8799999999999194, -0.6382864353535169 
0.8899999999999183, -0.6389659149272251 
0.8999999999999172, -0.6396688140258898 
0.9099999999999161, -0.640298010055431 
0.919999999999915, -0.6407992352357349 
0.9299999999999139, -0.6411536403795635 
0.9399999999999128, -0.6413608485179909 
0.9499999999999117, -0.6414250871478373 
0.9599999999999106, -0.6413463059046032 
0.9699999999999095, -0.6411150747249714 
0.9799999999999084, -0.6407103509302867 
0.9899999999999073, -0.6401006665950216 
0.9999999999999062, -0.6392507306511409 
1.0099999999999052, -0.6381351840015943 
1.019999999999904, -0.6367570828677696 
1.029999999999903, -0.635161430464797 
1.039999999999902, -0.6334316321645562 
1.0499999999999008, -0.6316670175081412 
1.0599999999998997, -0.6299548999564626 
1.0699999999998986, -0.6283536036987296 
1.0799999999998975, -0.6268916558309283 
1.0899999999998964, -0.6255772437290197 
1.0999999999998953, -0.6244096917694862 
1.1099999999998942, -0.6233881002131003 
1.119999999999893, -0.6225160635799399 
1.129999999999892, -0.6218033359706974 
1.1399999999998909, -0.6212656815234393 
1.1499999999998898, -0.6209238490934902 
1.1599999999998887, -0.6208022797426904 
1.1699999999998876, -0.6209279811291728 
1.1799999999998865, -0.621329892853632 
1.1899999999998854, -0.6220388590104118 
1.1999999999998843, -0.6230878933253751 
1.2099999999998832, -0.6245116962461219 
1.219999999999882, -0.6263433645792561 
1.229999999999881, -0.628605189828628 
1.2399999999998799, -0.6312904220238171 
1.2499999999998788, -0.6343363311944743 
1.2599999999998777, -0.6375986565855877 
1.2699999999998766, -0.6408506114654322 
1.2799999999998755, -0.6438288255622974 
1.2899999999998744, -0.6463156779202249 
1.2999999999998733, -0.6482059101824615 
1.3099999999998722, -0.6495126549559636 
1.319999999999871, -0.6503223179246833 
1.32999999999987, -0.6507406109026472 
1.3399999999998689, -0.6508576932311525 
1.3499999999998678, -0.6507342401677013 
1.3599999999998666, -0.6503988505990794 
1.3699999999998655, -0.6498479680926442 
1.3799999999998644, -0.649042997543184 
1.3899999999998633, -0.6479012953980304 
1.3999999999998622, -0.6462779569427689 
1.4099999999998611, -0.643935395786819 
1.41999999999986, -0.6405022718603013 
1.429999999999859, -0.6354448586925499 
1.4399999999998578, -0.6281300366102605 
1.4499999999998567, -0.6181173046325383 
1.4599999999998556, -0.6056850332536332 
1.4699999999998545, -0.5921398048458102 
1.4799999999998534, -0.5793338532530592 
1.4899999999998523, -0.5687030239392645 
1.4999999999998512, -0.560758858357421 
1.5099999999998501, -0.5552748783084753 
1.519999999999849, -0.5517086613127576 
1.529999999999848, -0.5494999962720476 
1.5399999999998468, -0.5481944135427615 
1.5499999999998457, -0.5474631907857959 
1.5599999999998446, -0.5470832288481275 
1.5699999999998435, -0.5469088177729408 
1.5799999999998424, -0.5468470033053088 
1.5899999999998413, -0.5468392342515387 
1.5999999999998402, -0.5468488805412918 
1.6099999999998391, -0.5468535448413887 
1.619999999999838, -0.546841152290851 
1.629999999999837, -0.5468087883088527 
1.6399999999998358, -0.5467628085199371 
1.6499999999998347, -0.546718072896934 
1.6599999999998336, -0.5466941676963476 
1.6699999999998325, -0.546708081125836 
1.6799999999998314, -0.5467655357502499 
1.6899999999998303, -0.5468551575627317 
1.6999999999998292, -0.546949215320514 
1.709999999999828, -0.5470115242532599 
1.719999999999827, -0.5470087508305524 
1.729999999999826, -0.5469191051360665 
1.7399999999998248, -0.5467346955548769 
1.7499999999998237, -0.5464585232378546 
1.7599999999998226, -0.54609983371607 
1.7699999999998215, -0.5456710553000531 
1.7799999999998204, -0.54518787926848 
1.7899999999998193, -0.5446730946728058 
1.7999999999998182, -0.5441648982617994 
1.809999999999817, -0.5437309018485058 
1.819999999999816, -0.5434887308572134 
1.8299999999998149, -0.5436303877718962 
1.8399999999998138, -0.5444351141181312 
1.8499999999998127, -0.5462279858388801 
1.8599999999998116, -0.5492111938786711 
1.8699999999998105, -0.5531468689759669 
1.8799999999998094, -0.5571428537586253 
1.8899999999998083, -0.5600478978921423 
1.8999999999998072, -0.5613528350015151 
1.909999999999806, -0.561505463622574 
1.919999999999805, -0.5612794685926868 
1.9299999999998039, -0.5611546396151572 
1.9399999999998028, -0.5612447624283476 
1.9499999999998017, -0.5614844444844409 
1.9599999999998006, -0.561776912219122 
1.9699999999997995, -0.5620502979902583 
1.9799999999997984, -0.5622634281883023 
1.9899999999997973, -0.5623959492455288 
1.9999999999997962, -0.5624376337007438 
2.0099999999998173, -0.5623807713507037 
2.0199999999998384, -0.5622158844188462 
2.0299999999998595, -0.5619305578751734 
2.0399999999998806, -0.5615116376469121 
2.0499999999999017, -0.560951060196311 
2.059999999999923, -0.560254083280536 
2.069999999999944, -0.5594457850712409 
2.079999999999965, -0.5585701433554687 
2.089999999999986, -0.5576794825792794 
2.100000000000007, -0.5568192294179335 
2.1100000000000283, -0.5560166040322222 
2.1200000000000494, -0.5552783778824005 
2.1300000000000705, -0.5545965602721445 
2.1400000000000916, -0.5539573613226787 
2.1500000000001127, -0.5533490801425246 
2.160000000000134, -0.5527669289106706 
2.170000000000155, -0.5522152247977175 
2.180000000000176, -0.5517086197312446 
2.190000000000197, -0.551274016422367 
2.2000000000002182, -0.5509542437135649 
2.2100000000002393, -0.5508140700480983 
2.2200000000002604, -0.5509488824638739 
2.2300000000002815, -0.5514961426925298 
2.2400000000003026, -0.5526490770280358 
2.2500000000003237, -0.5546700369619332 
2.260000000000345, -0.5578958202976638 
2.270000000000366, -0.5627165174962535 
2.280000000000387, -0.5694934952799954 
2.290000000000408, -0.5783768997506857 
2.3000000000004293, -0.5890387178837156 
2.3100000000004504, -0.600499914989547 
2.3200000000004715, -0.611351681482793 
2.3300000000004926, -0.620384595187743 
2.3400000000005137, -0.6271043337753864 
2.3500000000005348, -0.6317005025701208 
2.360000000000556, -0.6346735384268076 
2.370000000000577, -0.6365235163936165 
2.380000000000598, -0.6376278666878261 
2.390000000000619, -0.6382358987519883 
2.4000000000006403, -0.638499190469256 
2.4100000000006614, -0.63850092262667 
2.4200000000006825, -0.6382748676520292 
2.4300000000007036, -0.6378143467807853 
2.4400000000007247, -0.6370735717721054 
2.450000000000746, -0.6359648226866954 
2.460000000000767, -0.6343580819244556 
2.470000000000788, -0.6320959590719539 
2.480000000000809, -0.6290408523161065 
2.49000000000083, -0.6251572961712212 
2.5000000000008513, -0.6205892660655068 
2.5100000000008724, -0.6156589569251321 
2.5200000000008935, -0.610761923945773 
2.5300000000009146, -0.6062318928112053 
2.5400000000009357, -0.6022670915215059 
2.550000000000957, -0.5989359173809308 
2.560000000000978, -0.5962214352001747 
2.570000000000999, -0.5940654757090509 
2.58000000000102, -0.5923972967793172 
2.5900000000010412, -0.5911477914253718 
2.6000000000010624, -0.5902547902715577 
2.6100000000010835, -0.5896641879181039 
2.6200000000011046, -0.5893296949716267 
2.6300000000011257, -0.589212499911201 
2.6400000000011468, -0.5892812378282477 
2.650000000001168, -0.5895122517620709 
2.660000000001189, -0.5898899816171961 
2.67000000000121, -0.5904072110129147 
2.680000000001231, -0.5910646569219746 
2.6900000000012523, -0.5918689343157839 
2.7000000000012734, -0.5928274986215327 
2.7100000000012945, -0.5939394306071692 
2.7200000000013156, -0.5951828302860707 
2.7300000000013367, -0.5965035383884425 
2.740000000001358, -0.5978139548582538 
2.750000000001379, -0.599009261563419 
2.7600000000014, -0.5999970748273269 
2.770000000001421, -0.6007233817567054 
2.780000000001442, -0.6011788991530266 
2.7900000000014633, -0.6013861375311993 
2.8000000000014844, -0.6013797271118275 
2.8100000000015055, -0.6011908578144504 
2.8200000000015266, -0.6008387874844502 
2.8300000000015477, -0.6003273199171355 
2.840000000001569, -0.5996432121025987 
2.85000000000159, -0.5987541809759211 
2.860000000001611, -0.5976045421922866 
2.870000000001632, -0.5961054177401985 
2.8800000000016532, -0.594113148875854 
2.8900000000016743, -0.5913857542469538 
2.9000000000016954, -0.5875172441628834 
2.9100000000017165, -0.581914183393736 
2.9200000000017377, -0.5740088920688267 
2.9300000000017588, -0.5638468303628378 
2.94000000000178, -0.552572803632606 
2.950000000001801, -0.5419827345273655 
2.960000000001822, -0.533438954955251 
2.970000000001843, -0.5273323170447077 
2.9800000000018643, -0.5233436525550819 
2.9900000000018854, -0.5209100042058223 
3.0000000000019065, -0.5195087211324287 
3.0100000000019276, -0.5187489646034158 
3.0200000000019487, -0.5183677694716715 
3.03000000000197, -0.5181981650836487 
3.040000000001991, -0.5181375157353411 
3.050000000002012, -0.5181236680170448 
3.060000000002033, -0.5181190043664065 
3.070000000002054, -0.5181007286666957 
3.0800000000020753, -0.5180558115086258 
3.0900000000020964, -0.5179793792907406 
3.1000000000021175, -0.5178752562079532 
3.1100000000021386, -0.517756737990896 
3.1200000000021597, -0.5176451263851304 
3.130000000002181, -0.5175642816561445 
3.140000000002202, -0.5175318911802658 
3.150000000002223, -0.5175508887076206 
3.160000000002244, -0.5176054231133266 
3.1700000000022652, -0.5176641421183342 
3.1800000000022863, -0.5176898550858692 
3.1900000000023074, -0.5176507609870412 
3.2000000000023285, -0.5175275491960492 
3.2100000000023496, -0.517314017092463 
3.2200000000023707, -0.5170132247210265 
3.230000000002392, -0.5166328824948554 
3.240000000002413, -0.5161825835210306 
3.250000000002434, -0.5156738777931517 
3.260000000002455, -0.5151234376623085 
3.2700000000024763, -0.51455957926419 
3.2800000000024974, -0.5140322608991006 
3.2900000000025185, -0.5136246501861039 
3.3000000000025396, -0.5134569449795622 
3.3100000000025607, -0.5136552274535519 
3.3200000000025818, -0.5142336590253807 
3.330000000002603, -0.5148610630999686 
3.340000000002624, -0.5146842533824578 
3.350000000002645, -0.5126826676093035 
3.360000000002666, -0.5086300160345857 
3.3700000000026873, -0.503528668182654 
3.3800000000027084, -0.49877085408439675 
3.3900000000027295, -0.49516393342853054 
3.4000000000027506, -0.4927998822871533 
3.4100000000027717, -0.4914108176840889 
3.420000000002793, -0.4906706133227292 
3.430000000002814, -0.4903190744044245 
3.440000000002835, -0.490180398170479 
3.450000000002856, -0.4901453254602452 
3.460000000002877, -0.490148785159898 
3.4700000000028983, -0.49015251339304955 
3.4800000000029194, -0.4901336855938373 
3.4900000000029405, -0.49007848405562615 
3.5000000000029616, -0.48997947514836315 
3.5100000000029827, -0.4898358674032641 
3.520000000003004, -0.4896554114549619 
3.530000000003025, -0.4894558427228609 
3.540000000003046, -0.489263233482815 
3.550000000003067, -0.48910574585847916 
3.5600000000030882, -0.4890041431477303 
3.5700000000031094, -0.48896304311946037 
3.5800000000031305, -0.488967266853826 
3.5900000000031516, -0.4889855787014379 
3.6000000000031727, -0.4889805210833898 
3.6100000000031938, -0.488919558401514 
3.620000000003215, -0.4887820928434289 
3.630000000003236, -0.48856014407688886 
3.640000000003257, -0.48825461867190467 
3.650000000003278, -0.4878706541049388 
3.6600000000032993, -0.4874144577952958 
3.6700000000033204, -0.4868924448738413 
3.6800000000033415, -0.486312579507135 
3.6900000000033626, -0.48568745576559846 
3.7000000000033837, -0.485037740011648 
3.710000000003405, -0.48439115319382475 
3.720000000003426, -0.483762810434587 
3.730000000003447, -0.48308549557502645 
3.740000000003468, -0.48205197249565035 
3.750000000003489, -0.47992027087978045 
3.7600000000035103, -0.47561268033511694 
3.7700000000035314, -0.46852785774610306 
3.7800000000035525, -0.45949506380454164 
3.7900000000035736, -0.4504190823517583 
3.8000000000035947, -0.44287635617755844 
3.810000000003616, -0.43739406978151274 
3.820000000003637, -0.4337427389221424 
3.830000000003658, -0.4314432685955306 
3.840000000003679, -0.43005067042768796 
3.8500000000037002, -0.42923585782169615 
3.8600000000037213, -0.4287788069458524 
3.8700000000037424, -0.42853966684458145 
3.8800000000037635, -0.42843206720313526 
3.8900000000037847, -0.4284039482462899 
3.9000000000038058, -0.4284252794551485 
3.910000000003827, -0.4284809359425088 
3.920000000003848, -0.4285672042139364 
3.930000000003869, -0.4286906033579303 
3.94000000000389, -0.42886755279632804 
3.9500000000039113, -0.42912302083538884 
3.9600000000039324, -0.42948618554157525 
3.9700000000039535, -0.4299819209836996 
3.9800000000039746, -0.43061877047750785 
3.9900000000039957, -0.43137684703405155 
4.000000000004016, -0.4322021853324373 
4.010000000003993, -0.43301456963638785 
4.02000000000397, -0.43372930533970794 
4.030000000003946, -0.4342820014027639 
4.040000000003923, -0.4346415180726909 
4.0500000000039, -0.4348059918548886 
4.0600000000038765, -0.4347889203988332 
4.070000000003853, -0.43460470280602115 
4.08000000000383, -0.43425786459547766 
4.090000000003807, -0.43373500963672224 
4.100000000003783, -0.43299619621107677 
4.11000000000376, -0.4319618348618908 
4.120000000003737, -0.4304914162744756 
4.130000000003713, -0.4283533823634132 
4.14000000000369, -0.42519880409073185 
4.150000000003667, -0.42058675935794143 
4.1600000000036434, -0.41415134482757593 
4.17000000000362, -0.4059379296008431 
4.180000000003597, -0.3966583001608126 
4.1900000000035735, -0.38746794213090274 
4.20000000000355, -0.3793689336437503 
4.210000000003527, -0.37282550027726724 
4.220000000003504, -0.3678222285961896 
4.23000000000348, -0.3641087022830727 
4.240000000003457, -0.3613890363787784 
4.250000000003434, -0.3594082599680497 
4.26000000000341, -0.3579738459994324 
4.270000000003387, -0.3569506388560262 
4.280000000003364, -0.35624920495342843 
4.2900000000033405, -0.355815308877594 
4.300000000003317, -0.35562267037169926 
4.310000000003294, -0.3556692373579564 
4.320000000003271, -0.3559767911341739 
4.330000000003247, -0.3565937618389958 
4.340000000003224, -0.3576011526081095 
4.350000000003201, -0.3591209373099642 
4.360000000003177, -0.3613242638281731 
4.370000000003154, -0.364431461457177 
4.380000000003131, -0.3686851148313276 
4.390000000003107, -0.3742644213350216 
4.400000000003084, -0.38111831458613726 
4.410000000003061, -0.388779896193269 
4.4200000000030375, -0.39637084532857647 
4.430000000003014, -0.4029564203021305 
4.440000000002991, -0.40800571704641386 
4.450000000002968, -0.41151993244102403 
4.460000000002944, -0.4138105668894684 
4.470000000002921, -0.41523951399765135 
4.480000000002898, -0.4160930924229773 
4.490000000002874, -0.41656265983537305 
4.500000000002851, -0.4167645278430284 
4.510000000002828, -0.41676331350178797 
4.520000000002804, -0.4165888432682623 
4.530000000002781, -0.4162470771626278 
4.540000000002758, -0.4157282905017622 
4.5500000000027345, -0.41501620751657453 
4.560000000002711, -0.41410090276696343 
4.570000000002688, -0.4129947703459692 
4.580000000002665, -0.4117446077140568 
4.590000000002641, -0.4104293252171198 
4.600000000002618, -0.40913985625990446 
4.610000000002595, -0.40795202959419175 
4.620000000002571, -0.4069085284256424 
4.630000000002548, -0.4060168815759858 
4.640000000002525, -0.40525904142938735 
4.6500000000025015, -0.40460462190537083 
4.660000000002478, -0.4040222534821674 
4.670000000002455, -0.40348676270747275 
4.6800000000024315, -0.4029822642279153 
4.690000000002408, -0.4025026895748035 
4.700000000002385, -0.402051733138083 
4.710000000002362, -0.40164392746121846 
4.720000000002338, -0.40130815209168097 
4.730000000002315, -0.40109474919928284 
4.740000000002292, -0.40108749630705576 
4.750000000002268, -0.4014211964924444 
4.760000000002245, -0.40230227901113746 
4.770000000002222, -0.4040177370961774 
4.7800000000021985, -0.4068866561408856 
4.790000000002175, -0.41105974551235536 
4.800000000002152, -0.4160947842208821 
4.810000000002129, -0.4205840475802945 
4.820000000002105, -0.42267678707051226 
4.830000000002082, -0.4216369313920607 
4.840000000002059, -0.4185316772593425 
4.850000000002035, -0.41503566316165513 
4.860000000002012, -0.41217613881189585 
4.870000000001989, -0.410200205105964 
4.880000000001965, -0.4089666586101083 
4.890000000001942, -0.40824923758529225 
4.900000000001919, -0.4078574193645615 
