t, s[1].omega / s[0].omega 
0, -0.5499977437958777 
0.009999999999999995, -0.549792952316299 
0.019999999999999934, -0.5496202416007713 
0.029999999999999874, -0.5494560317567114 
0.04000000000000012, -0.5492715599438454 
0.050000000000000405, -0.5490426678052553 
0.06000000000000069, -0.548755692073666 
0.07000000000000098, -0.5484083189768402 
0.08000000000000126, -0.5480076028636265 
0.09000000000000155, -0.5475683463292522 
0.10000000000000184, -0.5471141998547115 
0.11000000000000212, -0.5466829152555761 
0.12000000000000241, -0.5463370960647902 
0.130000000000002, -0.54618238250661 
0.1400000000000009, -0.5463955281638004 
0.1499999999999998, -0.5472636070766084 
0.1599999999999987, -0.5492285633827823 
0.1699999999999976, -0.5529098261279277 
0.1799999999999965, -0.5590315721898473 
0.1899999999999954, -0.5681301982102631 
0.1999999999999943, -0.579995261950007 
0.2099999999999932, -0.5932146472827875 
0.2199999999999921, -0.6056015975209564 
0.229999999999991, -0.6154913184182301 
0.2399999999999899, -0.6225292495867517 
0.2499999999999888, -0.6272609890906626 
0.2599999999999877, -0.6304003009171566 
0.2699999999999866, -0.6324890249861677 
0.2799999999999855, -0.6338753340769873 
0.2899999999999844, -0.6347762204392202 
0.2999999999999833, -0.6353284092529534 
0.3099999999999822, -0.6356173697623321 
0.3199999999999811, -0.6356924860292166 
0.32999999999998, -0.6355746846084585 
0.3399999999999789, -0.6352598300576756 
0.3499999999999778, -0.634720175143795 
0.35999999999997667, -0.6339068987205917 
0.36999999999997557, -0.6327585835506956 
0.37999999999997447, -0.6312211296193202 
0.38999999999997337, -0.6292792766039174 
0.39999999999997227, -0.6269862102883146 
0.40999999999997117, -0.624467107069461 
0.41999999999997006, -0.6218854929363791 
0.42999999999996896, -0.6193925738520166 
0.43999999999996786, -0.6170923408165083 
0.44999999999996676, -0.6150360410488619 
0.45999999999996566, -0.6132364409734845 
0.46999999999996456, -0.6116865739090278 
0.47999999999996346, -0.6103740190583659 
0.48999999999996235, -0.6092887466969528 
0.49999999999996125, -0.6084259769704436 
0.5099999999999602, -0.6077861601898069 
0.519999999999959, -0.6073737391532397 
0.529999999999958, -0.6071957655973275 
0.5399999999999568, -0.607261009231757 
0.5499999999999557, -0.6075798839083544 
0.5599999999999546, -0.6081652139511803 
0.5699999999999535, -0.6090334896243845 
0.5799999999999524, -0.6102057385429029 
0.5899999999999513, -0.6117063969325576 
0.5999999999999502, -0.6135576667278315 
0.6099999999999491, -0.6157663847212309 
0.619999999999948, -0.6183020990682347 
0.6299999999999469, -0.6210715020634173 
0.6399999999999458, -0.6239057543870444 
0.6499999999999447, -0.6265833535683039 
0.6599999999999436, -0.628893072783187 
0.6699999999999425, -0.6307027239717307 
0.6799999999999414, -0.6319860263320757 
0.6899999999999403, -0.6327970151079488 
0.6999999999999392, -0.6332226155201091 
0.7099999999999381, -0.63334498203939 
0.719999999999937, -0.6332227400348318 
0.7299999999999359, -0.6328850479915464 
0.7399999999999348, -0.6323299451835975 
0.7499999999999337, -0.6315209692367978 
0.7599999999999326, -0.6303779715726796 
0.7699999999999315, -0.6287580576332011 
0.7799999999999304, -0.626421372906284 
0.7899999999999293, -0.6229778401935159 
0.7999999999999282, -0.6178286577052894 
0.8099999999999271, -0.6101809532763155 
0.819999999999926, -0.5993246581108629 
0.8299999999999249, -0.5852987102148719 
0.8399999999999238, -0.5694821718411645 
0.8499999999999227, -0.5541786531782054 
0.8599999999999216, -0.5413273322476445 
0.8699999999999205, -0.5316860810987201 
0.8799999999999194, -0.5250189076694369 
0.8899999999999183, -0.5206648105873859 
0.8999999999999172, -0.5179405109525884 
0.9099999999999161, -0.5162992454215567 
0.919999999999915, -0.5153511691777208 
0.9299999999999139, -0.51483454169111 
0.9399999999999128, -0.5145795002115676 
0.9499999999999117, -0.5144780569013541 
0.9599999999999106, -0.5144625316953039 
0.9699999999999095, -0.5144912145986541 
0.9799999999999084, -0.5145395691181903 
0.9899999999999073, -0.5145955628115588 
0.9999999999999062, -0.5146578586125719 
1.0099999999999052, -0.5147352960228535 
1.019999999999904, -0.5148455252669584 
1.029999999999903, -0.5150106264874778 
1.039999999999902, -0.515248901080343 
1.0499999999999008, -0.5155646043707778 
1.0599999999998997, -0.5159398852214461 
1.0699999999998986, -0.5163340184659319 
1.0799999999998975, -0.5166926060289363 
1.0899999999998964, -0.5169634939104085 
1.0999999999998953, -0.5171107863224794 
1.1099999999998942, -0.517119616469918 
1.119999999999893, -0.5169915101211614 
1.129999999999892, -0.516735669581832 
1.1399999999998909, -0.5163612862187439 
1.1499999999998898, -0.5158728620173372 
1.1599999999998887, -0.5152681302777478 
1.1699999999998876, -0.5145372929467084 
1.1799999999998865, -0.5136618222669143 
1.1899999999998854, -0.5126092792611175 
1.1999999999998843, -0.511315020365127 
1.2099999999998832, -0.5096297175658162 
1.219999999999882, -0.5072002335586461 
1.229999999999881, -0.5032921991916539 
1.2399999999998799, -0.49677349127909604 
1.2499999999998788, -0.48675172718316795 
1.2599999999998777, -0.4737938275463673 
1.2699999999998766, -0.46016976154551054 
1.2799999999998755, -0.4483078432866324 
1.2899999999998744, -0.4393563176601033 
1.2999999999998733, -0.43321300921911055 
1.3099999999998722, -0.42923598181158906 
1.319999999999871, -0.42675275242334826 
1.32999999999987, -0.42524259452199303 
1.3399999999998689, -0.42434906665799854 
1.3499999999998678, -0.42384194101288203 
1.3599999999998666, -0.42357686440895126 
1.3699999999998655, -0.4234651132577566 
1.3799999999998644, -0.4234535970990631 
1.3899999999998633, -0.42351260069458946 
1.3999999999998622, -0.4236289143908934 
1.4099999999998611, -0.4238025788598884 
1.41999999999986, -0.4240457155264667 
1.429999999999859, -0.4243817031982897 
1.4399999999998578, -0.4248425692820527 
1.4499999999998567, -0.4254624488383147 
1.4599999999998556, -0.4262658608421169 
1.4699999999998545, -0.4272518058801033 
1.4799999999998534, -0.42837884875851495 
1.4899999999998523, -0.4295612983044327 
1.4999999999998512, -0.4306860219055609 
1.5099999999998501, -0.4316465131751098 
1.519999999999849, -0.4323741992609979 
1.529999999999848, -0.4328477116709825 
1.5399999999998468, -0.43307992281923313 
1.5499999999998457, -0.4330967633058857 
1.5599999999998446, -0.4329195469343051 
1.5699999999998435, -0.4325534593410705 
1.5799999999998424, -0.4319790876939146 
1.5899999999998413, -0.4311423920154075 
1.5999999999998402, -0.42993893675786604 
1.6099999999998391, -0.4281901761994802 
1.619999999999838, -0.4256173018124776 
1.629999999999837, -0.42184086781566477 
1.6399999999998358, -0.4164731399738487 
1.6499999999998347, -0.4093674227605385 
1.6599999999998336, -0.4009186915606323 
1.6699999999998325, -0.3920681646975207 
1.6799999999998314, -0.38385894297118134 
1.6899999999998303, -0.3769510439377556 
1.6999999999998292, -0.37150898412082844 
1.709999999999828, -0.36738065351640475 
1.719999999999827, -0.3643039038049992 
1.729999999999826, -0.362025272766071 
1.7399999999998248, -0.3603425161879803 
1.7499999999998237, -0.35910912274602824 
1.7599999999998226, -0.3582259844208632 
1.7699999999998215, -0.35763152412074867 
1.7799999999998204, -0.3572942065267436 
1.7899999999998193, -0.3572084217209954 
1.7999999999998182, -0.3573938876500499 
1.809999999999817, -0.3578987003300899 
1.819999999999816, -0.35880635828732316 
1.8299999999998149, -0.36024703351447 
1.8399999999998138, -0.36241222600476153 
1.8499999999998127, -0.3655678007138784 
1.8599999999998116, -0.37004949140216614 
1.8699999999998105, -0.3762036767500704 
1.8799999999998094, -0.3842163104834662 
1.8899999999998083, -0.39381814666252696 
1.8999999999998072, -0.4040593913856999 
1.909999999999806, -0.4135463411028404 
1.919999999999805, -0.42116318279963244 
1.9299999999998039, -0.42658926899876937 
1.9399999999998028, -0.43015103873445854 
1.9499999999998017, -0.4323816710429355 
1.9599999999998006, -0.43373941501095736 
1.9699999999997995, -0.4345371697115171 
1.9799999999997984, -0.4349667259707358 
1.9899999999997973, -0.4351381849269331 
1.9999999999997962, -0.43510950868619275 
2.0099999999998173, -0.43490471537602726 
2.0199999999998384, -0.43452497562686976 
2.0299999999998595, -0.4339573353496567 
2.0399999999998806, -0.4331852678597213 
2.0499999999999017, -0.43220344548452994 
2.059999999999923, -0.43103427825813495 
2.069999999999944, -0.4297370807530251 
2.079999999999965, -0.428399750394834 
2.089999999999986, -0.42711385056924056 
2.100000000000007, -0.4259478421522066 
2.1100000000000283, -0.4249335500348308 
2.1200000000000494, -0.42406881540738206 
2.1300000000000705, -0.42332955853526555 
2.1400000000000916, -0.4226834263359751 
2.1500000000001127, -0.42210036770375103 
2.160000000000134, -0.42155864107185914 
2.170000000000155, -0.42104699297370035 
2.180000000000176, -0.42056496722745174 
2.190000000000197, -0.42012348967093444 
2.2000000000002182, -0.4197474930490512 
2.2100000000002393, -0.4194820788509448 
2.2200000000002604, -0.4194039040135781 
2.2300000000002815, -0.4196399527439067 
2.2400000000003026, -0.42039561380310875 
2.2500000000003237, -0.4219899199063034 
2.260000000000345, -0.42487958309765866 
2.270000000000366, -0.42960933775211807 
2.280000000000387, -0.4365526981627642 
2.290000000000408, -0.44532736289306313 
2.3000000000004293, -0.4542395226069054 
2.3100000000004504, -0.4608674061840416 
2.3200000000004715, -0.46395531824542957 
2.3300000000004926, -0.46429503073419304 
2.3400000000005137, -0.46348276476364614 
2.3500000000005348, -0.4625989871445597 
2.360000000000556, -0.4620187354354333 
2.370000000000577, -0.46174400894727974 
2.380000000000598, -0.46167121891701024 
2.390000000000619, -0.4617019769671013 
2.4000000000006403, -0.4617683688345138 
2.4100000000006614, -0.4618290093779658 
2.4200000000006825, -0.4618597266290771 
2.4300000000007036, -0.46184605036187704 
2.4400000000007247, -0.46177883793368535 
2.450000000000746, -0.4616529284523633 
2.460000000000767, -0.46146844560967626 
2.470000000000788, -0.4612338616310354 
2.480000000000809, -0.46096880453836564 
2.49000000000083, -0.4607036230963775 
2.5000000000008513, -0.4604735480929638 
2.5100000000008724, -0.46030838018341347 
2.5200000000008935, -0.46022182573456993 
2.5300000000009146, -0.46020534336867136 
2.5400000000009357, -0.4602295836526678 
2.550000000000957, -0.46025332688451404 
2.560000000000978, -0.46023604758895925 
2.570000000000999, -0.4601480100997845 
2.58000000000102, -0.4599736966574036 
2.5900000000010412, -0.459709029800855 
2.6000000000010624, -0.4593559209316336 
2.6100000000010835, -0.45891736179665543 
2.6200000000011046, -0.45839435286050556 
2.6300000000011257, -0.4577843923828291 
2.6400000000011468, -0.4570802764020295 
2.650000000001168, -0.4562664714242666 
2.660000000001189, -0.4553061770415332 
2.67000000000121, -0.4541021395882649 
2.680000000001231, -0.45239792458693245 
2.6900000000012523, -0.44958996744709223 
2.7000000000012734, -0.4445514439834043 
2.7100000000012945, -0.43592756040776487 
2.7200000000013156, -0.4233651628703298 
2.7300000000013367, -0.40862893029341285 
2.740000000001358, -0.3946433566669358 
2.750000000001379, -0.3834136441789965 
2.7600000000014, -0.3753440588263563 
2.770000000001421, -0.36990492264123026 
2.780000000001442, -0.3663582155393211 
2.7900000000014633, -0.36408413519847893 
2.8000000000014844, -0.36264378001658193 
2.8100000000015055, -0.36174852089335585 
2.8200000000015266, -0.36121522825513475 
2.8300000000015477, -0.3609305449329701 
2.840000000001569, -0.36082685217112387 
2.85000000000159, -0.36086745441613666 
2.860000000001611, -0.36103821892313415 
2.870000000001632, -0.36134360099487256 
2.8800000000016532, -0.36180550327056654 
2.8900000000016743, -0.3624634426970409 
2.9000000000016954, -0.3633739558224351 
2.9100000000017165, -0.3646060672451511 
2.9200000000017377, -0.3662281804082782 
2.9300000000017588, -0.36828125902321723 
2.94000000000178, -0.37073809354874476 
2.950000000001801, -0.3734649246814753 
2.960000000001822, -0.3762228523660604 
2.970000000001843, -0.3787369517526964 
2.9800000000018643, -0.3808001035896106 
2.9900000000018854, -0.382333413050778 
3.0000000000019065, -0.3833688049821959 
3.0100000000019276, -0.3839912391822241 
3.0200000000019487, -0.38428899338156103 
3.03000000000197, -0.3843283334184954 
3.040000000001991, -0.3841456574953066 
3.050000000002012, -0.3837466297383052 
3.060000000002033, -0.38310632152244006 
3.070000000002054, -0.382169517792084 
3.0800000000020753, -0.3808553163862307 
3.0900000000020964, -0.379075184619676 
3.1000000000021175, -0.376774088469643 
3.1100000000021386, -0.37398867155261106 
3.1200000000021597, -0.37088380261184795 
3.130000000002181, -0.3677191157177138 
3.140000000002202, -0.3647527961615891 
3.150000000002223, -0.3621547143168528 
3.160000000002244, -0.3599834861555078 
3.1700000000022652, -0.3582158455848783 
3.1800000000022863, -0.3567890247998702 
3.1900000000023074, -0.355632396817165 
3.2000000000023285, -0.3546845189669268 
3.2100000000023496, -0.35389990695125373 
3.2200000000023707, -0.35325050702824645 
3.230000000002392, -0.35272547763972534 
3.240000000002413, -0.35233165741866096 
3.250000000002434, -0.3520963849384949 
3.260000000002455, -0.35207419152842157 
3.2700000000024763, -0.35235928337121514 
3.2800000000024974, -0.3531064583361686 
3.2900000000025185, -0.3545633348238576 
3.3000000000025396, -0.3571135625707386 
3.3100000000025607, -0.36131524988354635 
3.3200000000025818, -0.3678716843257912 
3.330000000002603, -0.3773780241444109 
3.340000000002624, -0.3896562450523111 
3.350000000002645, -0.402952634854367 
3.360000000002666, -0.41428862512733106 
3.3700000000026873, -0.42158631713096567 
3.3800000000027084, -0.42510798735266137 
3.3900000000027295, -0.4264106230932302 
3.4000000000027506, -0.4268116019900089 
3.4100000000027717, -0.4269636807628586 
3.420000000002793, -0.4270852958580652 
3.430000000002814, -0.42721526651855324 
3.440000000002835, -0.4273411340086891 
3.450000000002856, -0.4274443959402743 
3.460000000002877, -0.4275112995649142 
3.4700000000028983, -0.42753296463692314 
3.4800000000029194, -0.4275036329473451 
3.4900000000029405, -0.4274198491748843 
3.5000000000029616, -0.42728139541518984 
3.5100000000029827, -0.4270939611267474 
3.520000000003004, -0.426872540792246 
3.530000000003025, -0.4266432930101282 
3.540000000003046, -0.4264411366182948 
3.550000000003067, -0.4263019876456832 
3.5600000000030882, -0.426251704795122 
3.5700000000031094, -0.4262960804942482 
3.5800000000031305, -0.4264162296804286 
3.5900000000031516, -0.4265721054155975 
3.6000000000031727, -0.4267137571218604 
3.6100000000031938, -0.4267955699998375 
3.620000000003215, -0.4267863836427731 
3.630000000003236, -0.42667133445257555 
3.640000000003257, -0.4264468848550204 
3.650000000003278, -0.4261133458279075 
3.6600000000032993, -0.42566799802744404 
3.6700000000033204, -0.4250992639552039 
3.6800000000033415, -0.424380250827107 
3.6900000000033626, -0.42345815638589307 
3.7000000000033837, -0.4222331028535254 
3.710000000003405, -0.42051473158473185 
3.720000000003426, -0.41794031623752614 
3.730000000003447, -0.41385603706793905 
3.740000000003468, -0.40726736005714503 
3.750000000003489, -0.397182033104322 
3.7600000000035103, -0.3835848884186907 
3.7700000000035314, -0.3682085489651322 
3.7800000000035525, -0.3536891949004183 
3.7900000000035736, -0.3418479633499464 
3.8000000000035947, -0.3330883964491794 
3.810000000003616, -0.32694860532627557 
3.820000000003637, -0.3227474858232734 
3.830000000003658, -0.31989514543149666 
3.840000000003679, -0.31796315227758953 
3.8500000000037002, -0.316663480489247 
3.8600000000037213, -0.31581024491782345 
3.8700000000037424, -0.3152877786509758 
3.8800000000037635, -0.3150288760569405 
3.8900000000037847, -0.31500165258304835 
3.9000000000038058, -0.3152029153644235 
3.910000000003827, -0.3156565546825003 
3.920000000003848, -0.31641608755984085 
3.930000000003869, -0.3175706545339999 
3.94000000000389, -0.3192529427196823 
3.9500000000039113, -0.3216444963002954 
3.9600000000039324, -0.3249665821181119 
3.9700000000039535, -0.329432258076224 
3.9800000000039746, -0.33512808517811044 
3.9900000000039957, -0.3418323808270167 
4.000000000004016, -0.3489017256594461 
4.010000000003993, -0.35544360327508784 
4.02000000000397, -0.36075087898921343 
4.030000000003946, -0.36460080181827753 
4.040000000003923, -0.36717477770328877 
4.0500000000039, -0.3688024526250979 
4.0600000000038765, -0.36978362653472996 
4.070000000003853, -0.37033213089583117 
4.08000000000383, -0.37058248785239367 
4.090000000003807, -0.37061156538234086 
4.100000000003783, -0.37045712593504126 
4.11000000000376, -0.37013071939742404 
4.120000000003737, -0.3696275026156327 
4.130000000003713, -0.36893662846808434 
4.14000000000369, -0.36805482523302135 
4.150000000003667, -0.3670019487372813 
4.1600000000036434, -0.3658312003603851 
4.17000000000362, -0.3646242972694532 
4.180000000003597, -0.36347006754548206 
4.1900000000035735, -0.3624383356010741 
4.20000000000355, -0.36156409995492966 
4.210000000003527, -0.3608470399699611 
4.220000000003504, -0.36026137428117366 
4.23000000000348, -0.3597690009801787 
4.240000000003457, -0.35933114489780715 
4.250000000003434, -0.35891602863928157 
4.26000000000341, -0.358501929072255 
4.270000000003387, -0.3580766931172158 
4.280000000003364, -0.35763570513272536 
4.2900000000033405, -0.3571800680137466 
4.300000000003317, -0.3567159104235237 
4.310000000003294, -0.35625479662563775 
4.320000000003271, -0.3558139126771148 
4.330000000003247, -0.3554114695077405 
4.340000000003224, -0.3550439285937432 
4.350000000003201, -0.3546114820401483 
4.360000000003177, -0.35373118487476896 
4.370000000003154, -0.351418133193102 
4.380000000003131, -0.34595164375405063 
4.390000000003107, -0.33580264736248316 
4.400000000003084, -0.3216106374880812 
4.410000000003061, -0.3064889081862797 
4.4200000000030375, -0.2935143545005573 
4.430000000003014, -0.28386663296068215 
4.440000000002991, -0.2772344788482647 
4.450000000002968, -0.27283067240149095 
4.460000000002944, -0.26993691214588605 
4.470000000002921, -0.26803750550746686 
4.480000000002898, -0.2667957070511395 
4.490000000002874, -0.26600128567658277 
4.500000000002851, -0.26552764689529906 
4.510000000002828, -0.26530363008493 
4.520000000002804, -0.2652970582529922 
4.530000000002781, -0.26550670184497377 
4.540000000002758, -0.26596046704733395 
4.5500000000027345, -0.2667186668549958 
4.560000000002711, -0.2678816883055835 
4.570000000002688, -0.2696006363449193 
4.580000000002665, -0.27208606915506817 
4.590000000002641, -0.275600628693108 
4.600000000002618, -0.2804039428819953 
4.610000000002595, -0.28660591494413973 
4.620000000002571, -0.29393528871601077 
4.630000000002548, -0.3016048636461818 
4.640000000002525, -0.30856240231165544 
4.6500000000025015, -0.31404777672251327 
4.660000000002478, -0.31790530577435194 
4.670000000002455, -0.3204145986644642 
4.6800000000024315, -0.3219702537351646 
4.690000000002408, -0.32289897792537275 
4.700000000002385, -0.3234206999590745 
4.710000000002362, -0.323669050150019 
4.720000000002338, -0.32371987376434497 
4.730000000002315, -0.3236126980718892 
4.740000000002292, -0.32336504777058833 
4.750000000002268, -0.32298302295281767 
4.760000000002245, -0.3224712435564699 
4.770000000002222, -0.3218433231405137 
4.7800000000021985, -0.32113074852255413 
4.790000000002175, -0.320385119108637 
4.800000000002152, -0.3196699268082338 
4.810000000002129, -0.31904448026637494 
4.820000000002105, -0.318548219981441 
4.830000000002082, -0.3181923672016003 
4.840000000002059, -0.3179602950092192 
4.850000000002035, -0.31781459000411055 
4.860000000002012, -0.3177081366601675 
4.870000000001989, -0.3175958054132211 
4.880000000001965, -0.3174426224937358 
