t, s[1].omega / s[0].omega 
0, -1.1499974170443317 
0.009999999999999995, -1.1496069329655754 
0.019999999999999934, -1.148955639325818 
0.029999999999999874, -1.1480496432829084 
0.04000000000000012, -1.1469082372483226 
0.050000000000000405, -1.145572028253163 
0.06000000000000069, -1.144107136543828 
0.07000000000000098, -1.142602750740192 
0.08000000000000126, -1.1411624543449308 
0.09000000000000155, -1.1398944766467782 
0.10000000000000184, -1.1389016874881923 
0.11000000000000212, -1.138258944630567 
0.12000000000000241, -1.1379738528154126 
0.130000000000002, -1.1379623973688806 
0.1400000000000009, -1.1380724870562329 
0.1499999999999998, -1.1381360345299085 
0.1599999999999987, -1.1380033357449995 
0.1699999999999976, -1.1375462238686291 
0.1799999999999965, -1.1366507043425538 
0.1899999999999954, -1.1352207038584858 
0.1999999999999943, -1.133195785446597 
0.2099999999999932, -1.130567162024528 
0.2199999999999921, -1.1273747898330404 
0.229999999999991, -1.1236871648192497 
0.2399999999999899, -1.1195830143006051 
0.2499999999999888, -1.1151513832328301 
0.2599999999999877, -1.1105128215026299 
0.2699999999999866, -1.1058543005023964 
0.2799999999999855, -1.1014594433827232 
0.2899999999999844, -1.0976931261245104 
0.2999999999999833, -1.0948925090014465 
0.3099999999999822, -1.0931918056185477 
0.3199999999999811, -1.0924292720252116 
0.32999999999998, -1.0922446381582362 
0.3399999999999789, -1.0922650957052549 
0.3499999999999778, -1.0922104822180807 
0.35999999999997667, -1.0918824586791005 
0.36999999999997557, -1.0911004247311435 
0.37999999999997447, -1.0896383594687653 
0.38999999999997337, -1.0871896390325664 
0.39999999999997227, -1.0833848225473426 
0.40999999999997117, -1.0778840498255036 
0.41999999999997006, -1.0705183601239483 
0.42999999999996896, -1.0613864096781676 
0.43999999999996786, -1.050832282741733 
0.44999999999996676, -1.0393485523045582 
0.45999999999996566, -1.027510589846337 
0.46999999999996456, -1.015980762385398 
0.47999999999996346, -1.0055194535054721 
0.48999999999996235, -0.9968947069409287 
0.49999999999996125, -0.9906445399755941 
0.5099999999999602, -0.9868222159575359 
0.519999999999959, -0.9849665532326083 
0.529999999999958, -0.9843579926295647 
0.5399999999999568, -0.9843347935001975 
0.5499999999999557, -0.9844451455201239 
0.5599999999999546, -0.9844260323927958 
0.5699999999999535, -0.9841129601243259 
0.5799999999999524, -0.9833539918940186 
0.5899999999999513, -0.9819492750646114 
0.5999999999999502, -0.9796225078953975 
0.6099999999999491, -0.976043890657351 
0.619999999999948, -0.9709288758075884 
0.6299999999999469, -0.9641894363979028 
0.6399999999999458, -0.9560319015124494 
0.6499999999999447, -0.9469039284153781 
0.6599999999999436, -0.9373352542183306 
0.6699999999999425, -0.9278077149778997 
0.6799999999999414, -0.9187210540245346 
0.6899999999999403, -0.9104197711278962 
0.6999999999999392, -0.9032171913501943 
0.7099999999999381, -0.8973758243968214 
0.719999999999937, -0.8930426199762882 
0.7299999999999359, -0.8901808467073489 
0.7399999999999348, -0.8885595795992037 
0.7499999999999337, -0.8878247010535592 
0.7599999999999326, -0.8876080510116858 
0.7699999999999315, -0.8876075275338408 
0.7799999999999304, -0.8876089167830461 
0.7899999999999293, -0.8874658623078725 
0.7999999999999282, -0.8870682504967803 
0.8099999999999271, -0.8863207881884073 
0.819999999999926, -0.8851425297300407 
0.8299999999999249, -0.8834878133671139 
0.8399999999999238, -0.8813741141631073 
0.8499999999999227, -0.8788901841460952 
0.8599999999999216, -0.8761693339909484 
0.8699999999999205, -0.873344498815891 
0.8799999999999194, -0.8705165376134807 
0.8899999999999183, -0.8677499877259842 
0.8999999999999172, -0.8650878008945747 
0.9099999999999161, -0.8625697347476444 
0.919999999999915, -0.8602442490460734 
0.9299999999999139, -0.8581707560617239 
0.9399999999999128, -0.8564133614836982 
0.9499999999999117, -0.8550288096842414 
0.9599999999999106, -0.8540518138187766 
0.9699999999999095, -0.8534819401001439 
0.9799999999999084, -0.8532775651597883 
0.9899999999999073, -0.8533612839618581 
0.9999999999999062, -0.853635717929169 
1.0099999999999052, -0.8540027812069864 
1.019999999999904, -0.8543789396824627 
1.029999999999903, -0.8547037305727536 
1.039999999999902, -0.8549429994514688 
1.0499999999999008, -0.8550880461081255 
1.0599999999998997, -0.8551493401722063 
1.0699999999998986, -0.8551438822207317 
1.0799999999998975, -0.8550800726813953 
1.0899999999998964, -0.8549481439942701 
1.0999999999998953, -0.8547224561273306 
1.1099999999998942, -0.8543747253990316 
1.119999999999893, -0.853890278722605 
1.129999999999892, -0.8532790224231854 
1.1399999999998909, -0.8525791037886788 
1.1499999999998898, -0.8518567538128002 
1.1599999999998887, -0.8512048052874311 
1.1699999999998876, -0.8507374756620782 
1.1799999999998865, -0.8505768005797447 
1.1899999999998854, -0.8508304590135453 
1.1999999999998843, -0.8515687999620889 
1.2099999999998832, -0.8528123875312327 
1.219999999999882, -0.8545355886512608 
1.229999999999881, -0.8566821495464151 
1.2399999999998799, -0.8591839544018932 
1.2499999999998788, -0.8619755051633151 
1.2599999999998777, -0.8649995800665968 
1.2699999999998766, -0.8682013984272459 
1.2799999999998755, -0.8715110307975277 
1.2899999999998744, -0.8748198025826606 
1.2999999999998733, -0.8779664286143402 
1.3099999999998722, -0.8807543840784743 
1.319999999999871, -0.8830067004105118 
1.32999999999987, -0.8846278725910989 
1.3399999999998689, -0.8856263962860202 
1.3499999999998678, -0.886086492150456 
1.3599999999998666, -0.8861215155849168 
1.3699999999998655, -0.8858447042074187 
1.3799999999998644, -0.8853701144017655 
1.3899999999998633, -0.8848410852028542 
1.3999999999998622, -0.8844784416779229 
1.4099999999998611, -0.8846312422229874 
1.41999999999986, -0.8857930533911065 
1.429999999999859, -0.8885369046400519 
1.4399999999998578, -0.8933607880742488 
1.4499999999998567, -0.9005168851238476 
1.4599999999998556, -0.9099321388645353 
1.4699999999998545, -0.9212532171881737 
1.4799999999998534, -0.9339450675242582 
1.4899999999998523, -0.9473529019272073 
1.4999999999998512, -0.9607063050092151 
1.5099999999998501, -0.9731331555810132 
1.519999999999849, -0.9837867142224869 
1.529999999999848, -0.9920951769139534 
1.5399999999998468, -0.9979596543223881 
1.5499999999998457, -1.0017108411771565 
1.5599999999998446, -1.003872504984773 
1.5699999999998435, -1.00493790802773 
1.5799999999998424, -1.0052709874758265 
1.5899999999998413, -1.005109151207601 
1.5999999999998402, -1.00461448090869 
1.6099999999998391, -1.0039508703170565 
1.619999999999838, -1.0033901313943854 
1.629999999999837, -1.003435672763825 
1.6399999999998358, -1.0048803175164953 
1.6499999999998347, -1.008644616955784 
1.6599999999998336, -1.0153596623890229 
1.6699999999998325, -1.0249812414658948 
1.6799999999998314, -1.0367948900813728 
1.6899999999998303, -1.0497678540992408 
1.6999999999998292, -1.0628952297877512 
1.709999999999828, -1.0753386186130338 
1.719999999999827, -1.086423119249345 
1.729999999999826, -1.0956394063125452 
1.7399999999998248, -1.1027139929946426 
1.7499999999998237, -1.1076802472597411 
1.7599999999998226, -1.1108424571904993 
1.7699999999998215, -1.112631427494676 
1.7799999999998204, -1.1134561116098654 
1.7899999999998193, -1.1136311653841235 
1.7999999999998182, -1.1133815461588807 
1.809999999999817, -1.1128932020202205 
1.819999999999816, -1.1123841963677694 
1.8299999999998149, -1.1121630007571137 
1.8399999999998138, -1.1126095556855309 
1.8499999999998127, -1.114032177593151 
1.8599999999998116, -1.1164892263917612 
1.8699999999998105, -1.1197580021017657 
1.8799999999998094, -1.123479577419021 
1.8899999999998083, -1.1273226478305256 
1.8999999999998072, -1.1310532815083998 
1.909999999999806, -1.1345258887349483 
1.919999999999805, -1.1376485062678858 
1.9299999999998039, -1.1403522732591562 
1.9399999999998028, -1.1425758205415923 
1.9499999999998017, -1.1442684160802086 
1.9599999999998006, -1.1454070581685118 
1.9699999999997995, -1.1460119148894234 
1.9799999999997984, -1.146145949717968 
1.9899999999997973, -1.145901418170193 
1.9999999999997962, -1.1453887691584437 
2.0099999999998173, -1.1447371825830548 
2.0199999999998384, -1.1440974006368927 
2.0299999999998595, -1.143625388000158 
2.0399999999998806, -1.1434401858581684 
2.0499999999999017, -1.1435856785263963 
2.059999999999923, -1.1440312392924612 
2.069999999999944, -1.1447017496968404 
2.079999999999965, -1.145502468392444 
2.089999999999986, -1.1463303062174335 
2.100000000000007, -1.1470845733582171 
2.1100000000000283, -1.1476804264398284 
2.1200000000000494, -1.148057775598556 
2.1300000000000705, -1.148182381856502 
2.1400000000000916, -1.1480410358801556 
2.1500000000001127, -1.147633374740936 
2.160000000000134, -1.1469638475057904 
2.170000000000155, -1.1460384625319227 
2.180000000000176, -1.144868526875631 
2.190000000000197, -1.1434789697453145 
2.2000000000002182, -1.1419164292581394 
2.2100000000002393, -1.1402528712459659 
2.2200000000002604, -1.1385829379234091 
2.2300000000002815, -1.1370174975828253 
2.2400000000003026, -1.1356762618490424 
2.2500000000003237, -1.1346711301757244 
2.260000000000345, -1.134066801419422 
2.270000000000366, -1.1338348505066216 
2.280000000000387, -1.133848312894865 
2.290000000000408, -1.13392973278394 
2.3000000000004293, -1.1339061685468812 
2.3100000000004504, -1.1336296092995666 
2.3200000000004715, -1.1329688194448373 
2.3300000000004926, -1.131801107974779 
2.3400000000005137, -1.1300224316674061 
2.3500000000005348, -1.1275722293928192 
2.360000000000556, -1.124451551631436 
2.370000000000577, -1.120716420374039 
2.380000000000598, -1.1164530537998048 
2.390000000000619, -1.1117592638256315 
2.4000000000006403, -1.106749379625399 
2.4100000000006614, -1.1015832109198966 
2.4200000000006825, -1.0965064101820505 
2.4300000000007036, -1.091871624526051 
2.4400000000007247, -1.0880860892122302 
2.450000000000746, -1.0854533366320487 
2.460000000000767, -1.0839957622245102 
2.470000000000788, -1.0834331925339145 
2.480000000000809, -1.0833504736977269 
2.49000000000083, -1.0833816085661478 
2.5000000000008513, -1.0832717694441407 
2.5100000000008724, -1.082835940854535 
2.5200000000008935, -1.0818868216848 
2.5300000000009146, -1.0801747938235167 
2.5400000000009357, -1.0773620337760492 
2.550000000000957, -1.0730580217474968 
2.560000000000978, -1.066934876799224 
2.570000000000999, -1.058879211817205 
2.58000000000102, -1.0490718747686558 
2.5900000000010412, -1.0379357978196233 
2.6000000000010624, -1.02602433303381 
2.6100000000010835, -1.0139591633572231 
2.6200000000011046, -1.002435853509086 
2.6300000000011257, -0.9922175670241126 
2.6400000000011468, -0.9840162926998127 
2.650000000001168, -0.9782511840498626 
2.660000000001189, -0.9748436010007081 
2.67000000000121, -0.973257810337976 
2.680000000001231, -0.9727785939181678 
2.6900000000012523, -0.9727907809856011 
2.7000000000012734, -0.9728878721008767 
2.7100000000012945, -0.9728332509002653 
2.7200000000013156, -0.9724721443562725 
2.7300000000013367, -0.9716538468493717 
2.740000000001358, -0.9701803928364863 
2.750000000001379, -0.9677896784206493 
2.7600000000014, -0.9641925194179611 
2.770000000001421, -0.9591773320148789 
2.780000000001442, -0.9527406094657166 
2.7900000000014633, -0.9451392901802534 
2.8000000000014844, -0.9368062785150025 
2.8100000000015055, -0.9282027552197198 
2.8200000000015266, -0.9197228498703157 
2.8300000000015477, -0.9116838350335752 
2.840000000001569, -0.9043592320032653 
2.85000000000159, -0.8980022519919575 
2.860000000001611, -0.8928299548308386 
2.870000000001632, -0.8889687662974327 
2.8800000000016532, -0.8863948085517988 
2.8900000000016743, -0.8849191182799626 
2.9000000000016954, -0.884241012168257 
2.9100000000017165, -0.8840382363537491 
2.9200000000017377, -0.8840381547169238 
2.9300000000017588, -0.8840414257608725 
2.94000000000178, -0.8839085539009169 
2.950000000001801, -0.8835347851572775 
2.960000000001822, -0.8828335048905334 
2.970000000001843, -0.8817380725454453 
2.9800000000018643, -0.8802206385585367 
2.9900000000018854, -0.8783123361977545 
3.0000000000019065, -0.8761023230203769 
3.0100000000019276, -0.8737085359496454 
3.0200000000019487, -0.8712394196725182 
3.03000000000197, -0.8687719454866419 
3.040000000001991, -0.8663533491953825 
3.050000000002012, -0.8640167552928276 
3.060000000002033, -0.8617975510229644 
3.070000000002054, -0.8597426374090141 
3.0800000000020753, -0.8579106101271814 
3.0900000000020964, -0.8563644556082122 
3.1000000000021175, -0.855159666331084 
3.1100000000021386, -0.8543308772549403 
3.1200000000021597, -0.8538804340300541 
3.130000000002181, -0.8537730747252743 
3.140000000002202, -0.8539402841185597 
3.150000000002223, -0.8542939312542418 
3.160000000002244, -0.8547437965508669 
3.1700000000022652, -0.8552124110226629 
3.1800000000022863, -0.8556440200723058 
3.1900000000023074, -0.8560079781900624 
3.2000000000023285, -0.8562970060176519 
3.2100000000023496, -0.8565193343573728 
3.2200000000023707, -0.856685133888687 
3.230000000002392, -0.8567922630250294 
3.240000000002413, -0.8568194404626805 
3.250000000002434, -0.8567320493495537 
3.260000000002455, -0.856497875390365 
3.2700000000024763, -0.8561034603521461 
3.2800000000024974, -0.8555630967474661 
3.2900000000025185, -0.8549203689732062 
3.3000000000025396, -0.8542473586940383 
3.3100000000025607, -0.8536441151455861 
3.3200000000025818, -0.8532348339924007 
3.330000000002603, -0.8531545090125519 
3.340000000002624, -0.8535247189092212 
3.350000000002645, -0.8544269874405944 
3.360000000002666, -0.8558873266199842 
3.3700000000026873, -0.8578794631089596 
3.3800000000027084, -0.8603424841581953 
3.3900000000027295, -0.8632021447649655 
3.4000000000027506, -0.8663864971731012 
3.4100000000027717, -0.8698305204658288 
3.420000000002793, -0.873467331337389 
3.430000000002814, -0.8772069832574564 
3.440000000002835, -0.8809114499313975 
3.450000000002856, -0.8843857227592338 
3.460000000002877, -0.8874080489604643 
3.4700000000028983, -0.8897980896026423 
3.4800000000029194, -0.8914799204342415 
3.4900000000029405, -0.8924914759988875 
3.5000000000029616, -0.8929417086397697 
3.5100000000029827, -0.8929584183235426 
3.520000000003004, -0.8926614674411968 
3.530000000003025, -0.8921692135386394 
3.540000000003046, -0.8916331300141568 
3.550000000003067, -0.8912926056482784 
3.5600000000030882, -0.891531107220111 
3.5700000000031094, -0.8928911582296651 
3.5800000000031305, -0.8959948597559657 
3.5900000000031516, -0.9013645599606865 
3.6000000000031727, -0.9092333026224164 
3.6100000000031938, -0.9194674656843833 
3.620000000003215, -0.9316296385187942 
3.630000000003236, -0.945093587770074 
3.640000000003257, -0.9591135080524344 
3.650000000003278, -0.9728364328519666 
3.6600000000032993, -0.9853413940239439 
3.6700000000033204, -0.9958038394278117 
3.6800000000033415, -1.0037538693362393 
3.6900000000033626, -1.0092238576103125 
3.7000000000033837, -1.0126370193024203 
3.710000000003405, -1.014547575182651 
3.720000000003426, -1.0154385308819998 
3.730000000003447, -1.0156515224905243 
3.740000000003468, -1.0154067719609108 
3.750000000003489, -1.014863094084229 
3.7600000000035103, -1.0142027219323169 
3.7700000000035314, -1.0137436032507798 
3.7800000000035525, -1.0140516872423597 
3.7900000000035736, -1.0159438166179704 
3.8000000000035947, -1.020241778758568 
3.810000000003616, -1.0273408772862755 
3.820000000003637, -1.0369502152756824 
3.830000000003658, -1.048250759416715 
3.840000000003679, -1.0602731847980364 
3.8500000000037002, -1.0721620441669835 
3.8600000000037213, -1.0832349915920596 
3.8700000000037424, -1.0929507747990483 
3.8800000000037635, -1.100912041027869 
3.8900000000037847, -1.1069321935494385 
3.9000000000038058, -1.1110892943092903 
3.910000000003827, -1.1136796767471704 
3.920000000003848, -1.1150877387079554 
3.930000000003869, -1.1156657043560556 
3.94000000000389, -1.1156830663685857 
3.9500000000039113, -1.1153411270610976 
3.9600000000039324, -1.1148259692166174 
3.9700000000039535, -1.114373709720387 
3.9800000000039746, -1.1143051235669563 
3.9900000000039957, -1.114966217304646 
4.000000000004016, -1.116569555401701 
4.010000000003993, -1.1190679623833253 
4.02000000000397, -1.1221958929763185 
4.030000000003946, -1.1256247475175192 
4.040000000003923, -1.1290833283846284 
4.0500000000039, -1.1323896724407918 
4.0600000000038765, -1.1354313284048314 
4.070000000003853, -1.1381349817704558 
4.08000000000383, -1.1404427331470903 
4.090000000003807, -1.1423015788823976 
4.100000000003783, -1.1436690127346982 
4.11000000000376, -1.1445293673472177 
4.120000000003737, -1.144906522902927 
4.130000000003713, -1.144862317292314 
4.14000000000369, -1.1444855436322656 
4.150000000003667, -1.1438850008907242 
4.1600000000036434, -1.143190964879085 
4.17000000000362, -1.1425522453312944 
4.180000000003597, -1.1421111160186705 
4.1900000000035735, -1.1419614514175902 
4.20000000000355, -1.142124138229312 
4.210000000003527, -1.142559205065562 
4.220000000003504, -1.143192159627207 
4.23000000000348, -1.1439294936616573 
4.240000000003457, -1.1446678425492256 
4.250000000003434, -1.1453078153246112 
4.26000000000341, -1.1457685389040344 
4.270000000003387, -1.1459950977299052 
4.280000000003364, -1.1459582947083875 
4.2900000000033405, -1.1456493245926656 
4.300000000003317, -1.1450714055947055 
4.310000000003294, -1.1442319115651867 
4.320000000003271, -1.143139786348524 
4.330000000003247, -1.1418100553127135 
4.340000000003224, -1.140272495269272 
4.350000000003201, -1.1385794183710611 
4.360000000003177, -1.136808584563098 
4.370000000003154, -1.135060548812501 
4.380000000003131, -1.1334534909001683 
4.390000000003107, -1.1321146816945917 
4.400000000003084, -1.1311550831760466 
4.410000000003061, -1.1306198102419927 
4.4200000000030375, -1.1304471110118537 
4.430000000003014, -1.1304827317350108 
4.440000000002991, -1.1305400451918 
4.450000000002968, -1.1304489031015388 
4.460000000002944, -1.1300643865274411 
4.470000000002921, -1.1292537216150056 
4.480000000002898, -1.1278907964495715 
4.490000000002874, -1.1258721468699366 
4.500000000002851, -1.1231453318664713 
4.510000000002828, -1.1197249898643789 
4.520000000002804, -1.1156809485836636 
4.530000000002781, -1.1111107952915322 
4.540000000002758, -1.1061236938239192 
4.5500000000027345, -1.1008507842994448 
4.560000000002711, -1.0954793279544277 
4.570000000002688, -1.0902930169038259 
4.580000000002665, -1.0856793729884024 
4.590000000002641, -1.0820469599136309 
4.600000000002618, -1.0796439146853143 
4.610000000002595, -1.0784038380502274 
4.620000000002571, -1.0779827438705776 
4.630000000002548, -1.0779551260395264 
4.640000000002525, -1.0779763782394347 
4.6500000000025015, -1.0778129919221762 
4.660000000002478, -1.0772869053030711 
4.670000000002455, -1.076203308222269 
4.6800000000024315, -1.0742964852051826 
4.690000000002408, -1.071214889409513 
4.700000000002385, -1.0665736232041778 
4.710000000002362, -1.0600842169109002 
4.720000000002338, -1.0517005078751083 
4.730000000002315, -1.0416694596810352 
4.740000000002292, -1.0304535399902035 
4.750000000002268, -1.0186183471550676 
4.760000000002245, -1.00678385452781 
4.770000000002222, -0.9956353174478463 
4.7800000000021985, -0.985906278657987 
4.790000000002175, -0.9782449075333701 
4.800000000002152, -0.9729787389980836 
4.810000000002129, -0.9699487353204216 
4.820000000002105, -0.9685907425689081 
4.830000000002082, -0.9682144697705076 
4.840000000002059, -0.9682507314664941 
4.850000000002035, -0.9683307841020192 
4.860000000002012, -0.9682381710858761 
4.870000000001989, -0.967824087709166 
4.880000000001965, -0.9669362564555006 
4.890000000001942, -0.9653749407615555 
4.900000000001919, -0.9628857759478564 
4.9100000000018955, -0.959208203833079 
4.920000000001872, -0.9541834471355227 
4.930000000001849, -0.9478666529089553 
