t, s[1].omega / s[0].omega 
0, -0.619997720654158 
0.009999999999999995, -0.6197714412975677 
0.019999999999999934, -0.6195428305779374 
0.029999999999999874, -0.6192978482132144 
0.04000000000000012, -0.619020472886911 
0.050000000000000405, -0.6186991673388571 
0.06000000000000069, -0.6183304907844664 
0.07000000000000098, -0.6179196374301479 
0.08000000000000126, -0.6174797560162536 
0.09000000000000155, -0.6170322178306955 
0.10000000000000184, -0.6166092309787076 
0.11000000000000212, -0.6162594217811094 
0.12000000000000241, -0.6160565800078098 
0.130000000000002, -0.6161114252330765 
0.1400000000000009, -0.6165854909893926 
0.1499999999999998, -0.6177043723039974 
0.1599999999999987, -0.6197636272212794 
0.1699999999999976, -0.6231133267902946 
0.1799999999999965, -0.6280971885734651 
0.1899999999999954, -0.6349188467366554 
0.1999999999999943, -0.6434398161588979 
0.2099999999999932, -0.6530127534444197 
0.2199999999999921, -0.6625564557706376 
0.229999999999991, -0.67096484118217 
0.2399999999999899, -0.677577897361944 
0.2499999999999888, -0.6823234340948325 
0.2599999999999877, -0.6855095881512615 
0.2699999999999866, -0.6875483619062074 
0.2799999999999855, -0.68879576845772 
0.2899999999999844, -0.6895076168956612 
0.2999999999999833, -0.6898495623038203 
0.3099999999999822, -0.6899193062392361 
0.3199999999999811, -0.6897645121210203 
0.32999999999998, -0.6893927357631199 
0.3399999999999789, -0.6887736857136675 
0.3499999999999778, -0.6878351342651067 
0.35999999999997667, -0.6864553414159185 
0.36999999999997557, -0.6844595526772523 
0.37999999999997447, -0.6816370825341791 
0.38999999999997337, -0.677802102759922 
0.39999999999997227, -0.6729036493682244 
0.40999999999997117, -0.6671318863215274 
0.41999999999997006, -0.6609200944896723 
0.42999999999996896, -0.6548048315038271 
0.43999999999996786, -0.649240979486357 
0.44999999999996676, -0.6444970618645506 
0.45999999999996566, -0.6406581465982596 
0.46999999999996456, -0.6376838947451142 
0.47999999999996346, -0.6354690845935339 
0.48999999999996235, -0.6338854972296982 
0.49999999999996125, -0.6328053926555813 
0.5099999999999602, -0.6321129577621074 
0.519999999999959, -0.6317091183449335 
0.529999999999958, -0.6315128161493402 
0.5399999999999568, -0.631460295782188 
0.5499999999999557, -0.6315032684396998 
0.5599999999999546, -0.6316066282930317 
0.5699999999999535, -0.6317463150166016 
0.5799999999999524, -0.6319076966272874 
0.5899999999999513, -0.6320843674889346 
0.5999999999999502, -0.6322765910866803 
0.6099999999999491, -0.6324882044148685 
0.619999999999948, -0.6327213425624052 
0.6299999999999469, -0.6329700901121004 
0.6399999999999458, -0.6332161459149532 
0.6499999999999447, -0.633429896280345 
0.6599999999999436, -0.633577673837202 
0.6699999999999425, -0.6336317148061822 
0.6799999999999414, -0.6335772099375301 
0.6899999999999403, -0.6334133035674021 
0.6999999999999392, -0.6331494675766886 
0.7099999999999381, -0.6328010626212792 
0.719999999999937, -0.6323871833568196 
0.7299999999999359, -0.6319322182709031 
0.7399999999999348, -0.6314717067531073 
0.7499999999999337, -0.6310631848081032 
0.7599999999999326, -0.6308030486314349 
0.7699999999999315, -0.6308500114641791 
0.7799999999999304, -0.6314529423755627 
0.7899999999999293, -0.6329731770019925 
0.7999999999999282, -0.6358757276328949 
0.8099999999999271, -0.6406423713228341 
0.819999999999926, -0.647557292522082 
0.8299999999999249, -0.656396954069275 
0.8399999999999238, -0.6662501391456533 
0.8499999999999227, -0.6757790251077436 
0.8599999999999216, -0.6838533284033026 
0.8699999999999205, -0.6900012652510177 
0.8799999999999194, -0.6943442962831501 
0.8899999999999183, -0.6972692758048105 
0.8999999999999172, -0.699176072293708 
0.9099999999999161, -0.700378908895104 
0.919999999999915, -0.7010967085932422 
0.9299999999999139, -0.7014717525200994 
0.9399999999999128, -0.701589888779574 
0.9499999999999117, -0.7014948475116394 
0.9599999999999106, -0.701195945739072 
0.9699999999999095, -0.7006701123742246 
0.9799999999999084, -0.6998597941347555 
0.9899999999999073, -0.6986699529008094 
0.9999999999999062, -0.6969712650324986 
1.0099999999999052, -0.6946218379096477 
1.019999999999904, -0.691518964065089 
1.029999999999903, -0.6876724764334147 
1.039999999999902, -0.6832550250881566 
1.0499999999999008, -0.678576388586595 
1.0599999999998997, -0.6739852772238446 
1.0699999999998986, -0.6697663319893176 
1.0799999999998975, -0.6660913473161374 
1.0899999999998964, -0.6630266358763459 
1.0999999999998953, -0.6605654973500077 
1.1099999999998942, -0.6586599935022431 
1.119999999999893, -0.65724270784755 
1.129999999999892, -0.6562393327249798 
1.1399999999998909, -0.6555756749672184 
1.1499999999998898, -0.6551819030167795 
1.1599999999998887, -0.6549954020913247 
1.1699999999998876, -0.654962611751691 
1.1799999999998865, -0.6550398827478522 
1.1899999999998854, -0.6551934825797198 
1.1999999999998843, -0.6553990640490077 
1.2099999999998832, -0.6556409020346127 
1.219999999999882, -0.6559108604601738 
1.229999999999881, -0.6562064927942303 
1.2399999999998799, -0.6565273997198376 
1.2499999999998788, -0.6568696503054656 
1.2599999999998777, -0.6572198572326774 
1.2699999999998766, -0.6575522561148185 
1.2799999999998755, -0.6578318615518021 
1.2899999999998744, -0.6580234173193246 
1.2999999999998733, -0.658101491177592 
1.3099999999998722, -0.6580560008978815 
1.319999999999871, -0.65789118358662 
1.32999999999987, -0.6576207034264187 
1.3399999999998689, -0.6572631076522746 
1.3499999999998678, -0.6568404297921199 
1.3599999999998666, -0.6563810123204925 
1.3699999999998655, -0.6559270013408198 
1.3799999999998644, -0.6555471857158435 
1.3899999999998633, -0.6553559811867552 
1.3999999999998622, -0.6555382627095465 
1.4099999999998611, -0.6563758456166158 
1.41999999999986, -0.6582624677551534 
1.429999999999859, -0.6616785267940217 
1.4399999999998578, -0.6670801684930081 
1.4499999999998567, -0.674668075622985 
1.4599999999998556, -0.6840958842898589 
1.4699999999998545, -0.694354267094186 
1.4799999999998534, -0.704089329067666 
1.4899999999998523, -0.7122216569143238 
1.4999999999998512, -0.7183390593320138 
1.5099999999998501, -0.7226029017664888 
1.519999999999849, -0.7254248899571782 
1.529999999999848, -0.727221648424452 
1.5399999999998468, -0.7283174685086968 
1.5499999999998457, -0.7289351276710121 
1.5599999999998446, -0.7292158439559426 
1.5699999999998435, -0.7292407616010073 
1.5799999999998424, -0.7290456828335381 
1.5899999999998413, -0.7286279609779343 
1.5999999999998402, -0.7279462577447112 
1.6099999999998391, -0.726914500240487 
1.619999999999838, -0.7253934848179207 
1.629999999999837, -0.7231894711693097 
1.6399999999998358, -0.7200789083787081 
1.6499999999998347, -0.7158824155256751 
1.6599999999998336, -0.7105847869844302 
1.6699999999998325, -0.7044332454232017 
1.6799999999998314, -0.6979132599302592 
1.6899999999998303, -0.6915878737564999 
1.6999999999998292, -0.6859139641669184 
1.709999999999828, -0.6811501389338164 
1.719999999999827, -0.6773677263634131 
1.729999999999826, -0.674510082038472 
1.7399999999998248, -0.6724525569726392 
1.7499999999998237, -0.6710453186307148 
1.7599999999998226, -0.6701393570730655 
1.7699999999998215, -0.6696007373985522 
1.7799999999998204, -0.6693172393279141 
1.7899999999998193, -0.6691999463378069 
1.7999999999998182, -0.6691815374609142 
1.809999999999817, -0.669212795266045 
1.819999999999816, -0.6692587134027297 
1.8299999999998149, -0.6692953165544911 
1.8399999999998138, -0.6693078018958322 
1.8499999999998127, -0.6692898199377718 
1.8599999999998116, -0.6692427640339954 
1.8699999999998105, -0.6691734502745594 
1.8799999999998094, -0.6690894096289475 
1.8899999999998083, -0.668993141006588 
1.8999999999998072, -0.6688784311564804 
1.909999999999806, -0.6687313137157278 
1.919999999999805, -0.6685353985904652 
1.9299999999998039, -0.6682784304239991 
1.9399999999998028, -0.6679565932280636 
1.9499999999998017, -0.6675754340651665 
1.9599999999998006, -0.6671489300072644 
1.9699999999997995, -0.6666990978675107 
1.9799999999997984, -0.6662578165174009 
1.9899999999997973, -0.6658714422754396 
1.9999999999997962, -0.6656080105854463 
2.0099999999998173, -0.6655662077357987 
2.0199999999998384, -0.665884512466917 
2.0299999999998595, -0.6667477031225817 
2.0399999999998806, -0.6683861043430936 
2.0499999999999017, -0.6710602164617914 
2.059999999999923, -0.6750198496081826 
2.069999999999944, -0.6804255357411423 
2.079999999999965, -0.6872311298069069 
2.089999999999986, -0.6950663819474285 
2.100000000000007, -0.7032193821649154 
2.1100000000000283, -0.7108191082357672 
2.1200000000000494, -0.7171636621486945 
2.1300000000000705, -0.7219579178675624 
2.1400000000000916, -0.7252954234958906 
2.1500000000001127, -0.7274715189922303 
2.160000000000134, -0.7288070580890835 
2.170000000000155, -0.7295609981014012 
2.180000000000176, -0.729912240903232 
2.190000000000197, -0.729970561253351 
2.2000000000002182, -0.729791929689839 
2.2100000000002393, -0.7293886406613869 
2.2200000000002604, -0.7287316754336577 
2.2300000000002815, -0.7277446989503236 
2.2400000000003026, -0.7262896570678106 
2.2500000000003237, -0.7241464122786531 
2.260000000000345, -0.7209978452041556 
2.270000000000366, -0.7164521299084105 
2.280000000000387, -0.7101565736947865 
2.290000000000408, -0.7020316096946679 
2.3000000000004293, -0.6925146571798347 
2.3100000000004504, -0.6825574398743448 
2.3200000000004715, -0.6732674946392584 
2.3300000000004926, -0.6654606993365697 
2.3400000000005137, -0.6594614287897296 
2.3500000000005348, -0.655185795284183 
2.360000000000556, -0.6523332181803216 
2.370000000000577, -0.6505460944750128 
2.380000000000598, -0.6494991966334845 
2.390000000000619, -0.6489338547331025 
2.4000000000006403, -0.6486609238595207 
2.4100000000006614, -0.6485499421290222 
2.4200000000006825, -0.6485143653168457 
2.4300000000007036, -0.6484977161184863 
2.4400000000007247, -0.6484626488780625 
2.450000000000746, -0.6483835485745277 
2.460000000000767, -0.6482427056031553 
2.470000000000788, -0.6480297185914508 
2.480000000000809, -0.6477430296430223 
2.49000000000083, -0.6473913616560311 
2.5000000000008513, -0.6469923235944652 
2.5100000000008724, -0.6465669782893761 
2.5200000000008935, -0.6461323674207269 
2.5300000000009146, -0.6456961052554698 
2.5400000000009357, -0.645256016165421 
2.550000000000957, -0.6448044574799202 
2.560000000000978, -0.6443343525950164 
2.570000000000999, -0.6438438941034733 
2.58000000000102, -0.6433388305366471 
2.5900000000010412, -0.6428332539080939 
2.6000000000010624, -0.6423504847776556 
2.6100000000010835, -0.64192515756279 
2.6200000000011046, -0.6416067780465879 
2.6300000000011257, -0.6414643686612663 
2.6400000000011468, -0.6415913759564104 
2.650000000001168, -0.642109644466937 
2.660000000001189, -0.6431707607161427 
2.67000000000121, -0.6449520920513954 
2.680000000001231, -0.6476428847957417 
2.6900000000012523, -0.6514128054258675 
2.7000000000012734, -0.6563537233591078 
2.7100000000012945, -0.6623934415634214 
2.7200000000013156, -0.6692098693926914 
2.7300000000013367, -0.6762204272196202 
2.740000000001358, -0.6827233114527173 
2.750000000001379, -0.688152293997826 
2.7600000000014, -0.6922657803898128 
2.770000000001421, -0.6951376453992355 
2.780000000001442, -0.6970105351632341 
2.7900000000014633, -0.6981520884992101 
2.8000000000014844, -0.6987805338981764 
2.8100000000015055, -0.6990471556133588 
2.8200000000015266, -0.6990437231885454 
2.8300000000015477, -0.6988141337858108 
2.840000000001569, -0.6983616836627674 
2.85000000000159, -0.6976493127349298 
2.860000000001611, -0.6965919890528329 
2.870000000001632, -0.6950413473406155 
2.8800000000016532, -0.6927662601357805 
2.8900000000016743, -0.6894441350072555 
2.9000000000016954, -0.6846995323094056 
2.9100000000017165, -0.6782423088695568 
2.9200000000017377, -0.6701068728786714 
2.9300000000017588, -0.6608402292075681 
2.94000000000178, -0.6514025180291929 
2.950000000001801, -0.6427780505617788 
2.960000000001822, -0.635608912024833 
2.970000000001843, -0.6300959768584737 
2.9800000000018643, -0.6261174137609867 
2.9900000000018854, -0.6233977999536588 
3.0000000000019065, -0.6216310291559981 
3.0100000000019276, -0.6205434705078361 
3.0200000000019487, -0.6199161496974136 
3.03000000000197, -0.6195854834169865 
3.040000000001991, -0.6194349776073278 
3.050000000002012, -0.6193844258917592 
3.060000000002033, -0.6193797269559023 
3.070000000002054, -0.6193846926140776 
3.0800000000020753, -0.6193753745487289 
3.0900000000020964, -0.6193369796402652 
3.1000000000021175, -0.6192629658299661 
3.1100000000021386, -0.6191551660629133 
3.1200000000021597, -0.6190230273656308 
3.130000000002181, -0.6188801812275763 
3.140000000002202, -0.6187383048920952 
3.150000000002223, -0.6186007563528529 
3.160000000002244, -0.618459599819725 
3.1700000000022652, -0.6182980592602967 
3.1800000000022863, -0.6180971208853051 
3.1900000000023074, -0.6178425208816708 
3.2000000000023285, -0.6175287554735944 
3.2100000000023496, -0.6171594982956725 
3.2200000000023707, -0.6167463084710281 
3.230000000002392, -0.6163080894440354 
3.240000000002413, -0.6158729752176783 
3.250000000002434, -0.6154834603772122 
3.260000000002455, -0.6152051870779138 
3.2700000000024763, -0.6151396008166163 
3.2800000000024974, -0.6154400972863043 
3.2900000000025185, -0.6163295011461324 
3.3000000000025396, -0.6181125106335246 
3.3100000000025607, -0.6211684399747793 
3.3200000000025818, -0.6258969937339691 
3.330000000002603, -0.6325818290998619 
3.340000000002624, -0.6411650833788399 
3.350000000002645, -0.6510343932431734 
3.360000000002666, -0.6610586880799858 
3.3700000000026873, -0.6700145620094387 
3.3800000000027084, -0.6771282116836741 
3.3900000000027295, -0.682270737464332 
3.4000000000027506, -0.685747509835563 
3.4100000000027717, -0.6879922640141705 
3.420000000002793, -0.6893858329059872 
3.430000000002814, -0.6902042162896547 
3.440000000002835, -0.6906280228331927 
3.450000000002856, -0.6907661639554481 
3.460000000002877, -0.6906755238143426 
3.4700000000028983, -0.690372573346558 
3.4800000000029194, -0.6898373618568814 
3.4900000000029405, -0.689011338855991 
3.5000000000029616, -0.687791656085244 
3.5100000000029827, -0.6860283239373592 
3.520000000003004, -0.6835378280031738 
3.530000000003025, -0.6801525396670863 
3.540000000003046, -0.6758123147940611 
3.550000000003067, -0.6706582824111302 
3.5600000000030882, -0.6650461453043398 
3.5700000000031094, -0.6594390623249532 
3.5800000000031305, -0.6542504922271049 
3.5900000000031516, -0.6497441371332988 
3.6000000000031727, -0.6460247709588628 
3.6100000000031938, -0.6430819110028313 
3.620000000003215, -0.6408407375484514 
3.630000000003236, -0.6391992494956847 
3.640000000003257, -0.6380499860318969 
3.650000000003278, -0.6372912647017055 
3.6600000000032993, -0.6368326201962062 
3.6700000000033204, -0.6365971881380538 
3.6800000000033415, -0.6365223008921792 
3.6900000000033626, -0.6365588981430833 
3.7000000000033837, -0.6366702208861993 
3.710000000003405, -0.6368302820779107 
3.720000000003426, -0.6370225113853336 
3.730000000003447, -0.6372386022045182 
3.740000000003468, -0.6374769825197689 
3.750000000003489, -0.6377398609045771 
3.7600000000035103, -0.6380281437623392 
3.7700000000035314, -0.6383350742739987 
3.7800000000035525, -0.6386414876975005 
3.7900000000035736, -0.638916269146783 
3.8000000000035947, -0.6391233406543289 
3.810000000003616, -0.6392320786932693 
3.820000000003637, -0.6392252759280598 
3.830000000003658, -0.6391007763663707 
3.840000000003679, -0.6388677815106094 
3.8500000000037002, -0.6385417926947706 
3.8600000000037213, -0.6381416567315409 
3.8700000000037424, -0.6376903524445381 
3.8800000000037635, -0.637220097065152 
3.8900000000037847, -0.636782393156346 
3.9000000000038058, -0.6364640667155659 
3.910000000003827, -0.6364101469123414 
3.920000000003848, -0.6368521398297584 
3.930000000003869, -0.6381333877920763 
3.94000000000389, -0.6407085861938866 
3.9500000000039113, -0.6450728446040197 
3.9600000000039324, -0.651567241937261 
3.9700000000039535, -0.6600722919710202 
3.9800000000039746, -0.6697846248752447 
3.9900000000039957, -0.6793996547093561 
4.000000000004016, -0.687716532192054 
4.010000000003993, -0.6941518216994506 
4.02000000000397, -0.698749190435765 
4.030000000003946, -0.7018686881398126 
4.040000000003923, -0.7039137303561637 
4.0500000000039, -0.7052118589642392 
4.0600000000038765, -0.7059952870945583 
4.070000000003853, -0.706416820441435 
4.08000000000383, -0.7065701293869673 
4.090000000003807, -0.7065048811396523 
4.100000000003783, -0.706235302128688 
4.11000000000376, -0.705742863819764 
4.120000000003737, -0.7049744377415943 
4.130000000003713, -0.7038386718392404 
4.14000000000369, -0.7022069374679577 
4.150000000003667, -0.6999307528996775 
4.1600000000036434, -0.6968891288077649 
4.17000000000362, -0.693063233075261 
4.180000000003597, -0.6885987685722341 
4.1900000000035735, -0.6837970850976675 
4.20000000000355, -0.6790231041742502 
4.210000000003527, -0.674592318106291 
4.220000000003504, -0.6707067848358631 
4.23000000000348, -0.6674534864347367 
4.240000000003457, -0.6648356266586535 
4.250000000003434, -0.6628071353046703 
4.26000000000341, -0.6612976689234912 
4.270000000003387, -0.6602276405837155 
4.280000000003364, -0.6595167854884354 
4.2900000000033405, -0.6590893411194154 
4.300000000003317, -0.6588774248689573 
4.310000000003294, -0.6588231015612562 
4.320000000003271, -0.6588792462208848 
4.330000000003247, -0.6590093999164636 
4.340000000003224, -0.6591870244049729 
4.350000000003201, -0.6593945798600982 
4.360000000003177, -0.659622520912564 
4.370000000003154, -0.659867707366567 
4.380000000003131, -0.660130302208486 
4.390000000003107, -0.6604086874429499 
4.400000000003084, -0.6606935563362717 
4.410000000003061, -0.6609642042748883 
4.4200000000030375, -0.6611902106732825 
4.430000000003014, -0.6613389475349946 
4.440000000002991, -0.6613851666352807 
4.450000000002968, -0.661317215554091 
4.460000000002944, -0.6611372669358138 
4.470000000002921, -0.6608574347507257 
4.480000000002898, -0.6604956658037879 
4.490000000002874, -0.6600743497387378 
4.500000000002851, -0.659622934550526 
4.510000000002828, -0.659185038605701 
4.520000000002804, -0.6588305533288085 
4.530000000002781, -0.6586731989688266 
4.540000000002758, -0.6588929118835619 
4.5500000000027345, -0.6597590405604605 
4.560000000002711, -0.6616429464402576 
4.570000000002688, -0.6649960290163425 
4.580000000002665, -0.6702552001346247 
4.590000000002641, -0.677643039576086 
4.600000000002618, -0.6868998285036937 
4.610000000002595, -0.6971348212809538 
4.620000000002571, -0.7070501709019577 
4.630000000002548, -0.7155043978368923 
4.640000000002525, -0.7219649812791125 
4.6500000000025015, -0.7265077254198585 
4.660000000002478, -0.7295210079746036 
4.670000000002455, -0.7314352822678034 
4.6800000000024315, -0.732597920959449 
4.690000000002408, -0.7332510657763074 
4.700000000002385, -0.7335490314634022 
4.710000000002362, -0.7335810215617381 
4.720000000002338, -0.7333875935584625 
4.730000000002315, -0.7329687712908237 
4.740000000002292, -0.7322842490519127 
4.750000000002268, -0.7312467096960571 
4.760000000002245, -0.7297109478288939 
4.770000000002222, -0.7274670803959361 
4.7800000000021985, -0.7242573801873158 
4.790000000002175, -0.719846215611982 
4.800000000002152, -0.7141544908635196 
4.810000000002129, -0.7073985652364924 
4.820000000002105, -0.7001061640077235 
4.830000000002082, -0.6929493794287407 
4.840000000002059, -0.6865071643987637 
4.850000000002035, -0.6811211923693137 
4.860000000002012, -0.6768907886007531 
4.870000000001989, -0.6737451597463676 
4.880000000001965, -0.6715243581363708 
4.890000000001942, -0.6700387431545947 
4.900000000001919, -0.6691044927806541 
4.9100000000018955, -0.6685616141838445 
4.920000000001872, -0.6682807227103205 
