t, s[1].omega / s[0].omega 
0, -0.6400111635442929 
0.009999999999999995, -0.6411302704589039 
0.019999999999999934, -0.6421974647618338 
0.029999999999999874, -0.6431249122957953 
0.04000000000000012, -0.6438429660269641 
0.050000000000000405, -0.6443179851855552 
0.06000000000000069, -0.6445523477988432 
0.07000000000000098, -0.6445708604363919 
0.08000000000000126, -0.6444048690552265 
0.09000000000000155, -0.6440817612975935 
0.10000000000000184, -0.6436214228009682 
0.11000000000000212, -0.6430385193167878 
0.12000000000000241, -0.6423501619313646 
0.130000000000002, -0.6415906213553457 
0.1400000000000009, -0.6408367855912734 
0.1499999999999998, -0.640248017453276 
0.1599999999999987, -0.6401168620991358 
0.1699999999999976, -0.6409021691634237 
0.1799999999999965, -0.6431656408888671 
0.1899999999999954, -0.6472974761613643 
0.1999999999999943, -0.6530608852622225 
0.2099999999999932, -0.6594097956013489 
0.2199999999999921, -0.6650962438673887 
0.229999999999991, -0.6695394999229021 
0.2399999999999899, -0.6728915092778759 
0.2499999999999888, -0.6754922616816683 
0.2599999999999877, -0.6775472906125377 
0.2699999999999866, -0.6791432744585296 
0.2799999999999855, -0.6803334166892724 
0.2899999999999844, -0.6811733295396091 
0.2999999999999833, -0.6817202032912257 
0.3099999999999822, -0.6820231159024182 
0.3199999999999811, -0.6821156597257659 
0.32999999999998, -0.6820117617588538 
0.3399999999999789, -0.6817029925888016 
0.3499999999999778, -0.6811564871400135 
0.35999999999997667, -0.6803148559444526 
0.36999999999997557, -0.6791025850891318 
0.37999999999997447, -0.6774456072638466 
0.38999999999997337, -0.6753067031826632 
0.39999999999997227, -0.6727243507854481 
0.40999999999997117, -0.6698264967994108 
0.41999999999997006, -0.6667996418520221 
0.42999999999996896, -0.6638302780297783 
0.43999999999996786, -0.6610580545058824 
0.44999999999996676, -0.6585623320318369 
0.45999999999996566, -0.6563745020885109 
0.46999999999996456, -0.6544981199765314 
0.47999999999996346, -0.6529250707978148 
0.48999999999996235, -0.6516445272548436 
0.49999999999996125, -0.6506460576267449 
0.5099999999999602, -0.6499194096129488 
0.519999999999959, -0.6494531408974873 
0.529999999999958, -0.6492335428640648 
0.5399999999999568, -0.6492446022850911 
0.5499999999999557, -0.6494691478614151 
0.5599999999999546, -0.6498908720354184 
0.5699999999999535, -0.6504966256886136 
0.5799999999999524, -0.6512781901802898 
0.5899999999999513, -0.652232492980298 
0.5999999999999502, -0.6533589070357235 
0.6099999999999491, -0.6546522245729337 
0.619999999999948, -0.6560910470329273 
0.6299999999999469, -0.6576246808272594 
0.6399999999999458, -0.6591665679562577 
0.6499999999999447, -0.6606042195980025 
0.6599999999999436, -0.661827622725625 
0.6699999999999425, -0.6627620009554249 
0.6799999999999414, -0.6633838489358531 
0.6899999999999403, -0.6637126457952086 
0.6999999999999392, -0.6637892327526272 
0.7099999999999381, -0.663655910175338 
0.719999999999937, -0.6633452354374998 
0.7299999999999359, -0.6628769483208706 
0.7399999999999348, -0.6622604571358657 
0.7499999999999337, -0.6615019080895218 
0.7599999999999326, -0.6606174540861153 
0.7699999999999315, -0.659656533253943 
0.7799999999999304, -0.6587387758867564 
0.7899999999999293, -0.658100054889304 
0.7999999999999282, -0.6581166223118687 
0.8099999999999271, -0.6592282414793966 
0.819999999999926, -0.6616700866827168 
0.8299999999999249, -0.665114488967862 
0.8399999999999238, -0.668692260844362 
0.8499999999999227, -0.6716536000883926 
0.8599999999999216, -0.673911516805038 
0.8699999999999205, -0.6757776480550309 
0.8799999999999194, -0.6774668125378361 
0.8899999999999183, -0.6789879513401159 
0.8999999999999172, -0.6802746643929918 
0.9099999999999161, -0.6812847110192247 
0.919999999999915, -0.6820185646659336 
0.9299999999999139, -0.6825020078660284 
0.9399999999999128, -0.6827660168471203 
0.9499999999999117, -0.682833493858454 
0.9599999999999106, -0.6827118604649839 
0.9699999999999095, -0.6823887234253355 
0.9799999999999084, -0.6818292754277737 
0.9899999999999073, -0.6809767227873291 
0.9999999999999062, -0.6797601342201804 
1.0099999999999052, -0.6781154922200774 
1.019999999999904, -0.6760202126571763 
1.029999999999903, -0.6735263054230658 
1.039999999999902, -0.6707655174206801 
1.0499999999999008, -0.667914041812525 
1.0599999999998997, -0.6651384274683954 
1.0699999999998986, -0.6625578274148337 
1.0799999999998975, -0.6602370503395063 
1.0899999999998964, -0.6582003435850979 
1.0999999999998953, -0.6564498738603259 
1.1099999999998942, -0.6549795605593036 
1.119999999999893, -0.6537822274681984 
1.129999999999892, -0.6528516344652588 
1.1399999999998909, -0.6521817198489654 
1.1499999999998898, -0.6517649891820521 
1.1599999999998887, -0.6515913416599849 
1.1699999999998876, -0.651648004428022 
1.1799999999998865, -0.6519206926741518 
1.1899999999998854, -0.6523956646043968 
1.1999999999998843, -0.6530620247852006 
1.2099999999998832, -0.6539133919306962 
1.219999999999882, -0.654947764346204 
1.229999999999881, -0.6561640982807305 
1.2399999999998799, -0.6575542207596536 
1.2499999999998788, -0.6590902477353267 
1.2599999999998777, -0.6607115976923599 
1.2699999999998766, -0.662320799379876 
1.2799999999998755, -0.6637979282294925 
1.2899999999998744, -0.6650328750296728 
1.2999999999998733, -0.6659578285807669 
1.3099999999998722, -0.6665589625157662 
1.319999999999871, -0.6668635656980261 
1.32999999999987, -0.6669165461516532 
1.3399999999998689, -0.6667610695030964 
1.3499999999998678, -0.6664286640039292 
1.3599999999998666, -0.665937203137253 
1.3699999999998655, -0.6652940655379715 
1.3799999999998644, -0.6645037765041779 
1.3899999999998633, -0.6635821053556117 
1.3999999999998622, -0.662580632731604 
1.4099999999998611, -0.6616249209763485 
1.41999999999986, -0.6609593160947819 
1.429999999999859, -0.660961319071776 
1.4399999999998578, -0.6620407592898508 
1.4499999999998567, -0.6643497748802509 
1.4599999999998556, -0.6674652606804524 
1.4699999999998545, -0.6705337540718413 
1.4799999999998534, -0.6729703223330208 
1.4899999999998523, -0.6748399985854708 
1.4999999999998512, -0.6764705243312037 
1.5099999999998501, -0.6780168564303978 
1.519999999999849, -0.6794378498658835 
1.529999999999848, -0.6806455006719784 
1.5399999999998468, -0.681591235012599 
1.5499999999998457, -0.6822732459473575 
1.5599999999998446, -0.6827150155711822 
1.5699999999998435, -0.682944607834298 
1.5799999999998424, -0.6829816374918625 
1.5899999999998413, -0.6828300429184433 
1.5999999999998402, -0.6824738259439324 
1.6099999999998391, -0.68187469027868 
1.619999999999838, -0.6809732974127438 
1.629999999999837, -0.6796988937354971 
1.6399999999998358, -0.6779926877005431 
1.6499999999998347, -0.6758432191954118 
1.6599999999998336, -0.6733162021842124 
1.6699999999998325, -0.6705527433697285 
1.6799999999998314, -0.6677290016749176 
1.6899999999998303, -0.6650033738067879 
1.6999999999998292, -0.662484239594281 
1.709999999999828, -0.6602276959621635 
1.719999999999827, -0.658252969530051 
1.729999999999826, -0.6565603182189373 
1.7399999999998248, -0.6551435855936905 
1.7499999999998237, -0.6539962532686361 
1.7599999999998226, -0.6531128014328788 
1.7699999999998215, -0.6524876604427436 
1.7799999999998204, -0.652113569969506 
1.7899999999998193, -0.6519805256521314 
1.7999999999998182, -0.6520758914663682 
1.809999999999817, -0.6523857203761753 
1.819999999999816, -0.6528968952821168 
1.8299999999998149, -0.6535993994560393 
1.8399999999998138, -0.6544877824462725 
1.8499999999998127, -0.6555605863398338 
1.8599999999998116, -0.6568162031804363 
1.8699999999998105, -0.658243906100622 
1.8799999999998094, -0.6598107181124031 
1.8899999999998083, -0.6614491136842675 
1.8999999999998072, -0.6630554593771543 
1.909999999999806, -0.6645081611194883 
1.919999999999805, -0.6657018213454703 
1.9299999999998039, -0.6665775597356999 
1.9399999999998028, -0.6671301329903281 
1.9499999999998017, -0.6673918599706054 
1.9599999999998006, -0.6674088351679278 
1.9699999999997995, -0.6672229701048569 
1.9799999999997984, -0.6668636090442133 
1.9899999999997973, -0.6663465384681869 
1.9999999999997962, -0.6656778678734759 
2.0099999999998173, -0.6648625172717233 
2.0199999999998384, -0.6639197033932684 
2.0299999999998595, -0.6629096059828703 
2.0399999999998806, -0.6619735753656479 
2.0499999999999017, -0.6613776075055225 
2.059999999999923, -0.6615146758823827 
2.069999999999944, -0.6627751681367381 
2.079999999999965, -0.6652314867947511 
2.089999999999986, -0.668361935345013 
2.100000000000007, -0.6713101591487016 
2.1100000000000283, -0.673603083642079 
2.1200000000000494, -0.6753922186348543 
2.1300000000000705, -0.6769941842344847 
2.1400000000000916, -0.678520268511961 
2.1500000000001127, -0.6799087769288694 
2.160000000000134, -0.681073493077071 
2.170000000000155, -0.6819737641621578 
2.180000000000176, -0.6826133492029205 
2.190000000000197, -0.6830175884772864 
2.2000000000002182, -0.6832137755496686 
2.2100000000002393, -0.6832192582705376 
2.2200000000002604, -0.6830348492413147 
2.2300000000002815, -0.6826408759066617 
2.2400000000003026, -0.6819952070630169 
2.2500000000003237, -0.6810354991815514 
2.260000000000345, -0.6796908180060088 
2.270000000000366, -0.677907524811528 
2.280000000000387, -0.67568546052671 
2.290000000000408, -0.6731042583906098 
2.3000000000004293, -0.6703146762554718 
2.3100000000004504, -0.6674936151171302 
2.3200000000004715, -0.6647927628482323 
2.3300000000004926, -0.6623114317375716 
2.3400000000005137, -0.6600983950058498 
2.3500000000005348, -0.6581686326237743 
2.360000000000556, -0.6565206730083111 
2.370000000000577, -0.6551480242090016 
2.380000000000598, -0.6540442843974821 
2.390000000000619, -0.6532039477781848 
2.4000000000006403, -0.6526211493403566 
2.4100000000006614, -0.6522880629680684 
2.4200000000006825, -0.6521940288973893 
2.4300000000007036, -0.6523258917557597 
2.4400000000007247, -0.6526695075580167 
2.450000000000746, -0.6532119695535683 
2.460000000000767, -0.653943819891057 
2.470000000000788, -0.6548602713893992 
2.480000000000809, -0.6559601522008194 
2.49000000000083, -0.657241032845304 
2.5000000000008513, -0.6586894588231825 
2.5100000000008724, -0.6602675117515633 
2.5200000000008935, -0.6619015728183193 
2.5300000000009146, -0.6634836270826576 
2.5400000000009357, -0.6648927483100504 
2.550000000000957, -0.6660301151273841 
2.560000000000978, -0.6668462842696339 
2.570000000000999, -0.6673438116082366 
2.58000000000102, -0.6675587529564858 
2.5900000000010412, -0.6675372810887257 
2.6000000000010624, -0.6673193907285371 
2.6100000000010835, -0.6669320140951158 
2.6200000000011046, -0.6663890178243422 
2.6300000000011257, -0.6656958712581499 
2.6400000000011468, -0.6648592108588677 
2.650000000001168, -0.6639041363906044 
2.660000000001189, -0.6629035423047327 
2.67000000000121, -0.6620207974404357 
2.680000000001231, -0.6615514561277778 
2.6900000000012523, -0.6619112400653926 
2.7000000000012734, -0.6634742968996638 
2.7100000000012945, -0.666233071274404 
2.7200000000013156, -0.6695694901920786 
2.7300000000013367, -0.6726206251420658 
2.740000000001358, -0.6749938379624295 
2.750000000001379, -0.6768834938026549 
2.7600000000014, -0.6785778988852001 
2.770000000001421, -0.6801555892925727 
2.780000000001442, -0.6815521810761116 
2.7900000000014633, -0.6826964862083428 
2.8000000000014844, -0.6835635292049782 
2.8100000000015055, -0.6841668838531786 
2.8200000000015266, -0.6845360513456271 
2.8300000000015477, -0.6846987564020302 
2.840000000001569, -0.6846705928402439 
2.85000000000159, -0.684449261899242 
2.860000000001611, -0.6840110131494511 
2.870000000001632, -0.6833091104019352 
2.8800000000016532, -0.6822771774667584 
2.8900000000016743, -0.68084305452657 
2.9000000000016954, -0.6789575341825199 
2.9100000000017165, -0.6766316318972313 
2.9200000000017377, -0.6739594822175611 
2.9300000000017588, -0.6711028812262155 
2.94000000000178, -0.6682417090042682 
2.950000000001801, -0.6655236921803878 
2.960000000001822, -0.6630416446407704 
2.970000000001843, -0.660838843951093 
2.9800000000018643, -0.6589269457157029 
2.9900000000018854, -0.6573028860983687 
3.0000000000019065, -0.6559593879566077 
3.0100000000019276, -0.654889293267258 
3.0200000000019487, -0.6540859306187963 
3.03000000000197, -0.6535417497018001 
3.040000000001991, -0.6532468601829245 
3.050000000002012, -0.6531884492229447 
3.060000000002033, -0.6533514439178456 
3.070000000002054, -0.6537202697493363 
3.0800000000020753, -0.6542811807645184 
3.0900000000020964, -0.6550243935997828 
3.1000000000021175, -0.6559450346584194 
3.1100000000021386, -0.6570416061082083 
3.1200000000021597, -0.658310485642723 
3.130000000002181, -0.6597356449878814 
3.140000000002202, -0.6612753962818921 
3.150000000002223, -0.6628527216617773 
3.160000000002244, -0.6643594051631767 
3.1700000000022652, -0.6656797363200093 
3.1800000000022863, -0.666724570260803 
3.1900000000023074, -0.6674544582933668 
3.2000000000023285, -0.6678782517202194 
3.2100000000023496, -0.6680335210829419 
3.2200000000023707, -0.6679646434293913 
3.230000000002392, -0.6677086174314144 
3.240000000002413, -0.6672898005506346 
3.250000000002434, -0.6667210611855164 
3.260000000002455, -0.6660097035396186 
3.2700000000024763, -0.6651690817288155 
3.2800000000024974, -0.664239387535501 
3.2900000000025185, -0.6633221647115284 
3.3000000000025396, -0.6626285480140764 
3.3100000000025607, -0.6625215892584642 
3.3200000000025818, -0.6634886407541307 
3.330000000002603, -0.6659382825030498 
3.340000000002624, -0.6698140018493979 
3.350000000002645, -0.674375919079074 
3.360000000002666, -0.6786372165929802 
3.3700000000026873, -0.6821051938067998 
3.3800000000027084, -0.6848809673312573 
3.3900000000027295, -0.6871988056522952 
3.4000000000027506, -0.6891542748949726 
3.4100000000027717, -0.6907463248614238 
3.420000000002793, -0.6919717833774004 
3.430000000002814, -0.6928566169867315 
3.440000000002835, -0.6934455809074244 
3.450000000002856, -0.6937844380544448 
3.460000000002877, -0.6939075845055109 
3.4700000000028983, -0.6938313013915922 
3.4800000000029194, -0.6935498269274423 
3.4900000000029405, -0.6930324269457098 
3.5000000000029616, -0.6922220657949477 
3.5100000000029827, -0.6910396417006793 
3.520000000003004, -0.6894008352424545 
3.530000000003025, -0.6872506098321549 
3.540000000003046, -0.6846067685830698 
3.550000000003067, -0.6815843070144421 
3.5600000000030882, -0.678373488571399 
3.5700000000031094, -0.6751802541051013 
3.5800000000031305, -0.6721697819496371 
3.5900000000031516, -0.6694435163180386 
3.6000000000031727, -0.6670473069340332 
3.6100000000031938, -0.6649918814687956 
3.620000000003215, -0.6632710312881921 
3.630000000003236, -0.6618724289439764 
3.640000000003257, -0.6607819045567702 
3.650000000003278, -0.6599838505737954 
3.6600000000032993, -0.6594602319141422 
3.6700000000033204, -0.6591898740441716 
3.6800000000033415, -0.659148848843245 
3.6900000000033626, -0.6593120541067689 
3.7000000000033837, -0.6596555812979534 
3.710000000003405, -0.6601592288234481 
3.720000000003426, -0.6608084565443371 
3.730000000003447, -0.6615949861173502 
3.740000000003468, -0.6625150046028752 
3.750000000003489, -0.6635637878388951 
3.7600000000035103, -0.6647263162409908 
3.7700000000035314, -0.665965980937746 
3.7800000000035525, -0.6672174249613769 
3.7900000000035736, -0.6683916811801505 
3.8000000000035947, -0.6693967220127067 
3.810000000003616, -0.6701643123068572 
3.820000000003637, -0.6706664242706795 
3.830000000003658, -0.670912373223253 
3.840000000003679, -0.6709329529113066 
3.8500000000037002, -0.6707638202132216 
3.8600000000037213, -0.6704354976617715 
3.8700000000037424, -0.6699710166725835 
3.8800000000037635, -0.6693899814399725 
3.8900000000037847, -0.6687190515294745 
3.9000000000038058, -0.6680113946058153 
3.910000000003827, -0.667380010280623 
3.920000000003848, -0.667049760762979 
3.930000000003869, -0.6674247992405762 
3.94000000000389, -0.6691403908056672 
3.9500000000039113, -0.673010729581531 
3.9600000000039324, -0.6797316304243113 
3.9700000000039535, -0.6893083562610142 
3.9800000000039746, -0.7006181215530176 
3.9900000000039957, -0.7117999397760707 
4.000000000004016, -0.7213316802174304 
4.010000000003993, -0.7286587870795472 
4.02000000000397, -0.7339536701797367 
4.030000000003946, -0.7376411862121427 
4.040000000003923, -0.7401384101561852 
4.0500000000039, -0.741779989927278 
4.0600000000038765, -0.7428131378678436 
4.070000000003853, -0.7434098227953799 
4.08000000000383, -0.7436811229815061 
4.090000000003807, -0.7436889564102481 
4.100000000003783, -0.7434530456433888 
4.11000000000376, -0.7429521884605764 
4.120000000003737, -0.742119992881382 
4.130000000003713, -0.7408374956995994 
4.14000000000369, -0.7389305360524181 
4.150000000003667, -0.7361889957361186 
4.1600000000036434, -0.732430077938811 
4.17000000000362, -0.7276064098598977 
4.180000000003597, -0.7219017309856206 
4.1900000000035735, -0.7157221363450448 
4.20000000000355, -0.7095631961147383 
4.210000000003527, -0.703849337474465 
4.220000000003504, -0.6988484745480594 
4.23000000000348, -0.6946748919927735 
4.240000000003457, -0.6913337340522261 
4.250000000003434, -0.6887660282006705 
4.26000000000341, -0.6868795611972847 
4.270000000003387, -0.685567164042737 
4.280000000003364, -0.6847179423696311 
4.2900000000033405, -0.6842253059668462 
4.300000000003317, -0.6839930861481084 
4.310000000003294, -0.6839395593715281 
4.320000000003271, -0.6839990695136795 
4.330000000003247, -0.6841215697258607 
4.340000000003224, -0.6842710341242282 
4.350000000003201, -0.6844238134994429 
4.360000000003177, -0.6845674489391932 
4.370000000003154, -0.684699372105505 
4.380000000003131, -0.6848239939464472 
4.390000000003107, -0.6849470366140805 
4.400000000003084, -0.6850680921550166 
4.410000000003061, -0.6851749459545446 
4.4200000000030375, -0.6852436469648221 
4.430000000003014, -0.6852453361262476 
4.440000000002991, -0.6851562360588321 
4.450000000002968, -0.6849650694606431 
4.460000000002944, -0.6846748183029933 
4.470000000002921, -0.6843004408535858 
4.480000000002898, -0.6838665474087529 
4.490000000002874, -0.6834082535993435 
4.500000000002851, -0.6829766156506181 
4.510000000002828, -0.6826487838822132 
4.520000000002804, -0.6825422068149127 
4.530000000002781, -0.6828311394889509 
4.540000000002758, -0.6837618549275251 
4.5500000000027345, -0.6856601815847297 
4.560000000002711, -0.6889210723519408 
4.570000000002688, -0.6939643301245535 
4.580000000002665, -0.7011347196392881 
4.590000000002641, -0.7105294460411409 
4.600000000002618, -0.7217807042956734 
4.610000000002595, -0.7339281858310717 
4.620000000002571, -0.7455971592593807 
4.630000000002548, -0.7555225083128839 
4.640000000002525, -0.7630603848616304 
4.6500000000025015, -0.7682725454081925 
4.660000000002478, -0.7716276482342026 
4.670000000002455, -0.7736660280508418 
4.6800000000024315, -0.7748247760559639 
4.690000000002408, -0.7754015507237042 
4.700000000002385, -0.7755770019738601 
4.710000000002362, -0.7754456037721821 
4.720000000002338, -0.7750367182927576 
4.730000000002315, -0.7743220932986163 
4.740000000002292, -0.7732092386548983 
4.750000000002268, -0.7715193101005192 
4.760000000002245, -0.7689477848531687 
4.770000000002222, -0.7650124681909396 
4.7800000000021985, -0.7590194796555945 
4.790000000002175, -0.7501405376924085 
4.800000000002152, -0.7377606419423262 
4.810000000002129, -0.7221267437498686 
4.820000000002105, -0.704816492996444 
4.830000000002082, -0.688268824248772 
4.840000000002059, -0.674545125541123 
4.850000000002035, -0.6644907658784996 
4.860000000002012, -0.6578504852388046 
4.870000000001989, -0.6538417902532666 
4.880000000001965, -0.6516245017628514 
4.890000000001942, -0.6505178214738201 
4.900000000001919, -0.6500439111959342 
4.9100000000018955, -0.649896239918292 
4.920000000001872, -0.6498898996697235 
