t, s[1].omega / s[0].omega 
0, -0.7599395869145061 
0.009999999999999995, -0.7545346493575049 
0.019999999999999934, -0.7508888735537321 
0.029999999999999874, -0.7492286780793466 
0.04000000000000012, -0.7491257052023392 
0.050000000000000405, -0.7498892929798399 
0.06000000000000069, -0.7509395199379469 
0.07000000000000098, -0.7519328796726928 
0.08000000000000126, -0.7527206048824483 
0.09000000000000155, -0.7532656483346714 
0.10000000000000184, -0.753577723039408 
0.11000000000000212, -0.7536752509585922 
0.12000000000000241, -0.7535657200666117 
0.130000000000002, -0.7532350858801997 
0.1400000000000009, -0.7526405162513976 
0.1499999999999998, -0.751705158657065 
0.1599999999999987, -0.7503187579020888 
0.1699999999999976, -0.748353555084858 
0.1799999999999965, -0.7457056852043078 
0.1899999999999954, -0.7423574823304915 
0.1999999999999943, -0.738426122307065 
0.2099999999999932, -0.7341531231242138 
0.2199999999999921, -0.7298309483993894 
0.229999999999991, -0.725717817863374 
0.2399999999999899, -0.7219914034145198 
0.2499999999999888, -0.7187479018676204 
0.2599999999999877, -0.7160234214921203 
0.2699999999999866, -0.713816156155524 
0.2799999999999855, -0.7121008019164112 
0.2899999999999844, -0.710835844536487 
0.2999999999999833, -0.70996741897371 
0.3099999999999822, -0.709432912100689 
0.3199999999999811, -0.7091656471545 
0.32999999999998, -0.7091002600060008 
0.3399999999999789, -0.70917753628947 
0.3499999999999778, -0.7093476862184173 
0.35999999999997667, -0.7095718488988066 
0.36999999999997557, -0.7098223254299307 
0.37999999999997447, -0.7100820954821858 
0.38999999999997337, -0.7103435077513568 
0.39999999999997227, -0.7106052347840096 
0.40999999999997117, -0.7108667365871376 
0.41999999999997006, -0.7111212427985816 
0.42999999999996896, -0.7113506368769287 
0.43999999999996786, -0.7115261637141598 
0.44999999999996676, -0.7116159290017631 
0.45999999999996566, -0.7115953138617834 
0.46999999999996456, -0.7114542089365409 
0.47999999999996346, -0.7111979932753344 
0.48999999999996235, -0.7108443264880859 
0.49999999999996125, -0.7104202227370047 
0.5099999999999602, -0.7099627879045969 
0.519999999999959, -0.7095248993592745 
0.529999999999958, -0.7091856475391692 
0.5399999999999568, -0.7090643251014838 
0.5499999999999557, -0.7093353510145092 
0.5599999999999546, -0.7102394846449177 
0.5699999999999535, -0.7120844308253724 
0.5799999999999524, -0.7152259155606805 
0.5899999999999513, -0.7200183203571541 
0.5999999999999502, -0.7267225512720363 
0.6099999999999491, -0.7353651627546313 
0.619999999999948, -0.7455764293730566 
0.6299999999999469, -0.756509282206623 
0.6399999999999458, -0.766992970187457 
0.6499999999999447, -0.7759485330094574 
0.6599999999999436, -0.7828033823057206 
0.6699999999999425, -0.787580724841499 
0.6799999999999414, -0.7906700750273363 
0.6899999999999403, -0.792543540774302 
0.6999999999999392, -0.7935940951954623 
0.7099999999999381, -0.7940940370256029 
0.719999999999937, -0.7942097689782937 
0.7299999999999359, -0.7940275755257143 
0.7399999999999348, -0.7935722386793342 
0.7499999999999337, -0.7928141221896752 
0.7599999999999326, -0.7916643244506437 
0.7699999999999315, -0.7899577091673804 
0.7799999999999304, -0.7874240647659503 
0.7899999999999293, -0.7836524207744864 
0.7999999999999282, -0.7780704266279299 
0.8099999999999271, -0.7700019089041183 
0.819999999999926, -0.7589236050719745 
0.8299999999999249, -0.7449980808964122 
0.8399999999999238, -0.7295819669278394 
0.8499999999999227, -0.7149679291759892 
0.8599999999999216, -0.7032087764036273 
0.8699999999999205, -0.6951200740548306 
0.8799999999999194, -0.6903173035148252 
0.8899999999999183, -0.687870946940368 
0.8999999999999172, -0.6868620793119494 
0.9099999999999161, -0.6866130335413995 
0.919999999999915, -0.6867001213161802 
0.9299999999999139, -0.6868868933122806 
0.9399999999999128, -0.6870521462679251 
0.9499999999999117, -0.6871363852896106 
0.9599999999999106, -0.687107738300169 
0.9699999999999095, -0.6869420283363199 
0.9799999999999084, -0.6866121768585159 
0.9899999999999073, -0.6860846234102057 
0.9999999999999062, -0.6853229316971833 
1.0099999999999052, -0.6842994115344279 
1.019999999999904, -0.6830122869161163 
1.029999999999903, -0.6814992610826955 
1.039999999999902, -0.6798355959623171 
1.0499999999999008, -0.6781140065674364 
1.0599999999998997, -0.6764184110811027 
1.0699999999998986, -0.6748072892934762 
1.0799999999998975, -0.6733122839901176 
1.0899999999998964, -0.6719468656238888 
1.0999999999998953, -0.6707171390885414 
1.1099999999998942, -0.6696298867603752 
1.119999999999893, -0.6686966059987611 
1.129999999999892, -0.6679342744052976 
1.1399999999998909, -0.6673640207845517 
1.1499999999998898, -0.6670087134048084 
1.1599999999998887, -0.6668903113513864 
1.1699999999998876, -0.6670277487808937 
1.1799999999998865, -0.6674359605802376 
1.1899999999998854, -0.6681262706507585 
1.1999999999998843, -0.669107759778433 
1.2099999999998832, -0.6703885037821907 
1.219999999999882, -0.6719748220690877 
1.229999999999881, -0.673866104215046 
1.2399999999998799, -0.6760430662340389 
1.2499999999998788, -0.6784499272328517 
1.2599999999998777, -0.6809775089825573 
1.2699999999998766, -0.683462457972965 
1.2799999999998755, -0.6857171826921268 
1.2899999999998744, -0.6875846077222926 
1.2999999999998733, -0.6889847924215162 
1.3099999999998722, -0.6899223010799193 
1.319999999999871, -0.6904570381423947 
1.32999999999987, -0.6906657455695594 
1.3399999999998689, -0.6906151283822168 
1.3499999999998678, -0.690350192725868 
1.3599999999998666, -0.689892305867297 
1.3699999999998655, -0.6892414701524894 
1.3799999999998644, -0.6883804547161321 
1.3899999999998633, -0.687281469658571 
1.3999999999998622, -0.6859181816970377 
1.4099999999998611, -0.6842858126749232 
1.41999999999986, -0.6824254663002984 
1.429999999999859, -0.6804287053465157 
1.4399999999998578, -0.6783722894449402 
1.4499999999998567, -0.6761695200000766 
1.4599999999998556, -0.6735209255098539 
1.4699999999998545, -0.67025844438496 
1.4799999999998534, -0.6668103598354099 
1.4899999999998523, -0.6640006831215202 
1.4999999999998512, -0.6623493044627184 
1.5099999999998501, -0.6617959640097009 
1.519999999999849, -0.6619607058369641 
1.529999999999848, -0.6624564041299534 
1.5399999999998468, -0.6630202215752425 
1.5499999999998457, -0.6635127890942808 
1.5599999999998446, -0.663875338389406 
1.5699999999998435, -0.6640897137015753 
1.5799999999998424, -0.6641518332938698 
1.5899999999998413, -0.6640563211161015 
1.5999999999998402, -0.6637881337816498 
1.6099999999998391, -0.6633187772479097 
1.619999999999838, -0.6626073470449649 
1.629999999999837, -0.6616088632999159 
1.6399999999998358, -0.6602920377421836 
1.6499999999998347, -0.6586627619445177 
1.6599999999998336, -0.6567799290119327 
1.6699999999998325, -0.6547482634562777 
1.6799999999998314, -0.6526881501840978 
1.6899999999998303, -0.6507016872246126 
1.6999999999998292, -0.6488547010542189 
1.709999999999828, -0.6471784144251741 
1.719999999999827, -0.6456818389369297 
1.729999999999826, -0.6443650192201231 
1.7399999999998248, -0.6432281513197116 
1.7499999999998237, -0.6422759248752377 
1.7599999999998226, -0.6415183529507985 
1.7699999999998215, -0.6409695973064203 
1.7799999999998204, -0.640645964220653 
1.7899999999998193, -0.640563926531354 
1.7999999999998182, -0.640738808390974 
1.809999999999817, -0.6411845246594223 
1.819999999999816, -0.641914391812765 
1.8299999999998149, -0.6429424989098595 
1.8399999999998138, -0.6442844530414632 
1.8499999999998127, -0.6459555163162674 
1.8599999999998116, -0.6479634555061458 
1.8699999999998105, -0.6502937103482815 
1.8799999999998094, -0.6528876767212257 
1.8899999999998083, -0.6556228992234745 
1.8999999999998072, -0.6583137585793264 
1.909999999999806, -0.6607492366614149 
1.919999999999805, -0.6627578341199849 
1.9299999999998039, -0.664258579813349 
1.9399999999998028, -0.6652642980523948 
1.9499999999998017, -0.6658452673066259 
1.9599999999998006, -0.6660861075858963 
1.9699999999997995, -0.6660575994528767 
1.9799999999997984, -0.6658050393751136 
1.9899999999997973, -0.6653458244398539 
1.9999999999997962, -0.6646695422107609 
2.0099999999998173, -0.6637368092632555 
2.0199999999998384, -0.662475042067084 
2.0299999999998595, -0.6607695515747223 
2.0399999999998806, -0.6584463888426257 
2.0499999999999017, -0.6552390987640837 
2.059999999999923, -0.6507323944679825 
2.069999999999944, -0.6443174005856416 
2.079999999999965, -0.6353288233237295 
2.089999999999986, -0.6236146785212233 
2.100000000000007, -0.6102666315566878 
2.1100000000000283, -0.5974351707827487 
2.1200000000000494, -0.587022068405062 
2.1300000000000705, -0.5797112031084579 
2.1400000000000916, -0.5751410830519149 
2.1500000000001127, -0.572548943266898 
2.160000000000134, -0.5712140351286366 
2.170000000000155, -0.5706079212953161 
2.180000000000176, -0.5703893822766384 
2.190000000000197, -0.5703537361060154 
2.2000000000002182, -0.5703834285023845 
2.2100000000002393, -0.5704119431295998 
2.2200000000002604, -0.5704004965364994 
2.2300000000002815, -0.5703242784067135 
2.2400000000003026, -0.5701655530738825 
2.2500000000003237, -0.5699120372776398 
2.260000000000345, -0.569559391182348 
2.270000000000366, -0.5691157620882095 
2.280000000000387, -0.5686045671724563 
2.290000000000408, -0.5680613661817725 
2.3000000000004293, -0.5675239814508468 
2.3100000000004504, -0.5670202542232851 
2.3200000000004715, -0.5665600228165478 
2.3300000000004926, -0.5661351046117762 
2.3400000000005137, -0.5657262480533234 
2.3500000000005348, -0.5653127492683716 
2.360000000000556, -0.5648801849347004 
2.370000000000577, -0.5644241243694341 
2.380000000000598, -0.5639507583314949 
2.390000000000619, -0.5634769904133521 
2.4000000000006403, -0.5630323570618916 
2.4100000000006614, -0.5626643242862198 
2.4200000000006825, -0.5624480310286353 
2.4300000000007036, -0.5625015477351952 
2.4400000000007247, -0.5630077601673146 
2.450000000000746, -0.5642432005136623 
2.460000000000767, -0.5666106817055819 
2.470000000000788, -0.570662450193946 
2.480000000000809, -0.5770772253087391 
2.49000000000083, -0.586516464839827 
2.5000000000008513, -0.599269615991118 
2.5100000000008724, -0.6147320008446899 
2.5200000000008935, -0.6311387617763494 
2.5300000000009146, -0.6461542291452192 
2.5400000000009357, -0.6580887161969541 
2.550000000000957, -0.6665627360340489 
2.560000000000978, -0.6721438132483211 
2.570000000000999, -0.6756637609879149 
2.58000000000102, -0.677825440689173 
2.5900000000010412, -0.6791135152692209 
2.6000000000010624, -0.6798319552296663 
2.6100000000010835, -0.6801603364551132 
2.6200000000011046, -0.680195671262829 
2.6300000000011257, -0.6799767274793757 
2.6400000000011468, -0.6794945373540805 
2.650000000001168, -0.6786928238323778 
2.660000000001189, -0.6774622924765612 
2.67000000000121, -0.6756364405178077 
2.680000000001231, -0.6730052945697758 
2.6900000000012523, -0.6693716966647267 
2.7000000000012734, -0.664660255697727 
2.7100000000012945, -0.6590302120642161 
2.7200000000013156, -0.6528878866328952 
2.7300000000013367, -0.6467523739437708 
2.740000000001358, -0.6410705190398673 
2.750000000001379, -0.6361123371447521 
2.7600000000014, -0.6319752070755729 
2.770000000001421, -0.6286415115009409 
2.780000000001442, -0.6260360139921621 
2.7900000000014633, -0.6240630208096616 
2.8000000000014844, -0.6226250719092962 
2.8100000000015055, -0.621630643770455 
2.8200000000015266, -0.6209969065767822 
2.8300000000015477, -0.6206508271818809 
2.840000000001569, -0.6205298718989275 
2.85000000000159, -0.6205825192741725 
2.860000000001611, -0.6207684919182531 
2.870000000001632, -0.6210586882674037 
2.8800000000016532, -0.6214348753561901 
2.8900000000016743, -0.6218890096629787 
2.9000000000016954, -0.6224215087854774 
2.9100000000017165, -0.6230372257402063 
2.9200000000017377, -0.6237380577870304 
2.9300000000017588, -0.6245128341549544 
2.94000000000178, -0.625328233690452 
2.950000000001801, -0.6261270702260266 
2.960000000001822, -0.626838761554382 
2.970000000001843, -0.6273991701780897 
2.9800000000018643, -0.6277685848284458 
2.9900000000018854, -0.6279372642880492 
3.0000000000019065, -0.6279180790017892 
3.0100000000019276, -0.6277341321583102 
3.0200000000019487, -0.6274090251965344 
3.03000000000197, -0.6269628485731769 
3.040000000001991, -0.6264139260582475 
3.050000000002012, -0.6257862391950365 
3.060000000002033, -0.6251240596914414 
3.070000000002054, -0.6245171815920798 
3.0800000000020753, -0.6241404769646004 
3.0900000000020964, -0.6243060068811517 
3.1000000000021175, -0.6255050836497824 
3.1100000000021386, -0.6283701780171403 
3.1200000000021597, -0.6334335794961702 
3.130000000002181, -0.6406389900926956 
3.140000000002202, -0.6489645652036525 
3.150000000002223, -0.6568357617912458 
3.160000000002244, -0.6631783472089896 
3.1700000000022652, -0.6678802714599347 
3.1800000000022863, -0.6713261612477495 
3.1900000000023074, -0.6738841852709985 
3.2000000000023285, -0.6757800292597823 
3.2100000000023496, -0.6771534972757364 
3.2200000000023707, -0.6781091433512001 
3.230000000002392, -0.6787318720275224 
3.240000000002413, -0.6790872125217867 
3.250000000002434, -0.6792192329371012 
3.260000000002455, -0.6791491754245443 
3.2700000000024763, -0.6788742767950715 
3.2800000000024974, -0.6783662935423036 
3.2900000000025185, -0.6775710046898769 
3.3000000000025396, -0.6764128787097414 
3.3100000000025607, -0.6748118471353655 
3.3200000000025818, -0.6727169773610521 
3.330000000002603, -0.6701484939289195 
3.340000000002624, -0.6672206327352842 
3.350000000002645, -0.6641193262104643 
3.360000000002666, -0.6610436506004626 
3.3700000000026873, -0.6581510867577944 
3.3800000000027084, -0.655535952104253 
3.3900000000027295, -0.6532382949928126 
3.4000000000027506, -0.6512646627934994 
3.4100000000027717, -0.6496064219451819 
3.420000000002793, -0.648250705275108 
3.430000000002814, -0.6471848117494676 
3.440000000002835, -0.6463966345779303 
3.450000000002856, -0.6458734871117 
3.460000000002877, -0.6456009515044352 
3.4700000000028983, -0.6455626302194128 
3.4800000000029194, -0.6457410531891037 
3.4900000000029405, -0.6461195147825276 
3.5000000000029616, -0.6466843032018325 
3.5100000000029827, -0.647426587801263 
3.520000000003004, -0.6483430059138927 
3.530000000003025, -0.649433653865141 
3.540000000003046, -0.6506959963040411 
3.550000000003067, -0.6521139867825207 
3.5600000000030882, -0.6536445356565056 
3.5700000000031094, -0.6552083552169436 
3.5800000000031305, -0.6566955478008545 
3.5900000000031516, -0.657990877656092 
3.6000000000031727, -0.6590080434546306 
3.6100000000031938, -0.6597112701459019 
3.620000000003215, -0.6601120182727926 
3.630000000003236, -0.6602486075915298 
3.640000000003257, -0.660164634296771 
3.650000000003278, -0.6598954313310302 
3.6600000000032993, -0.6594631705334503 
3.6700000000033204, -0.6588779279364114 
3.6800000000033415, -0.6581430398958161 
3.6900000000033626, -0.6572655171672128 
3.7000000000033837, -0.6562745486119489 
3.710000000003405, -0.6552516323888689 
3.720000000003426, -0.6543703104882588 
3.730000000003447, -0.6539227253770944 
3.740000000003468, -0.6542684240808418 
3.750000000003489, -0.6556190293267565 
3.7600000000035103, -0.6577162618592077 
3.7700000000035314, -0.6598108579627883 
3.7800000000035525, -0.6612649843694152 
3.7900000000035736, -0.6621229721263072 
3.8000000000035947, -0.6628465288655829 
3.810000000003616, -0.6637309429329619 
3.820000000003637, -0.6647598961768268 
3.830000000003658, -0.665784351165094 
3.840000000003679, -0.6666773070285934 
3.8500000000037002, -0.6673767756140132 
3.8600000000037213, -0.6678701574787147 
3.8700000000037424, -0.6681680528823083 
3.8800000000037635, -0.668284773063321 
3.8900000000037847, -0.6682267864135275 
3.9000000000038058, -0.6679862604818058 
3.910000000003827, -0.6675376269199338 
3.920000000003848, -0.6668373931522147 
3.930000000003869, -0.6658300975401541 
3.94000000000389, -0.6644646335325713 
3.9500000000039113, -0.6627213539720171 
3.9600000000039324, -0.6606391388053632 
3.9700000000039535, -0.6583217604346855 
3.9800000000039746, -0.6559119825674314 
3.9900000000039957, -0.6535480957418599 
4.000000000004016, -0.6513310932517047 
4.010000000003993, -0.6493167046082641 
4.02000000000397, -0.6475260211901392 
4.030000000003946, -0.6459615518890344 
4.040000000003923, -0.6446200399645516 
4.0500000000039, -0.6434995645757516 
4.0600000000038765, -0.6426018829408611 
4.070000000003853, -0.6419318790223427 
4.08000000000383, -0.6414957557449001 
4.090000000003807, -0.6412991513616746 
4.100000000003783, -0.6413459616058068 
4.11000000000376, -0.6416382798831255 
4.120000000003737, -0.6421774668111626 
4.130000000003713, -0.6429659230156608 
4.14000000000369, -0.6440086671400448 
4.150000000003667, -0.6453132800678036 
4.1600000000036434, -0.6468862082730229 
4.17000000000362, -0.648723267530518 
4.180000000003597, -0.6507936600000389 
4.1900000000035735, -0.653021590274799 
4.20000000000355, -0.655277345908915 
4.210000000003527, -0.6573934949895729 
4.220000000003504, -0.6592094678179647 
4.23000000000348, -0.6606215121383179 
4.240000000003457, -0.6616044551500128 
4.250000000003434, -0.6621954297516781 
4.26000000000341, -0.6624593480405081 
4.270000000003387, -0.6624594951742279 
4.280000000003364, -0.6622418371666454 
4.2900000000033405, -0.6618299365011654 
4.300000000003317, -0.6612248154793272 
4.310000000003294, -0.6604061050631003 
4.320000000003271, -0.6593332151236437 
4.330000000003247, -0.6579465682897367 
4.340000000003224, -0.6561682051733688 
4.350000000003201, -0.6538959739136015 
4.360000000003177, -0.6509740830409234 
4.370000000003154, -0.6471190739501391 
4.380000000003131, -0.6418479222570297 
4.390000000003107, -0.6346457751981773 
4.400000000003084, -0.6255941091078806 
4.410000000003061, -0.6158977500663935 
4.4200000000030375, -0.6073183884904598 
4.430000000003014, -0.6009947963688439 
4.440000000002991, -0.5970198930573138 
4.450000000002968, -0.5948597027729201 
4.460000000002944, -0.5938661394022533 
4.470000000002921, -0.5935262816881197 
4.480000000002898, -0.593504740528766 
4.490000000002874, -0.5936051553679806 
4.500000000002851, -0.593720336328283 
4.510000000002828, -0.5937935744689883 
4.520000000002804, -0.5937934353485192 
4.530000000002781, -0.5936989013568733 
4.540000000002758, -0.5934917815620494 
4.5500000000027345, -0.5931547439992052 
4.560000000002711, -0.5926744049120127 
4.570000000002688, -0.5920484767706421 
4.580000000002665, -0.5912935372433379 
4.590000000002641, -0.590447392321013 
4.600000000002618, -0.589561518211545 
4.610000000002595, -0.5886859593917431 
4.620000000002571, -0.587855227571917 
4.630000000002548, -0.5870826309398073 
4.640000000002525, -0.58636404016697 
4.6500000000025015, -0.5856869173126039 
4.660000000002478, -0.5850394541099736 
4.670000000002455, -0.5844167527675006 
4.6800000000024315, -0.5838238464275799 
4.690000000002408, -0.583277170854453 
4.700000000002385, -0.5828063327391579 
4.710000000002362, -0.5824573388934853 
4.720000000002338, -0.5822977073813934 
4.730000000002315, -0.5824234299506144 
4.740000000002292, -0.5829675011806545 
4.750000000002268, -0.584109350648745 
4.760000000002245, -0.586083420604962 
4.770000000002222, -0.5891822000085075 
4.7800000000021985, -0.5937425032709094 
4.790000000002175, -0.6000926961949651 
4.800000000002152, -0.6084291100851266 
4.810000000002129, -0.6186093100472266 
4.820000000002105, -0.6299454601431084 
4.830000000002082, -0.641226303530073 
4.840000000002059, -0.6511448295561609 
4.850000000002035, -0.6588850143090811 
4.860000000002012, -0.6643527441107283 
4.870000000001989, -0.667940485564869 
4.880000000001965, -0.6701708315419753 
4.890000000001942, -0.6714866249645585 
4.900000000001919, -0.672196518141926 
4.9100000000018955, -0.6724921167553182 
4.920000000001872, -0.6724787074293144 
4.930000000001849, -0.6721978762469835 
