t, s[1].omega / s[0].omega 
0, -1.3599967136946383 
0.009999999999999995, -1.359462599771054 
0.019999999999999934, -1.3585224147313377 
0.029999999999999874, -1.3571792259665847 
0.04000000000000012, -1.3554406120340328 
0.050000000000000405, -1.35332204022067 
0.06000000000000069, -1.3508506861800929 
0.07000000000000098, -1.348069732604029 
0.08000000000000126, -1.345045497171189 
0.09000000000000155, -1.3418823136679063 
0.10000000000000184, -1.3387454120751345 
0.11000000000000212, -1.335872792168321 
0.12000000000000241, -1.333537023460075 
0.130000000000002, -1.3319394478084432 
0.1400000000000009, -1.3310969103242345 
0.1499999999999998, -1.330824115133023 
0.1599999999999987, -1.3308293918773522 
0.1699999999999976, -1.3308288259664698 
0.1799999999999965, -1.3305932204106454 
0.1899999999999954, -1.3299241693646762 
0.1999999999999943, -1.3285935569986742 
0.2099999999999932, -1.3262676047794224 
0.2199999999999921, -1.3224167429628726 
0.229999999999991, -1.3162089180233727 
0.2399999999999899, -1.3064011025654103 
0.2499999999999888, -1.2912833920575888 
0.2599999999999877, -1.2687841690112858 
0.2699999999999866, -1.2368771088311596 
0.2799999999999855, -1.1943718966751895 
0.2899999999999844, -1.1419472520395324 
0.2999999999999833, -1.0829049962862336 
0.3099999999999822, -1.0228681862788274 
0.3199999999999811, -0.9680976512120609 
0.32999999999998, -0.923282131803433 
0.3399999999999789, -0.8902615663014747 
0.3499999999999778, -0.8682644444579666 
0.35999999999997667, -0.8550313335917892 
0.36999999999997557, -0.8479420539373184 
0.37999999999997447, -0.8447132238906055 
0.38999999999997337, -0.8436589966338506 
0.39999999999997227, -0.8436748127744494 
0.40999999999997117, -0.8441029317575047 
0.41999999999997006, -0.8445810852186129 
0.42999999999996896, -0.8449193953923098 
0.43999999999996786, -0.845014852919855 
0.44999999999996676, -0.8447966289753766 
0.45999999999996566, -0.8441919561295638 
0.46999999999996456, -0.8431045664218327 
0.47999999999996346, -0.8414020888957574 
0.48999999999996235, -0.8389140208378744 
0.49999999999996125, -0.8354466952162486 
0.5099999999999602, -0.8308226402338491 
0.519999999999959, -0.8249430214564086 
0.529999999999958, -0.8178519463035755 
0.5399999999999568, -0.8097644857571921 
0.5499999999999557, -0.801031186295018 
0.5599999999999546, -0.7920524676706561 
0.5699999999999535, -0.7831894607634781 
0.5799999999999524, -0.7747113963903679 
0.5899999999999513, -0.766787500618701 
0.5999999999999502, -0.7595071991469392 
0.6099999999999491, -0.7529086159274524 
0.619999999999948, -0.7470028518659522 
0.6299999999999469, -0.7417896296698449 
0.6399999999999458, -0.7372646194748176 
0.6499999999999447, -0.7334205808165044 
0.6599999999999436, -0.7302447839128627 
0.6699999999999425, -0.7277149640165194 
0.6799999999999414, -0.7257957025688824 
0.6899999999999403, -0.7244366587740508 
0.6999999999999392, -0.7235734312100931 
0.7099999999999381, -0.7231310330303768 
0.719999999999937, -0.7230292036967133 
0.7299999999999359, -0.7231883292543972 
0.7399999999999348, -0.7235347782915037 
0.7499999999999337, -0.7240049216888116 
0.7599999999999326, -0.7245477165374073 
0.7699999999999315, -0.7251261643874002 
0.7799999999999304, -0.7257179785868658 
0.7899999999999293, -0.7263154143694445 
0.7999999999999282, -0.7269236900014019 
0.8099999999999271, -0.7275572012802487 
0.819999999999926, -0.7282331607181501 
0.8299999999999249, -0.728963320514575 
0.8399999999999238, -0.729745588273235 
0.8499999999999227, -0.7305580947354436 
0.8599999999999216, -0.7313582845425931 
0.8699999999999205, -0.7320885321859626 
0.8799999999999194, -0.7326874198133425 
0.8899999999999183, -0.7331029541327028 
0.8999999999999172, -0.7333027162809481 
0.9099999999999161, -0.7332777204740086 
0.919999999999915, -0.7330404719307023 
0.9299999999999139, -0.7326205695712151 
0.9399999999999128, -0.732061643252298 
0.9499999999999117, -0.7314221329730966 
0.9599999999999106, -0.7307808421254284 
0.9699999999999095, -0.7302470396575166 
0.9799999999999084, -0.7299740036822774 
0.9899999999999073, -0.730173892060741 
0.9999999999999062, -0.7311305726421174 
1.0099999999999052, -0.733205927027085 
1.019999999999904, -0.7368349081212264 
1.029999999999903, -0.7425058997764703 
1.039999999999902, -0.7507255096298696 
1.0499999999999008, -0.7619695706840958 
1.0599999999998997, -0.7766231455806374 
1.0699999999998986, -0.7949109394885298 
1.0799999999998975, -0.8168171876682213 
1.0899999999998964, -0.8419952605427372 
1.0999999999998953, -0.8696790031580725 
1.1099999999998942, -0.8986354496833528 
1.119999999999893, -0.9272318577889482 
1.129999999999892, -0.9536865868816771 
1.1399999999998909, -0.9764795437835438 
1.1499999999998898, -0.9947438429740134 
1.1599999999998887, -1.0084097876501235 
1.1699999999998876, -1.0180340584833953 
1.1799999999998865, -1.0244665233298829 
1.1899999999998854, -1.0285586798743307 
1.1999999999998843, -1.0310083442008877 
1.2099999999998832, -1.03232221830361 
1.219999999999882, -1.0328403640107293 
1.229999999999881, -1.032780221517784 
1.2399999999998799, -1.032281813128113 
1.2499999999998788, -1.0314528752129455 
1.2599999999998777, -1.0304218646578616 
1.2699999999998766, -1.0294093721326278 
1.2799999999998755, -1.028820665681878 
1.2899999999998744, -1.0293352688068755 
1.2999999999998733, -1.0319239843571184 
1.3099999999998722, -1.0376969879923934 
1.319999999999871, -1.0475522822366974 
1.32999999999987, -1.0617653529077122 
1.3399999999998689, -1.0797841836317152 
1.3499999999998678, -1.100382733811304 
1.3599999999998666, -1.1220569370303803 
1.3699999999998655, -1.1434058596578764 
1.3799999999998644, -1.1633362686976219 
1.3899999999998633, -1.1810997011972657 
1.3999999999998622, -1.1962529764105463 
1.4099999999998611, -1.2086140864227084 
1.41999999999986, -1.2182310676342571 
1.429999999999859, -1.2253450034647766 
1.4399999999998578, -1.230328803758997 
1.4499999999998567, -1.23360795247141 
1.4599999999998556, -1.2355880865709359 
1.4699999999998545, -1.236610488328292 
1.4799999999998534, -1.2369400535525865 
1.4899999999998523, -1.2367781245691902 
1.4999999999998512, -1.236289970717702 
1.5099999999998501, -1.2356378048355459 
1.519999999999849, -1.235007832573654 
1.529999999999848, -1.2346136728097241 
1.5399999999998468, -1.2346605950101013 
1.5499999999998457, -1.2352804210638475 
1.5599999999998446, -1.23648163627249 
1.5699999999998435, -1.2381565253149474 
1.5799999999998424, -1.240137364277934 
1.5899999999998413, -1.242255820029246 
1.5999999999998402, -1.2443733119395108 
1.6099999999998391, -1.2463843152451795 
1.619999999999838, -1.2482096550222332 
1.629999999999837, -1.249790865005182 
1.6399999999998358, -1.2510870645332575 
1.6499999999998347, -1.2520722341276267 
1.6599999999998336, -1.2527317275005914 
1.6699999999998325, -1.2530583697145727 
1.6799999999998314, -1.2530491356219884 
1.6899999999998303, -1.252703389554066 
1.6999999999998292, -1.2520232067240584 
1.709999999999828, -1.2510155597481447 
1.719999999999827, -1.2496955707442436 
1.729999999999826, -1.2480899054327044 
1.7399999999998248, -1.2462394671197088 
1.7499999999998237, -1.2442005245268257 
1.7599999999998226, -1.2420438513092678 
1.7699999999998215, -1.2398532129906197 
1.7799999999998204, -1.2377260086559099 
1.7899999999998193, -1.235775566991586 
1.7999999999998182, -1.2341259340257658 
1.809999999999817, -1.2328865287277722 
1.819999999999816, -1.232108809961919 
1.8299999999998149, -1.2317520073552213 
1.8399999999998138, -1.2316877383218785 
1.8499999999998127, -1.2317412373765069 
1.8599999999998116, -1.231736201106145 
1.8699999999998105, -1.2315152272825773 
1.8799999999998094, -1.2309333980115607 
1.8899999999998083, -1.22983842946494 
1.8999999999998072, -1.2280515599986084 
1.909999999999806, -1.2253591292222707 
1.919999999999805, -1.2215212459272764 
1.9299999999998039, -1.216299130884817 
1.9399999999998028, -1.2094942884541777 
1.9499999999998017, -1.2009846176477441 
1.9599999999998006, -1.1907439072873454 
1.9699999999997995, -1.1788446816343559 
1.9799999999997984, -1.1654599235263816 
1.9899999999997973, -1.1508832240676214 
1.9999999999997962, -1.1355743241217369 
2.0099999999998173, -1.1202099631130196 
2.0199999999998384, -1.1056856364167156 
2.0299999999998595, -1.0929975165741554 
2.0399999999998806, -1.0829829997598306 
2.0499999999999017, -1.0760245780257307 
2.059999999999923, -1.0719152359937623 
2.069999999999944, -1.0699950315933855 
2.079999999999965, -1.0694532028630215 
2.089999999999986, -1.0695883020051382 
2.100000000000007, -1.0699144524046835 
2.1100000000000283, -1.0701399869556343 
2.1200000000000494, -1.0700940242071169 
2.1300000000000705, -1.0696521204532954 
2.1400000000000916, -1.0686761232697726 
2.1500000000001127, -1.0669639569814329 
2.160000000000134, -1.0642013338920782 
2.170000000000155, -1.0599135264835746 
2.180000000000176, -1.053430219629786 
2.190000000000197, -1.0438997899400362 
2.2000000000002182, -1.030408951889559 
2.2100000000002393, -1.0122439141053168 
2.2200000000002604, -0.9892352496002194 
2.2300000000002815, -0.9620061645362236 
2.2400000000003026, -0.9319386572385013 
2.2500000000003237, -0.9008499371174372 
2.260000000000345, -0.8705654025281555 
2.270000000000366, -0.8425908160502155 
2.280000000000387, -0.8179601628831233 
2.290000000000408, -0.7972240683508012 
2.3000000000004293, -0.780513590728529 
2.3100000000004504, -0.7676330827350514 
2.3200000000004715, -0.758159771099212 
2.3300000000004926, -0.751540127188177 
2.3400000000005137, -0.7471760767785075 
2.3500000000005348, -0.744494163373949 
2.360000000000556, -0.7429923394918064 
2.370000000000577, -0.7422630001889694 
2.380000000000598, -0.7419955358689969 
2.390000000000619, -0.7419648702678727 
2.4000000000006403, -0.7420131325275409 
2.4100000000006614, -0.7420302944323746 
2.4200000000006825, -0.7419375421803315 
2.4300000000007036, -0.7416753892219196 
2.4400000000007247, -0.7411974251063572 
2.450000000000746, -0.7404698220495564 
2.460000000000767, -0.7394756381014589 
2.470000000000788, -0.7382211986120739 
2.480000000000809, -0.7367401016692491 
2.49000000000083, -0.7350904867596297 
2.5000000000008513, -0.7333443547564313 
2.5100000000008724, -0.7315723865746436 
2.5200000000008935, -0.7298303045918074 
2.5300000000009146, -0.7281515093022091 
2.5400000000009357, -0.726547188556008 
2.550000000000957, -0.7250121405194767 
2.560000000000978, -0.7235333631893682 
2.570000000000999, -0.7220986518664315 
2.58000000000102, -0.720703338854938 
2.5900000000010412, -0.719354445109376 
2.6000000000010624, -0.7180724704920963 
2.6100000000010835, -0.7168914832944044 
2.6200000000011046, -0.7158580548050001 
2.6300000000011257, -0.7150292207129783 
2.6400000000011468, -0.7144694052846783 
2.650000000001168, -0.714246312469064 
2.660000000001189, -0.7144261277343273 
2.67000000000121, -0.7150687729538472 
2.680000000001231, -0.7162241656972239 
2.6900000000012523, -0.717930308983236 
2.7000000000012734, -0.7202136081555863 
2.7100000000012945, -0.723091239611407 
2.7200000000013156, -0.7265748512358886 
2.7300000000013367, -0.7306744299600233 
2.740000000001358, -0.735400793467776 
2.750000000001379, -0.7407647888096015 
2.7600000000014, -0.7467709548873028 
2.770000000001421, -0.7534034547663822 
2.780000000001442, -0.7606033314677613 
2.7900000000014633, -0.7682399492419523 
2.8000000000014844, -0.7760867877413841 
2.8100000000015055, -0.7838200268297901 
2.8200000000015266, -0.7910583556772336 
2.8300000000015477, -0.7974433786772291 
2.840000000001569, -0.8027279225082471 
2.85000000000159, -0.8068250101347311 
2.860000000001611, -0.809794955125633 
2.870000000001632, -0.8117893189524865 
2.8800000000016532, -0.8129886612044849 
2.8900000000016743, -0.8135590621366409 
2.9000000000016954, -0.8136323498685675 
2.9100000000017165, -0.8133039845940702 
2.9200000000017377, -0.8126417501614956 
2.9300000000017588, -0.8117024242363085 
2.94000000000178, -0.8105587202379549 
2.950000000001801, -0.8093440027858364 
2.960000000001822, -0.8083274488340764 
2.970000000001843, -0.8080362053909582 
2.9800000000018643, -0.8094393552885628 
2.9900000000018854, -0.8141917571671397 
3.0000000000019065, -0.8248877755708331 
3.0100000000019276, -0.8451717869688246 
3.0200000000019487, -0.879376871294836 
3.03000000000197, -0.931194495916476 
3.040000000001991, -1.001133806294649 
3.050000000002012, -1.0839279196492673 
3.060000000002033, -1.1688657370196127 
3.070000000002054, -1.2444964994956302 
3.0800000000020753, -1.303951927129927 
3.0900000000020964, -1.3462917118491555 
3.1000000000021175, -1.3743161493277074 
3.1100000000021386, -1.3919169693558973 
3.1200000000021597, -1.402550203416508 
3.130000000002181, -1.4087569818598984 
3.140000000002202, -1.4122196735295727 
3.150000000002223, -1.4139838875305686 
3.160000000002244, -1.4146774703339626 
3.1700000000022652, -1.414679226929525 
3.1800000000022863, -1.4142419673295963 
3.1900000000023074, -1.4135851560858588 
3.2000000000023285, -1.4129576497439833 
3.2100000000023496, -1.4126439186505695 
3.2200000000023707, -1.4128873749675759 
3.230000000002392, -1.4137746677021261 
3.240000000002413, -1.4151954558257336 
3.250000000002434, -1.4169250664563817 
3.260000000002455, -1.4187425650225682 
3.2700000000024763, -1.4204881131033447 
3.2800000000024974, -1.4220558448213816 
3.2900000000025185, -1.4233686657854965 
3.3000000000025396, -1.4243640014835743 
3.3100000000025607, -1.4249904491972318 
3.3200000000025818, -1.4252068203598585 
3.330000000002603, -1.4249800391513459 
3.340000000002624, -1.424282481433336 
3.350000000002645, -1.423089494668923 
3.360000000002666, -1.4213771207249033 
3.3700000000026873, -1.4191202144523631 
3.3800000000027084, -1.4162917646446838 
3.3900000000027295, -1.4128646549118415 
3.4000000000027506, -1.4088179080629633 
3.4100000000027717, -1.4041522684110652 
3.420000000002793, -1.3989250377653666 
3.430000000002814, -1.393313849773071 
3.440000000002835, -1.3876934947135118 
3.450000000002856, -1.382647369302856 
3.460000000002877, -1.3787991012915475 
3.4700000000028983, -1.376485823250112 
3.4800000000029194, -1.3755489299435952 
3.4900000000029405, -1.3754716450474356 
3.5000000000029616, -1.3756975051204834 
3.5100000000029827, -1.3758225926760939 
3.520000000003004, -1.3755912067604783 
3.530000000003025, -1.3747962997031202 
3.540000000003046, -1.3731592119835772 
3.550000000003067, -1.370186764580536 
3.5600000000030882, -1.3649529918467855 
3.5700000000031094, -1.3557154313490636 
3.5800000000031305, -1.3392462449235762 
3.5900000000031516, -1.3098178675027579 
3.6000000000031727, -1.2582416762347848 
3.6100000000031938, -1.1727947652266772 
3.620000000003215, -1.0456663672586435 
3.630000000003236, -0.8848046406805161 
3.640000000003257, -0.7175869535850163 
3.650000000003278, -0.5741369526259155 
3.6600000000032993, -0.46825591242845593 
3.6700000000033204, -0.3970585921053011 
3.6800000000033415, -0.35121229683801947 
3.6900000000033626, -0.3219955977977961 
3.7000000000033837, -0.30324339976740167 
3.710000000003405, -0.29103384264809334 
3.720000000003426, -0.2829609360986961 
3.730000000003447, -0.27755582233956744 
3.740000000003468, -0.27391372467508085 
3.750000000003489, -0.27146980868945775 
3.7600000000035103, -0.269867284024144 
3.7700000000035314, -0.2688798634902305 
3.7800000000035525, -0.2683659968743718 
3.7900000000035736, -0.2682419574568226 
3.8000000000035947, -0.2684665104639764 
3.810000000003616, -0.2690331434643713 
3.820000000003637, -0.2699677395649438 
3.830000000003658, -0.2713307410350723 
3.840000000003679, -0.27322363310166 
3.8500000000037002, -0.2758001504794706 
3.8600000000037213, -0.2792829521013021 
3.8700000000037424, -0.2839862033878395 
3.8800000000037635, -0.2903422379169643 
3.8900000000037847, -0.2989231998023155 
3.9000000000038058, -0.31043103592889415 
3.910000000003827, -0.3255977065835235 
3.920000000003848, -0.3449089977184026 
3.930000000003869, -0.36811799441096876 
3.94000000000389, -0.39376899360105444 
3.9500000000039113, -0.41928500101804544 
3.9600000000039324, -0.44193812868667454 
3.9700000000039535, -0.4600430287093147 
3.9800000000039746, -0.47335478192491404 
3.9900000000039957, -0.4825938260587834 
4.000000000004016, -0.4887769757946484 
4.010000000003993, -0.49281237758853685 
4.02000000000397, -0.49537299149819236 
4.030000000003946, -0.4969105143374808 
4.040000000003923, -0.4977078280857407 
4.0500000000039, -0.497926854050556 
4.0600000000038765, -0.4976408901027257 
4.070000000003853, -0.49685209579478223 
4.08000000000383, -0.49549762293789407 
4.090000000003807, -0.49344882595434386 
4.100000000003783, -0.49051039163117005 
4.11000000000376, -0.4864316420370434 
4.120000000003737, -0.4809490540115035 
4.130000000003713, -0.4738777825598432 
4.14000000000369, -0.46524285106198776 
4.150000000003667, -0.4553841884923591 
4.1600000000036434, -0.4449360893957874 
4.17000000000362, -0.43464944779640813 
4.180000000003597, -0.42515912887877805 
4.1900000000035735, -0.41684136509220693 
4.20000000000355, -0.4098101228101834 
4.210000000003527, -0.40399747629993576 
4.220000000003504, -0.39924507458146574 
4.23000000000348, -0.39536978763984604 
4.240000000003457, -0.3921997094026871 
4.250000000003434, -0.3895896077332543 
4.26000000000341, -0.38742519574518247 
4.270000000003387, -0.3856223095313807 
4.280000000003364, -0.3841242789810769 
4.2900000000033405, -0.3828992054148486 
4.300000000003317, -0.38193813398469934 
4.310000000003294, -0.38125480763583314 
4.320000000003271, -0.38088760928453963 
4.330000000003247, -0.380904401509521 
4.340000000003224, -0.3814112946516329 
4.350000000003201, -0.3825669878944281 
4.360000000003177, -0.3846053506744874 
4.370000000003154, -0.3878705179165253 
4.380000000003131, -0.3928711578306643 
4.390000000003107, -0.4003637278562672 
4.400000000003084, -0.411477420952215 
4.410000000003061, -0.4278914646867142 
4.4200000000030375, -0.4520533451943739 
4.430000000003014, -0.4873450549199838 
4.440000000002991, -0.5378926133838984 
4.450000000002968, -0.6073617987869792 
4.460000000002944, -0.6960630428574757 
4.470000000002921, -0.7973672845512285 
4.480000000002898, -0.8976900384279085 
4.490000000002874, -0.9829878778176443 
4.500000000002851, -1.0462324698320065 
4.510000000002828, -1.0884678500460268 
4.520000000002804, -1.1147851126744457 
4.530000000002781, -1.1305308963089804 
4.540000000002758, -1.1397366299770035 
4.5500000000027345, -1.14501579451035 
4.560000000002711, -1.147937585797965 
4.570000000002688, -1.1494064295777446 
4.580000000002665, -1.1499292992979606 
4.590000000002641, -1.1497820860860128 
4.600000000002618, -1.1491131892600737 
4.610000000002595, -1.1480214176860197 
4.620000000002571, -1.1466429327185315 
4.630000000002548, -1.1452792331718462 
4.640000000002525, -1.1445747415806957 
4.6500000000025015, -1.1456714551648735 
4.660000000002478, -1.1501353132333778 
4.670000000002455, -1.1594360778079553 
4.6800000000024315, -1.1741184578839037 
4.690000000002408, -1.1933006021312556 
4.700000000002385, -1.2150067543419933 
4.710000000002362, -1.2370423284402645 
4.720000000002338, -1.2577011597231815 
4.730000000002315, -1.2759770113557758 
4.740000000002292, -1.2914364258258746 
4.750000000002268, -1.3040127692250125 
4.760000000002245, -1.3138538530390205 
4.770000000002222, -1.3212361099176095 
4.7800000000021985, -1.326512968536089 
4.790000000002175, -1.330070006181715 
4.800000000002152, -1.3322809971701473 
4.810000000002129, -1.333473621074648 
4.820000000002105, -1.3339138064142686 
4.830000000002082, -1.3338101774906996 
4.840000000002059, -1.3333336563356513 
4.850000000002035, -1.3326435404996138 
4.860000000002012, -1.331907092334602 
4.870000000001989, -1.3312963482304283 
4.880000000001965, -1.3309550785348685 
4.890000000001942, -1.3309561519529087 
4.900000000001919, -1.3312875654503058 
4.9100000000018955, -1.3318803629810811 
4.920000000001872, -1.3326491525379538 
