t, s[1].omega / s[0].omega 
0, -1.7399970145275887 
0.009999999999999995, -1.7394820459634641 
0.019999999999999934, -1.7385266886877104 
0.029999999999999874, -1.7371019072042118 
0.04000000000000012, -1.7351887056838602 
0.050000000000000405, -1.732855987657149 
0.06000000000000069, -1.7304141376814848 
0.07000000000000098, -1.7284805283643614 
0.08000000000000126, -1.7275537547804938 
0.09000000000000155, -1.7274493235524067 
0.10000000000000184, -1.7275897456830207 
0.11000000000000212, -1.7275818803334162 
0.12000000000000241, -1.7272660217668006 
0.130000000000002, -1.7265291888132854 
0.1400000000000009, -1.7251867329338455 
0.1499999999999998, -1.7230469450190822 
0.1599999999999987, -1.7205114728413076 
0.1699999999999976, -1.7198437152343058 
0.1799999999999965, -1.7241891346134484 
0.1899999999999954, -1.7326649239675274 
0.1999999999999943, -1.7410725263249216 
0.2099999999999932, -1.7470933393543533 
0.2199999999999921, -1.7507306198200834 
0.229999999999991, -1.7526759345104082 
0.2399999999999899, -1.7535385137215183 
0.2499999999999888, -1.753717527666442 
0.2599999999999877, -1.753451831158797 
0.2699999999999866, -1.752891365744335 
0.2799999999999855, -1.7521558821605996 
0.2899999999999844, -1.7513642034550734 
0.2999999999999833, -1.7506348722179563 
0.3099999999999822, -1.7500830787073536 
0.3199999999999811, -1.7497801646895845 
0.32999999999998, -1.7496667770749703 
0.3399999999999789, -1.749566529771522 
0.3499999999999778, -1.7492904890269565 
0.35999999999997667, -1.7486544583117904 
0.36999999999997557, -1.7473798017361535 
0.37999999999997447, -1.7449188852600634 
0.38999999999997337, -1.7402369057188725 
0.39999999999997227, -1.7319074425793937 
0.40999999999997117, -1.7200448328041031 
0.41999999999997006, -1.710721956239885 
0.42999999999996896, -1.7121804584471818 
0.43999999999996786, -1.7211614356410956 
0.44999999999996676, -1.729284838124833 
0.45999999999996566, -1.7340285501041095 
0.46999999999996456, -1.7363024481191185 
0.47999999999996346, -1.7372031939973678 
0.48999999999996235, -1.7373688863299652 
0.49999999999996125, -1.7371211924239858 
0.5099999999999602, -1.7366528834154054 
0.519999999999959, -1.736159235097324 
0.529999999999958, -1.7358630176382015 
0.5399999999999568, -1.7358891258254918 
0.5499999999999557, -1.736169475132185 
0.5599999999999546, -1.736541494405633 
0.5699999999999535, -1.7368597019272058 
0.5799999999999524, -1.7370096558298236 
0.5899999999999513, -1.7368932439975897 
0.5999999999999502, -1.7364068837232103 
0.6099999999999491, -1.7354060117352237 
0.619999999999948, -1.733665257375354 
0.6299999999999469, -1.7308492614850224 
0.6399999999999458, -1.726540443554097 
0.6499999999999447, -1.720485334690745 
0.6599999999999436, -1.7133342605972774 
0.6699999999999425, -1.7073785143178544 
0.6799999999999414, -1.7049186434316652 
0.6899999999999403, -1.7053378797835983 
0.6999999999999392, -1.7064914682375012 
0.7099999999999381, -1.7072706800364414 
0.719999999999937, -1.7075246096060255 
0.7299999999999359, -1.7073469209848617 
0.7399999999999348, -1.7068080868391824 
0.7499999999999337, -1.7059705286814615 
0.7599999999999326, -1.7050796457889632 
0.7699999999999315, -1.7048184422418395 
0.7799999999999304, -1.7060077218399177 
0.7899999999999293, -1.708583212263374 
0.7999999999999282, -1.711563189258359 
0.8099999999999271, -1.7141127968657355 
0.819999999999926, -1.715945130409683 
0.8299999999999249, -1.7170812858813798 
0.8399999999999238, -1.7176246532860513 
0.8499999999999227, -1.717672182352422 
0.8599999999999216, -1.7172929507704808 
0.8699999999999205, -1.7165301483368616 
0.8799999999999194, -1.7154144991366487 
0.8899999999999183, -1.7139905745322135 
0.8999999999999172, -1.7123656080085117 
0.9099999999999161, -1.7107807384490812 
0.919999999999915, -1.7095988093873828 
0.9299999999999139, -1.7090401756234037 
0.9399999999999128, -1.7089358302850806 
0.9499999999999117, -1.7089261405834417 
0.9599999999999106, -1.7087487035905344 
0.9699999999999095, -1.7082425697173893 
0.9799999999999084, -1.707212438520991 
0.9899999999999073, -1.705299063612004 
0.9999999999999062, -1.701970850042369 
1.0099999999999052, -1.6971789275849953 
1.019999999999904, -1.6935582668423028 
1.029999999999903, -1.6968446422946943 
1.039999999999902, -1.7078014043782281 
1.0499999999999008, -1.7197496515622237 
1.0599999999998997, -1.7281612643714204 
1.0699999999998986, -1.7329498225460658 
1.0799999999998975, -1.7353556768462208 
1.0899999999998964, -1.7363891501945978 
1.0999999999998953, -1.7366458532049827 
1.1099999999998942, -1.736447369623995 
1.119999999999893, -1.7359826342944686 
1.129999999999892, -1.7354033606662576 
1.1399999999998909, -1.7348554002313172 
1.1499999999998898, -1.734444046194477 
1.1599999999998887, -1.734206813740725 
1.1699999999998876, -1.7341265529727152 
1.1799999999998865, -1.7341257702268074 
1.1899999999998854, -1.7340718067562768 
1.1999999999998843, -1.7338171285154018 
1.2099999999998832, -1.7331999717701212 
1.219999999999882, -1.7319762346265803 
1.229999999999881, -1.7297022314137593 
1.2399999999998799, -1.7255892130891435 
1.2499999999998788, -1.7184713587099203 
1.2599999999998777, -1.707524681462505 
1.2699999999998766, -1.6947854832215477 
1.2799999999998755, -1.6866541830548862 
1.2899999999998744, -1.6866925134678301 
1.2999999999998733, -1.6905879842703357 
1.3099999999998722, -1.69393776659263 
1.319999999999871, -1.6958003075670132 
1.32999999999987, -1.6965799948141786 
1.3399999999998689, -1.6967073220825406 
1.3499999999998678, -1.6964298260637123 
1.3599999999998666, -1.6958994260744729 
1.3699999999998655, -1.6953122156730707 
1.3799999999998644, -1.6950093283072618 
1.3899999999998633, -1.6953294054183048 
1.3999999999998622, -1.6962588431517767 
1.4099999999998611, -1.697440123858604 
1.41999999999986, -1.698523234962628 
1.429999999999859, -1.6993255330025427 
1.4399999999998578, -1.6997789030978623 
1.4499999999998567, -1.69985842825458 
1.4599999999998556, -1.6995431316767906 
1.4699999999998545, -1.6987971573570029 
1.4799999999998534, -1.697562942633122 
1.4899999999998523, -1.6957669023190198 
1.4999999999998512, -1.693353417760368 
1.5099999999998501, -1.6903900475780156 
1.519999999999849, -1.687272931404032 
1.529999999999848, -1.6848052845735022 
1.5399999999998468, -1.683634537789062 
1.5499999999998457, -1.6835323054467757 
1.5599999999998446, -1.683776221360126 
1.5699999999998435, -1.6838869361992466 
1.5799999999998424, -1.6836966745016344 
1.5899999999998413, -1.6831290336221119 
1.5999999999998402, -1.682063685436121 
1.6099999999998391, -1.6803546992704792 
1.619999999999838, -1.6781970519531235 
1.629999999999837, -1.6770604981587316 
1.6399999999998358, -1.6796681871965693 
1.6499999999998347, -1.6865649347990428 
1.6599999999998336, -1.6946692366449134 
1.6699999999998325, -1.7012000382906092 
1.6799999999998314, -1.705510705312292 
1.6899999999998303, -1.7080224584031742 
1.6999999999998292, -1.7093002652744853 
1.709999999999828, -1.7097721436750617 
1.719999999999827, -1.709714357883375 
1.729999999999826, -1.7092994871088094 
1.7399999999998248, -1.7086504041049415 
1.7499999999998237, -1.7078807919370877 
1.7599999999998226, -1.7071072370740832 
1.7699999999998215, -1.7064436536374434 
1.7799999999998204, -1.7059898379299263 
1.7899999999998193, -1.7057738183374358 
1.7999999999998182, -1.705693018779988 
1.809999999999817, -1.7055683613657908 
1.819999999999816, -1.7052266579405646 
1.8299999999998149, -1.7044827403816132 
1.8399999999998138, -1.7030325136820657 
1.8499999999998127, -1.7002852916588906 
1.8599999999998116, -1.6951703482186855 
1.8699999999998105, -1.6862791702451698 
1.8799999999998094, -1.6736752714721128 
1.8899999999998083, -1.6627774714107981 
1.8999999999998072, -1.6614817525296963 
1.909999999999806, -1.6681483980180296 
1.919999999999805, -1.6752584417993845 
1.9299999999998039, -1.6797225913767544 
1.9399999999998028, -1.6819559571990272 
1.9499999999998017, -1.6828754844004792 
1.9599999999998006, -1.6830699327675056 
1.9699999999997995, -1.682844988914073 
1.9799999999997984, -1.682380244613816 
1.9899999999997973, -1.6818635856197346 
1.9999999999997962, -1.6815519856110974 
2.0099999999998173, -1.6816556772987876 
2.0199999999998384, -1.6821495343895478 
2.0299999999998595, -1.6828173556067765 
2.0399999999998806, -1.6834446509642373 
2.0499999999999017, -1.6838935647557172 
2.059999999999923, -1.6840798662945295 
2.069999999999944, -1.6839408005106766 
2.079999999999965, -1.6834091219977083 
2.089999999999986, -1.6823927481710979 
2.100000000000007, -1.6807632947139297 
2.1100000000000283, -1.6783610048611581 
2.1200000000000494, -1.6750457009185822 
2.1300000000000705, -1.670871056212269 
2.1400000000000916, -1.6664330083885446 
2.1500000000001127, -1.6629899910999089 
2.160000000000134, -1.6615016660503876 
2.170000000000155, -1.6615361043847467 
2.180000000000176, -1.66201565775219 
2.190000000000197, -1.6623146687202635 
2.2000000000002182, -1.662271577572778 
2.2100000000002393, -1.6618631131804933 
2.2200000000002604, -1.6610438051833818 
2.2300000000002815, -1.6597602709300692 
2.2400000000003026, -1.6582148965807124 
2.2500000000003237, -1.6574533595590288 
2.260000000000345, -1.6593069472749367 
2.270000000000366, -1.6642747563761708 
2.280000000000387, -1.6704388254263787 
2.290000000000408, -1.6757620894890786 
2.3000000000004293, -1.6795366213891174 
2.3100000000004504, -1.6818973111206201 
2.3200000000004715, -1.6831919557158674 
2.3300000000004926, -1.6837304956738106 
2.3400000000005137, -1.6837356941018897 
2.3500000000005348, -1.6833569626689933 
2.360000000000556, -1.6827011389882465 
2.370000000000577, -1.6818647452278932 
2.380000000000598, -1.680954679913447 
2.390000000000619, -1.6800955491317382 
2.4000000000006403, -1.6794263681159802 
2.4100000000006614, -1.6790432013085628 
2.4200000000006825, -1.6788992762368462 
2.4300000000007036, -1.6788172319538837 
2.4400000000007247, -1.6786047022935926 
2.450000000000746, -1.6780921811197753 
2.460000000000767, -1.6770575785526578 
2.470000000000788, -1.6750868358662026 
2.480000000000809, -1.671387044055119 
2.49000000000083, -1.6646935118821986 
2.5000000000008513, -1.6540761658190175 
2.5100000000008724, -1.642117205911235 
2.5200000000008935, -1.6367725455696926 
2.5300000000009146, -1.6417495083591902 
2.5400000000009357, -1.6504772825358949 
2.550000000000957, -1.657068690236997 
2.560000000000978, -1.6607311994016514 
2.570000000000999, -1.6624541163416968 
2.58000000000102, -1.663095750950235 
2.5900000000010412, -1.6631369616767677 
2.6000000000010624, -1.6628260587329333 
2.6100000000010835, -1.6623308871723412 
2.6200000000011046, -1.6618523378096892 
2.6300000000011257, -1.6616381361616503 
2.6400000000011468, -1.661833263528603 
2.650000000001168, -1.6623520590653995 
2.660000000001189, -1.6629823301765445 
2.67000000000121, -1.6635411569019287 
2.680000000001231, -1.6639100959507165 
2.6900000000012523, -1.6640110149103304 
2.7000000000012734, -1.6637800094905653 
2.7100000000012945, -1.663144479885607 
2.7200000000013156, -1.6620056276317476 
2.7300000000013367, -1.6602307264428795 
2.740000000001358, -1.657664572933209 
2.750000000001379, -1.654194344712971 
2.7600000000014, -1.6499443519215933 
2.770000000001421, -1.6456084637137998 
2.780000000001442, -1.6424369369120382 
2.7900000000014633, -1.6411911233191447 
2.8000000000014844, -1.6413038784803473 
2.8100000000015055, -1.6417590806995084 
2.8200000000015266, -1.6420134816957055 
2.8300000000015477, -1.6419311816321644 
2.840000000001569, -1.6414850174306395 
2.85000000000159, -1.640617496990312 
2.860000000001611, -1.6392608026958804 
2.870000000001632, -1.637608108852218 
2.8800000000016532, -1.6367375172387657 
2.8900000000016743, -1.6386225628996827 
2.9000000000016954, -1.6439305814752192 
2.9100000000017165, -1.6506693845162208 
2.9200000000017377, -1.6565626218592393 
2.9300000000017588, -1.6607657022264877 
2.94000000000178, -1.6634064208624495 
2.950000000001801, -1.6648744389504084 
2.960000000001822, -1.665522992064285 
2.970000000001843, -1.6656064263815722 
2.9800000000018643, -1.6652942190550797 
2.9900000000018854, -1.664705060910427 
3.0000000000019065, -1.663942271948685 
3.0100000000019276, -1.6631148391143005 
3.0200000000019487, -1.6623384081064614 
3.03000000000197, -1.661728720716977 
3.040000000001991, -1.66136681903056 
3.050000000002012, -1.6612234392679999 
3.060000000002033, -1.6611503604667202 
3.070000000002054, -1.6609689683397648 
3.0800000000020753, -1.6605164807862915 
3.0900000000020964, -1.6595920345181816 
3.1000000000021175, -1.657839200387804 
3.1100000000021386, -1.6545807065295424 
3.1200000000021597, -1.6486710253990207 
3.130000000002181, -1.6388299159054704 
3.140000000002202, -1.6257165960733093 
3.150000000002223, -1.6151325145696482 
3.160000000002244, -1.6138441939506343 
3.1700000000022652, -1.6196234878438525 
3.1800000000022863, -1.6258472906760861 
3.1900000000023074, -1.62983073960649 
3.2000000000023285, -1.6318610704536387 
3.2100000000023496, -1.6327044787130984 
3.2200000000023707, -1.6328728070624834 
3.230000000002392, -1.6326372800626203 
3.240000000002413, -1.6321586293121353 
3.250000000002434, -1.6316145890147702 
3.260000000002455, -1.6312805099759526 
3.2700000000024763, -1.6314344776633134 
3.2800000000024974, -1.6321117440755244 
3.2900000000025185, -1.6330702514949997 
3.3000000000025396, -1.6340218713232253 
3.3100000000025607, -1.634781972407243 
3.3200000000025818, -1.6352595275594133 
3.330000000002603, -1.6354100398037772 
3.340000000002624, -1.6352028738957114 
3.350000000002645, -1.6346026745808164 
3.360000000002666, -1.6335610574327428 
3.3700000000026873, -1.6320179260292054 
3.3800000000027084, -1.6299188227548398 
3.3900000000027295, -1.6272701750447478 
3.4000000000027506, -1.6242656577046195 
3.4100000000027717, -1.6214354196850738 
3.420000000002793, -1.6195046553830352 
3.430000000002814, -1.6187679502492631 
3.440000000002835, -1.6187965011761225 
3.450000000002856, -1.61898585091927 
3.460000000002877, -1.6189997749714977 
3.4700000000028983, -1.618712313676999 
3.4800000000029194, -1.6180297013580915 
3.4900000000029405, -1.6167853559958207 
3.5000000000029616, -1.614748776570488 
3.5100000000029827, -1.6119675484981222 
3.520000000003004, -1.6098250419872517 
3.530000000003025, -1.611651082788216 
3.540000000003046, -1.6193041933756447 
3.550000000003067, -1.629679192736818 
3.5600000000030882, -1.638622279467348 
3.5700000000031094, -1.6446719341848213 
3.5800000000031305, -1.6482328983189032 
3.5900000000031516, -1.650105868703788 
3.6000000000031727, -1.6509262305853933 
3.6100000000031938, -1.651099215342781 
3.620000000003215, -1.6508662203384454 
3.630000000003236, -1.6503831579777395 
3.640000000003257, -1.6497817826500767 
3.650000000003278, -1.6491925781207328 
3.6600000000032993, -1.64872094235372 
3.6700000000033204, -1.6484208415706114 
3.6800000000033415, -1.6482941521885148 
3.6900000000033626, -1.6482815880755186 
3.7000000000033837, -1.6482646378002712 
3.710000000003405, -1.6481048690247913 
3.720000000003426, -1.6476626778611219 
3.730000000003447, -1.6467593080177299 
3.740000000003468, -1.6451007239495852 
3.750000000003489, -1.6421834760656195 
3.7600000000035103, -1.6372266676193714 
3.7700000000035314, -1.629328141735487 
3.7800000000035525, -1.6183735492793005 
3.7900000000035736, -1.6069046275809833 
3.8000000000035947, -1.599917303511537 
3.810000000003616, -1.5993058713426342 
3.820000000003637, -1.6017952177078176 
3.830000000003658, -1.6041954340095674 
3.840000000003679, -1.605619258186526 
3.8500000000037002, -1.606224971606935 
3.8600000000037213, -1.6062840019821294 
3.8700000000037424, -1.6059648025693118 
3.8800000000037635, -1.6053670253879617 
3.8900000000037847, -1.6046399764775483 
3.9000000000038058, -1.6041452143870383 
3.910000000003827, -1.6044459638637132 
3.920000000003848, -1.6058446639599524 
3.930000000003869, -1.607987378392465 
3.94000000000389, -1.6102229751655244 
3.9500000000039113, -1.6121096441253477 
3.9600000000039324, -1.6134892442225048 
3.9700000000039535, -1.61435534308974 
3.9800000000039746, -1.6147514981619016 
3.9900000000039957, -1.614726791210425 
4.000000000004016, -1.6143214604724274 
4.010000000003993, -1.6135660000427248 
4.02000000000397, -1.6124891695144377 
4.030000000003946, -1.6111359605951052 
4.040000000003923, -1.6095989312759507 
4.0500000000039, -1.608061668163535 
4.0600000000038765, -1.606804556870405 
4.070000000003853, -1.6060621947842957 
4.08000000000383, -1.605805995257462 
4.090000000003807, -1.6057708556649672 
4.100000000003783, -1.6056858913775969 
4.11000000000376, -1.6053734953677488 
4.120000000003737, -1.6046793174753486 
4.130000000003713, -1.6033519407487098 
4.14000000000369, -1.6009118388757382 
4.150000000003667, -1.5965788818396305 
4.1600000000036434, -1.5897128689551068 
4.17000000000362, -1.5818282268442445 
4.180000000003597, -1.5788322384226818 
4.1900000000035735, -1.585581303854471 
4.20000000000355, -1.5976705786579315 
4.210000000003527, -1.6080199263286488 
4.220000000003504, -1.614435352351372 
4.23000000000348, -1.6178129237528887 
4.240000000003457, -1.619387402492179 
4.250000000003434, -1.619965472150256 
4.26000000000341, -1.6199824846857538 
4.270000000003387, -1.6196705855175932 
4.280000000003364, -1.6191912770541315 
4.2900000000033405, -1.6187217101693723 
4.300000000003317, -1.6184550630931143 
4.310000000003294, -1.6184968844382635 
4.320000000003271, -1.6187944974886732 
4.330000000003247, -1.6192065552553374 
4.340000000003224, -1.619593926599603 
4.350000000003201, -1.6198446264754947 
4.360000000003177, -1.6198690058351837 
4.370000000003154, -1.6195871391493513 
4.380000000003131, -1.6189089979855882 
4.390000000003107, -1.617715542258407 
4.400000000003084, -1.615849251132636 
4.410000000003061, -1.6131241156715022 
4.4200000000030375, -1.6093859983720402 
4.430000000003014, -1.604696159781584 
4.440000000002991, -1.5996757506472767 
4.450000000002968, -1.5956329237551299 
4.460000000002944, -1.5936658558164238 
4.470000000002921, -1.593491190304711 
4.480000000002898, -1.5939919445934065 
4.490000000002874, -1.594407513576394 
4.500000000002851, -1.5945018829006687 
4.510000000002828, -1.5942449130049616 
4.520000000002804, -1.5936095062173714 
4.530000000002781, -1.5925238755990474 
4.540000000002758, -1.5909779008083098 
4.5500000000027345, -1.5894299676633605 
4.560000000002711, -1.5893804570297727 
4.570000000002688, -1.5926734747057525 
4.580000000002665, -1.5990668358820108 
4.590000000002641, -1.6061608310519422 
4.600000000002618, -1.612004557277703 
4.610000000002595, -1.6160637336423869 
4.620000000002571, -1.6185758881739631 
4.630000000002548, -1.619950390815331 
4.640000000002525, -1.6205386095648102 
4.6500000000025015, -1.6205907240879291 
4.660000000002478, -1.6202742531716907 
4.670000000002455, -1.6197098286048988 
4.6800000000024315, -1.619006117364163 
4.690000000002408, -1.618275754898945 
4.700000000002385, -1.617625910628955 
4.710000000002362, -1.6171436139792512 
4.720000000002338, -1.6168740223151956 
4.730000000002315, -1.6167775020828248 
4.740000000002292, -1.6167267282075755 
4.750000000002268, -1.616567369505845 
4.760000000002245, -1.6161524448969362 
4.770000000002222, -1.6153041284972685 
4.7800000000021985, -1.6137276342665037 
4.790000000002175, -1.6108959449235036 
4.800000000002152, -1.6059411280041676 
4.810000000002129, -1.5977597766595955 
4.820000000002105, -1.5859579115413225 
4.830000000002082, -1.573076377392854 
4.840000000002059, -1.5649138132598046 
4.850000000002035, -1.5643088919828478 
4.860000000002012, -1.567698709063029 
4.870000000001989, -1.5710474488232526 
4.880000000001965, -1.5731221708318683 
4.890000000001942, -1.5741192704871894 
4.900000000001919, -1.5744213008816774 
4.9100000000018955, -1.574277801382227 
4.920000000001872, -1.5738234134169014 
4.930000000001849, -1.5731741618615867 
