t, s[1].omega / s[0].omega 
0, -1.879969815897017 
0.009999999999999995, -1.8760582696623378 
0.019999999999999934, -1.8699619590439398 
0.029999999999999874, -1.861786235350581 
0.04000000000000012, -1.854152436320069 
0.050000000000000405, -1.8510052051975365 
0.06000000000000069, -1.8518734793080676 
0.07000000000000098, -1.8534825523770444 
0.08000000000000126, -1.8544164520143902 
0.09000000000000155, -1.8546571266425782 
0.10000000000000184, -1.8543995970032952 
0.11000000000000212, -1.8537759972154064 
0.12000000000000241, -1.8529848795614599 
0.130000000000002, -1.8525482774522484 
0.1400000000000009, -1.8531481493983022 
0.1499999999999998, -1.8547607004738826 
0.1599999999999987, -1.856624119456343 
0.1699999999999976, -1.8581433118122717 
0.1799999999999965, -1.85913815163473 
0.1899999999999954, -1.8596109616663405 
0.1999999999999943, -1.8595873953702704 
0.2099999999999932, -1.8590611219548374 
0.2199999999999921, -1.8579741004370132 
0.229999999999991, -1.8562088042649882 
0.2399999999999899, -1.853605654458762 
0.2499999999999888, -1.8500879197282156 
0.2599999999999877, -1.8460606500193155 
0.2699999999999866, -1.8428201990410968 
0.2799999999999855, -1.8415675034241439 
0.2899999999999844, -1.8417916161997172 
0.2999999999999833, -1.8422672402929177 
0.3099999999999822, -1.8424214592297254 
0.3199999999999811, -1.8421545503556795 
0.32999999999998, -1.841438822606809 
0.3399999999999789, -1.8402471657919874 
0.3499999999999778, -1.8388781092222168 
0.35999999999997667, -1.8386177589413766 
0.36999999999997557, -1.841064873608699 
0.37999999999997447, -1.8455752261694272 
0.38999999999997337, -1.8499928102724716 
0.39999999999997227, -1.853213521462843 
0.40999999999997117, -1.855211058511808 
0.41999999999997006, -1.8562570280476618 
0.42999999999996896, -1.856592701742888 
0.43999999999996786, -1.8563735568186996 
0.44999999999996676, -1.855682565125985 
0.45999999999996566, -1.8545558785339966 
0.46999999999996456, -1.8530193578962688 
0.47999999999996346, -1.8511629024698664 
0.48999999999996235, -1.8492876788982522 
0.49999999999996125, -1.8479411775077288 
0.5099999999999602, -1.8474377720261017 
0.519999999999959, -1.8474491117819198 
0.529999999999958, -1.8474639202812373 
0.5399999999999568, -1.847194980998695 
0.5499999999999557, -1.8464695771551505 
0.5599999999999546, -1.845030541676214 
0.5699999999999535, -1.8425289364199 
0.5799999999999524, -1.8393028171202264 
0.5899999999999513, -1.8385351429620633 
0.5999999999999502, -1.8446586134691365 
0.6099999999999491, -1.8552085399760039 
0.619999999999948, -1.8642834622496582 
0.6299999999999469, -1.8700244781566453 
0.6399999999999458, -1.8731559889192355 
0.6499999999999447, -1.8746502991374587 
0.6599999999999436, -1.8751558510755282 
0.6699999999999425, -1.875040514792532 
0.6799999999999414, -1.874507074358172 
0.6899999999999403, -1.873684568972196 
0.6999999999999392, -1.8726863700911598 
0.7099999999999381, -1.87164639981568 
0.719999999999937, -1.870763063594031 
0.7299999999999359, -1.8702442505503138 
0.7399999999999348, -1.8700743346068573 
0.7499999999999337, -1.869988328004704 
0.7599999999999326, -1.8697097322745235 
0.7699999999999315, -1.8690068297831632 
0.7799999999999304, -1.8675256585634563 
0.7899999999999293, -1.864542457968943 
0.7999999999999282, -1.8589260988941554 
0.8099999999999271, -1.8510338518320029 
0.819999999999926, -1.8482342459616459 
0.8299999999999249, -1.8589339013311261 
0.8399999999999238, -1.8749461188436698 
0.8499999999999227, -1.886271865185361 
0.8599999999999216, -1.892237776074478 
0.8699999999999205, -1.8949827419006504 
0.8799999999999194, -1.8960532911722126 
0.8899999999999183, -1.896247138635734 
0.8999999999999172, -1.895950856371686 
0.9099999999999161, -1.8953801009734625 
0.919999999999915, -1.8947042167804327 
0.9299999999999139, -1.8940646569807114 
0.9399999999999128, -1.8935570027670494 
0.9499999999999117, -1.8932488254792943 
0.9599999999999106, -1.8931273664867085 
0.9699999999999095, -1.8930366324082422 
0.9799999999999084, -1.8927603749396933 
0.9899999999999073, -1.892069216888946 
0.9999999999999062, -1.8905941534741402 
1.0099999999999052, -1.8875434505614705 
1.019999999999904, -1.8813017514271055 
1.029999999999903, -1.8698068689228087 
1.039999999999902, -1.8556548149124574 
1.0499999999999008, -1.8524803952046196 
1.0599999999998997, -1.864414512529942 
1.0699999999998986, -1.877262602592974 
1.0799999999998975, -1.8846283540750939 
1.0899999999998964, -1.8879861283642427 
1.0999999999998953, -1.8892926579654414 
1.1099999999998942, -1.8895944548386552 
1.119999999999893, -1.8893732626679216 
1.129999999999892, -1.8888857031051445 
1.1399999999998909, -1.8883468478643988 
1.1499999999998898, -1.887946247965355 
1.1599999999998887, -1.8877516799768568 
1.1699999999998876, -1.8877183394341812 
1.1799999999998865, -1.8877661280555418 
1.1899999999998854, -1.887771745092848 
1.1999999999998843, -1.8875736399019587 
1.2099999999998832, -1.8869835293620514 
1.219999999999882, -1.8857061825354968 
1.229999999999881, -1.88315014736059 
1.2399999999998799, -1.8781220328200081 
1.2499999999998788, -1.8686225043293625 
1.2599999999998777, -1.8533805998403363 
1.2699999999998766, -1.8380424438361778 
1.2799999999998755, -1.834459493983641 
1.2899999999998744, -1.8407911903942662 
1.2999999999998733, -1.8470590306133243 
1.3099999999998722, -1.8504556760618573 
1.319999999999871, -1.851882745059599 
1.32999999999987, -1.8522698607845238 
1.3399999999998689, -1.8521009818443521 
1.3499999999998678, -1.8516317287043491 
1.3599999999998666, -1.851103213737424 
1.3699999999998655, -1.8508164660397406 
1.3799999999998644, -1.850943899917398 
1.3899999999998633, -1.8513616008816858 
1.3999999999998622, -1.8518330479230904 
1.4099999999998611, -1.8521882243144259 
1.41999999999986, -1.8523102645843683 
1.429999999999859, -1.852092049879341 
1.4399999999998578, -1.851396107632643 
1.4499999999998567, -1.8499923841507815 
1.4599999999998556, -1.8474756915194035 
1.4699999999998545, -1.843185412886187 
1.4799999999998534, -1.83628942753786 
1.4899999999998523, -1.826666268263488 
1.4999999999998512, -1.8171189084046322 
1.5099999999998501, -1.8126906479203673 
1.519999999999849, -1.8135546967049063 
1.529999999999848, -1.8156799315676264 
1.5399999999998468, -1.817044360152499 
1.5499999999998457, -1.8175584036879655 
1.5599999999998446, -1.8174897885900372 
1.5699999999998435, -1.8170186315328756 
1.5799999999998424, -1.8163009435909232 
1.5899999999998413, -1.8156895338075856 
1.5999999999998402, -1.815798418284949 
1.6099999999998391, -1.8169275941014493 
1.619999999999838, -1.8186035524046218 
1.629999999999837, -1.820175307657665 
1.6399999999998358, -1.8213288010275241 
1.6499999999998347, -1.821999237537706 
1.6599999999998336, -1.822194665387719 
1.6699999999998325, -1.8219161526638679 
1.6799999999998314, -1.8211284783826673 
1.6899999999998303, -1.8197474620531247 
1.6999999999998292, -1.8176402160924727 
1.709999999999828, -1.814670688860259 
1.719999999999827, -1.8109001132359883 
1.729999999999826, -1.8070311301925521 
1.7399999999998248, -1.804449169079589 
1.7499999999998237, -1.803795201600441 
1.7599999999998226, -1.804166221948003 
1.7699999999998215, -1.804547696612044 
1.7799999999998204, -1.804573636644712 
1.7899999999998193, -1.80418269175691 
1.7999999999998182, -1.8033246146120923 
1.809999999999817, -1.801966127525657 
1.819999999999816, -1.8005118467855188 
1.8299999999998149, -1.8005164147030601 
1.8399999999998138, -1.803667423532136 
1.8499999999998127, -1.8089905250736813 
1.8599999999998116, -1.8140525445427245 
1.8699999999998105, -1.817707118589686 
1.8799999999998094, -1.8199770075559616 
1.8899999999998083, -1.8211927460327206 
1.8999999999998072, -1.8216442671041668 
1.909999999999806, -1.821524936586631 
1.919999999999805, -1.8209494641806068 
1.9299999999998039, -1.8199845399764936 
1.9399999999998028, -1.8186849254303321 
1.9499999999998017, -1.8171458919447794 
1.9599999999998006, -1.8155952057193137 
1.9699999999997995, -1.8144271643977448 
1.9799999999997984, -1.8139073812004636 
1.9899999999997973, -1.8138383685299853 
1.9999999999997962, -1.8138091277983939 
2.0099999999998173, -1.8135364600031778 
2.0199999999998384, -1.8128247929296968 
2.0299999999998595, -1.8113762851585022 
2.0399999999998806, -1.8086587050874503 
2.0499999999999017, -1.804267066794921 
2.059999999999923, -1.8001700557290643 
2.069999999999944, -1.8029518996963685 
2.079999999999965, -1.814936794696574 
2.089999999999986, -1.8282482049291442 
2.100000000000007, -1.8373740187889762 
2.1100000000000283, -1.842425012603504 
2.1200000000000494, -1.8449057353349712 
2.1300000000000705, -1.8459341093419201 
2.1400000000000916, -1.8461387992431024 
2.1500000000001127, -1.8458502378161339 
2.160000000000134, -1.8452586728283413 
2.170000000000155, -1.8445106479669195 
2.180000000000176, -1.8437394519167996 
2.190000000000197, -1.843064303112985 
2.2000000000002182, -1.8426005854194756 
2.2100000000002393, -1.8423909185849905 
2.2200000000002604, -1.842305657231104 
2.2300000000002815, -1.842119901052768 
2.2400000000003026, -1.8416155329458328 
2.2500000000003237, -1.8405117880076411 
2.260000000000345, -1.8382497302583165 
2.270000000000366, -1.83365540967593 
2.280000000000387, -1.8248299423245122 
2.290000000000408, -1.8116132213902205 
2.3000000000004293, -1.8029549504359192 
2.3100000000004504, -1.8101651640457834 
2.3200000000004715, -1.8248491011910979 
2.3300000000004926, -1.8354484526895036 
2.3400000000005137, -1.840867235130918 
2.3500000000005348, -1.843244404139119 
2.360000000000556, -1.8441009562778834 
2.370000000000577, -1.8441873219492741 
2.380000000000598, -1.843859587601805 
2.390000000000619, -1.8433384699193578 
2.4000000000006403, -1.8428326539508924 
2.4100000000006614, -1.8425063167399447 
2.4200000000006825, -1.8423896324039024 
2.4300000000007036, -1.8424185494694654 
2.4400000000007247, -1.84250037369928 
2.450000000000746, -1.8425058981177596 
2.460000000000767, -1.8422807170900335 
2.470000000000788, -1.8416437818450386 
2.480000000000809, -1.840305957407964 
2.49000000000083, -1.8377072947626918 
2.5000000000008513, -1.832778639806375 
2.5100000000008724, -1.8238217361660696 
2.5200000000008935, -1.809702334133635 
2.5300000000009146, -1.7944688440601788 
2.5400000000009357, -1.7880990181596097 
2.550000000000957, -1.7915962820726787 
2.560000000000978, -1.7967987702015633 
2.570000000000999, -1.799997340806928 
2.58000000000102, -1.8014380953128017 
2.5900000000010412, -1.801868691852503 
2.6000000000010624, -1.801734093245166 
2.6100000000010835, -1.8012701817817196 
2.6200000000011046, -1.8006980699221522 
2.6300000000011257, -1.8003533729639059 
2.6400000000011468, -1.8005386739848652 
2.650000000001168, -1.80120071330277 
2.660000000001189, -1.8020138712912055 
2.67000000000121, -1.8027082761039466 
2.680000000001231, -1.8031456272937756 
2.6900000000012523, -1.8032485781335308 
2.7000000000012734, -1.8029460004775468 
2.7100000000012945, -1.8021342197921135 
2.7200000000013156, -1.8006412600833055 
2.7300000000013367, -1.7981966270882848 
2.740000000001358, -1.7944342452988908 
2.750000000001379, -1.7890604037393103 
2.7600000000014, -1.7824995428967167 
2.770000000001421, -1.7767941055117045 
2.780000000001442, -1.774333689131558 
2.7900000000014633, -1.774669341276254 
2.8000000000014844, -1.7756847660636788 
2.8100000000015055, -1.7763098663585044 
2.8200000000015266, -1.776413859728518 
2.8300000000015477, -1.7760727660857696 
2.840000000001569, -1.7753329497484167 
2.85000000000159, -1.7743042782734428 
2.860000000001611, -1.7735083975388843 
2.870000000001632, -1.7740406436408214 
2.8800000000016532, -1.7764741531417443 
2.8900000000016743, -1.7798592340281458 
2.9000000000016954, -1.7829325305283317 
2.9100000000017165, -1.7851724089356367 
2.9200000000017377, -1.7865773439160706 
2.9300000000017588, -1.7872851241214907 
2.94000000000178, -1.787421205579659 
2.950000000001801, -1.7870665250126905 
2.960000000001822, -1.7862598348349508 
2.970000000001843, -1.7850116449228584 
2.9800000000018643, -1.783333764485474 
2.9900000000018854, -1.7813104655023302 
3.0000000000019065, -1.7792390256191495 
3.0100000000019276, -1.7776752080889437 
3.0200000000019487, -1.7770021917161831 
3.03000000000197, -1.7769651230705155 
3.040000000001991, -1.7770343944594038 
3.050000000002012, -1.7768801680130597 
3.060000000002033, -1.7763356545274729 
3.070000000002054, -1.7751979069204147 
3.0800000000020753, -1.7731193014364268 
3.0900000000020964, -1.7698720636939744 
3.1000000000021175, -1.766847488654275 
3.1100000000021386, -1.7687569382813912 
3.1200000000021597, -1.778215470601157 
3.130000000002181, -1.7899956055444008 
3.140000000002202, -1.7989498817485032 
3.150000000002223, -1.8043535320431068 
3.160000000002244, -1.8072325980737696 
3.1700000000022652, -1.8085704367884738 
3.1800000000022863, -1.8089901210364634 
3.1900000000023074, -1.8088432561992587 
3.2000000000023285, -1.808330426101838 
3.2100000000023496, -1.807591753427214 
3.2200000000023707, -1.8067550861449775 
3.230000000002392, -1.8059457393949034 
3.240000000002413, -1.8052979048385047 
3.250000000002434, -1.804924267062572 
3.260000000002455, -1.804789101833321 
3.2700000000024763, -1.804692001325808 
3.2800000000024974, -1.804406441295305 
3.2900000000025185, -1.8037136595673229 
3.3000000000025396, -1.8022696816439754 
3.3100000000025607, -1.7993559145829863 
3.3200000000025818, -1.7935603579832538 
3.330000000002603, -1.7831237902613843 
3.340000000002624, -1.7699488267168868 
3.350000000002645, -1.7654700635776277 
3.360000000002666, -1.7761821511279556 
3.3700000000026873, -1.7904034423048258 
3.3800000000027084, -1.7996451052171474 
3.3900000000027295, -1.8042400433567718 
3.4000000000027506, -1.8062306209086725 
3.4100000000027717, -1.8069119609360258 
3.420000000002793, -1.806915891063261 
3.430000000002814, -1.806551509087096 
3.440000000002835, -1.8060285785899304 
3.450000000002856, -1.805557553279801 
3.460000000002877, -1.8052973937056596 
3.4700000000028983, -1.8052611958550848 
3.4800000000029194, -1.8053638966248464 
3.4900000000029405, -1.8054994151369907 
3.5000000000029616, -1.805541485473561 
3.5100000000029827, -1.8053486536755283 
3.520000000003004, -1.804758324321184 
3.530000000003025, -1.8035210492545322 
3.540000000003046, -1.8011796061863579 
3.550000000003067, -1.7969059539614236 
3.5600000000030882, -1.7894136667655864 
3.5700000000031094, -1.7776129164773067 
3.5800000000031305, -1.7634701477049486 
3.5900000000031516, -1.7543012175565003 
3.6000000000031727, -1.754164379402993 
3.6100000000031938, -1.7578766846698073 
3.620000000003215, -1.760838754656628 
3.630000000003236, -1.7623429371137285 
3.640000000003257, -1.762860839488292 
3.650000000003278, -1.7627899484271172 
3.6600000000032993, -1.7623469994644303 
3.6700000000033204, -1.7617143410713703 
3.6800000000033415, -1.7612208117047345 
3.6900000000033626, -1.7613248538583832 
3.7000000000033837, -1.7621865861417032 
3.710000000003405, -1.7634488676426687 
3.720000000003426, -1.7646561027308703 
3.730000000003447, -1.765564262737507 
3.740000000003468, -1.7660906154156983 
3.750000000003489, -1.7662072740143795 
3.7600000000035103, -1.7658857910471089 
3.7700000000035314, -1.7650703069722469 
3.7800000000035525, -1.7636629777126014 
3.7900000000035736, -1.7615213191050756 
3.8000000000035947, -1.7584926623213213 
3.810000000003616, -1.7545737778926231 
3.820000000003637, -1.7503056152653476 
3.830000000003658, -1.7470091265606258 
3.840000000003679, -1.7457185213861266 
3.8500000000037002, -1.7458881106793531 
3.8600000000037213, -1.7463629284123674 
3.8700000000037424, -1.7465658876986905 
3.8800000000037635, -1.7463743744705034 
3.8900000000037847, -1.7457524009763201 
3.9000000000038058, -1.7446270554371395 
3.910000000003827, -1.743046888180507 
3.920000000003848, -1.741803687857707 
3.930000000003869, -1.7428961568682495 
3.94000000000389, -1.7474902304521198 
3.9500000000039113, -1.753720556846742 
3.9600000000039324, -1.7591593421229337 
3.9700000000039535, -1.7629633940658802 
3.9800000000039746, -1.7652996803209497 
3.9900000000039957, -1.7665476186752804 
4.000000000004016, -1.7670215901206976 
4.010000000003993, -1.766934412697053 
4.02000000000397, -1.7664202870323227 
4.030000000003946, -1.7655687844716632 
4.040000000003923, -1.764460219934175 
4.0500000000039, -1.7632014120392678 
4.0600000000038765, -1.7619739169624828 
4.070000000003853, -1.7610458971404537 
4.08000000000383, -1.7605934940462593 
4.090000000003807, -1.7604850576637983 
4.100000000003783, -1.7604122280650123 
4.11000000000376, -1.7601230827437306 
4.120000000003737, -1.7594122179917833 
4.130000000003713, -1.7579567521642272 
4.14000000000369, -1.7551069049382573 
4.150000000003667, -1.7498065766175472 
4.1600000000036434, -1.7417778341454138 
4.17000000000362, -1.735939938942595 
4.180000000003597, -1.7419604681064924 
4.1900000000035735, -1.757839925858897 
4.20000000000355, -1.7721662098158888 
4.210000000003527, -1.78077508315506 
4.220000000003504, -1.7851040091010577 
4.23000000000348, -1.787044377356544 
4.240000000003457, -1.787735555033598 
4.250000000003434, -1.7877538970285893 
4.26000000000341, -1.7873926955102628 
4.270000000003387, -1.7868441509778503 
4.280000000003364, -1.7862847706233893 
4.2900000000033405, -1.7858535288949848 
4.300000000003317, -1.7856007080880851 
4.310000000003294, -1.7855111570897038 
4.320000000003271, -1.785521354564067 
4.330000000003247, -1.7855031445838219 
4.340000000003224, -1.785294864284436 
4.350000000003201, -1.7847177710624085 
4.360000000003177, -1.78350564856509 
4.370000000003154, -1.7811540685724665 
4.380000000003131, -1.7766943027361126 
4.390000000003107, -1.768514651429833 
4.400000000003084, -1.7550903101365845 
4.410000000003061, -1.7387073793567596 
4.4200000000030375, -1.7286968357620212 
4.430000000003014, -1.7300605301139502 
4.440000000002991, -1.735787326349199 
4.450000000002968, -1.7400687592668969 
4.460000000002944, -1.7422594707149464 
4.470000000002921, -1.7431266377295738 
4.480000000002898, -1.7432562356609114 
4.490000000002874, -1.7429533113379638 
4.500000000002851, -1.7424087524886223 
4.510000000002828, -1.7418729294737205 
4.520000000002804, -1.7417111394152887 
4.530000000002781, -1.7421530122884028 
4.540000000002758, -1.7430314617373892 
4.5500000000027345, -1.7439891507447256 
4.560000000002711, -1.7447743842563281 
4.570000000002688, -1.7452678751102106 
4.580000000002665, -1.7454093613097932 
4.590000000002641, -1.745147660985237 
4.600000000002618, -1.744410190968845 
4.610000000002595, -1.7430817373569767 
4.620000000002571, -1.740992816297587 
4.630000000002548, -1.737934267318734 
4.640000000002525, -1.733769653869431 
4.6500000000025015, -1.7287975056370701 
4.660000000002478, -1.724254621546026 
4.670000000002455, -1.7217728827008982 
4.6800000000024315, -1.7214822713693867 
4.690000000002408, -1.7220625669026604 
4.700000000002385, -1.7225247791046676 
4.710000000002362, -1.722592752458895 
4.720000000002338, -1.7222467252104903 
4.730000000002315, -1.7214604153232973 
4.740000000002292, -1.7202026465889149 
4.750000000002268, -1.7187529174319542 
4.760000000002245, -1.7183396211977513 
4.770000000002222, -1.7207586491398357 
4.7800000000021985, -1.7259060086580575 
4.790000000002175, -1.7315675054552968 
4.800000000002152, -1.736094268789953 
4.810000000002129, -1.7391526561269053 
4.820000000002105, -1.7409853040604564 
4.830000000002082, -1.7419080653803267 
4.840000000002059, -1.7421670567202157 
4.850000000002035, -1.7419283201840234 
4.860000000002012, -1.7412994355550555 
4.870000000001989, -1.7403592286870917 
4.880000000001965, -1.739189510388257 
4.890000000001942, -1.737910441022797 
4.900000000001919, -1.7367258650860529 
4.9100000000018955, -1.7358992493841465 
4.920000000001872, -1.7355419514133685 
4.930000000001849, -1.735465570094781 
4.940000000001826, -1.735369061132867 
