t, s[1].omega / s[0].omega 
0, -1.2799975338135101 
0.009999999999999995, -1.2795734921652668 
0.019999999999999934, -1.278801001297875 
0.029999999999999874, -1.2776926143965404 
0.04000000000000012, -1.2762803449867404 
0.050000000000000405, -1.2746257273341088 
0.06000000000000069, -1.272827183094053 
0.07000000000000098, -1.2710331746602472 
0.08000000000000126, -1.2694617374705481 
0.09000000000000155, -1.2683575322577667 
0.10000000000000184, -1.2678245463470796 
0.11000000000000212, -1.2677034488593237 
0.12000000000000241, -1.2676833936251939 
0.130000000000002, -1.2674731837143456 
0.1400000000000009, -1.266817856331807 
0.1499999999999998, -1.265399258060918 
0.1599999999999987, -1.2627246014351639 
0.1699999999999976, -1.258075299023399 
0.1799999999999965, -1.2505882711947978 
0.1899999999999954, -1.239488015906401 
0.1999999999999943, -1.2243802410012654 
0.2099999999999932, -1.2055892982750764 
0.2199999999999921, -1.1847079265964313 
0.229999999999991, -1.1650927727943083 
0.2399999999999899, -1.1508353478522293 
0.2499999999999888, -1.143700216784306 
0.2599999999999877, -1.1418034829636285 
0.2699999999999866, -1.1421250906846476 
0.2799999999999855, -1.1428060658753123 
0.2899999999999844, -1.1431782797626735 
0.2999999999999833, -1.1430628055905538 
0.3099999999999822, -1.1423102422431237 
0.3199999999999811, -1.1405308481625627 
0.32999999999998, -1.136744329551482 
0.3399999999999789, -1.1286400749838696 
0.3499999999999778, -1.1111056671858393 
0.35999999999997667, -1.0744297710844641 
0.36999999999997557, -1.0062824084946096 
0.37999999999997447, -0.9052668024851346 
0.38999999999997337, -0.7951382533731916 
0.39999999999997227, -0.7067849986677867 
0.40999999999997117, -0.6504614987287817 
0.41999999999997006, -0.6192476113474087 
0.42999999999996896, -0.6033187382505213 
0.43999999999996786, -0.595676154771085 
0.44999999999996676, -0.5922556772731105 
0.45999999999996566, -0.5908844495813158 
0.46999999999996456, -0.5904482506612957 
0.47999999999996346, -0.5903905066902803 
0.48999999999996235, -0.5904364314894398 
0.49999999999996125, -0.5904473331217516 
0.5099999999999602, -0.5903473393969901 
0.519999999999959, -0.5900919641904184 
0.529999999999958, -0.5896631931598374 
0.5399999999999568, -0.5890792046541821 
0.5499999999999557, -0.588401217513331 
0.5599999999999546, -0.5877194275168213 
0.5699999999999535, -0.5871183326625404 
0.5799999999999524, -0.5866430439744975 
0.5899999999999513, -0.5862862535076523 
0.5999999999999502, -0.5859989112197161 
0.6099999999999491, -0.5857165237592833 
0.619999999999948, -0.585387508321843 
0.6299999999999469, -0.5849904433424888 
0.6399999999999458, -0.5845378593366476 
0.6499999999999447, -0.584076254252943 
0.6599999999999436, -0.5836944264317654 
0.6699999999999425, -0.5835484625841054 
0.6799999999999414, -0.5839095906212864 
0.6899999999999403, -0.58524257115742 
0.6999999999999392, -0.5883257439652213 
0.7099999999999381, -0.5944265092806043 
0.719999999999937, -0.605537020728427 
0.7299999999999359, -0.6246087549285199 
0.7399999999999348, -0.6554670858938807 
0.7499999999999337, -0.7014569457594159 
0.7599999999999326, -0.761527342599376 
0.7699999999999315, -0.8258390986064289 
0.7799999999999304, -0.8795770129595745 
0.7899999999999293, -0.9149039892358424 
0.7999999999999282, -0.9343788754401956 
0.8099999999999271, -0.9441144311596287 
0.819999999999926, -0.9487618534345256 
0.8299999999999249, -0.9508761346874919 
0.8399999999999238, -0.951681429696293 
0.8499999999999227, -0.9517126236538654 
0.8599999999999216, -0.9511479999697424 
0.8699999999999205, -0.9499494095068368 
0.8799999999999194, -0.9479248457602946 
0.8899999999999183, -0.9448622125795619 
0.8999999999999172, -0.9411160603134164 
0.9099999999999161, -0.9395939630839383 
0.919999999999915, -0.9503842473782105 
0.9299999999999139, -0.9956755845669342 
0.9399999999999128, -1.099151796774069 
0.9499999999999117, -1.2429396109837076 
0.9599999999999106, -1.362205286914152 
0.9699999999999095, -1.4277223069109763 
0.9799999999999084, -1.4565805983649396 
0.9899999999999073, -1.4683150942683592 
0.9999999999999062, -1.472954443119123 
1.0099999999999052, -1.4746541132683881 
1.019999999999904, -1.4750433922730017 
1.029999999999903, -1.474785200347943 
1.039999999999902, -1.4742669313948937 
1.0499999999999008, -1.4739522492009145 
1.0599999999998997, -1.4743516806312045 
1.0699999999998986, -1.4755638217196534 
1.0799999999998975, -1.4771701671235506 
1.0899999999998964, -1.4787227572477055 
1.0999999999998953, -1.479995644218854 
1.1099999999998942, -1.4808941219259248 
1.119999999999893, -1.481364947102071 
1.129999999999892, -1.481371103175366 
1.1399999999998909, -1.4808816887022092 
1.1499999999998898, -1.479863052287621 
1.1599999999998887, -1.478271934760565 
1.1699999999998876, -1.4760527338536742 
1.1799999999998865, -1.4731470134641311 
1.1899999999998854, -1.4695487868410146 
1.1999999999998843, -1.4654935004628165 
1.2099999999998832, -1.4617530330483832 
1.219999999999882, -1.4594041929327823 
1.229999999999881, -1.4586997380472675 
1.2399999999998799, -1.458813171995741 
1.2499999999998788, -1.458902011718527 
1.2599999999998777, -1.458527273695948 
1.2699999999998766, -1.4572945671913273 
1.2799999999998755, -1.45428471126053 
1.2899999999998744, -1.4469436002770977 
1.2999999999998733, -1.428212076558442 
1.3099999999998722, -1.3808771772673976 
1.319999999999871, -1.2808002100147398 
1.32999999999987, -1.1458680102174377 
1.3399999999998689, -1.055830316301202 
1.3499999999998678, -1.043008103249438 
1.3599999999998666, -1.069991866210812 
1.3699999999998655, -1.097992912147767 
1.3799999999998644, -1.1152025203602565 
1.3899999999998633, -1.123929266405682 
1.3999999999998622, -1.1280213572703575 
1.4099999999998611, -1.1298007505813081 
1.41999999999986, -1.1303701847038603 
1.429999999999859, -1.1301662741953165 
1.4399999999998578, -1.1292449194499592 
1.4499999999998567, -1.127367066427321 
1.4599999999998556, -1.1240350353492292 
1.4699999999998545, -1.118927420349567 
1.4799999999998534, -1.1142408806873159 
1.4899999999998523, -1.1212853583669096 
1.4999999999998512, -1.165191252869739 
1.5099999999998501, -1.2603663461386228 
1.519999999999849, -1.370179561986512 
1.529999999999848, -1.4473176793274194 
1.5399999999998468, -1.4872992570200962 
1.5499999999998457, -1.5053008800751009 
1.5599999999998446, -1.5129394621596894 
1.5699999999998435, -1.5160187663768518 
1.5799999999998424, -1.5170694070130564 
1.5899999999998413, -1.5171550749621057 
1.5999999999998402, -1.5167722471470022 
1.6099999999998391, -1.5162991378311887 
1.619999999999838, -1.516144529886541 
1.629999999999837, -1.516532292111805 
1.6399999999998358, -1.5173041210393743 
1.6499999999998347, -1.5181665465973375 
1.6599999999998336, -1.5189285420453147 
1.6699999999998325, -1.5194641974042278 
1.6799999999998314, -1.5196534562206998 
1.6899999999998303, -1.5193784076235815 
1.6999999999998292, -1.5185156932083734 
1.709999999999828, -1.5169225548646117 
1.719999999999827, -1.514425076883101 
1.729999999999826, -1.5108010493765966 
1.7399999999998248, -1.5057708842852422 
1.7499999999998237, -1.499096214100729 
1.7599999999998226, -1.4910582956240277 
1.7699999999998215, -1.4833705305025384 
1.7799999999998204, -1.4787324416411585 
1.7899999999998193, -1.477676838791485 
1.7999999999998182, -1.4781875477529725 
1.809999999999817, -1.4786628194800464 
1.819999999999816, -1.4785898991474022 
1.8299999999998149, -1.4777387776432156 
1.8399999999998138, -1.4755348988415895 
1.8499999999998127, -1.4703948942996683 
1.8599999999998116, -1.4588591485064946 
1.8699999999998105, -1.4387875862618158 
1.8799999999998094, -1.4350013760288927 
1.8899999999998083, -1.512523642087425 
1.8999999999998072, -1.6395018008456523 
1.909999999999806, -1.7197779259652017 
1.919999999999805, -1.7535725006750693 
1.9299999999998039, -1.7664819605333475 
1.9399999999998028, -1.7713201901122384 
1.9499999999998017, -1.77297202409735 
1.9599999999998006, -1.7732549166301772 
1.9699999999997995, -1.7729006030011787 
1.9799999999997984, -1.7723238637514482 
1.9899999999997973, -1.7718319491578447 
1.9999999999997962, -1.7715164373213421 
2.0099999999998173, -1.7713377757326547 
2.0199999999998384, -1.7713087826899214 
2.0299999999998595, -1.7713279250250695 
2.0399999999998806, -1.7710986569253924 
2.0499999999999017, -1.7702166994999873 
2.059999999999923, -1.7679616530663862 
2.069999999999944, -1.762587276124156 
2.079999999999965, -1.749579360748138 
2.089999999999986, -1.717616547165661 
2.100000000000007, -1.6448947403342855 
2.1100000000000283, -1.5305306798551148 
2.1200000000000494, -1.4569153231610144 
2.1300000000000705, -1.456920624612405 
2.1400000000000916, -1.4735440585760464 
2.1500000000001127, -1.4832037035929588 
2.160000000000134, -1.4872779270114096 
2.170000000000155, -1.4887301912540833 
2.180000000000176, -1.4889391751664776 
2.190000000000197, -1.488398516153324 
2.2000000000002182, -1.487324184758788 
2.2100000000002393, -1.4863279421838689 
2.2200000000002604, -1.487238338245269 
2.2300000000002815, -1.4920245368816047 
2.2400000000003026, -1.4996727149383398 
2.2500000000003237, -1.5073092418245446 
2.260000000000345, -1.5133910963061827 
2.270000000000366, -1.5177737034375696 
2.280000000000387, -1.5207438686856718 
2.290000000000408, -1.5225941102352927 
2.3000000000004293, -1.5235513226808328 
2.3100000000004504, -1.523792434147503 
2.3200000000004715, -1.5234619296294247 
2.3300000000004926, -1.5226846581370568 
2.3400000000005137, -1.5215808765505747 
2.3500000000005348, -1.520271919998934 
2.360000000000556, -1.518888561173753 
2.370000000000577, -1.517640598170155 
2.380000000000598, -1.5168220701700603 
2.390000000000619, -1.5165318870980817 
2.4000000000006403, -1.5164911441794116 
2.4100000000006614, -1.5162915873010052 
2.4200000000006825, -1.5155554451765523 
2.4300000000007036, -1.5137305598797999 
2.4400000000007247, -1.509591026364147 
2.450000000000746, -1.5002363573550193 
2.460000000000767, -1.4791554322325653 
2.470000000000788, -1.4339560254390689 
2.480000000000809, -1.3508377190619891 
2.49000000000083, -1.2407930727083698 
2.5000000000008513, -1.1535023153097537 
2.5100000000008724, -1.116886162643232 
2.5200000000008935, -1.1122787961076477 
2.5300000000009146, -1.116732646720669 
2.5400000000009357, -1.121007992420302 
2.550000000000957, -1.12356044186969 
2.560000000000978, -1.124776058054447 
2.570000000000999, -1.1251026560340676 
2.58000000000102, -1.124727052250737 
2.5900000000010412, -1.123539826415644 
2.6000000000010624, -1.1210206630493735 
2.6100000000010835, -1.1158954258676317 
2.6200000000011046, -1.1054754762371535 
2.6300000000011257, -1.0852022775747006 
2.6400000000011468, -1.0515849737291114 
2.650000000001168, -1.0140107341285092 
2.660000000001189, -1.004686812273398 
2.67000000000121, -1.0544468295400335 
2.680000000001231, -1.1480410671352173 
2.6900000000012523, -1.231397542485347 
2.7000000000012734, -1.278270419297227 
2.7100000000012945, -1.2990665602688596 
2.7200000000013156, -1.307591499997998 
2.7300000000013367, -1.3109966973107512 
2.740000000001358, -1.3122145277605375 
2.750000000001379, -1.3123659111694108 
2.7600000000014, -1.3118509581977764 
2.770000000001421, -1.3108402874997347 
2.780000000001442, -1.3097386050364686 
2.7900000000014633, -1.309912197345288 
2.8000000000014844, -1.3137992745402025 
2.8100000000015055, -1.3225873571749467 
2.8200000000015266, -1.3341964063656253 
2.8300000000015477, -1.3455413804055905 
2.840000000001569, -1.354976493734136 
2.85000000000159, -1.3621756517782708 
2.860000000001611, -1.3673313012566615 
2.870000000001632, -1.3707579456730925 
2.8800000000016532, -1.3727950159703948 
2.8900000000016743, -1.373780805340361 
2.9000000000016954, -1.3740182350799115 
2.9100000000017165, -1.3737538554939694 
2.9200000000017377, -1.3731965205610104 
2.9300000000017588, -1.3725521240153622 
2.94000000000178, -1.3720100539608755 
2.950000000001801, -1.371676792476619 
2.960000000001822, -1.3715653585399 
2.970000000001843, -1.3716496671288232 
2.9800000000018643, -1.3718612729253692 
2.9900000000018854, -1.372058316274006 
3.0000000000019065, -1.3720589424855525 
3.0100000000019276, -1.3716831737726685 
3.0200000000019487, -1.3707471870056018 
3.03000000000197, -1.3690462775989427 
3.040000000001991, -1.3663622420261732 
3.050000000002012, -1.3624836232687576 
3.060000000002033, -1.357213232121264 
3.070000000002054, -1.35038438472196 
3.0800000000020753, -1.3419945933369741 
3.0900000000020964, -1.3326188673685093 
3.1000000000021175, -1.3239419702925548 
3.1100000000021386, -1.3182152918252323 
3.1200000000021597, -1.3161009255926726 
3.130000000002181, -1.3161066175298177 
3.140000000002202, -1.31658573901941 
3.150000000002223, -1.3167808372960996 
3.160000000002244, -1.3164317634542337 
3.1700000000022652, -1.3152530225399224 
3.1800000000022863, -1.3124956901790203 
3.1900000000023074, -1.3061621233729854 
3.2000000000023285, -1.2910766617393001 
3.2100000000023496, -1.2549576179773074 
3.2200000000023707, -1.1764039240429343 
3.230000000002392, -1.0438301777240009 
3.240000000002413, -0.8889602243881952 
3.250000000002434, -0.7618893841266072 
3.260000000002455, -0.6838786564374114 
3.2700000000024763, -0.6460584122411134 
3.2800000000024974, -0.6308833721149907 
3.2900000000025185, -0.6259149923836496 
3.3000000000025396, -0.624905688949105 
3.3100000000025607, -0.6251924545473294 
3.3200000000025818, -0.6257490919857435 
3.330000000002603, -0.6262155930206451 
3.340000000002624, -0.6264772572060079 
3.350000000002645, -0.6264925568926392 
3.360000000002666, -0.6262246923666951 
3.3700000000026873, -0.6256179702278016 
3.3800000000027084, -0.6246028031898021 
3.3900000000027295, -0.6231309563763217 
3.4000000000027506, -0.6212324730642964 
3.4100000000027717, -0.6190498742736025 
3.420000000002793, -0.6167989542763322 
3.430000000002814, -0.6146761076269956 
3.440000000002835, -0.6127913473930328 
3.450000000002856, -0.6111654569051903 
3.460000000002877, -0.6097660818674924 
3.4700000000028983, -0.6085476562242262 
3.4800000000029194, -0.6074788237157965 
3.4900000000029405, -0.6065555192492259 
3.5000000000029616, -0.605804255709704 
3.5100000000029827, -0.6052810814072033 
3.520000000003004, -0.6050693360038348 
3.530000000003025, -0.6052769711684594 
3.540000000003046, -0.6060338438044833 
3.550000000003067, -0.6074906600539774 
3.5600000000030882, -0.6098224942060925 
3.5700000000031094, -0.6132393456088289 
3.5800000000031305, -0.6180025596501127 
3.5900000000031516, -0.6244366348785586 
3.6000000000031727, -0.6329054421516559 
3.6100000000031938, -0.6436856081730696 
3.620000000003215, -0.656649500481298 
3.630000000003236, -0.6708165521903348 
3.640000000003257, -0.6842824797158434 
3.650000000003278, -0.695116423033613 
3.6600000000032993, -0.7025410808961289 
3.6700000000033204, -0.7070187797003847 
3.6800000000033415, -0.709462629844542 
3.6900000000033626, -0.7106382626545437 
3.7000000000033837, -0.7110156871679446 
3.710000000003405, -0.710818070544117 
3.720000000003426, -0.7100798547449838 
3.730000000003447, -0.7086501469990799 
3.740000000003468, -0.7061069577872355 
3.750000000003489, -0.7015015895850067 
3.7600000000035103, -0.6927101769984173 
3.7700000000035314, -0.6748787684606283 
3.7800000000035525, -0.6375406959249678 
3.7900000000035736, -0.5647126634398739 
3.8000000000035947, -0.4551780471346973 
3.810000000003616, -0.3472452561537098 
3.820000000003637, -0.27543084249896077 
3.830000000003658, -0.23652081433829245 
3.840000000003679, -0.21631725694643925 
3.8500000000037002, -0.20549416653858293 
3.8600000000037213, -0.1994021763480083 
3.8700000000037424, -0.19582141687884927 
3.8800000000037635, -0.19366850485346718 
3.8900000000037847, -0.19240062895179466 
3.9000000000038058, -0.1917500604845066 
3.910000000003827, -0.19160741463796524 
3.920000000003848, -0.19197748626096567 
3.930000000003869, -0.19298060411199797 
3.94000000000389, -0.19490001194012335 
3.9500000000039113, -0.1983034569684226 
3.9600000000039324, -0.20431593245989044 
3.9700000000039535, -0.2152195461333789 
3.9800000000039746, -0.23569422929358136 
3.9900000000039957, -0.27465785801839604 
4.000000000004016, -0.3438174960899445 
4.010000000003993, -0.44059745749841883 
4.02000000000397, -0.5308425076284596 
4.030000000003946, -0.5870313844369743 
4.040000000003923, -0.614825118230224 
4.0500000000039, -0.6278735885636644 
4.0600000000038765, -0.6342117095060544 
4.070000000003853, -0.637430113965098 
4.08000000000383, -0.6390789157036708 
4.090000000003807, -0.6398468262998839 
4.100000000003783, -0.6400349356651899 
4.11000000000376, -0.6397388836352861 
4.120000000003737, -0.6389098651179721 
4.130000000003713, -0.6373622022502962 
4.14000000000369, -0.6347750151737749 
4.150000000003667, -0.6307645418211018 
4.1600000000036434, -0.6251173247459276 
4.17000000000362, -0.6181101051722474 
4.180000000003597, -0.6105498741673294 
4.1900000000035735, -0.6033523125452049 
4.20000000000355, -0.5970938371157419 
4.210000000003527, -0.5919347633669733 
4.220000000003504, -0.5877886650584029 
4.23000000000348, -0.5844915633476765 
4.240000000003457, -0.5818904290533525 
4.250000000003434, -0.5798713370103088 
4.26000000000341, -0.57835887853542 
4.270000000003387, -0.577305879341653 
4.280000000003364, -0.576682379056778 
4.2900000000033405, -0.5764675901809796 
4.300000000003317, -0.576646161004465 
4.310000000003294, -0.5772089460136055 
4.320000000003271, -0.5781578511049295 
4.330000000003247, -0.5795138064795737 
4.340000000003224, -0.5813260798739973 
4.350000000003201, -0.5836791360485913 
4.360000000003177, -0.5866889708670356 
4.370000000003154, -0.5904736408819558 
4.380000000003131, -0.5950764125360419 
4.390000000003107, -0.6003367391827776 
4.400000000003084, -0.6057855599452979 
4.410000000003061, -0.6107390214712843 
4.4200000000030375, -0.6146315470321896 
4.430000000003014, -0.6172855671653985 
4.440000000002991, -0.6188595376752163 
4.450000000002968, -0.6196237328171541 
4.460000000002944, -0.6197994657464917 
4.470000000002921, -0.6195038829359282 
4.480000000002898, -0.6187391056443381 
4.490000000002874, -0.6173698279652833 
4.500000000002851, -0.615043798648321 
4.510000000002828, -0.6109730319156707 
4.520000000002804, -0.6033569085371279 
4.530000000002781, -0.5879075812784607 
4.540000000002758, -0.5549176320422213 
4.5500000000027345, -0.4890912564748538 
4.560000000002711, -0.3897260012785941 
4.570000000002688, -0.29354029954967475 
4.580000000002665, -0.23082104955339428 
4.590000000002641, -0.19715630991435604 
4.600000000002618, -0.17966762883882115 
4.610000000002595, -0.17023993933577786 
4.620000000002571, -0.16488226174752943 
4.630000000002548, -0.16169649720567106 
4.640000000002525, -0.15975812539401035 
4.6500000000025015, -0.15860785954205847 
4.660000000002478, -0.15802787733373827 
4.670000000002455, -0.15794718008502928 
4.6800000000024315, -0.1584138377273285 
4.690000000002408, -0.1596174500063641 
4.700000000002385, -0.16197770313671675 
4.710000000002362, -0.16636273212237548 
4.720000000002338, -0.17460869071742277 
4.730000000002315, -0.19076591598664389 
4.740000000002292, -0.22388943727995658 
4.750000000002268, -0.2918988148050434 
4.760000000002245, -0.4132442457016412 
4.770000000002222, -0.5631782401471056 
4.7800000000021985, -0.6780105461071749 
4.790000000002175, -0.7405687205498868 
4.800000000002152, -0.770636347085571 
4.810000000002129, -0.7850442463704034 
4.820000000002105, -0.7921575322055708 
4.830000000002082, -0.7957473284037829 
4.840000000002059, -0.797531437335281 
4.850000000002035, -0.7983039166362211 
4.860000000002012, -0.7984105958380813 
4.870000000001989, -0.7979379692486052 
4.880000000001965, -0.7967554724885431 
4.890000000001942, -0.794447678066647 
4.900000000001919, -0.7901268978482513 
4.9100000000018955, -0.7821573146990911 
4.920000000001872, -0.7681211302145204 
4.930000000001849, -0.745937769593125 
