t, s[1].omega / s[0].omega 
0, -1.0599529007587012 
0.009999999999999995, -1.0548993379212857 
0.019999999999999934, -1.049373376341412 
0.029999999999999874, -1.0437678181410401 
0.04000000000000012, -1.0385404843722719 
0.050000000000000405, -1.0341310749108525 
0.06000000000000069, -1.0308449664981734 
0.07000000000000098, -1.0287495521977805 
0.08000000000000126, -1.027662232900682 
0.09000000000000155, -1.0272542870696069 
0.10000000000000184, -1.0271941584334283 
0.11000000000000212, -1.0272352985322533 
0.12000000000000241, -1.0272255916914816 
0.130000000000002, -1.0270734136446396 
0.1400000000000009, -1.0267064707385292 
0.1499999999999998, -1.0260380992869331 
0.1599999999999987, -1.0249428201449136 
0.1699999999999976, -1.0232434846271914 
0.1799999999999965, -1.0207203241662204 
0.1899999999999954, -1.017157213567085 
0.1999999999999943, -1.0124274953039571 
0.2099999999999932, -1.0065876136029008 
0.2199999999999921, -0.9999235712545108 
0.229999999999991, -0.9929195252452766 
0.2399999999999899, -0.9861651380870329 
0.2499999999999888, -0.9802337644443309 
0.2599999999999877, -0.9755528992433422 
0.2699999999999866, -0.9722972134645065 
0.2799999999999855, -0.9703575072286297 
0.2899999999999844, -0.9694176053819126 
0.2999999999999833, -0.9690968678781704 
0.3099999999999822, -0.9690706858937188 
0.3199999999999811, -0.9691177707424072 
0.32999999999998, -0.9691064363570501 
0.3399999999999789, -0.9689569224883888 
0.3499999999999778, -0.9686050095933249 
0.35999999999997667, -0.9679749084580946 
0.36999999999997557, -0.9669621710501618 
0.37999999999997447, -0.965429424518009 
0.38999999999997337, -0.9632228342037281 
0.39999999999997227, -0.9602159833966223 
0.40999999999997117, -0.9563715809101476 
0.41999999999997006, -0.9517882830523583 
0.42999999999996896, -0.9466999683813022 
0.43999999999996786, -0.9414287886899041 
0.44999999999996676, -0.9363233500323551 
0.45999999999996566, -0.9317067371473788 
0.46999999999996456, -0.9278351580574782 
0.47999999999996346, -0.9248604187826924 
0.48999999999996235, -0.9228026861335975 
0.49999999999996125, -0.9215526476483064 
0.5099999999999602, -0.9209127661889553 
0.519999999999959, -0.9206605062348178 
0.529999999999958, -0.9206013003358364 
0.5399999999999568, -0.9205913305122595 
0.5499999999999557, -0.9205329743161389 
0.5599999999999546, -0.9203572417691956 
0.5699999999999535, -0.9200056729013715 
0.5799999999999524, -0.9194185592348079 
0.5899999999999513, -0.9185330891642683 
0.5999999999999502, -0.9172932178230673 
0.6099999999999491, -0.9156687687854722 
0.619999999999948, -0.9136738710062948 
0.6299999999999469, -0.9113716571519961 
0.6399999999999458, -0.9088609113923727 
0.6499999999999447, -0.9062543634507397 
0.6599999999999436, -0.9036622044331386 
0.6699999999999425, -0.9011859213760969 
0.6799999999999414, -0.8989180715023195 
0.6899999999999403, -0.8969408673841777 
0.6999999999999392, -0.8953193404742557 
0.7099999999999381, -0.8940898735508004 
0.719999999999937, -0.8932495664090615 
0.7299999999999359, -0.8927536858270771 
0.7399999999999348, -0.8925250068592698 
0.7499999999999337, -0.8924715867082993 
0.7599999999999326, -0.8925044317927838 
0.7699999999999315, -0.8925480761039164 
0.7799999999999304, -0.8925429850276421 
0.7899999999999293, -0.892443442428697 
0.7999999999999282, -0.8922155208044085 
0.8099999999999271, -0.8918376387066363 
0.819999999999926, -0.8913028506089578 
0.8299999999999249, -0.8906195389146848 
0.8399999999999238, -0.8898078940646721 
0.8499999999999227, -0.8888933600176259 
0.8599999999999216, -0.8879012178130911 
0.8699999999999205, -0.8868554279568605 
0.8799999999999194, -0.8857813342038394 
0.8899999999999183, -0.8847095507977085 
0.8999999999999172, -0.8836784590922783 
0.9099999999999161, -0.882733800900237 
0.919999999999915, -0.8819247319938437 
0.9299999999999139, -0.8812966357610181 
0.9399999999999128, -0.8808823660778771 
0.9499999999999117, -0.8806947891779634 
0.9599999999999106, -0.8807235067162621 
0.9699999999999095, -0.8809371611775332 
0.9799999999999084, -0.8812904394820082 
0.9899999999999073, -0.8817330423620339 
0.9999999999999062, -0.8822175478861196 
1.0099999999999052, -0.8827042687853469 
1.019999999999904, -0.8831627218011651 
1.029999999999903, -0.8835701642838085 
1.039999999999902, -0.8839080616053281 
1.0499999999999008, -0.8841581781710698 
1.0599999999998997, -0.8843009051153858 
1.0699999999998986, -0.8843177434737879 
1.0799999999998975, -0.8841969592514847 
1.0899999999998964, -0.8839388028075998 
1.0999999999998953, -0.8835574157610806 
1.1099999999998942, -0.8830799347032228 
1.119999999999893, -0.8825455452687798 
1.129999999999892, -0.8820063002117969 
1.1399999999998909, -0.8815286702604128 
1.1499999999998898, -0.8811923698203848 
1.1599999999998887, -0.8810828863501928 
1.1699999999998876, -0.8812773226074551 
1.1799999999998865, -0.8818281935789545 
1.1899999999998854, -0.8827525059237067 
1.1999999999998843, -0.8840307295838894 
1.2099999999998832, -0.885614266203187 
1.219999999999882, -0.8874357463853217 
1.229999999999881, -0.889416458465117 
1.2399999999998799, -0.8914683886474162 
1.2499999999998788, -0.8934928371436393 
1.2599999999998777, -0.8953816511408134 
1.2699999999998766, -0.8970278205270485 
1.2799999999998755, -0.8983460316767328 
1.2899999999998744, -0.8992930974947756 
1.2999999999998733, -0.8998742948225376 
1.3099999999998722, -0.9001316683005667 
1.319999999999871, -0.9001239678313878 
1.32999999999987, -0.8999109997481591 
1.3399999999998689, -0.8995488268993089 
1.3499999999998678, -0.8990959748909448 
1.3599999999998666, -0.8986283884959363 
1.3699999999998655, -0.8982594624508561 
1.3799999999998644, -0.8981574887357124 
1.3899999999998633, -0.8985469745344737 
1.3999999999998622, -0.8996797346885946 
1.4099999999998611, -0.9017749817386725 
1.41999999999986, -0.9049499899500445 
1.429999999999859, -0.909172695622552 
1.4399999999998578, -0.9142522986054449 
1.4499999999998567, -0.9198613302667354 
1.4599999999998556, -0.925578283811082 
1.4699999999998545, -0.9309522981117622 
1.4799999999998534, -0.9355929549172 
1.4899999999998523, -0.9392612862368848 
1.4999999999998512, -0.9419114793425812 
1.5099999999998501, -0.9436555635494637 
1.519999999999849, -0.9446811445732278 
1.529999999999848, -0.9451764987508307 
1.5399999999998468, -0.9452914286803482 
1.5499999999998457, -0.9451300715080239 
1.5599999999998446, -0.9447616488874735 
1.5699999999998435, -0.9442407952025743 
1.5799999999998424, -0.9436375351646893 
1.5899999999998413, -0.9430811474764267 
1.5999999999998402, -0.942816719440066 
1.6099999999998391, -0.9432523819235417 
1.619999999999838, -0.944944984193709 
1.629999999999837, -0.9484684483586682 
1.6399999999998358, -0.954175325154089 
1.6499999999998347, -0.961966847937774 
1.6599999999998336, -0.9712184388794416 
1.6699999999998325, -0.9809222577722588 
1.6799999999998314, -0.9899907802793495 
1.6899999999998303, -0.9975890581157568 
1.6999999999998292, -1.003339859183246 
1.709999999999828, -1.007309859242902 
1.719999999999827, -1.0098297728357457 
1.729999999999826, -1.0112930509053941 
1.7399999999998248, -1.0120332471513127 
1.7499999999998237, -1.012286693878297 
1.7599999999998226, -1.0122028240005847 
1.7699999999998215, -1.0118704629487905 
1.7799999999998204, -1.0113482018532371 
1.7899999999998193, -1.0107017469779829 
1.7999999999998182, -1.0100575205687974 
1.809999999999817, -1.0096748547361825 
1.819999999999816, -1.0100079183546753 
1.8299999999998149, -1.011679679507091 
1.8399999999998138, -1.0152892942480525 
1.8499999999998127, -1.0210991206146347 
1.8599999999998116, -1.0288095891184217 
1.8699999999998105, -1.0376030634933928 
1.8799999999998094, -1.0464244795699205 
1.8899999999998083, -1.0543222664659 
1.8999999999998072, -1.060694708278402 
1.909999999999806, -1.065366449379687 
1.919999999999805, -1.0685000694081528 
1.9299999999998039, -1.070424013900769 
1.9399999999998028, -1.0714800764138086 
1.9499999999998017, -1.0719428766162653 
1.9599999999998006, -1.0720028056105315 
1.9699999999997995, -1.0717823378944464 
1.9799999999997984, -1.071365028349205 
1.9899999999997973, -1.070831696916995 
1.9999999999997962, -1.0703053957147137 
2.0099999999998173, -1.0699986081045885 
2.0199999999998384, -1.0702304240266565 
2.0299999999998595, -1.07136244700148 
2.0399999999998806, -1.0736464058803556 
2.0499999999999017, -1.0770791259169723 
2.059999999999923, -1.0813851666890106 
2.069999999999944, -1.0861291711010366 
2.079999999999965, -1.0908561906367793 
2.089999999999986, -1.0951842936548162 
2.100000000000007, -1.0988466561267254 
2.1100000000000283, -1.1017063781683383 
2.1200000000000494, -1.103751920509215 
2.1300000000000705, -1.1050689288841917 
2.1400000000000916, -1.105794054604353 
2.1500000000001127, -1.1060701285277301 
2.160000000000134, -1.1060196035597187 
2.170000000000155, -1.1057400195119749 
2.180000000000176, -1.1053163430022581 
2.190000000000197, -1.1048428456758501 
2.2000000000002182, -1.1044441731862125 
2.2100000000002393, -1.104277924026973 
2.2200000000002604, -1.1045012788620698 
2.2300000000002815, -1.105210168873546 
2.2400000000003026, -1.1063947347942678 
2.2500000000003237, -1.1079477018305306 
2.260000000000345, -1.1097128757613528 
2.270000000000366, -1.1115337872168263 
2.280000000000387, -1.113279703353056 
2.290000000000408, -1.114851170106856 
2.3000000000004293, -1.1161763365306174 
2.3100000000004504, -1.117207150164227 
2.3200000000004715, -1.1179190288831562 
2.3300000000004926, -1.1183121563582576 
2.3400000000005137, -1.1184100971538768 
2.3500000000005348, -1.1182540691717364 
2.360000000000556, -1.1178961311199782 
2.370000000000577, -1.117396215355955 
2.380000000000598, -1.11682447665559 
2.390000000000619, -1.1162643955541147 
2.4000000000006403, -1.1158079676042532 
2.4100000000006614, -1.115537845043099 
2.4200000000006825, -1.115503462260132 
2.4300000000007036, -1.1157067194077108 
2.4400000000007247, -1.1161054430871586 
2.450000000000746, -1.1166291643160033 
2.460000000000767, -1.1171976049047678 
2.470000000000788, -1.1177356821646964 
2.480000000000809, -1.1181822300972843 
2.49000000000083, -1.1184924814611108 
2.5000000000008513, -1.1186366276873911 
2.5100000000008724, -1.1185970539397343 
2.5200000000008935, -1.118365879870465 
2.5300000000009146, -1.1179437143924251 
2.5400000000009357, -1.1173400211373883 
2.550000000000957, -1.1165748209314672 
2.560000000000978, -1.115681069065102 
2.570000000000999, -1.1147068971249017 
2.58000000000102, -1.1137160989544388 
2.5900000000010412, -1.1127841623095702 
2.6000000000010624, -1.1119879398901193 
2.6100000000010835, -1.1113900929523217 
2.6200000000011046, -1.1110222702748647 
2.6300000000011257, -1.1108731131294851 
2.6400000000011468, -1.110888619098006 
2.650000000001168, -1.110987510324406 
2.660000000001189, -1.1110829113473126 
2.67000000000121, -1.1110973367739383 
2.680000000001231, -1.1109664858325972 
2.6900000000012523, -1.1106371702601237 
2.7000000000012734, -1.110066492672765 
2.7100000000012945, -1.1092249567564134 
2.7200000000013156, -1.1081011213051761 
2.7300000000013367, -1.1067038979070898 
2.740000000001358, -1.105061508259549 
2.750000000001379, -1.1032199111779748 
2.7600000000014, -1.1012438886159515 
2.770000000001421, -1.099220777728429 
2.780000000001442, -1.0972627847449883 
2.7900000000014633, -1.0955007602168325 
2.8000000000014844, -1.0940619225868127 
2.8100000000015055, -1.0930312759070882 
2.8200000000015266, -1.0924142560856263 
2.8300000000015477, -1.0921301077956729 
2.840000000001569, -1.0920459456346125 
2.85000000000159, -1.092024881912875 
2.860000000001611, -1.0919543361490236 
2.870000000001632, -1.09174608835446 
2.8800000000016532, -1.0913210243221683 
2.8900000000016743, -1.090593795982413 
2.9000000000016954, -1.089467207652712 
2.9100000000017165, -1.087841621105833 
2.9200000000017377, -1.0856390467091577 
2.9300000000017588, -1.0828327408705296 
2.94000000000178, -1.079467896805736 
2.950000000001801, -1.075666003688199 
2.960000000001822, -1.0716183953480574 
2.970000000001843, -1.0675766755942289 
2.9800000000018643, -1.0638349042933288 
2.9900000000018854, -1.0606856130854427 
3.0000000000019065, -1.0583413028849686 
3.0100000000019276, -1.0568532261373917 
3.0200000000019487, -1.056091515080214 
3.03000000000197, -1.0558140775062888 
3.040000000001991, -1.0557713169644334 
3.050000000002012, -1.0557725915099845 
3.060000000002033, -1.055693283384286 
3.070000000002054, -1.0554476109658606 
3.0800000000020753, -1.0549548865260372 
3.0900000000020964, -1.0541117218175626 
3.1000000000021175, -1.0527745720074482 
3.1100000000021386, -1.05075930271531 
3.1200000000021597, -1.047869116677349 
3.130000000002181, -1.0439564982644005 
3.140000000002202, -1.0390020981452204 
3.150000000002223, -1.0331712862477687 
3.160000000002244, -1.0268175869524396 
3.1700000000022652, -1.0204343878682143 
3.1800000000022863, -1.0145704831082698 
3.1900000000023074, -1.009715280120756 
3.2000000000023285, -1.006168130779769 
3.2100000000023496, -1.0039480881378398 
3.2200000000023707, -1.00281425878399 
3.230000000002392, -1.002395567529167 
3.240000000002413, -1.002339210616523 
3.250000000002434, -1.0023910135992515 
3.260000000002455, -1.0023974023077287 
3.2700000000024763, -1.0022682182489233 
3.2800000000024974, -1.0019351833002081 
3.2900000000025185, -1.0013190493670323 
3.3000000000025396, -1.0003064097083763 
3.3100000000025607, -0.9987377028479623 
3.3200000000025818, -0.9964152157186369 
3.330000000002603, -0.9931444933122254 
3.340000000002624, -0.9888109329552123 
3.350000000002645, -0.9834622520917101 
3.360000000002666, -0.9773463720074289 
3.3700000000026873, -0.970878571727938 
3.3800000000027084, -0.9645592280727255 
3.3900000000027295, -0.9588780853152535 
3.4000000000027506, -0.9542218723797639 
3.4100000000027717, -0.9507945974659251 
3.420000000002793, -0.9485771761048023 
3.430000000002814, -0.947357664651066 
3.440000000002835, -0.9468257118955072 
3.450000000002856, -0.9466782125341119 
3.460000000002877, -0.9466829323866545 
3.4700000000028983, -0.9466882473543183 
3.4800000000029194, -0.9466004110592294 
3.4900000000029405, -0.9463529650097339 
3.5000000000029616, -0.9458812508351014 
3.5100000000029827, -0.945106101689667 
3.520000000003004, -0.9439292474354192 
3.530000000003025, -0.9422448713778271 
3.540000000003046, -0.9399698412179103 
3.550000000003067, -0.9370838597066244 
3.5600000000030882, -0.9336568673569239 
3.5700000000031094, -0.9298438944915516 
3.5800000000031305, -0.9258516335926068 
3.5900000000031516, -0.921900101215541 
3.6000000000031727, -0.9181965173351463 
3.6100000000031938, -0.9149201499506739 
3.620000000003215, -0.9122078861898606 
3.630000000003236, -0.9101355643565323 
3.640000000003257, -0.9087017722747648 
3.650000000003278, -0.9078275462567038 
3.6600000000032993, -0.9073789405511924 
3.6700000000033204, -0.907203713903788 
3.6800000000033415, -0.9071638374831433 
3.6900000000033626, -0.9071511541739594 
3.7000000000033837, -0.9070863529283255 
3.710000000003405, -0.9069093605058735 
3.720000000003426, -0.9065696538392147 
3.730000000003447, -0.9060220646469483 
3.740000000003468, -0.9052303268397784 
3.750000000003489, -0.9041765831379523 
3.7600000000035103, -0.9028704742193513 
3.7700000000035314, -0.9013501700991012 
3.7800000000035525, -0.8996733262064455 
3.7900000000035736, -0.8979040924848191 
3.8000000000035947, -0.8961043196052021 
3.810000000003616, -0.8943318922751404 
3.820000000003637, -0.8926432912963435 
3.830000000003658, -0.8910956389425653 
3.840000000003679, -0.8897449133862295 
3.8500000000037002, -0.8886395136552572 
3.8600000000037213, -0.8878108277488502 
3.8700000000037424, -0.8872644721641112 
3.8800000000037635, -0.886976580680454 
3.8900000000037847, -0.8868978101721166 
3.9000000000038058, -0.8869638397187563 
3.910000000003827, -0.8871076965545124 
3.920000000003848, -0.8872691176004773 
3.930000000003869, -0.8873991422284769 
3.94000000000389, -0.8874612641227623 
3.9500000000039113, -0.8874313421138238 
3.9600000000039324, -0.8872971170873714 
3.9700000000039535, -0.8870564956235494 
3.9800000000039746, -0.8867138293512635 
3.9900000000039957, -0.8862754174000973 
4.000000000004016, -0.8857469873724397 
4.010000000003993, -0.8851347947429142 
4.02000000000397, -0.8844492984899665 
4.030000000003946, -0.8837090097644396 
4.040000000003923, -0.8829429540166256 
4.0500000000039, -0.8821914412256309 
4.0600000000038765, -0.8815048761223492 
4.070000000003853, -0.8809396789456478 
4.08000000000383, -0.8805506728877015 
4.090000000003807, -0.880381155350972 
4.100000000003783, -0.8804539738741317 
4.11000000000376, -0.8807672200236196 
4.120000000003737, -0.881296121449622 
4.130000000003713, -0.8819998815574411 
4.14000000000369, -0.8828304040844305 
4.150000000003667, -0.8837396846301446 
4.1600000000036434, -0.8846837184624488 
4.17000000000362, -0.8856223287707149 
4.180000000003597, -0.8865159874621913 
4.1900000000035735, -0.8873224256294738 
4.20000000000355, -0.887996858256481 
4.210000000003527, -0.8884981449155551 
4.220000000003504, -0.888798647466641 
4.23000000000348, -0.888891587238138 
4.240000000003457, -0.8887912638350917 
4.250000000003434, -0.8885275635205805 
4.26000000000341, -0.8881403633088609 
4.270000000003387, -0.8876784787840057 
4.280000000003364, -0.8872040628033424 
4.2900000000033405, -0.8867996560068718 
4.300000000003317, -0.8865722020029428 
4.310000000003294, -0.8866472755601285 
4.320000000003271, -0.8871500459173431 
4.330000000003247, -0.8881776756976845 
4.340000000003224, -0.8897752697816148 
4.350000000003201, -0.8919261621421285 
4.360000000003177, -0.8945573786378358 
4.370000000003154, -0.8975519359807839 
4.380000000003131, -0.9007590060166706 
4.390000000003107, -0.9040002260737244 
4.400000000003084, -0.9070795186480541 
4.410000000003061, -0.9098067485500971 
4.4200000000030375, -0.9120355538274941 
4.430000000003014, -0.9136973616523102 
4.440000000002991, -0.9148080103378697 
4.450000000002968, -0.9154427204560143 
4.460000000002944, -0.9156985767598972 
4.470000000002921, -0.9156661510419921 
4.480000000002898, -0.9154185297754329 
4.490000000002874, -0.9150154469566842 
4.500000000002851, -0.9145186181783107 
4.510000000002828, -0.9140166140920737 
4.520000000002804, -0.9136571402595361 
4.530000000002781, -0.9136771824482443 
4.540000000002758, -0.9144085919909081 
4.5500000000027345, -0.9162313412464119 
4.560000000002711, -0.919467746188545 
4.570000000002688, -0.9242544279988761 
4.580000000002665, -0.9304540816471432 
4.590000000002641, -0.9376472724774276 
4.600000000002618, -0.9452042714864536 
4.610000000002595, -0.9524191326009698 
4.620000000002571, -0.9586804361919782 
4.630000000002548, -0.9636230929533781 
4.640000000002525, -0.9671839003298709 
4.6500000000025015, -0.9695333719196236 
4.660000000002478, -0.970944319749743 
4.670000000002455, -0.9716819229273174 
4.6800000000024315, -0.971951367210826 
4.690000000002408, -0.9718908963779948 
4.700000000002385, -0.971586612121971 
4.710000000002362, -0.9710955698540635 
4.720000000002338, -0.9704762154962913 
4.730000000002315, -0.9698326498555593 
4.740000000002292, -0.9693774350603999 
4.750000000002268, -0.9694983554420098 
4.760000000002245, -0.970775137927775 
4.770000000002222, -0.9738662789075869 
4.7800000000021985, -0.9792439806257442 
4.790000000002175, -0.9868987602930153 
4.800000000002152, -0.9962165296014989 
4.810000000002129, -1.0061305280091777 
4.820000000002105, -1.0154710774452496 
4.830000000002082, -1.0233358934090282 
4.840000000002059, -1.0293082463520133 
4.850000000002035, -1.0334408261035846 
4.860000000002012, -1.0360682539812933 
4.870000000001989, -1.0375966898825186 
4.880000000001965, -1.0383736988621755 
4.890000000001942, -1.038647125739589 
4.900000000001919, -1.0385749148356176 
4.9100000000018955, -1.0382527316633745 
4.920000000001872, -1.0377465067103213 
4.930000000001849, -1.037132154650416 
