t, s[1].omega / s[0].omega 
0, -0.9599971541274797 
0.009999999999999995, -0.9596463338179142 
0.019999999999999934, -0.9591606649872791 
0.029999999999999874, -0.9585317833592772 
0.04000000000000012, -0.9577535822207326 
0.050000000000000405, -0.9568300545745384 
0.06000000000000069, -0.9557811439155754 
0.07000000000000098, -0.9546455503840661 
0.08000000000000126, -0.953480644838578 
0.09000000000000155, -0.9523593427764514 
0.10000000000000184, -0.9513631440380601 
0.11000000000000212, -0.9505713376758725 
0.12000000000000241, -0.9500487011775833 
0.130000000000002, -0.9498356781296985 
0.1400000000000009, -0.949943885473056 
0.1499999999999998, -0.9503568260404758 
0.1599999999999987, -0.9510339271228245 
0.1699999999999976, -0.9519166338417125 
0.1799999999999965, -0.9529363111978821 
0.1899999999999954, -0.9540233246615786 
0.1999999999999943, -0.9551155521319644 
0.2099999999999932, -0.9561643301325986 
0.2199999999999921, -0.9571366338212711 
0.229999999999991, -0.9580132201655158 
0.2399999999999899, -0.9587832053697114 
0.2499999999999888, -0.9594365743751421 
0.2599999999999877, -0.9599574469960123 
0.2699999999999866, -0.9603214959630706 
0.2799999999999855, -0.9604995399047277 
0.2899999999999844, -0.9604661666163061 
0.2999999999999833, -0.960209328159397 
0.3099999999999822, -0.9597367400753405 
0.3199999999999811, -0.9590778452507305 
0.32999999999998, -0.958283203775007 
0.3399999999999789, -0.9574235079662092 
0.3499999999999778, -0.9565879811138279 
0.35999999999997667, -0.9558792305799546 
0.36999999999997557, -0.9554016134017751 
0.37999999999997447, -0.9552439799825426 
0.38999999999997337, -0.9554628262638475 
0.39999999999997227, -0.9560733755480544 
0.40999999999997117, -0.9570517056690008 
0.41999999999997006, -0.9583447892798316 
0.42999999999996896, -0.9598828706801392 
0.43999999999996786, -0.9615905593105637 
0.44999999999996676, -0.9633956720077899 
0.45999999999996566, -0.9652356446972132 
0.46999999999996456, -0.967060863959327 
0.47999999999996346, -0.968834086168116 
0.48999999999996235, -0.9705258059215323 
0.49999999999996125, -0.972106838153696 
0.5099999999999602, -0.9735410768243512 
0.519999999999959, -0.9747824918607877 
0.529999999999958, -0.9757795118669504 
0.5399999999999568, -0.9764862763286183 
0.5499999999999557, -0.9768756280574917 
0.5599999999999546, -0.9769472353678138 
0.5699999999999535, -0.9767280103805526 
0.5799999999999524, -0.9762677587201934 
0.5899999999999513, -0.9756354660356444 
0.5999999999999502, -0.9749192176701711 
0.6099999999999491, -0.9742278751646961 
0.619999999999948, -0.9736885946464445 
0.6299999999999469, -0.9734340762545122 
0.6399999999999458, -0.9735790871219263 
0.6499999999999447, -0.9741949146107067 
0.6599999999999436, -0.9752948957192711 
0.6699999999999425, -0.9768380846397509 
0.6799999999999414, -0.9787466299250287 
0.6899999999999403, -0.9809264271457284 
0.6999999999999392, -0.9832833838924436 
0.7099999999999381, -0.9857333109816369 
0.719999999999937, -0.9882063862989233 
0.7299999999999359, -0.9906470925573188 
0.7399999999999348, -0.9930100059323953 
0.7499999999999337, -0.9952523990702333 
0.7599999999999326, -0.9973262690731791 
0.7699999999999315, -0.9991740207730826 
0.7799999999999304, -1.000731881376705 
0.7899999999999293, -1.0019417189766857 
0.7999999999999282, -1.0027663181262214 
0.8099999999999271, -1.0031999205704794 
0.819999999999926, -1.0032690244929057 
0.8299999999999249, -1.0030257500562318 
0.8399999999999238, -1.0025407262228143 
0.8499999999999227, -1.0019009940872587 
0.8599999999999216, -1.0012130286873138 
0.8699999999999205, -1.0006052953319469 
0.8799999999999194, -1.0002217883395783 
0.8899999999999183, -1.000201057978146 
0.8999999999999172, -1.0006454488276781 
0.9099999999999161, -1.0015958477231686 
0.919999999999915, -1.0030264928126562 
0.9299999999999139, -1.0048608587473553 
0.9399999999999128, -1.0069968056377232 
0.9499999999999117, -1.0093283901594 
0.9599999999999106, -1.01175931036615 
0.9699999999999095, -1.0142090803799655 
0.9799999999999084, -1.0166141398791124 
0.9899999999999073, -1.0189249433323975 
0.9999999999999062, -1.021099713105286 
1.0099999999999052, -1.0230966549084408 
1.019999999999904, -1.024868074642508 
1.029999999999903, -1.0263603977397064 
1.039999999999902, -1.027522004829821 
1.0499999999999008, -1.0283161338199334 
1.0599999999998997, -1.028732098322453 
1.0699999999998986, -1.0287890163950562 
1.0799999999998975, -1.0285320614948643 
1.0899999999998964, -1.028026525372935 
1.0999999999998953, -1.027355087355642 
1.1099999999998942, -1.0266191403241256 
1.119999999999893, -1.0259393773317989 
1.129999999999892, -1.0254479430989454 
1.1399999999998909, -1.0252679017924027 
1.1499999999998898, -1.0254857889439972 
1.1599999999998887, -1.0261317313001308 
1.1699999999998876, -1.0271784727066648 
1.1799999999998865, -1.0285572026062062 
1.1899999999998854, -1.030178479665308 
1.1999999999998843, -1.031948795050007 
1.2099999999998832, -1.0337809010922578 
1.219999999999882, -1.0355999566424143 
1.229999999999881, -1.0373467688130045 
1.2399999999998799, -1.0389778241680578 
1.2499999999998788, -1.0404617586913998 
1.2599999999998777, -1.0417731363389062 
1.2699999999998766, -1.0428859315689731 
1.2799999999998755, -1.0437700342882046 
1.2899999999998744, -1.0443933637387424 
1.2999999999998733, -1.0447293569732818 
1.3099999999998722, -1.0447661982649699 
1.319999999999871, -1.044513161119477 
1.32999999999987, -1.0440021390389285 
1.3399999999998689, -1.043286255686195 
1.3499999999998678, -1.0424384724596065 
1.3599999999998666, -1.0415503855631865 
1.3699999999998655, -1.0407276459406998 
1.3799999999998644, -1.040077825383294 
1.3899999999998633, -1.0396914466005707 
1.3999999999998622, -1.0396240301308641 
1.4099999999998611, -1.039888432829248 
1.41999999999986, -1.0404594454996094 
1.429999999999859, -1.0412844562378878 
1.4399999999998578, -1.0422936087393977 
1.4499999999998567, -1.0434081589792557 
1.4599999999998556, -1.0445487519290957 
1.4699999999998545, -1.0456438076082417 
1.4799999999998534, -1.0466360670191608 
1.4899999999998523, -1.0474854863965166 
1.4999999999998512, -1.0481680844510695 
1.5099999999998501, -1.0486714357294744 
1.519999999999849, -1.0489883136670526 
1.529999999999848, -1.0491109119165465 
1.5399999999998468, -1.0490283968191985 
1.5499999999998457, -1.0487292586086037 
1.5599999999998446, -1.0482074001081223 
1.5699999999998435, -1.0474690152696562 
1.5799999999998424, -1.0465376202512295 
1.5899999999998413, -1.0454564204932433 
1.5999999999998402, -1.04428823692987 
1.6099999999998391, -1.0431124131367444 
1.619999999999838, -1.0420171889828826 
1.629999999999837, -1.0410875166219349 
1.6399999999998358, -1.0403918933720673 
1.6499999999998347, -1.039973339119216 
1.6599999999998336, -1.0398463040888828 
1.6699999999998325, -1.0399967881464414 
1.6799999999998314, -1.0403831851668623 
1.6899999999998303, -1.0409394026863166 
1.6999999999998292, -1.0415830641690706 
1.709999999999828, -1.042227880657882 
1.719999999999827, -1.0427956672919878 
1.729999999999826, -1.0432242757237689 
1.7399999999998248, -1.0434709700784652 
1.7499999999998237, -1.0435124756760308 
1.7599999999998226, -1.043342352483713 
1.7699999999998215, -1.042965723873593 
1.7799999999998204, -1.042392370474976 
1.7899999999998193, -1.0416308433613701 
1.7999999999998182, -1.0406864319699096 
1.809999999999817, -1.0395639091606477 
1.819999999999816, -1.0382734824808002 
1.8299999999998149, -1.0368371758064883 
1.8399999999998138, -1.035293309501734 
1.8499999999998127, -1.0336977196085102 
1.8599999999998116, -1.032120983967734 
1.8699999999998105, -1.0306417034469921 
1.8799999999998094, -1.0293373928824174 
1.8899999999998083, -1.0282755075025662 
1.8999999999998072, -1.0275057635652427 
1.909999999999806, -1.0270525964357493 
1.919999999999805, -1.0269073723979911 
1.9299999999998039, -1.0270241145318084 
1.9399999999998028, -1.0273241539884426 
1.9499999999998017, -1.027710178417712 
1.9599999999998006, -1.0280833989084728 
1.9699999999997995, -1.028356555385237 
1.9799999999997984, -1.0284603756890218 
1.9899999999997973, -1.0283458273439965 
1.9999999999997962, -1.027985017157968 
2.0099999999998173, -1.0273710144856698 
2.0199999999998384, -1.026514798723748 
2.0299999999998595, -1.0254384339745535 
2.0399999999998806, -1.024166599733265 
2.0499999999999017, -1.0227205177569727 
2.059999999999923, -1.0211171288241734 
2.069999999999944, -1.0193733075033427 
2.079999999999965, -1.0175124996592868 
2.089999999999986, -1.0155706682389147 
2.100000000000007, -1.0135993052289185 
2.1100000000000283, -1.0116645098340875 
2.1200000000000494, -1.0098423654454989 
2.1300000000000705, -1.0082118639292 
2.1400000000000916, -1.0068466006064565 
2.1500000000001127, -1.0058051239679433 
2.160000000000134, -1.0051192837520107 
2.170000000000155, -1.0047827084866816 
2.180000000000176, -1.0047456524190277 
2.190000000000197, -1.004921791306753 
2.2000000000002182, -1.0052053690713914 
2.2100000000002393, -1.0054902883769479 
2.2200000000002604, -1.0056833022580185 
2.2300000000002815, -1.005709676308392 
2.2400000000003026, -1.0055147516117566 
2.2500000000003237, -1.0050651014078702 
2.260000000000345, -1.0043497996503319 
2.270000000000366, -1.0033793161282918 
2.280000000000387, -1.0021797271062205 
2.290000000000408, -1.0007832988548524 
2.3000000000004293, -0.9992197519568323 
2.3100000000004504, -0.9975124434098734 
2.3200000000004715, -0.9956806343026094 
2.3300000000004926, -0.9937457745244368 
2.3400000000005137, -0.9917384027528414 
2.3500000000005348, -0.9897028087040284 
2.360000000000556, -0.9876979271768139 
2.370000000000577, -0.9857942469701192 
2.380000000000598, -0.9840676033366993 
2.390000000000619, -0.982591172802192 
2.4000000000006403, -0.9814263404824941 
2.4100000000006614, -0.9806122914655631 
2.4200000000006825, -0.9801553366508444 
2.4300000000007036, -0.9800221204297256 
2.4400000000007247, -0.980142001976961 
2.450000000000746, -0.9804197237042042 
2.460000000000767, -0.9807530182552805 
2.470000000000788, -0.9810475775844872 
2.480000000000809, -0.9812255149153065 
2.49000000000083, -0.9812285840818844 
2.5000000000008513, -0.9810193899070399 
2.5100000000008724, -0.980582099153948 
2.5200000000008935, -0.9799213567261504 
2.5300000000009146, -0.9790573258506614 
2.5400000000009357, -0.9780170538996262 
2.550000000000957, -0.9768255565479294 
2.560000000000978, -0.9755008764618754 
2.570000000000999, -0.9740551224683491 
2.58000000000102, -0.9725002290106234 
2.5900000000010412, -0.9708552773420964 
2.6000000000010624, -0.9691523453797793 
2.6100000000010835, -0.9674390502296627 
2.6200000000011046, -0.9657770707278532 
2.6300000000011257, -0.9642367956876189 
2.6400000000011468, -0.9628892152557805 
2.650000000001168, -0.9617969579708386 
2.660000000001189, -0.9610060847539503 
2.67000000000121, -0.9605391269089057 
2.680000000001231, -0.9603896644325012 
2.6900000000012523, -0.9605201848333623 
2.7000000000012734, -0.960865829232577 
2.7100000000012945, -0.9613445375892127 
2.7200000000013156, -0.9618703986180372 
2.7300000000013367, -0.9623654929747627 
2.740000000001358, -0.9627674810855966 
2.750000000001379, -0.9630331079208696 
2.7600000000014, -0.9631388681000959 
2.770000000001421, -0.9630791621086509 
2.780000000001442, -0.9628614060439032 
2.7900000000014633, -0.9624984345938716 
2.8000000000014844, -0.9620006245597855 
2.8100000000015055, -0.9613712619761944 
2.8200000000015266, -0.9606073868962901 
2.8300000000015477, -0.9597055155667898 
2.840000000001569, -0.9586693653015574 
2.85000000000159, -0.9575164599405748 
2.860000000001611, -0.9562819042648908 
2.870000000001632, -0.9550189736741354 
2.8800000000016532, -0.9537963497633312 
2.8900000000016743, -0.9526915480220135 
2.9000000000016954, -0.9517808309230305 
2.9100000000017165, -0.9511278161714383 
2.9200000000017377, -0.9507742147470322 
2.9300000000017588, -0.9507349986128802 
2.94000000000178, -0.9509978494302289 
2.950000000001801, -0.9515256140286072 
2.960000000001822, -0.9522612881886906 
2.970000000001843, -0.9531356947722976 
2.9800000000018643, -0.9540770642412846 
2.9900000000018854, -0.9550203305766755 
3.0000000000019065, -0.9559138641546768 
3.0100000000019276, -0.9567224640968315 
3.0200000000019487, -0.9574264347786717 
3.03000000000197, -0.9580170590107926 
3.040000000001991, -0.9584894866213399 
3.050000000002012, -0.958835359478118 
3.060000000002033, -0.9590384685653973 
3.070000000002054, -0.959076015368913 
3.0800000000020753, -0.9589253852124073 
3.0900000000020964, -0.958573309306731 
3.1000000000021175, -0.9580233140002513 
3.1100000000021386, -0.9572993205001772 
3.1200000000021597, -0.9564461755796285 
3.130000000002181, -0.9555288729897292 
3.140000000002202, -0.9546305743963964 
3.150000000002223, -0.9538472638816362 
3.160000000002244, -0.9532767548895684 
3.1700000000022652, -0.9530029706989381 
3.1800000000022863, -0.9530807597307595 
3.1900000000023074, -0.9535276399522448 
3.2000000000023285, -0.9543250379862595 
3.2100000000023496, -0.9554263825656939 
3.2200000000023707, -0.9567675343539209 
3.230000000002392, -0.9582767475475947 
3.240000000002413, -0.9598833946883546 
3.250000000002434, -0.9615250307619102 
3.260000000002455, -0.9631518065035127 
3.2700000000024763, -0.9647271384499055 
3.2800000000024974, -0.9662242397098549 
3.2900000000025185, -0.9676193667780449 
3.3000000000025396, -0.9688842122323993 
3.3100000000025607, -0.9699811714888771 
3.3200000000025818, -0.9708649856984387 
3.330000000002603, -0.9714915032016347 
3.340000000002624, -0.9718299555469381 
3.350000000002645, -0.9718726076177383 
3.360000000002666, -0.971637775423261 
3.3700000000026873, -0.9711673868744559 
3.3800000000027084, -0.9705236309266677 
3.3900000000027295, -0.9697880988318391 
3.4000000000027506, -0.9690626185830873 
3.4100000000027717, -0.9684669369430913 
3.420000000002793, -0.968127622585285 
3.430000000002814, -0.9681570927424776 
3.440000000002835, -0.9686297560083333 
3.450000000002856, -0.9695670044508751 
3.460000000002877, -0.9709383320561149 
3.4700000000028983, -0.9726757481875455 
3.4800000000029194, -0.974692491149157 
3.4900000000029405, -0.9768987421751656 
3.5000000000029616, -0.9792119862423144 
3.5100000000029827, -0.9815625208731241 
3.520000000003004, -0.9838947077772794 
3.530000000003025, -0.9861640527087109 
3.540000000003046, -0.9883306570210618 
3.550000000003067, -0.9903511172264394 
3.5600000000030882, -0.9921727258918148 
3.5700000000031094, -0.9937343374332313 
3.5800000000031305, -0.9949758531760416 
3.5900000000031516, -0.9958530595053157 
3.6000000000031727, -0.9963501779183712 
3.6100000000031938, -0.9964837082315305 
3.620000000003215, -0.9962977239563586 
3.630000000003236, -0.9958566268300214 
3.640000000003257, -0.9952416049662165 
3.650000000003278, -0.9945524997977684 
3.6600000000032993, -0.9939110285978677 
3.6700000000033204, -0.9934574250073296 
3.6800000000033415, -0.9933336766332059 
3.6900000000033626, -0.993654795395838 
3.7000000000033837, -0.9944807606824082 
3.710000000003405, -0.9958049117948095 
3.720000000003426, -0.9975641893694758 
3.730000000003447, -0.9996625160980128 
3.740000000003468, -1.0019941403034496 
3.750000000003489, -1.0044595626162731 
3.7600000000035103, -1.0069736543774028 
3.7700000000035314, -1.0094680488583723 
3.7800000000035525, -1.0118891565082753 
3.7900000000035736, -1.0141925025103196 
3.8000000000035947, -1.0163348737873648 
3.810000000003616, -1.0182674334100117 
3.820000000003637, -1.019934015458163 
3.830000000003658, -1.0212774748527396 
3.840000000003679, -1.0222525928815207 
3.8500000000037002, -1.0228391342035155 
3.8600000000037213, -1.023047990332233 
3.8700000000037424, -1.0229185654426132 
3.8800000000037635, -1.022512001737045 
3.8900000000037847, -1.0219066640289576 
3.9000000000038058, -1.0211986640454247 
3.910000000003827, -1.020504314349678 
3.920000000003848, -1.019956947078276 
3.930000000003869, -1.0196911490964073 
3.94000000000389, -1.0198155295350682 
3.9500000000039113, -1.0203863660207786 
3.9600000000039324, -1.0213974127280494 
3.9700000000039535, -1.0227903806634682 
3.9800000000039746, -1.0244767911194168 
3.9900000000039957, -1.0263586732363499 
4.000000000004016, -1.0283423191446008 
4.010000000003993, -1.0303459390046503 
4.02000000000397, -1.0323033889736724 
4.030000000003946, -1.0341646033069616 
4.040000000003923, -1.0358925199892874 
4.0500000000039, -1.0374570434536095 
4.0600000000038765, -1.0388281388972165 
4.070000000003853, -1.0399714108774887 
4.08000000000383, -1.0408492736736377 
4.090000000003807, -1.041428262546453 
4.100000000003783, -1.0416891887402375 
4.11000000000376, -1.041634842670544 
4.120000000003737, -1.0412921345823567 
4.130000000003713, -1.0407100986585414 
4.14000000000369, -1.0399575860352681 
4.150000000003667, -1.0391225148476502 
4.1600000000036434, -1.0383101196847817 
4.17000000000362, -1.037634830209477 
4.180000000003597, -1.0372029528615025 
4.1900000000035735, -1.037091070531965 
4.20000000000355, -1.037331126837218 
4.210000000003527, -1.0379097169513916 
4.220000000003504, -1.0387788033147753 
4.23000000000348, -1.0398692137175172 
4.240000000003457, -1.0411015247338686 
4.250000000003434, -1.0423945954485776 
4.26000000000341, -1.0436733508474345 
4.270000000003387, -1.0448753713620498 
4.280000000003364, -1.0459545757678177 
4.2900000000033405, -1.0468809737530522 
4.300000000003317, -1.0476367586301976 
4.310000000003294, -1.0482101203843173 
4.320000000003271, -1.0485891802483152 
4.330000000003247, -1.0487589365220935 
4.340000000003224, -1.0487030941332858 
4.350000000003201, -1.048410120982406 
4.360000000003177, -1.0478805429668965 
4.370000000003154, -1.047132377022185 
4.380000000003131, -1.046203639824819 
4.390000000003107, -1.0451526306126169 
4.400000000003084, -1.044056169614966 
4.410000000003061, -1.0430041280964804 
4.4200000000030375, -1.0420885254529064 
4.430000000003014, -1.0413888845649797 
4.440000000002991, -1.0409595291814218 
4.450000000002968, -1.0408238311281444 
4.460000000002944, -1.0409749216879167 
4.470000000002921, -1.0413786984735385 
4.480000000002898, -1.041977284595096 
4.490000000002874, -1.0426949925524627 
4.500000000002851, -1.043448301611031 
4.510000000002828, -1.0441575258859632 
4.520000000002804, -1.0447561698202632 
4.530000000002781, -1.045195920486709 
4.540000000002758, -1.0454476274429616 
4.5500000000027345, -1.0454991283842503 
4.560000000002711, -1.0453503681206349 
4.570000000002688, -1.0450067797424007 
4.580000000002665, -1.0444732752249202 
4.590000000002641, -1.0437516550855592 
4.600000000002618, -1.0428427338335897 
4.610000000002595, -1.0417520001192428 
4.620000000002571, -1.0404961264081942 
4.630000000002548, -1.0391079204881275 
4.640000000002525, -1.0376383777654274 
4.6500000000025015, -1.0361550547081346 
4.660000000002478, -1.034736267484943 
4.670000000002455, -1.033461855191834 
4.6800000000024315, -1.0324031189584477 
4.690000000002408, -1.0316146127648649 
4.700000000002385, -1.031127854199936 
4.710000000002362, -1.0309452695068693 
4.720000000002338, -1.031035210455 
4.730000000002315, -1.0313326535476797 
4.740000000002292, -1.0317488948977012 
4.750000000002268, -1.0321872705204505 
4.760000000002245, -1.03255787533596 
4.770000000002222, -1.032786619994451 
4.7800000000021985, -1.0328190113977458 
4.790000000002175, -1.0326213376742492 
4.800000000002152, -1.0321805049940476 
4.810000000002129, -1.031501513536927 
4.820000000002105, -1.030601516915982 
4.830000000002082, -1.0295018202423962 
4.840000000002059, -1.0282213954271653 
4.850000000002035, -1.0267750701557325 
4.860000000002012, -1.0251768608543939 
4.870000000001989, -1.0234463003547114 
4.880000000001965, -1.0216147033175336 
4.890000000001942, -1.0197289421625377 
4.900000000001919, -1.017851438783959 
4.9100000000018955, -1.016056225666732 
4.920000000001872, -1.0144221130115252 
4.930000000001849, -1.0130245636507793 
