t, s[1].omega / s[0].omega 
0, -0.5599977419693364 
0.009999999999999995, -0.5598030723016104 
0.019999999999999934, -0.5596577094492335 
0.029999999999999874, -0.5595297898950297 
0.04000000000000012, -0.5593802710517022 
0.050000000000000405, -0.5591763178313168 
0.06000000000000069, -0.5588995501006855 
0.07000000000000098, -0.558547335064982 
0.08000000000000126, -0.5581301992084906 
0.09000000000000155, -0.5576700349752374 
0.10000000000000184, -0.5572026427917313 
0.11000000000000212, -0.5567869795874574 
0.12000000000000241, -0.5565237608149844 
0.130000000000002, -0.556587713971272 
0.1400000000000009, -0.5572800229996371 
0.1499999999999998, -0.5591084079515083 
0.1599999999999987, -0.5628957468286704 
0.1699999999999976, -0.5698866488805957 
0.1799999999999965, -0.5817285100825975 
0.1899999999999954, -0.6000298348334353 
0.1999999999999943, -0.6251537723307636 
0.2099999999999932, -0.6546925295893742 
0.2199999999999921, -0.683640348612532 
0.229999999999991, -0.7073493522582519 
0.2399999999999899, -0.7241840843783414 
0.2499999999999888, -0.7351071012443936 
0.2599999999999877, -0.7418801026613622 
0.2699999999999866, -0.7459971083629668 
0.2799999999999855, -0.7484657052648311 
0.2899999999999844, -0.7499067803465798 
0.2999999999999833, -0.7506870957984566 
0.3099999999999822, -0.7510137206291805 
0.3199999999999811, -0.7509897652043837 
0.32999999999998, -0.7506418769940066 
0.3399999999999789, -0.7499270257263341 
0.3499999999999778, -0.7487224529867114 
0.35999999999997667, -0.7468027161297724 
0.36999999999997557, -0.7438169148563275 
0.37999999999997447, -0.7393040487515739 
0.38999999999997337, -0.7328145603616545 
0.39999999999997227, -0.7241757605165079 
0.40999999999997117, -0.7137694592552702 
0.41999999999997006, -0.7025309417427368 
0.42999999999996896, -0.6915785807114474 
0.43999999999996786, -0.6817823103305772 
0.44999999999996676, -0.6735850321248948 
0.45999999999996566, -0.6670706562645529 
0.46999999999996456, -0.6621116761920167 
0.47999999999996346, -0.6584876974695945 
0.48999999999996235, -0.6559538321925197 
0.49999999999996125, -0.6542741173779311 
0.5099999999999602, -0.6532369542422625 
0.519999999999959, -0.6526621923194181 
0.529999999999958, -0.6524035827958556 
0.5399999999999568, -0.6523477657423561 
0.5499999999999557, -0.6524106424434306 
0.5599999999999546, -0.6525324379280694 
0.5699999999999535, -0.6526730133876759 
0.5799999999999524, -0.6528086431365231 
0.5899999999999513, -0.6529304161465784 
0.5999999999999502, -0.6530428442807124 
0.6099999999999491, -0.6531600831840506 
0.619999999999948, -0.6532979340148002 
0.6299999999999469, -0.6534629585710152 
0.6399999999999458, -0.653643565304366 
0.6499999999999447, -0.6538087253967524 
0.6599999999999436, -0.6539165378503654 
0.6699999999999425, -0.653928619677991 
0.6799999999999414, -0.6538221218223428 
0.6899999999999403, -0.6535936548314286 
0.6999999999999392, -0.6532563158330624 
0.7099999999999381, -0.6528354745628845 
0.719999999999937, -0.6523684836476163 
0.7299999999999359, -0.6519110612590007 
0.7399999999999348, -0.651551680446557 
0.7499999999999337, -0.6514351029026856 
0.7599999999999326, -0.6517959704850816 
0.7699999999999315, -0.6530016759719126 
0.7799999999999304, -0.6555988927915464 
0.7899999999999293, -0.6603471444385252 
0.7999999999999282, -0.6681999988009462 
0.8099999999999271, -0.6801551994617946 
0.819999999999926, -0.6968612159263206 
0.8299999999999249, -0.7179504415094821 
0.8399999999999238, -0.7414513770248419 
0.8499999999999227, -0.7641022949755539 
0.8599999999999216, -0.7828815721997309 
0.8699999999999205, -0.7964889682467133 
0.8799999999999194, -0.8053860025597203 
0.8899999999999183, -0.8108184216757739 
0.8999999999999172, -0.8139888143118833 
0.9099999999999161, -0.8157591328598919 
0.919999999999915, -0.8166651198576733 
0.9299999999999139, -0.8170115250370333 
0.9399999999999128, -0.8169526409016494 
0.9499999999999117, -0.8165394675314588 
0.9599999999999106, -0.8157366938729973 
0.9699999999999095, -0.8144126424570676 
0.9799999999999084, -0.812299475206706 
0.9899999999999073, -0.8089155387649949 
0.9999999999999062, -0.8034455557717702 
1.0099999999999052, -0.7946147064761379 
1.019999999999904, -0.7807266807985473 
1.029999999999903, -0.7602613547347049 
1.039999999999902, -0.7333146456626813 
1.0499999999999008, -0.7029091083692194 
1.0599999999998997, -0.6740563179231656 
1.0699999999998986, -0.6507923746922313 
1.0799999999998975, -0.6343839149194507 
1.0899999999998964, -0.6239400878566462 
1.0999999999998953, -0.6178096867765726 
1.1099999999998942, -0.6144650228709393 
1.119999999999893, -0.6127841264868523 
1.129999999999892, -0.6120335401279057 
1.1399999999998909, -0.6117660461200021 
1.1499999999998898, -0.611721204834385 
1.1599999999998887, -0.611751449426313 
1.1699999999998876, -0.6117731307564421 
1.1799999999998865, -0.611736374545698 
1.1899999999998854, -0.6116081435158766 
1.1999999999998843, -0.6113648860295589 
1.2099999999998832, -0.6109926360250231 
1.219999999999882, -0.6104921508094681 
1.229999999999881, -0.6098844013073074 
1.2399999999998799, -0.6092099240245978 
1.2499999999998788, -0.6085184389215134 
1.2599999999998777, -0.6078526415433378 
1.2699999999998766, -0.6072351980417523 
1.2799999999998755, -0.6066655649126674 
1.2899999999998744, -0.6061266615919696 
1.2999999999998733, -0.6055964736902079 
1.3099999999998722, -0.6050586709166391 
1.319999999999871, -0.604508812954541 
1.32999999999987, -0.6039565369058573 
1.3399999999998689, -0.6034265223610921 
1.3499999999998678, -0.6029610428725812 
1.3599999999998666, -0.6026256848063192 
1.3699999999998655, -0.6025186898349422 
1.3799999999998644, -0.6027837545582131 
1.3899999999998633, -0.6036257580287954 
1.3999999999998622, -0.6053283331257334 
1.4099999999998611, -0.6082705982904295 
1.41999999999986, -0.612935735652419 
1.429999999999859, -0.6198926824650217 
1.4399999999998578, -0.6297104273680716 
1.4499999999998567, -0.6427413180545802 
1.4599999999998556, -0.6587398095791979 
1.4699999999998545, -0.6764753983480709 
1.4799999999998534, -0.6938079832849242 
1.4899999999998523, -0.7085585746419457 
1.4999999999998512, -0.71957698135784 
1.5099999999998501, -0.7269898830251753 
1.519999999999849, -0.7316247628277832 
1.529999999999848, -0.73437892462783 
1.5399999999998468, -0.735934193961296 
1.5499999999998457, -0.7367292566936376 
1.5599999999998446, -0.7370182277931552 
1.5699999999998435, -0.7369290871290876 
1.5799999999998424, -0.7364989544331306 
1.5899999999998413, -0.7356847938851132 
1.5999999999998402, -0.7343499148001678 
1.6099999999998391, -0.7322227084737236 
1.619999999999838, -0.7288225886286359 
1.629999999999837, -0.7233637906181658 
1.6399999999998358, -0.7147142069691058 
1.6499999999998347, -0.7016273888000277 
1.6599999999998336, -0.683512993800242 
1.6699999999998325, -0.6614696917949069 
1.6799999999998314, -0.6383742524390822 
1.6899999999998303, -0.6174186062162959 
1.6999999999998292, -0.6005218638411385 
1.709999999999828, -0.5880292339250455 
1.719999999999827, -0.5793385353790665 
1.729999999999826, -0.5735571514270084 
1.7399999999998248, -0.5698535048707815 
1.7499999999998237, -0.567570677359224 
1.7599999999998226, -0.5662290749600023 
1.7699999999998215, -0.5654936460426482 
1.7799999999998204, -0.565136953583355 
1.7899999999998193, -0.5650079059093956 
1.7999999999998182, -0.5650079023998347 
1.809999999999817, -0.5650737892794591 
1.819999999999816, -0.5651666208170258 
1.8299999999998149, -0.5652652666198286 
1.8399999999998138, -0.5653636999732169 
1.8499999999998127, -0.5654700290595829 
1.8599999999998116, -0.5656043467123801 
1.8699999999998105, -0.5657925233338142 
1.8799999999998094, -0.5660552591371026 
1.8899999999998083, -0.5663953330725449 
1.8999999999998072, -0.5667888381451733 
1.909999999999806, -0.567186364961628 
1.919999999999805, -0.5675261187322559 
1.9299999999998039, -0.5677532836724326 
1.9399999999998028, -0.5678346531736816 
1.9499999999998017, -0.567761363894008 
1.9599999999998006, -0.5675419834218883 
1.9699999999997995, -0.5671934101441 
1.9799999999997984, -0.5667354606993397 
1.9899999999997973, -0.5661915690484898 
1.9999999999997962, -0.5655967307384805 
2.0099999999998173, -0.5650151248894639 
2.0199999999998384, -0.5645726801401276 
2.0299999999998595, -0.5645125853584096 
2.0399999999998806, -0.565279581361883 
2.0499999999999017, -0.5676163709554902 
2.059999999999923, -0.572576458466416 
2.069999999999944, -0.5811933426637059 
2.079999999999965, -0.5934910318584509 
2.089999999999986, -0.6073137278294979 
2.100000000000007, -0.6189982971357426 
2.1100000000000283, -0.6264064128863966 
2.1200000000000494, -0.6303429106681345 
2.1300000000000705, -0.6326495891270849 
2.1400000000000916, -0.6344324454793966 
2.1500000000001127, -0.6359932754029332 
2.160000000000134, -0.6373201379973545 
2.170000000000155, -0.6383705970715418 
2.180000000000176, -0.6391400542203561 
2.190000000000197, -0.6396510302725699 
2.2000000000002182, -0.6399319260652118 
2.2100000000002393, -0.6400025139834351 
2.2200000000002604, -0.6398659675091747 
2.2300000000002815, -0.6395047760683411 
2.2400000000003026, -0.6388799477107786 
2.2500000000003237, -0.6379361235405435 
2.260000000000345, -0.63661763440931 
2.270000000000366, -0.6348978644216358 
2.280000000000387, -0.6328121514430609 
2.290000000000408, -0.6304700835636885 
2.3000000000004293, -0.628029069216031 
2.3100000000004504, -0.6256428277909489 
2.3200000000004715, -0.6234200728824992 
2.3300000000004926, -0.6214139351785185 
2.3400000000005137, -0.6196355723137447 
2.3500000000005348, -0.6180752056968286 
2.360000000000556, -0.6167192549776287 
2.370000000000577, -0.6155602424999433 
2.380000000000598, -0.6146006334197103 
2.390000000000619, -0.6138529535675485 
2.4000000000006403, -0.6133381048549073 
2.4100000000006614, -0.6130830887616523 
2.4200000000006825, -0.6131189134784756 
2.4300000000007036, -0.6134792898866338 
2.4400000000007247, -0.6142005765124658 
2.450000000000746, -0.6153230947463071 
2.460000000000767, -0.616893264201916 
2.470000000000788, -0.6189648784173007 
2.480000000000809, -0.6215961140805472 
2.49000000000083, -0.6248366865596147 
2.5000000000008513, -0.6286984016526833 
2.5100000000008724, -0.6331069133055998 
2.5200000000008935, -0.637850467143491 
2.5300000000009146, -0.6425707813508726 
2.5400000000009357, -0.6468451524485588 
2.550000000000957, -0.6503393441750084 
2.560000000000978, -0.6529212066923338 
2.570000000000999, -0.6546519795679884 
2.58000000000102, -0.6556927387220373 
2.5900000000010412, -0.6562132654296268 
2.6000000000010624, -0.6563441377825661 
2.6100000000010835, -0.6561634596715706 
2.6200000000011046, -0.6556972844457384 
2.6300000000011257, -0.6549190991838623 
2.6400000000011468, -0.6537399911215502 
2.650000000001168, -0.651982084011027 
2.660000000001189, -0.6493237721011982 
2.67000000000121, -0.6451985290506537 
2.680000000001231, -0.6386335973820271 
2.6900000000012523, -0.6280898843418575 
2.7000000000012734, -0.6116339349923274 
2.7100000000012945, -0.5881064391785917 
2.7200000000013156, -0.5591484971861214 
2.7300000000013367, -0.5295388276787595 
2.740000000001358, -0.5041921665707509 
2.750000000001379, -0.485280531453509 
2.7600000000014, -0.47237878511300596 
2.770000000001421, -0.4640224308491715 
2.780000000001442, -0.4587660876957195 
2.7900000000014633, -0.45552283948935973 
2.8000000000014844, -0.45355970034788323 
2.8100000000015055, -0.45240510156177854 
2.8200000000015266, -0.4517616830074124 
2.8300000000015477, -0.4514437041104736 
2.840000000001569, -0.4513362528659065 
2.85000000000159, -0.45136986699116666 
2.860000000001611, -0.45150540699117003 
2.870000000001632, -0.4517257301808419 
2.8800000000016532, -0.45203180881121663 
2.8900000000016743, -0.45244121390535597 
2.9000000000016954, -0.45298651621307506 
2.9100000000017165, -0.4537106805269045 
2.9200000000017377, -0.4546566681385003 
2.9300000000017588, -0.4558497741277126 
2.94000000000178, -0.45727464415149016 
2.950000000001801, -0.4588559518262585 
2.960000000001822, -0.46045954072901496 
2.970000000001843, -0.4619262556731563 
2.9800000000018643, -0.46312510013369473 
2.9900000000018854, -0.46399008444132034 
3.0000000000019065, -0.464518944868557 
3.0100000000019276, -0.46474528600888865 
3.0200000000019487, -0.4647080230000801 
3.03000000000197, -0.464430292750943 
3.040000000001991, -0.4639062819645254 
3.050000000002012, -0.46308868311341156 
3.060000000002033, -0.4618682937215561 
3.070000000002054, -0.46003621188702537 
3.0800000000020753, -0.45721923549238974 
3.0900000000020964, -0.45279392010125746 
3.1000000000021175, -0.4458522420567864 
3.1100000000021386, -0.4354411053208288 
3.1200000000021597, -0.42131914401297255 
3.130000000002181, -0.40480038885960123 
3.140000000002202, -0.38841893010303613 
3.150000000002223, -0.3743667118367128 
3.160000000002244, -0.36348830184408115 
3.1700000000022652, -0.35554945005893474 
3.1800000000022863, -0.3499070529141649 
3.1900000000023074, -0.3459250908420567 
3.2000000000023285, -0.3431111400805493 
3.2100000000023496, -0.3411208475018926 
3.2200000000023707, -0.33972553774807607 
3.230000000002392, -0.33877941058515343 
3.240000000002413, -0.33819547316308185 
3.250000000002434, -0.3379304757433636 
3.260000000002455, -0.3379773289423209 
3.2700000000024763, -0.3383638630104647 
3.2800000000024974, -0.3391577016183673 
3.2900000000025185, -0.34047796322400636 
3.3000000000025396, -0.34251510089288884 
3.3100000000025607, -0.3455593611398337 
3.3200000000025818, -0.3500326960278691 
3.330000000002603, -0.35649997262481525 
3.340000000002624, -0.3655896938978155 
3.350000000002645, -0.37769378060678455 
3.360000000002666, -0.3923819565284905 
3.3700000000026873, -0.4079354562793077 
3.3800000000027084, -0.4218964325893676 
3.3900000000027295, -0.43255496314589414 
3.4000000000027506, -0.4397291603944427 
3.4100000000027717, -0.4442007909952556 
3.420000000002793, -0.4468859953721516 
3.430000000002814, -0.4484655096285401 
3.440000000002835, -0.4493620206897459 
3.450000000002856, -0.4498170155578377 
3.460000000002877, -0.44996004820910407 
3.4700000000028983, -0.4498519693342217 
3.4800000000029194, -0.44950888232805764 
3.4900000000029405, -0.44891630012627937 
3.5000000000029616, -0.4480419898041673 
3.5100000000029827, -0.4468548251559604 
3.520000000003004, -0.44535243603963603 
3.530000000003025, -0.4435887349080788 
3.540000000003046, -0.44168011631509757 
3.550000000003067, -0.43977608071787666 
3.5600000000030882, -0.43800961332625 
3.5700000000031094, -0.43646077803398875 
3.5800000000031305, -0.4351507032366294 
3.5900000000031516, -0.4340575677469195 
3.6000000000031727, -0.43313858642741493 
3.6100000000031938, -0.43234820873921614 
3.620000000003215, -0.43164958558197875 
3.630000000003236, -0.43101996252221253 
3.640000000003257, -0.43045235115088626 
3.650000000003278, -0.42995642374534954 
3.6600000000032993, -0.4295613610056958 
3.6700000000033204, -0.429323051614963 
3.6800000000033415, -0.4293383558565197 
3.6900000000033626, -0.4297705136061999 
3.7000000000033837, -0.4308922266635221 
3.710000000003405, -0.4331556169950577 
3.720000000003426, -0.43729667405473 
3.730000000003447, -0.44445924598836256 
3.740000000003468, -0.4562340067699909 
3.750000000003489, -0.474286045570859 
3.7600000000035103, -0.49904815738535896 
3.7700000000035314, -0.5277763849621657 
3.7800000000035525, -0.5546754762313435 
3.7900000000035736, -0.5749321194313624 
3.8000000000035947, -0.5879080741899742 
3.810000000003616, -0.595661384918601 
3.820000000003637, -0.6003332886266863 
3.830000000003658, -0.6032594825466312 
3.840000000003679, -0.6051472385345105 
3.8500000000037002, -0.6063702029246035 
3.8600000000037213, -0.60713824529776 
3.8700000000037424, -0.6075746007471033 
3.8800000000037635, -0.6077494942800405 
3.8900000000037847, -0.6076951799802477 
3.9000000000038058, -0.6074126693797056 
3.910000000003827, -0.6068751699408741 
3.920000000003848, -0.6060328765834615 
3.930000000003869, -0.6048253643801347 
3.94000000000389, -0.6032074483375292 
3.9500000000039113, -0.6011857122115334 
3.9600000000039324, -0.5988455532018016 
3.9700000000039535, -0.5963414496225117 
3.9800000000039746, -0.5938479469846338 
3.9900000000039957, -0.5915045870996652 
4.000000000004016, -0.5893892755330303 
4.010000000003993, -0.5875245393558383 
4.02000000000397, -0.5858996790038316 
4.030000000003946, -0.5844925574159118 
4.040000000003923, -0.583284116738098 
4.0500000000039, -0.5822655209221194 
4.0600000000038765, -0.581440369829241 
4.070000000003853, -0.5808244472355444 
4.08000000000383, -0.5804446173760699 
4.090000000003807, -0.5803377258732269 
4.100000000003783, -0.5805499908690706 
4.11000000000376, -0.5811372739542227 
4.120000000003737, -0.582166530161335 
4.130000000003713, -0.5837183668174089 
4.14000000000369, -0.5858896784554062 
4.150000000003667, -0.5887933482716788 
4.1600000000036434, -0.5925485685440273 
4.17000000000362, -0.5972508319929011 
4.180000000003597, -0.6029092721257266 
4.1900000000035735, -0.6093535109463193 
4.20000000000355, -0.6161581849855702 
4.210000000003527, -0.6226860817663984 
4.220000000003504, -0.6283043235771345 
4.23000000000348, -0.63264365205202 
4.240000000003457, -0.6356851041663164 
4.250000000003434, -0.6376422886845099 
4.26000000000341, -0.638791334517187 
4.270000000003387, -0.639365880068366 
4.280000000003364, -0.6395242718879707 
4.2900000000033405, -0.6393518892109646 
4.300000000003317, -0.6388693584674883 
4.310000000003294, -0.6380324282125766 
4.320000000003271, -0.6367160267892543 
4.330000000003247, -0.6346749104714433 
4.340000000003224, -0.631472084051951 
4.350000000003201, -0.6263776899632285 
4.360000000003177, -0.6183017913630127 
4.370000000003154, -0.6059781516101582 
4.380000000003131, -0.5887221787187336 
4.390000000003107, -0.5675592543110741 
4.400000000003084, -0.5453898547665793 
4.410000000003061, -0.5254083505784277 
4.4200000000030375, -0.5094112546649089 
4.430000000003014, -0.49758805211039714 
4.440000000002991, -0.4892625303429353 
4.450000000002968, -0.4835638154922979 
4.460000000002944, -0.47973552082495036 
4.470000000002921, -0.47720817886556455 
4.480000000002898, -0.47557893938499773 
4.490000000002874, -0.47457070624187 
4.500000000002851, -0.47399555569631363 
4.510000000002828, -0.4737276052844016 
4.520000000002804, -0.47368440039479076 
4.530000000002781, -0.47381477744512585 
4.540000000002758, -0.4740914688489635 
4.5500000000027345, -0.47450714517492704 
4.560000000002711, -0.47507267526692376 
4.570000000002688, -0.47581596306941715 
4.580000000002665, -0.4767788934687972 
4.590000000002641, -0.4780091150150154 
4.600000000002618, -0.4795433597177687 
4.610000000002595, -0.481381260028915 
4.620000000002571, -0.4834559831068712 
4.630000000002548, -0.48562069303750527 
4.640000000002525, -0.48767481135186524 
4.6500000000025015, -0.4894296926763529 
4.660000000002478, -0.4907722072788136 
4.670000000002455, -0.4916816358550517 
4.6800000000024315, -0.4922000710314337 
4.690000000002408, -0.49238950859486713 
4.700000000002385, -0.49230046972810027 
4.710000000002362, -0.49195521971786693 
4.720000000002338, -0.4913375249075812 
4.730000000002315, -0.49037946302858665 
4.740000000002292, -0.48893636032457044 
4.750000000002268, -0.4867406556699211 
4.760000000002245, -0.4833297491257178 
4.770000000002222, -0.47797311948965043 
4.7800000000021985, -0.4697208356945768 
4.790000000002175, -0.4578276177461003 
4.800000000002152, -0.44260989795251077 
4.810000000002129, -0.4259252456698814 
4.820000000002105, -0.41027740254650524 
4.830000000002082, -0.39734684596210545 
4.840000000002059, -0.3875216274002424 
4.850000000002035, -0.3803893683974806 
4.860000000002012, -0.3753118959481655 
4.870000000001989, -0.37171615746269737 
4.880000000001965, -0.3691713897204994 
4.890000000001942, -0.36737835126721285 
4.900000000001919, -0.3661378593165643 
