t, s[1].omega / s[0].omega 
0, -1.5000417423406625 
0.009999999999999995, -1.5034160249897213 
0.019999999999999934, -1.5054597343900695 
0.029999999999999874, -1.5065367350207028 
0.04000000000000012, -1.5069400390878476 
0.050000000000000405, -1.5068805440956061 
0.06000000000000069, -1.5065070964605947 
0.07000000000000098, -1.5059389601032713 
0.08000000000000126, -1.5052939597150576 
0.09000000000000155, -1.504690984513896 
0.10000000000000184, -1.5042243493397804 
0.11000000000000212, -1.5039424444423248 
0.12000000000000241, -1.5038439440183673 
0.130000000000002, -1.503871071156829 
0.1400000000000009, -1.503915027244301 
0.1499999999999998, -1.5038489981405163 
0.1599999999999987, -1.5035503140865243 
0.1699999999999976, -1.5028848237337833 
0.1799999999999965, -1.5016687832843914 
0.1899999999999954, -1.4996306294858046 
0.1999999999999943, -1.4963907966578638 
0.2099999999999932, -1.491492127143932 
0.2199999999999921, -1.484558532319683 
0.229999999999991, -1.4757169012971183 
0.2399999999999899, -1.4662637649654084 
0.2499999999999888, -1.4587274640123857 
0.2599999999999877, -1.455055538924107 
0.2699999999999866, -1.4546824343024911 
0.2799999999999855, -1.4556407039764854 
0.2899999999999844, -1.4565910970124745 
0.2999999999999833, -1.4571202381653179 
0.3099999999999822, -1.4572167318690825 
0.3199999999999811, -1.4569267358926115 
0.32999999999998, -1.456242360133177 
0.3399999999999789, -1.4550991763005752 
0.3499999999999778, -1.4534870649395404 
0.35999999999997667, -1.451816378120412 
0.36999999999997557, -1.4515131508650263 
0.37999999999997447, -1.4547685733018123 
0.38999999999997337, -1.4623050678944696 
0.39999999999997227, -1.4720056392299088 
0.40999999999997117, -1.4810301251395088 
0.41999999999997006, -1.487922943053412 
0.42999999999996896, -1.4925650424789398 
0.43999999999996786, -1.4954022464054209 
0.44999999999996676, -1.4969574012450826 
0.45999999999996566, -1.4976531161579922 
0.46999999999996456, -1.4977840436468122 
0.47999999999996346, -1.4975447456009152 
0.48999999999996235, -1.4970745076325145 
0.49999999999996125, -1.49649992196874 
0.5099999999999602, -1.4959524638487445 
0.519999999999959, -1.4955440248239529 
0.529999999999958, -1.495328792851081 
0.5399999999999568, -1.4952980943464034 
0.5499999999999557, -1.4953955371720444 
0.5599999999999546, -1.4955268266223498 
0.5699999999999535, -1.4955783705943164 
0.5799999999999524, -1.4954390092246268 
0.5899999999999513, -1.4949990869126766 
0.5999999999999502, -1.4941282935623408 
0.6099999999999491, -1.4926513947010434 
0.619999999999948, -1.4903365126973562 
0.6299999999999469, -1.4869083113613848 
0.6399999999999458, -1.4821119510993128 
0.6499999999999447, -1.475887458001083 
0.6599999999999436, -1.468716857148932 
0.6699999999999425, -1.4619512029029706 
0.6799999999999414, -1.4573473313037042 
0.6899999999999403, -1.4555810103766331 
0.6999999999999392, -1.455693092835912 
0.7099999999999381, -1.4563583103564537 
0.719999999999937, -1.4568663591177078 
0.7299999999999359, -1.457026028972867 
0.7399999999999348, -1.456821130438927 
0.7499999999999337, -1.456224691418879 
0.7599999999999326, -1.4551361509275798 
0.7699999999999315, -1.4534030215764195 
0.7799999999999304, -1.4510441236926397 
0.7899999999999293, -1.4489334796409215 
0.7999999999999282, -1.4495974380022538 
0.8099999999999271, -1.4558945311606295 
0.819999999999926, -1.4672694457666113 
0.8299999999999249, -1.4797014406191347 
0.8399999999999238, -1.4898381382422206 
0.8499999999999227, -1.4967620464671572 
0.8599999999999216, -1.5009805172379296 
0.8699999999999205, -1.5033170040741761 
0.8799999999999194, -1.5044515063815984 
0.8899999999999183, -1.5048403456792006 
0.8999999999999172, -1.5047639803173225 
0.9099999999999161, -1.5043994480343676 
0.919999999999915, -1.503886882799201 
0.9299999999999139, -1.503371672680799 
0.9399999999999128, -1.5029945699658254 
0.9499999999999117, -1.5028364739729043 
0.9599999999999106, -1.5028893392241618 
0.9699999999999095, -1.5030844050071708 
0.9799999999999084, -1.5033252272104483 
0.9899999999999073, -1.5035042547053243 
0.9999999999999062, -1.5035175926383344 
1.0099999999999052, -1.5032695106491556 
1.019999999999904, -1.5026596763361038 
1.029999999999903, -1.5015652473248224 
1.039999999999902, -1.4998309618455017 
1.0499999999999008, -1.497274151005095 
1.0599999999998997, -1.493714914194262 
1.0699999999998986, -1.4890619219663863 
1.0799999999998975, -1.48350772975788 
1.0899999999998964, -1.4778092969395549 
1.0999999999998953, -1.4732707379725871 
1.1099999999998942, -1.4708880843478733 
1.119999999999893, -1.4704105314452403 
1.129999999999892, -1.4707928832811523 
1.1399999999998909, -1.4712287612716506 
1.1499999999998898, -1.4714015781488823 
1.1599999999998887, -1.4712367937626367 
1.1699999999998876, -1.4706882590738166 
1.1799999999998865, -1.469639541490436 
1.1899999999998854, -1.4678806775609359 
1.1999999999998843, -1.4652431266428172 
1.2099999999998832, -1.4622106630908016 
1.219999999999882, -1.461102731679645 
1.229999999999881, -1.4657652231882365 
1.2399999999998799, -1.4772141818515347 
1.2499999999998788, -1.4912714477931726 
1.2599999999998777, -1.5032345728291685 
1.2699999999998766, -1.511441876190617 
1.2799999999998755, -1.5163849038790294 
1.2899999999998744, -1.5190897213579793 
1.2999999999998733, -1.5204058709771284 
1.3099999999998722, -1.5208873930563338 
1.319999999999871, -1.5208621899797439 
1.32999999999987, -1.5205274185413273 
1.3399999999998689, -1.520031355372108 
1.3499999999998678, -1.5195266698367276 
1.3599999999998666, -1.5191658697225296 
1.3699999999998655, -1.5190392028213069 
1.3799999999998644, -1.5191356847699795 
1.3899999999998633, -1.5193760002595047 
1.3999999999998622, -1.5196566398719926 
1.4099999999998611, -1.5198687709338365 
1.41999999999986, -1.5199098435045524 
1.429999999999859, -1.519686483148142 
1.4399999999998578, -1.5191018103692493 
1.4499999999998567, -1.518037756505361 
1.4599999999998556, -1.5163448572282867 
1.4699999999998545, -1.5138461473970093 
1.4799999999998534, -1.5103656613827208 
1.4899999999998523, -1.5058137574049806 
1.4999999999998512, -1.5003866571209186 
1.5099999999998501, -1.4948538809611507 
1.519999999999849, -1.4905248289227733 
1.529999999999848, -1.48834716301278 
1.5399999999998468, -1.4879937837070358 
1.5499999999998457, -1.4884067371135488 
1.5599999999998446, -1.488820967155397 
1.5699999999998435, -1.4889540813040096 
1.5799999999998424, -1.4887417861244692 
1.5899999999998413, -1.4881326651595213 
1.5999999999998402, -1.4869987790553756 
1.6099999999998391, -1.4851315044333937 
1.619999999999838, -1.4824463326759143 
1.629999999999837, -1.4797431279701834 
1.6399999999998358, -1.4798073638618772 
1.6499999999998347, -1.486145076783363 
1.6599999999998336, -1.498303756357421 
1.6699999999998325, -1.511554250031863 
1.6799999999998314, -1.5220797672859356 
1.6899999999998303, -1.529031011168141 
1.6999999999998292, -1.5331222709272119 
1.709999999999828, -1.5353084380400026 
1.719999999999827, -1.5363182621170544 
1.729999999999826, -1.536614669928496 
1.7399999999998248, -1.5364722045720913 
1.7499999999998237, -1.5360644808602606 
1.7599999999998226, -1.5355359433508373 
1.7699999999998215, -1.5350380007132027 
1.7799999999998204, -1.5347037277975668 
1.7899999999998193, -1.5345900875037657 
1.7999999999998182, -1.5346680386650864 
1.809999999999817, -1.5348597833864077 
1.819999999999816, -1.5350638450242289 
1.8299999999998149, -1.5351691556181715 
1.8399999999998138, -1.5350694426056246 
1.8499999999998127, -1.534660695841225 
1.8599999999998116, -1.533820411755721 
1.8699999999998105, -1.5323850694732304 
1.8799999999998094, -1.5301389899596678 
1.8899999999998083, -1.5268258394219436 
1.8999999999998072, -1.522210962065872 
1.909999999999806, -1.5162640405232142 
1.919999999999805, -1.509530509311676 
1.9299999999998039, -1.5034380374356533 
1.9399999999998028, -1.4996557457338926 
1.9499999999998017, -1.4985301363291301 
1.9599999999998006, -1.4989002624570469 
1.9699999999997995, -1.4995507826368706 
1.9799999999997984, -1.499943531375791 
1.9899999999997973, -1.4999681869060604 
1.9999999999997962, -1.4996168938164418 
2.0099999999998173, -1.4988403272488406 
2.0199999999998384, -1.497520144264302 
2.0299999999998595, -1.4955789915675002 
2.0399999999998806, -1.4934394370152282 
2.0499999999999017, -1.4928711012050262 
2.059999999999923, -1.4967071128655545 
2.069999999999944, -1.5056766230019176 
2.079999999999965, -1.5167534248261005 
2.089999999999986, -1.5264637249124038 
2.100000000000007, -1.5334273270379266 
2.1100000000000283, -1.5378376098261521 
2.1200000000000494, -1.5403709851541585 
2.1300000000000705, -1.541656615814436 
2.1400000000000916, -1.5421446953205515 
2.1500000000001127, -1.5421241617851564 
2.160000000000134, -1.5417792120028226 
2.170000000000155, -1.5412484113602218 
2.180000000000176, -1.540666758160397 
2.190000000000197, -1.5401657826650283 
2.2000000000002182, -1.539834322210996 
2.2100000000002393, -1.5396945607580568 
2.2200000000002604, -1.5397140629926622 
2.2300000000002815, -1.5398152892163863 
2.2400000000003026, -1.5398857466215206 
2.2500000000003237, -1.53980411766347 
2.260000000000345, -1.5394515898465 
2.270000000000366, -1.5386906615573506 
2.280000000000387, -1.5373283782659932 
2.290000000000408, -1.5350840194392221 
2.3000000000004293, -1.5315791623640893 
2.3100000000004504, -1.5263890125750528 
2.3200000000004715, -1.5192533063008578 
2.3300000000004926, -1.510592348976575 
2.3400000000005137, -1.5021401370582692 
2.3500000000005348, -1.4964422416943732 
2.360000000000556, -1.49453107884386 
2.370000000000577, -1.494997650210182 
2.380000000000598, -1.4960186986632509 
2.390000000000619, -1.4967427898306471 
2.4000000000006403, -1.4970157596965195 
2.4100000000006614, -1.4968793008020038 
2.4200000000006825, -1.4963547970514164 
2.4300000000007036, -1.4954019344118883 
2.4400000000007247, -1.4939899745591345 
2.450000000000746, -1.4923843068165135 
2.460000000000767, -1.49170618085804 
2.470000000000788, -1.493952550708881 
2.480000000000809, -1.500124530783975 
2.49000000000083, -1.5085755671409007 
2.5000000000008513, -1.5166891387361405 
2.5100000000008724, -1.523010114293596 
2.5200000000008935, -1.52733762092751 
2.5300000000009146, -1.5300229075675502 
2.5400000000009357, -1.531511655801161 
2.550000000000957, -1.532176226913865 
2.560000000000978, -1.5322841395826938 
2.570000000000999, -1.5320171362388586 
2.58000000000102, -1.5315078337389578 
2.5900000000010412, -1.5308764333612481 
2.6000000000010624, -1.5302460499593278 
2.6100000000010835, -1.5297238880810011 
2.6200000000011046, -1.5293747002107252 
2.6300000000011257, -1.529214431508365 
2.6400000000011468, -1.5292038642590928 
2.650000000001168, -1.5292444296242276 
2.660000000001189, -1.5292065057339679 
2.67000000000121, -1.5289612103145322 
2.680000000001231, -1.528372771406006 
2.6900000000012523, -1.5272577745925464 
2.7000000000012734, -1.5253355512985638 
2.7100000000012945, -1.5221891134863221 
2.7200000000013156, -1.5172719110077795 
2.7300000000013367, -1.5100554099724417 
2.740000000001358, -1.5005083327531712 
2.750000000001379, -1.4899723758870111 
2.7600000000014, -1.4814405590134287 
2.770000000001421, -1.4773883047465968 
2.780000000001442, -1.477181108719746 
2.7900000000014633, -1.4784351537608535 
2.8000000000014844, -1.4795958750711184 
2.8100000000015055, -1.4802402640353853 
2.8200000000015266, -1.4803985300515563 
2.8300000000015477, -1.4801521347582391 
2.840000000001569, -1.4795224362436665 
2.85000000000159, -1.4784846210370994 
2.860000000001611, -1.477100500204631 
2.870000000001632, -1.4758737541453884 
2.8800000000016532, -1.4761577313602063 
2.8900000000016743, -1.4795688912610323 
2.9000000000016954, -1.486114783242828 
2.9100000000017165, -1.4938430631415216 
2.9200000000017377, -1.5007605205912276 
2.9300000000017588, -1.506000728542791 
2.94000000000178, -1.509554905873259 
2.950000000001801, -1.5117435936087948 
2.960000000001822, -1.5129276921827768 
2.970000000001843, -1.5134059978483438 
2.9800000000018643, -1.5133967465111078 
2.9900000000018854, -1.513053840412628 
3.0000000000019065, -1.512497532662709 
3.0100000000019276, -1.5118437859457299 
3.0200000000019487, -1.5112113767709434 
3.03000000000197, -1.5107000429794792 
3.040000000001991, -1.51036803602296 
3.050000000002012, -1.5102256701231505 
3.060000000002033, -1.510225230697865 
3.070000000002054, -1.51026142305508 
3.0800000000020753, -1.510204548470415 
3.0900000000020964, -1.5099282411720696 
3.1000000000021175, -1.5092968909710565 
3.1100000000021386, -1.5081252054365168 
3.1200000000021597, -1.5061334947171565 
3.130000000002181, -1.5029176363036796 
3.140000000002202, -1.4979685337996735 
3.150000000002223, -1.4908279106029274 
3.160000000002244, -1.4815405555841996 
3.1700000000022652, -1.4714211080390658 
3.1800000000022863, -1.4632280750369244 
3.1900000000023074, -1.4592091867502137 
3.2000000000023285, -1.4588271748821404 
3.2100000000023496, -1.4599146779801255 
3.2200000000023707, -1.4609873200370291 
3.230000000002392, -1.461598494946421 
3.240000000002413, -1.4617487922052947 
3.250000000002434, -1.46150282874037 
3.260000000002455, -1.4608705027203048 
3.2700000000024763, -1.45980693710151 
3.2800000000024974, -1.458321504383346 
3.2900000000025185, -1.4568173451922433 
3.3000000000025396, -1.4566142154884454 
3.3100000000025607, -1.4596704259320348 
3.3200000000025818, -1.4665767211862246 
3.330000000002603, -1.4754218593121597 
3.340000000002624, -1.4836891736770024 
3.350000000002645, -1.4900731644745404 
3.360000000002666, -1.4944342792610636 
3.3700000000026873, -1.4971395755348176 
3.3800000000027084, -1.4986415128917048 
3.3900000000027295, -1.4993180908659445 
3.4000000000027506, -1.4994409819653858 
3.4100000000027717, -1.499194477278288 
3.420000000002793, -1.4987128484693029 
3.430000000002814, -1.4981182341501005 
3.440000000002835, -1.497537129077551 
3.450000000002856, -1.497079434656372 
3.460000000002877, -1.4968049141966149 
3.4700000000028983, -1.4967163916427602 
3.4800000000029194, -1.4967670689295112 
3.4900000000029405, -1.496864895588773 
3.5000000000029616, -1.4968928502982226 
3.5100000000029827, -1.4967347122788874 
3.520000000003004, -1.496274800155101 
3.530000000003025, -1.495372627145796 
3.540000000003046, -1.4938332861924164 
3.550000000003067, -1.4913900652544523 
3.5600000000030882, -1.4877153209043013 
3.5700000000031094, -1.482493478054931 
3.5800000000031305, -1.4756306266314119 
3.5900000000031516, -1.4676753019475082 
3.6000000000031727, -1.4602042987408228 
3.6100000000031938, -1.455233095063876 
3.620000000003215, -1.453453288280841 
3.630000000003236, -1.453700117133568 
3.640000000003257, -1.4544907486100824 
3.650000000003278, -1.45507853029468 
3.6600000000032993, -1.4552860832919516 
3.6700000000033204, -1.4551166327044363 
3.6800000000033415, -1.4545609819945011 
3.6900000000033626, -1.4535404786143107 
3.7000000000033837, -1.4519374456299392 
3.710000000003405, -1.449817765924495 
3.720000000003426, -1.4480579052817268 
3.730000000003447, -1.4489838059550688 
3.740000000003468, -1.4550498198655377 
3.750000000003489, -1.4656080105202203 
3.7600000000035103, -1.4770776521371043 
3.7700000000035314, -1.4865128688727973 
3.7800000000035525, -1.4930640443397258 
3.7900000000035736, -1.4971314129767281 
3.8000000000035947, -1.4994259343906684 
3.810000000003616, -1.5005596092410334 
3.820000000003637, -1.5009577448256375 
3.830000000003658, -1.5008895652049754 
3.840000000003679, -1.5005282149154646 
3.8500000000037002, -1.5000102017511683 
3.8600000000037213, -1.4994750928064726 
3.8700000000037424, -1.499059007525209 
3.8800000000037635, -1.4988458986749937 
3.8900000000037847, -1.4988389973130583 
3.9000000000038058, -1.4989819555802852 
3.910000000003827, -1.4991853837116378 
3.920000000003848, -1.4993422482415866 
3.930000000003869, -1.4993454449498924 
3.94000000000389, -1.4990951718378205 
3.9500000000039113, -1.4984864029997167 
3.9600000000039324, -1.4973889943275167 
3.9700000000039535, -1.4956352453535993 
3.9800000000039746, -1.4930233292233355 
3.9900000000039957, -1.4893477964202444 
4.000000000004016, -1.4844886711106828 
4.010000000003993, -1.4786171400091648 
4.02000000000397, -1.4725032490814125 
4.030000000003946, -1.467537507625925 
4.040000000003923, -1.4648539087205483 
4.0500000000039, -1.4642647671673399 
4.0600000000038765, -1.4646629179710826 
4.070000000003853, -1.4651562537784006 
4.08000000000383, -1.4653876658536105 
4.090000000003807, -1.465278429930821 
4.100000000003783, -1.4647943409470916 
4.11000000000376, -1.4638394422357341 
4.120000000003737, -1.4622285910237998 
4.130000000003713, -1.4597956911750978 
4.14000000000369, -1.4569115124774037 
4.150000000003667, -1.4555722293299573 
4.1600000000036434, -1.4594123117272582 
4.17000000000362, -1.4699426245646339 
4.180000000003597, -1.483644584177572 
4.1900000000035735, -1.495802737371385 
4.20000000000355, -1.5044034328976847 
4.210000000003527, -1.5097080650934993 
4.220000000003504, -1.512675485641824 
4.23000000000348, -1.5141640088968678 
4.240000000003457, -1.514754916605585 
4.250000000003434, -1.5147992886085146 
4.26000000000341, -1.5145070636070326 
4.270000000003387, -1.5140283144389686 
4.280000000003364, -1.5135113079238705 
4.2900000000033405, -1.513110195507533 
4.300000000003317, -1.5129310381755559 
4.310000000003294, -1.5129825746603376 
4.320000000003271, -1.5131967272187998 
4.330000000003247, -1.5134741765375899 
4.340000000003224, -1.513706761745701 
4.350000000003201, -1.5137901435931225 
4.360000000003177, -1.513629926643247 
4.370000000003154, -1.5131320839190634 
4.380000000003131, -1.5121855420484653 
4.390000000003107, -1.5106502936940327 
4.400000000003084, -1.5083582936645998 
4.410000000003061, -1.5051348910948879 
4.4200000000030375, -1.5008651972609353 
4.430000000003014, -1.495656982745889 
4.440000000002991, -1.4901127177963605 
4.450000000002968, -1.4854276034694283 
4.460000000002944, -1.482721877156908 
4.470000000002921, -1.4819964692347232 
4.480000000002898, -1.4822909318603765 
4.490000000002874, -1.4827323319853674 
4.500000000002851, -1.4829396075108128 
4.510000000002828, -1.482815411907269 
4.520000000002804, -1.482314101143121 
4.530000000002781, -1.4813279762388276 
4.540000000002758, -1.4796538307585272 
4.5500000000027345, -1.4771047712658927 
4.560000000002711, -1.4740719913047153 
4.570000000002688, -1.4727101621171677 
4.580000000002665, -1.4768623754351111 
4.590000000002641, -1.487856108180339 
4.600000000002618, -1.501723544351231 
4.610000000002595, -1.5136792263358585 
4.620000000002571, -1.521935890555475 
4.630000000002548, -1.5269285187418156 
4.640000000002525, -1.5296689848525244 
4.6500000000025015, -1.5310070754555027 
4.660000000002478, -1.5315004215185486 
4.670000000002455, -1.5314802711446067 
4.6800000000024315, -1.5311458680558574 
4.690000000002408, -1.5306459899945677 
4.700000000002385, -1.5301318640509944 
4.710000000002362, -1.5297528847285755 
4.720000000002338, -1.5295972801204356 
4.730000000002315, -1.5296568498212868 
4.740000000002292, -1.5298585395318134 
4.750000000002268, -1.5301029332827634 
4.760000000002245, -1.5302807817949007 
4.770000000002222, -1.53028638113055 
4.7800000000021985, -1.5300211999744033 
4.790000000002175, -1.5293792334428307 
4.800000000002152, -1.5282261756487485 
4.810000000002129, -1.5263863834977722 
4.820000000002105, -1.5236462001373252 
4.830000000002082, -1.5197889596407068 
4.840000000002059, -1.5147055320034966 
4.850000000002035, -1.508652994517416 
4.860000000002012, -1.5026024909614375 
4.870000000001989, -1.498104455937906 
4.880000000001965, -1.4960920162116478 
4.890000000001942, -1.495973245819492 
4.900000000001919, -1.496523314358621 
4.9100000000018955, -1.4969832274838857 
4.920000000001872, -1.497117436562478 
4.930000000001849, -1.4968892595537697 
4.940000000001826, -1.496259240798291 
