t, s[1].omega / s[0].omega 
0, -0.8598529328102856 
0.009999999999999995, -0.846251429124958 
0.019999999999999934, -0.836127899829694 
0.029999999999999874, -0.8301643620947863 
0.04000000000000012, -0.8276197035807623 
0.050000000000000405, -0.8271898035210793 
0.06000000000000069, -0.8277401932717746 
0.07000000000000098, -0.8285605149657294 
0.08000000000000126, -0.8293043614208944 
0.09000000000000155, -0.8298442195336838 
0.10000000000000184, -0.8301540162840141 
0.11000000000000212, -0.8302394025705946 
0.12000000000000241, -0.8301018691032873 
0.130000000000002, -0.829719776197703 
0.1400000000000009, -0.8290350945481497 
0.1499999999999998, -0.8279411132955229 
0.1599999999999987, -0.8262735926099145 
0.1699999999999976, -0.8238176966819226 
0.1799999999999965, -0.8203521569868283 
0.1899999999999954, -0.8157437251584181 
0.1999999999999943, -0.8100602234775014 
0.2099999999999932, -0.8036185969813591 
0.2199999999999921, -0.7969090891997639 
0.229999999999991, -0.7904420110132675 
0.2399999999999899, -0.7846205188871181 
0.2499999999999888, -0.7796912706306796 
0.2599999999999877, -0.775754116732072 
0.2699999999999866, -0.7727935679074774 
0.2799999999999855, -0.7707117285135416 
0.2899999999999844, -0.7693590147096107 
0.2999999999999833, -0.7685634754391902 
0.3099999999999822, -0.7681568482176531 
0.3199999999999811, -0.7679932047055805 
0.32999999999998, -0.7679574956578776 
0.3399999999999789, -0.7679649380341369 
0.3499999999999778, -0.7679549545775987 
0.35999999999997667, -0.767883958651187 
0.36999999999997557, -0.767720288722289 
0.37999999999997447, -0.7674429256103774 
0.38999999999997337, -0.7670434572094383 
0.39999999999997227, -0.7665283413786843 
0.40999999999997117, -0.7659174949564251 
0.41999999999997006, -0.7652376206361342 
0.42999999999996896, -0.7645133105508524 
0.43999999999996786, -0.7637612700473803 
0.44999999999996676, -0.762990578751521 
0.45999999999996566, -0.7622075683121395 
0.46999999999996456, -0.7614217282438347 
0.47999999999996346, -0.760649996916052 
0.48999999999996235, -0.7599188420757537 
0.49999999999996125, -0.7592645855813376 
0.5099999999999602, -0.758732183261068 
0.519999999999959, -0.7583721645410301 
0.529999999999958, -0.7582356055196184 
0.5399999999999568, -0.7583679191339023 
0.5499999999999557, -0.7588031794921144 
0.5599999999999546, -0.7595607859206784 
0.5699999999999535, -0.7606452305614668 
0.5799999999999524, -0.7620480767672339 
0.5899999999999513, -0.7637498284476896 
0.5999999999999502, -0.7657188208349786 
0.6099999999999491, -0.7679050973902184 
0.619999999999948, -0.7702301681214763 
0.6299999999999469, -0.7725788816283281 
0.6399999999999458, -0.7748046827297216 
0.6499999999999447, -0.77675661685169 
0.6599999999999436, -0.778320312376022 
0.6699999999999425, -0.779448169505182 
0.6799999999999414, -0.7801590302028009 
0.6899999999999403, -0.7805124570881762 
0.6999999999999392, -0.7805785017815643 
0.7099999999999381, -0.7804181698204882 
0.719999999999937, -0.7800772951879386 
0.7299999999999359, -0.779590657896337 
0.7399999999999348, -0.7789943126450256 
0.7499999999999337, -0.7783478664633081 
0.7599999999999326, -0.777771699197036 
0.7699999999999315, -0.777504133427166 
0.7799999999999304, -0.7779755022312344 
0.7899999999999293, -0.7798728988440901 
0.7999999999999282, -0.7841282005294392 
0.8099999999999271, -0.7917212196477075 
0.819999999999926, -0.8032160772123798 
0.8299999999999249, -0.8181515325506139 
0.8399999999999238, -0.8347647618378433 
0.8499999999999227, -0.8505760204757873 
0.8599999999999216, -0.8635894446620436 
0.8699999999999205, -0.8730723369994093 
0.8799999999999194, -0.8793778691831713 
0.8899999999999183, -0.8833088438330398 
0.8999999999999172, -0.885640540943563 
0.9099999999999161, -0.8869453134333023 
0.919999999999915, -0.887592038319265 
0.9299999999999139, -0.8877971928013414 
0.9399999999999128, -0.8876722620961661 
0.9499999999999117, -0.8872534139433498 
0.9599999999999106, -0.8865136778715165 
0.9699999999999095, -0.8853604343645166 
0.9799999999999084, -0.883621254743753 
0.9899999999999073, -0.881024353965507 
0.9999999999999062, -0.8771909806334955 
1.0099999999999052, -0.8716792843034187 
1.019999999999904, -0.8641423269727904 
1.029999999999903, -0.8546395162380265 
1.039999999999902, -0.8439914830294262 
1.0499999999999008, -0.8338181523662277 
1.0599999999998997, -0.8259099450256491 
1.0699999999998986, -0.8212425086118913 
1.0799999999998975, -0.8195536204402366 
1.0899999999998964, -0.8198128431659469 
1.0999999999998953, -0.8209510097652306 
1.1099999999998942, -0.8222496455833511 
1.119999999999893, -0.8233592504183422 
1.129999999999892, -0.8241678768043906 
1.1399999999998909, -0.8246747215331114 
1.1499999999998898, -0.8249120687630563 
1.1599999999998887, -0.8249063920047623 
1.1699999999998876, -0.8246600545376761 
1.1799999999998865, -0.8241400308445079 
1.1899999999998854, -0.823266385690314 
1.1999999999998843, -0.8218990333056055 
1.2099999999998832, -0.819829190188598 
1.219999999999882, -0.816794121303135 
1.229999999999881, -0.812543286371634 
1.2399999999998799, -0.8069655306853237 
1.2499999999998788, -0.8002211446667005 
1.2599999999998777, -0.7927667675987617 
1.2699999999998766, -0.7852232127573504 
1.2799999999998755, -0.7781766085757155 
1.2899999999998744, -0.772042038532685 
1.2999999999998733, -0.7670302711159028 
1.3099999999998722, -0.7631789078175469 
1.319999999999871, -0.760402055975921 
1.32999999999987, -0.7585374893412987 
1.3399999999998689, -0.7573873830280631 
1.3499999999998678, -0.7567520133665292 
1.3599999999998666, -0.756454045593095 
1.3699999999998655, -0.7563511710382159 
1.3799999999998644, -0.7563377229354541 
1.3899999999998633, -0.7563388560966493 
1.3999999999998622, -0.7563019210480199 
1.4099999999998611, -0.7561889275030681 
1.41999999999986, -0.7559725218557578 
1.429999999999859, -0.755636159124367 
1.4399999999998578, -0.7551769290857318 
1.4499999999998567, -0.7546072978322406 
1.4599999999998556, -0.7539519662650711 
1.4699999999998545, -0.7532396296891617 
1.4799999999998534, -0.7524940441080228 
1.4899999999998523, -0.7517296949076764 
1.4999999999998512, -0.7509537483039911 
1.5099999999998501, -0.75017180238143 
1.519999999999849, -0.7493937353880294 
1.529999999999848, -0.7486375270950594 
1.5399999999998468, -0.7479309305614051 
1.5499999999998457, -0.7473115771958738 
1.5599999999998446, -0.7468256568955076 
1.5699999999998435, -0.7465248396718165 
1.5799999999998424, -0.7464613626030538 
1.5899999999998413, -0.7466821082496522 
1.5999999999998402, -0.7472233158824488 
1.6099999999998391, -0.7481075214550397 
1.619999999999838, -0.7493432220673835 
1.629999999999837, -0.7509261207708111 
1.6399999999998358, -0.7528394233823402 
1.6499999999998347, -0.7550502268409324 
1.6599999999998336, -0.757500314318172 
1.6699999999998325, -0.7600936661665448 
1.6799999999998314, -0.762689668485617 
1.6899999999998303, -0.7651156638010875 
1.6999999999998292, -0.7672050737240238 
1.709999999999828, -0.7688453350550961 
1.719999999999827, -0.770004555648266 
1.729999999999826, -0.7707207902445277 
1.7399999999998248, -0.7710679810846519 
1.7499999999998237, -0.7711233670358867 
1.7599999999998226, -0.7709493444038813 
1.7699999999998215, -0.7705892531142758 
1.7799999999998204, -0.7700724449245381 
1.7899999999998193, -0.769426574564714 
1.7999999999998182, -0.7686995432148789 
1.809999999999817, -0.7679975071094535 
1.819999999999816, -0.767546595210177 
1.8299999999998149, -0.7677788935885126 
1.8399999999998138, -0.7694173635208486 
1.8499999999998127, -0.7734804496268811 
1.8599999999998116, -0.7810638295784045 
1.8699999999998105, -0.7927825784188947 
1.8799999999998094, -0.8080451755517704 
1.8899999999998083, -0.8248145162490097 
1.8999999999998072, -0.8404390891644246 
1.909999999999806, -0.8530142214596029 
1.919999999999805, -0.8620241863989729 
1.9299999999998039, -0.8679647783675607 
1.9399999999998028, -0.8716658135206163 
1.9499999999998017, -0.8738716077498617 
1.9599999999998006, -0.8751154736663734 
1.9699999999997995, -0.8757372829183445 
1.9799999999997984, -0.8759353361465279 
1.9899999999997973, -0.8758097439428264 
1.9999999999997962, -0.8753877394946759 
2.0099999999998173, -0.8746313334768393 
2.0199999999998384, -0.8734283748134931 
2.0299999999998595, -0.8715667949075316 
2.0399999999998806, -0.868693377777406 
2.0499999999999017, -0.8642701285197839 
2.059999999999923, -0.857575701788495 
2.069999999999944, -0.8478608298477482 
2.079999999999965, -0.8347906860555554 
2.089999999999986, -0.8190929067807575 
2.100000000000007, -0.8028176802674363 
2.1100000000000283, -0.7885544424531891 
2.1200000000000494, -0.7780606635653798 
2.1300000000000705, -0.7715907472959167 
2.1400000000000916, -0.7683076806142598 
2.1500000000001127, -0.7670593885727728 
2.160000000000134, -0.7668841549726737 
2.170000000000155, -0.7671551835028669 
2.180000000000176, -0.7675284676331857 
2.190000000000197, -0.7678408487054005 
2.2000000000002182, -0.7680246451327514 
2.2100000000002393, -0.768052355627598 
2.2200000000002604, -0.7679048217882194 
2.2300000000002815, -0.7675533974004273 
2.2400000000003026, -0.7669499053891224 
2.2500000000003237, -0.7660229448896461 
2.260000000000345, -0.7646840427058299 
2.270000000000366, -0.762849771725598 
2.280000000000387, -0.7604804706897597 
2.290000000000408, -0.7576194997514795 
2.3000000000004293, -0.7544032927462845 
2.3100000000004504, -0.7510270943801851 
2.3200000000004715, -0.7476878144436847 
2.3300000000004926, -0.7445409708969074 
2.3400000000005137, -0.7416882592188471 
2.3500000000005348, -0.7391867592637307 
2.360000000000556, -0.737063768480706 
2.370000000000577, -0.7353276013758482 
2.380000000000598, -0.733972354857263 
2.390000000000619, -0.7329787681902438 
2.4000000000006403, -0.7323142941830766 
2.4100000000006614, -0.7319347067041464 
2.4200000000006825, -0.7317879997823235 
2.4300000000007036, -0.731819806832679 
2.4400000000007247, -0.7319787951318213 
2.450000000000746, -0.7322207317516831 
2.460000000000767, -0.732510774792675 
2.470000000000788, -0.7328242543166181 
2.480000000000809, -0.73314621068462 
2.49000000000083, -0.7334693508553702 
2.5000000000008513, -0.733789726536032 
2.5100000000008724, -0.7341003796353933 
2.5200000000008935, -0.7343853793029004 
2.5300000000009146, -0.7346181937539236 
2.5400000000009357, -0.7347668341801754 
2.550000000000957, -0.7348037027450013 
2.560000000000978, -0.7347143427421916 
2.570000000000999, -0.7345004490992364 
2.58000000000102, -0.7341775315054332 
2.5900000000010412, -0.7337713796372205 
2.6000000000010624, -0.7333173675706507 
2.6100000000010835, -0.7328644547169573 
2.6200000000011046, -0.7324837718333111 
2.6300000000011257, -0.7322802831579794 
2.6400000000011468, -0.7324045526609825 
2.650000000001168, -0.733059963673073 
2.660000000001189, -0.7344996024375058 
2.67000000000121, -0.7370072647138375 
2.680000000001231, -0.7408582776642415 
2.6900000000012523, -0.7462565868836006 
2.7000000000012734, -0.7532461255702546 
2.7100000000012945, -0.7616062906715667 
2.7200000000013156, -0.7707769927975634 
2.7300000000013367, -0.7799045632872936 
2.740000000001358, -0.7880759766269443 
2.750000000001379, -0.7946489129972805 
2.7600000000014, -0.7994406894574376 
2.770000000001421, -0.8026527730030674 
2.780000000001442, -0.8046540335938481 
2.7900000000014633, -0.8058031702108049 
2.8000000000014844, -0.8063719472353954 
2.8100000000015055, -0.806537358893601 
2.8200000000015266, -0.8063987506248502 
2.8300000000015477, -0.8059956719428787 
2.840000000001569, -0.8053184138208266 
2.85000000000159, -0.8043104663626769 
2.860000000001611, -0.8028649245523978 
2.870000000001632, -0.8008192651836754 
2.8800000000016532, -0.7979571113847737 
2.8900000000016743, -0.7940311175367082 
2.9000000000016954, -0.7888232144791211 
2.9100000000017165, -0.7822521882723115 
2.9200000000017377, -0.7745295983124907 
2.9300000000017588, -0.7663330347553009 
2.94000000000178, -0.7588126094151223 
2.950000000001801, -0.7531494615419423 
2.960000000001822, -0.7498815915118582 
2.970000000001843, -0.7486999704155718 
2.9800000000018643, -0.7488482320715313 
2.9900000000018854, -0.7496024008923159 
3.0000000000019065, -0.7504849606933935 
3.0100000000019276, -0.7512555800733287 
3.0200000000019487, -0.7518254080337925 
3.03000000000197, -0.7521792208352265 
3.040000000001991, -0.7523261040016751 
3.050000000002012, -0.7522728429105953 
3.060000000002033, -0.7520098945010791 
3.070000000002054, -0.7515028279385112 
3.0800000000020753, -0.7506864997711705 
3.0900000000020964, -0.7494641505721165 
3.1000000000021175, -0.7477189861106261 
3.1100000000021386, -0.7453478972299938 
3.1200000000021597, -0.7423165539696323 
3.130000000002181, -0.7387092165192892 
3.140000000002202, -0.7347307544642021 
3.150000000002223, -0.7306478764087097 
3.160000000002244, -0.7267092225729239 
3.1700000000022652, -0.7230947480907824 
3.1800000000022863, -0.7199082811053935 
3.1900000000023074, -0.717195068157935 
3.2000000000023285, -0.7149629159622048 
3.2100000000023496, -0.7131967251601723 
3.2200000000023707, -0.7118657396142146 
3.230000000002392, -0.7109267355632987 
3.240000000002413, -0.7103264921474501 
3.250000000002434, -0.7100053869344791 
3.260000000002455, -0.709902216452088 
3.2700000000024763, -0.7099591977937513 
3.2800000000024974, -0.7101259405421766 
3.2900000000025185, -0.7103617903288162 
3.3000000000025396, -0.7106367155838854 
3.3100000000025607, -0.7109312064288753 
3.3200000000025818, -0.7112352313824102 
3.330000000002603, -0.7115455423045002 
3.340000000002624, -0.7118605254005448 
3.350000000002645, -0.7121732227728825 
3.360000000002666, -0.7124655427852818 
3.3700000000026873, -0.7127078005829445 
3.3800000000027084, -0.7128654478174792 
3.3900000000027295, -0.7129098960691913 
3.4000000000027506, -0.7128270630947569 
3.4100000000027717, -0.7126194203908995 
3.420000000002793, -0.7123027895643954 
3.430000000002814, -0.7119024794428355 
3.440000000002835, -0.7114527417061131 
3.450000000002856, -0.7110013177668577 
3.460000000002877, -0.7106192319172863 
3.4700000000028983, -0.710415015183264 
3.4800000000029194, -0.7105512977738453 
3.4900000000029405, -0.7112596110089566 
3.5000000000029616, -0.712846498472096 
3.5100000000029827, -0.7156812500943448 
3.520000000003004, -0.7201529512856817 
3.530000000003025, -0.7265825301908274 
3.540000000003046, -0.7350798354907074 
3.550000000003067, -0.7453650727978267 
3.5600000000030882, -0.7566479876141876 
3.5700000000031094, -0.7677312674187248 
3.5800000000031305, -0.7774143858568794 
3.5900000000031516, -0.7849694985836738 
3.6000000000031727, -0.7903144501852912 
3.6100000000031938, -0.7938120856291112 
3.620000000003215, -0.7959592156462726 
3.630000000003236, -0.797188505585006 
3.640000000003257, -0.7978073168984062 
3.650000000003278, -0.7980077479353866 
3.6600000000032993, -0.7978941668102146 
3.6700000000033204, -0.7975050636264455 
3.6800000000033415, -0.7968231894032834 
3.6900000000033626, -0.7957733982060672 
3.7000000000033837, -0.7942081181972962 
3.710000000003405, -0.7918804208730725 
3.720000000003426, -0.7884081383429046 
3.730000000003447, -0.7832462719389158 
3.740000000003468, -0.7757208938578299 
3.750000000003489, -0.7652363788231735 
3.7600000000035103, -0.7517614370400809 
3.7700000000035314, -0.7363978035265312 
3.7800000000035525, -0.721332777534831 
3.7900000000035736, -0.7087914345155845 
3.8000000000035947, -0.6998882344389032 
3.810000000003616, -0.6944435341704607 
3.820000000003637, -0.6915798874399461 
3.830000000003658, -0.6903392230774915 
3.840000000003679, -0.6899812969028685 
3.8500000000037002, -0.690029997666089 
3.8600000000037213, -0.6902144312034191 
3.8700000000037424, -0.6903940075073309 
3.8800000000037635, -0.690499829900141 
3.8900000000037847, -0.6904964776624614 
3.9000000000038058, -0.6903593364365997 
3.910000000003827, -0.6900621840625074 
3.920000000003848, -0.689572082439554 
3.930000000003869, -0.6888513223261732 
3.94000000000389, -0.6878674871944545 
3.9500000000039113, -0.6866103979633087 
3.9600000000039324, -0.6851082027056867 
3.9700000000039535, -0.683430079143407 
3.9800000000039746, -0.681669429962662 
3.9900000000039957, -0.67991683380856 
4.000000000004016, -0.6782396092459184 
4.010000000003993, -0.6766768314341808 
4.02000000000397, -0.6752464318370105 
4.030000000003946, -0.6739561966686548 
4.040000000003923, -0.6728127322760677 
4.0500000000039, -0.6718263904360291 
4.0600000000038765, -0.6710125993141598 
4.070000000003853, -0.6703907917316569 
4.08000000000383, -0.6699820479932546 
4.090000000003807, -0.6698063896082197 
4.100000000003783, -0.6698805535459488 
4.11000000000376, -0.6702169051664721 
4.120000000003737, -0.6708237714244488 
4.130000000003713, -0.6717068999814965 
4.14000000000369, -0.6728710741891641 
4.150000000003667, -0.6743202289552132 
4.1600000000036434, -0.6760538505035987 
4.17000000000362, -0.6780574921302296 
4.180000000003597, -0.6802871153064577 
4.1900000000035735, -0.6826522036242879 
4.20000000000355, -0.6850102853769479 
4.210000000003527, -0.6871877453227274 
4.220000000003504, -0.6890271061994531 
4.23000000000348, -0.6904349610138734 
4.240000000003457, -0.6913983096367979 
4.250000000003434, -0.6919637355653298 
4.26000000000341, -0.6922015675138908 
4.270000000003387, -0.6921775314693518 
4.280000000003364, -0.6919388329151894 
4.2900000000033405, -0.6915108903606135 
4.300000000003317, -0.6908994321010893 
4.310000000003294, -0.6900954118450621 
4.320000000003271, -0.6890834439025573 
4.330000000003247, -0.6878570653130687 
4.340000000003224, -0.6864449632205162 
4.350000000003201, -0.6849471447704649 
4.360000000003177, -0.6835600970324024 
4.370000000003154, -0.6825330300751505 
4.380000000003131, -0.6819932997333044 
4.390000000003107, -0.6817379372318817 
4.400000000003084, -0.6813450945774868 
4.410000000003061, -0.680683334857833 
4.4200000000030375, -0.6801188469725211 
4.430000000003014, -0.6800655654445531 
4.440000000002991, -0.680582437850585 
4.450000000002968, -0.6814454260552306 
4.460000000002944, -0.682388346478643 
4.470000000002921, -0.6832321551880565 
4.480000000002898, -0.6838947389769428 
4.490000000002874, -0.6843560158655396 
4.500000000002851, -0.68462321413232 
4.510000000002828, -0.6847080559758386 
4.520000000002804, -0.6846138956192612 
4.530000000002781, -0.6843286047736846 
4.540000000002758, -0.6838207197091672 
4.5500000000027345, -0.6830392195667824 
4.560000000002711, -0.6819203927009891 
4.570000000002688, -0.6804066277692221 
4.580000000002665, -0.6784771988733719 
4.590000000002641, -0.6761779821046392 
4.600000000002618, -0.6736266340656044 
4.610000000002595, -0.6709818709655219 
4.620000000002571, -0.6683952834146072 
4.630000000002548, -0.6659768313036482 
4.640000000002525, -0.6637877283168667 
4.6500000000025015, -0.6618524482528608 
4.660000000002478, -0.6601755186990113 
4.670000000002455, -0.658754340984818 
4.6800000000024315, -0.6575858836120131 
4.690000000002408, -0.6566685222362023 
4.700000000002385, -0.6560011300269877 
4.710000000002362, -0.6555812377731843 
4.720000000002338, -0.6554035426335144 
4.730000000002315, -0.6554595013901637 
4.740000000002292, -0.6557382215691556 
4.750000000002268, -0.6562283905749158 
4.760000000002245, -0.6569206075546682 
4.770000000002222, -0.657809186899168 
4.7800000000021985, -0.6588921903667317 
4.790000000002175, -0.6601681246268016 
4.800000000002152, -0.6616278473133911 
4.810000000002129, -0.6632417781803959 
4.820000000002105, -0.6649465169554007 
4.830000000002082, -0.6666403352688521 
4.840000000002059, -0.6681979292680362 
4.850000000002035, -0.6695039791673171 
4.860000000002012, -0.670487319668769 
4.870000000001989, -0.6711334932045736 
4.880000000001965, -0.6714713879340335 
4.890000000001942, -0.6715485206460113 
4.900000000001919, -0.6714106066931628 
4.9100000000018955, -0.6710910860241823 
4.920000000001872, -0.6706088758893185 
