t, s[1].omega / s[0].omega 
0, -1.019998362473254 
0.009999999999999995, -1.0197466936308122 
0.019999999999999934, -1.0193184677613598 
0.029999999999999874, -1.0187536783423332 
0.04000000000000012, -1.0181864326887071 
0.050000000000000405, -1.0177976551525152 
0.06000000000000069, -1.0176919360978962 
0.07000000000000098, -1.017821300924178 
0.08000000000000126, -1.018009539140417 
0.09000000000000155, -1.0180829433221683 
0.10000000000000184, -1.017965218720637 
0.11000000000000212, -1.0176626668634656 
0.12000000000000241, -1.0171930641026514 
0.130000000000002, -1.0165791708101775 
0.1400000000000009, -1.0159133866715764 
0.1499999999999998, -1.0153633177031454 
0.1599999999999987, -1.0150774440770873 
0.1699999999999976, -1.0150768855017334 
0.1799999999999965, -1.0152152936249328 
0.1899999999999954, -1.0152871201038924 
0.1999999999999943, -1.0151655305995635 
0.2099999999999932, -1.0148326425799246 
0.2199999999999921, -1.0143237448948832 
0.229999999999991, -1.0136675120894352 
0.2399999999999899, -1.0129241543938265 
0.2499999999999888, -1.012233714791715 
0.2599999999999877, -1.0117672623778482 
0.2699999999999866, -1.0116145442815765 
0.2799999999999855, -1.0116869612091024 
0.2899999999999844, -1.0117676465327503 
0.2999999999999833, -1.0116784752362806 
0.3099999999999822, -1.0113548963539651 
0.3199999999999811, -1.010827740551766 
0.32999999999998, -1.0101442797079252 
0.3399999999999789, -1.0093500732586311 
0.3499999999999778, -1.0085509061508835 
0.35999999999997667, -1.007916708050358 
0.36999999999997557, -1.0075916940683256 
0.37999999999997447, -1.0075671743041974 
0.38999999999997337, -1.0076484630209248 
0.39999999999997227, -1.0076154849863241 
0.40999999999997117, -1.0073478410684316 
0.41999999999997006, -1.0068433783191406 
0.42999999999996896, -1.006161111852867 
0.43999999999996786, -1.0053505231778472 
0.44999999999996676, -1.0044865779902241 
0.45999999999996566, -1.003717272500515 
0.46999999999996456, -1.0032156092690823 
0.47999999999996346, -1.0030565095394697 
0.48999999999996235, -1.0031097860653309 
0.49999999999996125, -1.0031363334767716 
0.5099999999999602, -1.002961766972337 
0.519999999999959, -1.0025318687946374 
0.529999999999958, -1.0018934557236259 
0.5399999999999568, -1.001108451772642 
0.5499999999999557, -1.0002332740871742 
0.5599999999999546, -0.9993816017009796 
0.5699999999999535, -0.9987263375838538 
0.5799999999999524, -0.9984056029586282 
0.5899999999999513, -0.9983858861988282 
0.5999999999999502, -0.9984519509847753 
0.6099999999999491, -0.9983858395217624 
0.619999999999948, -0.9980765938055198 
0.6299999999999469, -0.9975327865769129 
0.6399999999999458, -0.9968200436707274 
0.6499999999999447, -0.9959903873042244 
0.6599999999999436, -0.9951219557483512 
0.6699999999999425, -0.9943641469609791 
0.6799999999999414, -0.9938847299362887 
0.6899999999999403, -0.9937459952022104 
0.6999999999999392, -0.9938095854814508 
0.7099999999999381, -0.9938416748421683 
0.719999999999937, -0.9936783498723594 
0.7299999999999359, -0.9932754797720518 
0.7399999999999348, -0.9926812174054203 
0.7499999999999337, -0.9919496936893731 
0.7599999999999326, -0.9911316703352107 
0.7699999999999315, -0.9903389573278512 
0.7799999999999304, -0.9897390300501113 
0.7899999999999293, -0.989458905105242 
0.7999999999999282, -0.989466055692865 
0.8099999999999271, -0.9895621465937708 
0.819999999999926, -0.9895436960943993 
0.8299999999999249, -0.9893110422443506 
0.8399999999999238, -0.9888744387816335 
0.8499999999999227, -0.9882842038202286 
0.8599999999999216, -0.9875752282805408 
0.8699999999999205, -0.9868175353707699 
0.8799999999999194, -0.9861563271617305 
0.8899999999999183, -0.9857500132140082 
0.8999999999999172, -0.9856576691440374 
0.9099999999999161, -0.9857660080315875 
0.919999999999915, -0.9858674915078163 
0.9299999999999139, -0.9858115492442601 
0.9399999999999128, -0.98555885369851 
0.9499999999999117, -0.9851416123987373 
0.9599999999999106, -0.984586443902445 
0.9699999999999095, -0.9839263983179736 
0.9799999999999084, -0.9832675729391207 
0.9899999999999073, -0.9827755673198799 
0.9999999999999062, -0.982572109253615 
1.0099999999999052, -0.982639819528789 
1.019999999999904, -0.9828177441761887 
1.029999999999903, -0.9829238787651915 
1.039999999999902, -0.9828656476683143 
1.0499999999999008, -0.9826422097110414 
1.0599999999998997, -0.9822716727840473 
1.0699999999998986, -0.9817600454709321 
1.0799999999998975, -0.9811655395223339 
1.0899999999998964, -0.9806353174218009 
1.0999999999998953, -0.9803346506541143 
1.1099999999998942, -0.9803279369110591 
1.119999999999893, -0.9805303427610438 
1.129999999999892, -0.9807670109679621 
1.1399999999998909, -0.9808988113526456 
1.1499999999998898, -0.9808806448598213 
1.1599999999998887, -0.9807149246233944 
1.1699999999998876, -0.9803900117293587 
1.1799999999998865, -0.9799178546636297 
1.1899999999998854, -0.9794027043481881 
1.1999999999998843, -0.9790264618322478 
1.2099999999998832, -0.9789306160401198 
1.219999999999882, -0.9791114254227422 
1.229999999999881, -0.979435478564121 
1.2399999999998799, -0.9797396525670692 
1.2499999999998788, -0.9799300555529566 
1.2599999999998777, -0.9799823972658457 
1.2699999999998766, -0.9798723793018926 
1.2799999999998755, -0.9795734091738415 
1.2899999999998744, -0.9791354457101521 
1.2999999999998733, -0.978717452420111 
1.3099999999998722, -0.9785216321727104 
1.319999999999871, -0.9786420946679357 
1.32999999999987, -0.9790056369154072 
1.3399999999998689, -0.9794523165936398 
1.3499999999998678, -0.979845943518584 
1.3599999999998666, -0.98012442382923 
1.3699999999998655, -0.980249832049133 
1.3799999999998644, -0.9801665556614129 
1.3899999999998633, -0.9798694486130914 
1.3999999999998622, -0.9794682333589169 
1.4099999999998611, -0.9791752669667181 
1.41999999999986, -0.9791910833531065 
1.429999999999859, -0.9795400738363889 
1.4399999999998578, -0.9800871078534532 
1.4499999999998567, -0.9806669566086195 
1.4599999999998556, -0.981172910175691 
1.4699999999998545, -0.981546452581229 
1.4799999999998534, -0.9817126770601197 
1.4899999999998523, -0.981613880279081 
1.4999999999998512, -0.98130274620742 
1.5099999999998501, -0.9809557816739142 
1.519999999999849, -0.9808302173928585 
1.529999999999848, -0.9810923239780613 
1.5399999999998468, -0.9816793084527349 
1.5499999999998457, -0.982410831105058 
1.5599999999998446, -0.9831331827189427 
1.5699999999998435, -0.9837560714439071 
1.5799999999998424, -0.9841921890956791 
1.5899999999998413, -0.9843396050448872 
1.5999999999998402, -0.984187865295415 
1.6099999999998391, -0.9838639086858976 
1.619999999999838, -0.98361032198704 
1.629999999999837, -0.9837080533797753 
1.6399999999998358, -0.9842444133162023 
1.6499999999998347, -0.9850656622053344 
1.6599999999998336, -0.985971482966618 
1.6699999999998325, -0.9868265664737338 
1.6799999999998314, -0.9875302803382381 
1.6899999999998303, -0.9879541092501556 
1.6999999999998292, -0.9880187811547643 
1.709999999999828, -0.9877964378981151 
1.719999999999827, -0.9874852804118909 
1.729999999999826, -0.9873899208957345 
1.7399999999998248, -0.9877662958715007 
1.7499999999998237, -0.9885780254316348 
1.7599999999998226, -0.9896017880410002 
1.7699999999998215, -0.990645102904638 
1.7799999999998204, -0.9915828126936598 
1.7899999999998193, -0.9922794660917192 
1.7999999999998182, -0.9925976608123512 
1.809999999999817, -0.9925384834985049 
1.819999999999816, -0.9922558293769519 
1.8299999999998149, -0.9920154722275081 
1.8399999999998138, -0.9921592962271312 
1.8499999999998127, -0.9928365779973275 
1.8599999999998116, -0.993875715787032 
1.8699999999998105, -0.9950310648829832 
1.8799999999998094, -0.99613593025796 
1.8899999999998083, -0.9970557425602495 
1.8999999999998072, -0.997627257134442 
1.909999999999806, -0.9977700920985244 
1.919999999999805, -0.9975831136759116 
1.9299999999998039, -0.997284665464522 
1.9399999999998028, -0.9972058348029398 
1.9499999999998017, -0.9976466666712754 
1.9599999999998006, -0.9985770605538266 
1.9699999999997995, -0.9997410135772211 
1.9799999999997984, -1.0009210667749715 
1.9899999999997973, -1.0019745498157202 
1.9999999999997962, -1.0027468507716448 
2.0099999999998173, -1.003097176375975 
2.0199999999998384, -1.0030459767275253 
2.0299999999998595, -1.002765560785921 
2.0399999999998806, -1.0025357642770496 
2.0499999999999017, -1.0027095184401622 
2.059999999999923, -1.0034242326375273 
2.069999999999944, -1.0044860392306512 
2.079999999999965, -1.0056414221293892 
2.089999999999986, -1.0067244327531355 
2.100000000000007, -1.007601949334294 
2.1100000000000283, -1.0081196687292224 
2.1200000000000494, -1.008215604269998 
2.1300000000000705, -1.0080002276408282 
2.1400000000000916, -1.007700061123582 
2.1500000000001127, -1.0076457882796235 
2.160000000000134, -1.008091715424072 
2.170000000000155, -1.0089612306022215 
2.180000000000176, -1.0100044497569167 
2.190000000000197, -1.0110267031149642 
2.2000000000002182, -1.011905288045485 
2.2100000000002393, -1.012510765160227 
2.2200000000002604, -1.0127321465865307 
2.2300000000002815, -1.0126011245192947 
2.2400000000003026, -1.0122888411456612 
2.2500000000003237, -1.0120749723551368 
2.260000000000345, -1.0122578601757277 
2.270000000000366, -1.0128849066073975 
2.280000000000387, -1.013755193761306 
2.290000000000408, -1.0146565221714634 
2.3000000000004293, -1.0154579178347745 
2.3100000000004504, -1.0160615907680712 
2.3200000000004715, -1.0163563044704285 
2.3300000000004926, -1.0163044841557975 
2.3400000000005137, -1.0160114819487405 
2.3500000000005348, -1.0157004226246447 
2.360000000000556, -1.0156615819594155 
2.370000000000577, -1.0160362985110616 
2.380000000000598, -1.0167026017451786 
2.390000000000619, -1.017453441306504 
2.4000000000006403, -1.0181384540421994 
2.4100000000006614, -1.0186733620856478 
2.4200000000006825, -1.0189760937730974 
2.4300000000007036, -1.0189769376655544 
2.4400000000007247, -1.0187127815342385 
2.450000000000746, -1.0183472835649376 
2.460000000000767, -1.01813651523258 
2.470000000000788, -1.018275695489067 
2.480000000000809, -1.0187300240400792 
2.49000000000083, -1.0193222215125075 
2.5000000000008513, -1.0198836838867646 
2.5100000000008724, -1.0203196681967888 
2.5200000000008935, -1.0205755674986523 
2.5300000000009146, -1.020589067981995 
2.5400000000009357, -1.0203465721724958 
2.550000000000957, -1.0199500593592083 
2.560000000000978, -1.0196098134410878 
2.570000000000999, -1.019541072668786 
2.58000000000102, -1.0197882365022912 
2.5900000000010412, -1.0202237125471851 
2.6000000000010624, -1.0206716127363822 
2.6100000000010835, -1.0210101767339632 
2.6200000000011046, -1.021190482592448 
2.6300000000011257, -1.0211764761599886 
2.6400000000011468, -1.0209366220358658 
2.650000000001168, -1.0205176273578385 
2.660000000001189, -1.0200783641678906 
2.67000000000121, -1.0198295999216287 
2.680000000001231, -1.019878609876162 
2.6900000000012523, -1.0201603303665798 
2.7000000000012734, -1.0205083316273162 
2.7100000000012945, -1.020768960280234 
2.7200000000013156, -1.0208732727154335 
2.7300000000013367, -1.020804887946351 
2.740000000001358, -1.0205437185508077 
2.750000000001379, -1.0201004893815293 
2.7600000000014, -1.0195820527838402 
2.770000000001421, -1.0191773498115269 
2.780000000001442, -1.0190368397990024 
2.7900000000014633, -1.0191634985469815 
2.8000000000014844, -1.0194198525735767 
2.8100000000015055, -1.0196263770456069 
2.8200000000015266, -1.0196755595722142 
2.8300000000015477, -1.019547526802244 
2.840000000001569, -1.0192453543409417 
2.85000000000159, -1.0187706960424157 
2.860000000001611, -1.0181858633214251 
2.870000000001632, -1.0176460270158683 
2.8800000000016532, -1.0173239008813908 
2.8900000000016743, -1.0172884238110134 
2.9000000000016954, -1.0174509435701329 
2.9100000000017165, -1.0176212206604955 
2.9200000000017377, -1.0176461561789636 
2.9300000000017588, -1.017476068173416 
2.94000000000178, -1.0171270644710086 
2.950000000001801, -1.016614514536093 
2.960000000001822, -1.015973187213112 
2.970000000001843, -1.015318767229889 
2.9800000000018643, -1.0148252899122758 
2.9900000000018854, -1.0146172777981053 
3.0000000000019065, -1.014671628150426 
3.0100000000019276, -1.0148108637681423 
3.0200000000019487, -1.0148405132012028 
3.03000000000197, -1.0146629499214266 
3.040000000001991, -1.0142819377354977 
3.050000000002012, -1.0137334428033389 
3.060000000002033, -1.013047202436205 
3.070000000002054, -1.0123022606778578 
3.0800000000020753, -1.0116551699915182 
3.0900000000020964, -1.0112673933490348 
3.1000000000021175, -1.0111892348388025 
3.1100000000021386, -1.0112863058540327 
3.1200000000021597, -1.0113377781491812 
3.130000000002181, -1.0111923579851783 
3.140000000002202, -1.0108149851574542 
3.150000000002223, -1.0102482595531432 
3.160000000002244, -1.0095351238845827 
3.1700000000022652, -1.008730266773228 
3.1800000000022863, -1.007959652813277 
3.1900000000023074, -1.0073973767645326 
3.2000000000023285, -1.0071602100997925 
3.2100000000023496, -1.007187099687043 
3.2200000000023707, -1.0072593493007775 
3.230000000002392, -1.0071767249928165 
3.240000000002413, -1.0068502720607668 
3.250000000002434, -1.0063018392104535 
3.260000000002455, -1.0055902825863445 
3.2700000000024763, -1.004763750437014 
3.2800000000024974, -1.003913939126162 
3.2900000000025185, -1.0032031530719143 
3.3000000000025396, -1.0027922667648672 
3.3100000000025607, -1.0027093464939325 
3.3200000000025818, -1.002780351979584 
3.330000000002603, -1.0027719164999824 
3.340000000002624, -1.0025391349356387 
3.350000000002645, -1.0020587220716048 
3.360000000002666, -1.0013888828555837 
3.3700000000026873, -1.0005851334481588 
3.3800000000027084, -0.9997117131411624 
3.3900000000027295, -0.9989009541438287 
3.4000000000027506, -0.9983278787950083 
3.4100000000027717, -0.9980989113370242 
3.420000000002793, -0.9981272183836293 
3.430000000002814, -0.9981808822040976 
3.440000000002835, -0.9980653105547097 
3.450000000002856, -0.9977015623908475 
3.460000000002877, -0.9971212289747486 
3.4700000000028983, -0.9963873816276603 
3.4800000000029194, -0.9955499980687665 
3.4900000000029405, -0.9947036382884468 
3.5000000000029616, -0.9940104921635088 
3.5100000000029827, -0.9936239618697524 
3.520000000003004, -0.9935597226701056 
3.530000000003025, -0.9936402017646415 
3.540000000003046, -0.9936399017540103 
3.550000000003067, -0.9934246941709723 
3.5600000000030882, -0.9929797386657475 
3.5700000000031094, -0.9923608638868455 
3.5800000000031305, -0.9916148644621151 
3.5900000000031516, -0.9908014603008182 
3.6000000000031727, -0.990051071316904 
3.6100000000031938, -0.9895316496431477 
3.620000000003215, -0.9893396749384532 
3.630000000003236, -0.9893949386718601 
3.640000000003257, -0.9894833997612279 
3.650000000003278, -0.9894237562626633 
3.6600000000032993, -0.989146922170187 
3.6700000000033204, -0.9886811824003953 
3.6800000000033415, -0.9880716316806162 
3.6900000000033626, -0.9873531218549603 
3.7000000000033837, -0.9866141103207269 
3.710000000003405, -0.9860125650059478 
3.720000000003426, -0.9856922132777811 
3.730000000003447, -0.9856719230622657 
3.740000000003468, -0.9858028029481295 
3.750000000003489, -0.985881702193962 
3.7600000000035103, -0.9857858070835995 
3.7700000000035314, -0.9855004087691949 
3.7800000000035525, -0.9850601422624538 
3.7900000000035736, -0.9844854837420336 
3.8000000000035947, -0.9838222330623025 
3.810000000003616, -0.9831975652366627 
3.820000000003637, -0.9827777646742083 
3.830000000003658, -0.9826562647162641 
3.840000000003679, -0.9827754677932787 
3.8500000000037002, -0.9829563834164896 
3.8600000000037213, -0.9830341909909477 
3.8700000000037424, -0.9829432288197019 
3.8800000000037635, -0.9826941131475072 
3.8900000000037847, -0.9822981630019931 
3.9000000000038058, -0.9817658418014087 
3.910000000003827, -0.9811781341864817 
3.920000000003848, -0.9806983127961899 
3.930000000003869, -0.9804770363130408 
3.94000000000389, -0.9805418782583828 
3.9500000000039113, -0.9807761212749952 
3.9600000000039324, -0.9810035305095821 
3.9700000000039535, -0.981108074130562 
3.9800000000039746, -0.9810633903735846 
3.9900000000039957, -0.9808696126838244 
4.000000000004016, -0.9805121272059061 
4.010000000003993, -0.9800214941161677 
4.02000000000397, -0.9795279509795087 
4.030000000003946, -0.9792183504264633 
4.040000000003923, -0.979203992758646 
4.0500000000039, -0.9794427143948736 
4.0600000000038765, -0.979782493281237 
4.070000000003853, -0.9800715063129886 
4.08000000000383, -0.9802376029964822 
4.090000000003807, -0.9802617537314819 
4.100000000003783, -0.9801126987166391 
4.11000000000376, -0.9797751223112025 
4.120000000003737, -0.9793272464725259 
4.130000000003713, -0.9789507918586045 
4.14000000000369, -0.978836738530027 
4.150000000003667, -0.9790359990665864 
4.1600000000036434, -0.9794426680873913 
4.17000000000362, -0.979893009216879 
4.180000000003597, -0.9802689317544935 
4.1900000000035735, -0.9805211483339376 
4.20000000000355, -0.9806057040822356 
4.210000000003527, -0.9804695293817428 
4.220000000003504, -0.980133974226456 
4.23000000000348, -0.9797393747684874 
4.240000000003457, -0.9795125044433354 
4.250000000003434, -0.9796220479768483 
4.26000000000341, -0.9800421552798788 
4.270000000003387, -0.980617283736664 
4.280000000003364, -0.981191536085389 
4.2900000000033405, -0.981675295739211 
4.300000000003317, -0.9820097262474213 
4.310000000003294, -0.9821146050492379 
4.320000000003271, -0.9819538336900224 
4.330000000003247, -0.9816135267996874 
4.340000000003224, -0.9812987100859104 
4.350000000003201, -0.9812661271359181 
4.360000000003177, -0.981627249285777 
4.370000000003154, -0.982272023101201 
4.380000000003131, -0.9830162715831394 
4.390000000003107, -0.9837233968336354 
4.400000000003084, -0.9843110786640056 
4.410000000003061, -0.9846834847148832 
4.4200000000030375, -0.9847505189372459 
4.430000000003014, -0.9845381758661139 
4.440000000002991, -0.9842050265718205 
4.450000000002968, -0.984018081676455 
4.460000000002944, -0.9842320822655962 
4.470000000002921, -0.9848615526514057 
4.480000000002898, -0.9857212366414154 
4.490000000002874, -0.9866231613036078 
4.500000000002851, -0.9874481313779858 
4.510000000002828, -0.9880911711820485 
4.520000000002804, -0.9884231996881295 
4.530000000002781, -0.9884002030971286 
4.540000000002758, -0.9881309499316048 
4.5500000000027345, -0.9878429032328034 
4.560000000002711, -0.9878532955989285 
4.570000000002688, -0.9883554062083612 
4.580000000002665, -0.9892400831050783 
4.590000000002641, -0.9902778921812148 
4.600000000002618, -0.9912978897130186 
4.610000000002595, -0.9921812181048532 
4.620000000002571, -0.9927843045999948 
4.630000000002548, -0.9929937178026714 
4.640000000002525, -0.9928555945207359 
4.6500000000025015, -0.9925525529694358 
4.660000000002478, -0.9923797676971855 
4.670000000002455, -0.9926597898418693 
4.6800000000024315, -0.9934485506049804 
4.690000000002408, -0.9945283962848114 
4.700000000002385, -0.9956711965402848 
4.710000000002362, -0.9967292580316224 
4.720000000002338, -0.9975631123857773 
4.730000000002315, -0.99801606173128 
4.740000000002292, -0.9980535487223617 
4.750000000002268, -0.9978105001531521 
4.760000000002245, -0.9975325314359266 
4.770000000002222, -0.9975681711421844 
4.7800000000021985, -0.998147428731411 
4.790000000002175, -0.9991519227808483 
4.800000000002152, -1.0003205886097162 
4.810000000002129, -1.0014628224197815 
4.820000000002105, -1.0024432589697152 
4.830000000002082, -1.0031023790247025 
4.840000000002059, -1.0033309755592865 
4.850000000002035, -1.0031957421042996 
4.860000000002012, -1.0028950516765134 
4.870000000001989, -1.0027377160127542 
4.880000000001965, -1.0030507217572835 
4.890000000001942, -1.0038703498151793 
4.900000000001919, -1.0049604775577803 
4.9100000000018955, -1.0060901682081378 
4.920000000001872, -1.007113918120553 
4.930000000001849, -1.0078954792005923 
