t, s[1].omega / s[0].omega 
0, -0.7299976806098977 
0.009999999999999995, -0.7297514520259585 
0.019999999999999934, -0.7294718426718084 
0.029999999999999874, -0.7291468038617569 
0.04000000000000012, -0.7287646669624586 
0.050000000000000405, -0.72832121430294 
0.06000000000000069, -0.7278234898257787 
0.07000000000000098, -0.7272907232555433 
0.08000000000000126, -0.7267547139979149 
0.09000000000000155, -0.7262615133317907 
0.10000000000000184, -0.7258744872080914 
0.11000000000000212, -0.7256772603259668 
0.12000000000000241, -0.7257743019642943 
0.130000000000002, -0.7262872756879913 
0.1400000000000009, -0.7273466843280009 
0.1499999999999998, -0.7290800162655329 
0.1599999999999987, -0.7315980714862673 
0.1699999999999976, -0.7349793353127602 
0.1799999999999965, -0.7392488920226796 
0.1899999999999954, -0.7443467770394216 
0.1999999999999943, -0.750086826312246 
0.2099999999999932, -0.7561263206522609 
0.2199999999999921, -0.7619904470061847 
0.229999999999991, -0.7671859953494465 
0.2399999999999899, -0.7713644504415182 
0.2499999999999888, -0.7744219538633181 
0.2599999999999877, -0.7764681613181086 
0.2699999999999866, -0.7777147879600222 
0.2799999999999855, -0.7783751558333264 
0.2899999999999844, -0.7786144646636813 
0.2999999999999833, -0.7785396625457728 
0.3099999999999822, -0.7782061834474878 
0.3199999999999811, -0.7776273584326818 
0.32999999999998, -0.7767818350084051 
0.3399999999999789, -0.7756204043007735 
0.3499999999999778, -0.7740781816823893 
0.35999999999997667, -0.7721027707630113 
0.36999999999997557, -0.7697110909788505 
0.37999999999997447, -0.7670746044546536 
0.38999999999997337, -0.7645850083168513 
0.39999999999997227, -0.7627868576890097 
0.40999999999997117, -0.7621163403340124 
0.41999999999997006, -0.7626650597776277 
0.42999999999996896, -0.7642648875188522 
0.43999999999996786, -0.7666778173635893 
0.44999999999996676, -0.7695705321426779 
0.45999999999996566, -0.772505694244523 
0.46999999999996456, -0.7751034587802887 
0.47999999999996346, -0.7771680777881927 
0.48999999999996235, -0.778675077413141 
0.49999999999996125, -0.7796926751751948 
0.5099999999999602, -0.7803134375104628 
0.519999999999959, -0.7806165752740846 
0.529999999999958, -0.7806523293278906 
0.5399999999999568, -0.7804359496510493 
0.5499999999999557, -0.7799428012529575 
0.5599999999999546, -0.7791005085637102 
0.5699999999999535, -0.77777842584365 
0.5799999999999524, -0.7757817138251192 
0.5899999999999513, -0.7728685830761953 
0.5999999999999502, -0.7688171102362178 
0.6099999999999491, -0.7635470884586195 
0.619999999999948, -0.7572366777256417 
0.6299999999999469, -0.7503266368903829 
0.6399999999999458, -0.7433792124917613 
0.6499999999999447, -0.7368943277637159 
0.6599999999999436, -0.73120339824963 
0.6699999999999425, -0.7264624826512807 
0.6799999999999414, -0.7226956504883729 
0.6899999999999403, -0.7198426433358305 
0.6999999999999392, -0.7177938382190954 
0.7099999999999381, -0.7164137569803171 
0.719999999999937, -0.7155584326166148 
0.7299999999999359, -0.715089433130093 
0.7399999999999348, -0.7148843489781522 
0.7499999999999337, -0.7148426184441625 
0.7599999999999326, -0.7148865388266794 
0.7699999999999315, -0.7149588066884291 
0.7799999999999304, -0.71501878136352 
0.7899999999999293, -0.7150395004306207 
0.7999999999999282, -0.7150063999270431 
0.8099999999999271, -0.7149169909629369 
0.819999999999926, -0.7147792304863063 
0.8299999999999249, -0.7146065109834469 
0.8399999999999238, -0.714409837379774 
0.8499999999999227, -0.7141909698058002 
0.8599999999999216, -0.7139408180922147 
0.8699999999999205, -0.713644228744123 
0.8799999999999194, -0.7132881034250309 
0.8899999999999183, -0.7128681965914688 
0.8999999999999172, -0.7123921489802775 
0.9099999999999161, -0.7118798262657615 
0.919999999999915, -0.7113636594280573 
0.9299999999999139, -0.7108908633764941 
0.9399999999999128, -0.7105276163618849 
0.9499999999999117, -0.7103637587675987 
0.9599999999999106, -0.7105157253682985 
0.9699999999999095, -0.71112542173809 
0.9799999999999084, -0.7123536645776418 
0.9899999999999073, -0.7143681140734224 
0.9999999999999062, -0.7173260054117683 
1.0099999999999052, -0.7213501633879202 
1.019999999999904, -0.7264933872379323 
1.029999999999903, -0.7326858983694529 
1.039999999999902, -0.7396724104899279 
1.0499999999999008, -0.7469764237955802 
1.0599999999998997, -0.7539590574210592 
1.0699999999998986, -0.7600039292007457 
1.0799999999998975, -0.7647355911736062 
1.0899999999998964, -0.7681083846388802 
1.0999999999998953, -0.7703185746681815 
1.1099999999998942, -0.7716480148157882 
1.119999999999893, -0.7723518722130187 
1.129999999999892, -0.7726155062981757 
1.1399999999998909, -0.7725531792130272 
1.1499999999998898, -0.7722198903449289 
1.1599999999998887, -0.7716216963345777 
1.1699999999998876, -0.7707199924656866 
1.1799999999998865, -0.7694298626153391 
1.1899999999998854, -0.767614965884405 
1.1999999999998843, -0.7650838395053371 
1.2099999999998832, -0.7615948868229482 
1.219999999999882, -0.7568767569165031 
1.229999999999881, -0.7506685212084985 
1.2399999999998799, -0.7428073585758443 
1.2499999999998788, -0.7334580434407072 
1.2599999999998777, -0.7234755833653346 
1.2699999999998766, -0.7144011581515646 
1.2799999999998755, -0.7076526991336197 
1.2899999999998744, -0.7036697513535403 
1.2999999999998733, -0.701942910718088 
1.3099999999998722, -0.7016183827074087 
1.319999999999871, -0.7019678589118963 
1.32999999999987, -0.7025299160790432 
1.3399999999998689, -0.7030661908953376 
1.3499999999998678, -0.7034751469352719 
1.3599999999998666, -0.7037230093434654 
1.3699999999998655, -0.7038009934552538 
1.3799999999998644, -0.7037016535361729 
1.3899999999998633, -0.703406169292895 
1.3999999999998622, -0.7028777659057515 
1.4099999999998611, -0.702060610765262 
1.41999999999986, -0.7008874067241935 
1.429999999999859, -0.6993002596219384 
1.4399999999998578, -0.6972834673430437 
1.4499999999998567, -0.6948925319449427 
1.4599999999998556, -0.6922549077954692 
1.4699999999998545, -0.6895344144979925 
1.4799999999998534, -0.6868820925040351 
1.4899999999998523, -0.6844046477814266 
1.4999999999998512, -0.6821608016129016 
1.5099999999998501, -0.6801749505611409 
1.519999999999849, -0.678453797664991 
1.529999999999848, -0.6769981002943165 
1.5399999999998468, -0.6758080935319705 
1.5499999999998457, -0.674884206229956 
1.5599999999998446, -0.6742253332541366 
1.5699999999998435, -0.6738265955394575 
1.5799999999998424, -0.6736779357323008 
1.5899999999998413, -0.6737642495180118 
1.5999999999998402, -0.6740670978974833 
1.6099999999998391, -0.6745674950598624 
1.619999999999838, -0.6752489215090322 
1.629999999999837, -0.67609953219514 
1.6399999999998358, -0.6771123495988273 
1.6499999999998347, -0.6782820259363384 
1.6599999999998336, -0.6795970008328986 
1.6699999999998325, -0.6810275792740443 
1.6799999999998314, -0.6825143175588193 
1.6899999999998303, -0.6839655531614904 
1.6999999999998292, -0.685272402240616 
1.709999999999828, -0.6863387446491009 
1.719999999999827, -0.6871091036973984 
1.729999999999826, -0.6875765480457743 
1.7399999999998248, -0.6877693590997478 
1.7499999999998237, -0.6877298775284756 
1.7599999999998226, -0.6874983258410413 
1.7699999999998215, -0.6871059458657374 
1.7799999999998204, -0.6865763888989158 
1.7899999999998193, -0.6859342029271924 
1.7999999999998182, -0.6852219997943637 
1.809999999999817, -0.6845312973244577 
1.819999999999816, -0.6840544054296234 
1.8299999999998149, -0.6841620919322811 
1.8399999999998138, -0.6854941011023168 
1.8499999999998127, -0.6889997894424804 
1.8599999999998116, -0.6957802313764024 
1.8699999999998105, -0.7065510366983603 
1.8799999999998094, -0.7208314349259284 
1.8899999999998083, -0.7366232637390934 
1.8999999999998072, -0.7513359211500207 
1.909999999999806, -0.76323076289256 
1.919999999999805, -0.7719216064137149 
1.9299999999998039, -0.7778729458748974 
1.9399999999998028, -0.7817840595165979 
1.9499999999998017, -0.784276226337067 
1.9599999999998006, -0.7858104871358125 
1.9699999999997995, -0.7866991210572398 
1.9799999999997984, -0.7871396120016521 
1.9899999999997973, -0.787245235763674 
1.9999999999997962, -0.7870650633182039 
2.0099999999998173, -0.7865922001332807 
2.0199999999998384, -0.7857602713341069 
2.0299999999998595, -0.7844284758383283 
2.0399999999998806, -0.7823586479852312 
2.0499999999999017, -0.7791991825463256 
2.059999999999923, -0.7745145200553046 
2.069999999999944, -0.7679188216680595 
2.079999999999965, -0.759326655628343 
2.089999999999986, -0.7491788550373383 
2.100000000000007, -0.7384011907230421 
2.1100000000000283, -0.72805771619663 
2.1200000000000494, -0.7189707544097107 
2.1300000000000705, -0.7115580821062922 
2.1400000000000916, -0.7058826968868088 
2.1500000000001127, -0.7017827836016493 
2.160000000000134, -0.6989891090900794 
2.170000000000155, -0.6972043423299641 
2.180000000000176, -0.6961497993217044 
2.190000000000197, -0.695589521312029 
2.2000000000002182, -0.695338700722293 
2.2100000000002393, -0.6952614763747287 
2.2200000000002604, -0.6952625689639651 
2.2300000000002815, -0.6952767915520444 
2.2400000000003026, -0.6952595812604108 
2.2500000000003237, -0.6951805749640407 
2.260000000000345, -0.6950210630704389 
2.270000000000366, -0.6947746475047204 
2.280000000000387, -0.6944485339486881 
2.290000000000408, -0.6940617898048473 
2.3000000000004293, -0.6936385700863331 
2.3100000000004504, -0.6931985482333025 
2.3200000000004715, -0.6927498757468596 
2.3300000000004926, -0.6922887212953536 
2.3400000000005137, -0.6918050371353424 
2.3500000000005348, -0.6912906011756728 
2.360000000000556, -0.6907452254693267 
2.370000000000577, -0.6901797154022202 
2.380000000000598, -0.6896169011736604 
2.390000000000619, -0.6890927924821775 
2.4000000000006403, -0.6886588902828942 
2.4100000000006614, -0.6883852596551459 
2.4200000000006825, -0.6883630121978226 
2.4300000000007036, -0.6887046311268492 
2.4400000000007247, -0.6895410678350028 
2.450000000000746, -0.6910153917630646 
2.460000000000767, -0.6932731502086755 
2.470000000000788, -0.6964484585274411 
2.480000000000809, -0.7006418607550342 
2.49000000000083, -0.7058829129549985 
2.5000000000008513, -0.7120728704584491 
2.5100000000008724, -0.7189205551116189 
2.5200000000008935, -0.7259203465286134 
2.5300000000009146, -0.7324414438363034 
2.5400000000009357, -0.7379330581592405 
2.550000000000957, -0.7421188648184829 
2.560000000000978, -0.7450326455828689 
2.570000000000999, -0.7469001143839111 
2.58000000000102, -0.7479919274386666 
2.5900000000010412, -0.7485352597261896 
2.6000000000010624, -0.7486869881788626 
2.6100000000010835, -0.7485378502033619 
2.6200000000011046, -0.7481234150958145 
2.6300000000011257, -0.747430841283 
2.6400000000011468, -0.7463978338568118 
2.650000000001168, -0.744902698284515 
2.660000000001189, -0.7427447939046781 
2.67000000000121, -0.7396151800729421 
2.680000000001231, -0.7350608020305363 
2.6900000000012523, -0.7284623680023863 
2.7000000000012734, -0.7191032832836987 
2.7100000000012945, -0.7065076825011057 
2.7200000000013156, -0.691140911485862 
2.7300000000013367, -0.6749037849880255 
2.740000000001358, -0.6604187963693123 
2.750000000001379, -0.6494910666933568 
2.7600000000014, -0.6423928122135466 
2.770000000001421, -0.6383583689156366 
2.780000000001442, -0.6363599134926236 
2.7900000000014633, -0.6355441270930096 
2.8000000000014844, -0.6353363165578753 
2.8100000000015055, -0.6353939887603174 
2.8200000000015266, -0.6355291338396887 
2.8300000000015477, -0.6356438951953158 
2.840000000001569, -0.6356873784504721 
2.85000000000159, -0.6356295042747793 
2.860000000001611, -0.6354464593705209 
2.870000000001632, -0.6351141841291164 
2.8800000000016532, -0.6346085740490447 
2.8900000000016743, -0.6339121157505949 
2.9000000000016954, -0.6330250799617416 
2.9100000000017165, -0.6319751984387257 
2.9200000000017377, -0.6308172479906864 
2.9300000000017588, -0.6296191280528867 
2.94000000000178, -0.6284416599444045 
2.950000000001801, -0.627324218369168 
2.960000000001822, -0.6262824960077735 
2.970000000001843, -0.6253158768208212 
2.9800000000018643, -0.6244180128708836 
2.9900000000018854, -0.6235856003102492 
3.0000000000019065, -0.6228236243808294 
3.0100000000019276, -0.6221477968024943 
3.0200000000019487, -0.6215856501065711 
3.03000000000197, -0.621177288923496 
3.040000000001991, -0.6209760697144789 
3.050000000002012, -0.6210490737724343 
3.060000000002033, -0.6214772343528698 
3.070000000002054, -0.6223551453215888 
3.0800000000020753, -0.6237905265042715 
3.0900000000020964, -0.6259025753753079 
3.1000000000021175, -0.6288165197234606 
3.1100000000021386, -0.6326484039592633 
3.1200000000021597, -0.6374705837575424 
3.130000000002181, -0.6432495175152597 
3.140000000002202, -0.6497645826584149 
3.150000000002223, -0.6565583344761913 
3.160000000002244, -0.6630033371274382 
3.1700000000022652, -0.6685119874727437 
3.1800000000022863, -0.6727602875910226 
3.1900000000023074, -0.675748549801176 
3.2000000000023285, -0.6776874364882721 
3.2100000000023496, -0.6788436161416053 
3.2200000000023707, -0.6794445502595785 
3.230000000002392, -0.6796483771639579 
3.240000000002413, -0.6795466486059369 
3.250000000002434, -0.6791740440307004 
3.260000000002455, -0.6785127279243417 
3.2700000000024763, -0.6774860580141218 
3.2800000000024974, -0.6759376394374143 
3.2900000000025185, -0.6735909712795747 
3.3000000000025396, -0.6699882545585902 
3.3100000000025607, -0.664429442801015 
3.3200000000025818, -0.6560014635954604 
3.330000000002603, -0.6438900104010374 
3.340000000002624, -0.6280854779771577 
3.350000000002645, -0.6100124803307603 
3.360000000002666, -0.5921519887601431 
3.3700000000026873, -0.5767253852447451 
3.3800000000027084, -0.5647598914641531 
3.3900000000027295, -0.5561765777346561 
3.4000000000027506, -0.5503501077343157 
3.4100000000027717, -0.5465553915496596 
3.420000000002793, -0.5441717220780052 
3.430000000002814, -0.5427315476410798 
3.440000000002835, -0.5419049539041599 
3.450000000002856, -0.5414677052612253 
3.460000000002877, -0.5412710298923752 
3.4700000000028983, -0.5412179606646295 
3.4800000000029194, -0.5412463486986312 
3.4900000000029405, -0.5413174886114753 
3.5000000000029616, -0.541409246985552 
3.5100000000029827, -0.5415126502931926 
3.520000000003004, -0.5416305978644006 
3.530000000003025, -0.541776684508265 
3.540000000003046, -0.5419716650647205 
3.550000000003067, -0.5422359131338637 
3.5600000000030882, -0.5425786808364879 
3.5700000000031094, -0.5429879858780416 
3.5800000000031305, -0.5434267415873492 
3.5900000000031516, -0.5438394404317137 
3.6000000000031727, -0.5441681067306616 
3.6100000000031938, -0.5443692225462058 
3.620000000003215, -0.5444221270595719 
3.630000000003236, -0.5443262898191294 
3.640000000003257, -0.5440924384151284 
3.650000000003278, -0.5437339854273595 
3.6600000000032993, -0.5432621285282302 
3.6700000000033204, -0.5426850895288693 
3.6800000000033415, -0.5420110859262736 
3.6900000000033626, -0.5412550323940895 
3.7000000000033837, -0.5404490475862933 
3.710000000003405, -0.5396539457929814 
3.720000000003426, -0.5389572127689894 
3.730000000003447, -0.5384132755821833 
3.740000000003468, -0.5378422113400677 
3.750000000003489, -0.5364632621065648 
3.7600000000035103, -0.5327547990889563 
3.7700000000035314, -0.5254085187297223 
3.7800000000035525, -0.5150423043376986 
3.7900000000035736, -0.504193399472211 
3.8000000000035947, -0.49521229643965226 
3.810000000003616, -0.4889211308543328 
3.820000000003637, -0.4849867362747541 
3.830000000003658, -0.482716502540235 
3.840000000003679, -0.48149287640021116 
3.8500000000037002, -0.48088207844573494 
3.8600000000037213, -0.4806103375163242 
3.8700000000037424, -0.48051392025804446 
3.8800000000037635, -0.4804974494657486 
3.8900000000037847, -0.48050579966122314 
3.9000000000038058, -0.4805069813539344 
3.910000000003827, -0.4804827460992559 
3.920000000003848, -0.4804245694798843 
3.930000000003869, -0.480333329602856 
3.94000000000389, -0.48022080932161726 
3.9500000000039113, -0.4801103320639569 
3.9600000000039324, -0.4800335794820324 
3.9700000000039535, -0.4800222892795287 
3.9800000000039746, -0.48009674541093084 
3.9900000000039957, -0.4802555686967338 
4.000000000004016, -0.4804717753018646 
4.010000000003993, -0.480698267767094 
4.02000000000397, -0.4808816069492542 
4.030000000003946, -0.48097749323125144 
4.040000000003923, -0.48095985161020627 
4.0500000000039, -0.4808203572200435 
4.0600000000038765, -0.48056167167628044 
4.070000000003853, -0.4801896638853543 
4.08000000000383, -0.47970773208142525 
4.090000000003807, -0.47911360433318384 
4.100000000003783, -0.478397452350555 
4.11000000000376, -0.47753912794781517 
4.120000000003737, -0.47649982345744063 
4.130000000003713, -0.47519610027881026 
4.14000000000369, -0.4734274343392236 
4.150000000003667, -0.4707071689367993 
4.1600000000036434, -0.4659869750207135 
4.17000000000362, -0.457564524658333 
4.180000000003597, -0.44398077187490886 
4.1900000000035735, -0.4259882241126999 
4.20000000000355, -0.4070388689374639 
4.210000000003527, -0.390746034802806 
4.220000000003504, -0.37863268680840695 
4.23000000000348, -0.370380674405508 
4.240000000003457, -0.3650077910542074 
4.250000000003434, -0.3615812110536688 
4.26000000000341, -0.3594180664998372 
4.270000000003387, -0.3580672542383455 
4.280000000003364, -0.3572436794220163 
4.2900000000033405, -0.3567710710767189 
4.300000000003317, -0.35654275183977174 
4.310000000003294, -0.3564971776761158 
4.320000000003271, -0.3566036748295406 
4.330000000003247, -0.356854940592382 
4.340000000003224, -0.3572640270587628 
4.350000000003201, -0.3578641033559787 
4.360000000003177, -0.35870918088023945 
4.370000000003154, -0.35987314598128367 
4.380000000003131, -0.36144279726054485 
4.390000000003107, -0.36349838726941897 
4.400000000003084, -0.36607495683418545 
4.410000000003061, -0.36910733609948315 
4.4200000000030375, -0.3723886706087874 
4.430000000003014, -0.3755968053168538 
4.440000000002991, -0.37840771811264956 
4.450000000002968, -0.3806219410449175 
4.460000000002944, -0.38220488999283286 
4.470000000002921, -0.3832347259721055 
4.480000000002898, -0.38382622551081147 
4.490000000002874, -0.3840805948685749 
4.500000000002851, -0.3840657757308109 
4.510000000002828, -0.3838130755141494 
4.520000000002804, -0.38331833196309584 
4.530000000002781, -0.38254282354895663 
4.540000000002758, -0.3814152380345397 
4.5500000000027345, -0.3798419050259828 
4.560000000002711, -0.3777371347837132 
4.570000000002688, -0.37507974896089696 
4.580000000002665, -0.3719734817283292 
4.590000000002641, -0.36865546726473786 
4.600000000002618, -0.3654194308873429 
4.610000000002595, -0.36250353775428057 
4.620000000002571, -0.3600273232178058 
4.630000000002548, -0.3580011658626624 
4.640000000002525, -0.3563710446547532 
4.6500000000025015, -0.3550604152728087 
4.660000000002478, -0.35399592685487524 
4.670000000002455, -0.3531192374337623 
4.6800000000024315, -0.3523906551848107 
4.690000000002408, -0.35178925884875833 
4.700000000002385, -0.35131265228079767 
4.710000000002362, -0.35097851317948264 
4.720000000002338, -0.35082970036380556 
4.730000000002315, -0.3509449487502337 
4.740000000002292, -0.35145811671067795 
4.750000000002268, -0.3525902645767741 
4.760000000002245, -0.35469900949241345 
4.770000000002222, -0.3583427473498865 
4.7800000000021985, -0.3643255491414744 
4.790000000002175, -0.3735948453289621 
4.800000000002152, -0.3867070457643741 
4.810000000002129, -0.4026799033588479 
4.820000000002105, -0.41821671457207216 
4.830000000002082, -0.42945458014568993 
4.840000000002059, -0.43520023259873397 
4.850000000002035, -0.4371514142695963 
4.860000000002012, -0.4374698174820123 
4.870000000001989, -0.43739042991402155 
4.880000000001965, -0.437341624812833 
4.890000000001942, -0.4373891393942014 
4.900000000001919, -0.4374957154454847 
4.9100000000018955, -0.4376155897139616 
