t, s[1].omega / s[0].omega 
0, -1.1001059988386221 
0.009999999999999995, -1.1125300050480615 
0.019999999999999934, -1.1256802926266876 
0.029999999999999874, -1.1363816102254 
0.04000000000000012, -1.1437088645832443 
0.050000000000000405, -1.1481966909379857 
0.06000000000000069, -1.1507390337655545 
0.07000000000000098, -1.1520644243002782 
0.08000000000000126, -1.1526426151900389 
0.09000000000000155, -1.1527402661993658 
0.10000000000000184, -1.152491080940276 
0.11000000000000212, -1.151948908700126 
0.12000000000000241, -1.151133854203798 
0.130000000000002, -1.15010083625458 
0.1400000000000009, -1.1490709231422809 
0.1499999999999998, -1.1486309863829505 
0.1599999999999987, -1.1498470658375366 
0.1699999999999976, -1.1539374185572713 
0.1799999999999965, -1.161419835818737 
0.1899999999999954, -1.171475585532833 
0.1999999999999943, -1.1823185546560693 
0.2099999999999932, -1.192191293662856 
0.2199999999999921, -1.2000581716018675 
0.229999999999991, -1.2056832720518285 
0.2399999999999899, -1.2093511782802349 
0.2499999999999888, -1.211541256513028 
0.2599999999999877, -1.212710995103455 
0.2699999999999866, -1.2132076021564628 
0.2799999999999855, -1.2132632508735435 
0.2899999999999844, -1.213026582396487 
0.2999999999999833, -1.2126052816285633 
0.3099999999999822, -1.2121121186485324 
0.3199999999999811, -1.2117057408056437 
0.32999999999998, -1.2115976592038287 
0.3399999999999789, -1.2119903593927333 
0.3499999999999778, -1.2129697059264934 
0.35999999999997667, -1.2144505597147057 
0.36999999999997557, -1.2162304051800805 
0.37999999999997447, -1.2180877972092607 
0.38999999999997337, -1.2198454856147865 
0.39999999999997227, -1.2213846278409863 
0.40999999999997117, -1.2226346827695136 
0.41999999999997006, -1.2235597299965408 
0.42999999999996896, -1.224149235385426 
0.43999999999996786, -1.2244132813726163 
0.44999999999996676, -1.224379188483656 
0.45999999999996566, -1.224087546984293 
0.46999999999996456, -1.2235889338297432 
0.47999999999996346, -1.2229439101826958 
0.48999999999996235, -1.2222257339194385 
0.49999999999996125, -1.221519827685038 
0.5099999999999602, -1.2209132308700341 
0.519999999999959, -1.220475578497883 
0.529999999999958, -1.2202417071279603 
0.5399999999999568, -1.2202028721634954 
0.5499999999999557, -1.2203077565923623 
0.5599999999999546, -1.2204750948996912 
0.5699999999999535, -1.2206145931045316 
0.5799999999999524, -1.220643834704034 
0.5899999999999513, -1.2204932069161107 
0.5999999999999502, -1.2201030950710583 
0.6099999999999491, -1.2194218457909263 
0.619999999999948, -1.2184084437209564 
0.6299999999999469, -1.2170381445809266 
0.6399999999999458, -1.2153077273941517 
0.6499999999999447, -1.2132399701617962 
0.6599999999999436, -1.210890508800302 
0.6699999999999425, -1.208359963764391 
0.6799999999999414, -1.2058082174800904 
0.6899999999999403, -1.2034554940456128 
0.6999999999999392, -1.2015424668717352 
0.7099999999999381, -1.2002369526565484 
0.719999999999937, -1.199540274784092 
0.7299999999999359, -1.19928713971338 
0.7399999999999348, -1.1992461483411492 
0.7499999999999337, -1.199219785764771 
0.7599999999999326, -1.1990722231468913 
0.7699999999999315, -1.1987006980886474 
0.7799999999999304, -1.1979897871550487 
0.7899999999999293, -1.1967667552428192 
0.7999999999999282, -1.1947625384016136 
0.8099999999999271, -1.1915905181314197 
0.819999999999926, -1.186776905196178 
0.8299999999999249, -1.1798923565578103 
0.8399999999999238, -1.1708091909611262 
0.8499999999999227, -1.160016286573247 
0.8599999999999216, -1.1487857402435162 
0.8699999999999205, -1.13890183551994 
0.8799999999999194, -1.131865510631641 
0.8899999999999183, -1.1280802141572228 
0.8999999999999172, -1.1268037765556496 
0.9099999999999161, -1.126868381216539 
0.919999999999915, -1.1273639450281998 
0.9299999999999139, -1.127817773606925 
0.9399999999999128, -1.1280562629578745 
0.9499999999999117, -1.1280327595894695 
0.9599999999999106, -1.127719769973754 
0.9699999999999095, -1.1270500249597164 
0.9799999999999084, -1.1258713630035728 
0.9899999999999073, -1.1238905818706877 
0.9999999999999062, -1.1205983792701972 
1.0099999999999052, -1.1152070369364657 
1.019999999999904, -1.1067288258632744 
1.029999999999903, -1.0944539471446588 
1.039999999999902, -1.078965352114579 
1.0499999999999008, -1.0629726243874176 
1.0599999999998997, -1.0503930549940892 
1.0699999999998986, -1.0436944900928637 
1.0799999999998975, -1.04234464191019 
1.0899999999998964, -1.0439929230224565 
1.0999999999998953, -1.0464717564375865 
1.1099999999998942, -1.0486387405151316 
1.119999999999893, -1.05016235960511 
1.129999999999892, -1.0510807246916904 
1.1399999999998909, -1.0515225903565526 
1.1499999999998898, -1.0515937214887008 
1.1599999999998887, -1.0513440194449533 
1.1699999999998876, -1.0507579929116697 
1.1799999999998865, -1.04974241804624 
1.1899999999998854, -1.048101727181706 
1.1999999999998843, -1.0455042994111639 
1.2099999999998832, -1.0414688858955428 
1.219999999999882, -1.0354576105797577 
1.229999999999881, -1.0272265335077386 
1.2399999999998799, -1.017481481352195 
1.2499999999998788, -1.0083488275767891 
1.2599999999998777, -1.0026427403125535 
1.2699999999998766, -1.0019115251754616 
1.2799999999998755, -1.005263459355488 
1.2899999999998744, -1.0103681771859139 
1.2999999999998733, -1.0152331364144933 
1.3099999999998722, -1.0189570433737276 
1.319999999999871, -1.0214572969877393 
1.32999999999987, -1.0229805155523075 
1.3399999999998689, -1.0238068795848547 
1.3499999999998678, -1.024145304952046 
1.3599999999998666, -1.0241186762855288 
1.3699999999998655, -1.0237730113507595 
1.3799999999998644, -1.0230831387183943 
1.3899999999998633, -1.0219466594230384 
1.3999999999998622, -1.020167209848105 
1.4099999999998611, -1.0174406544163583 
1.41999999999986, -1.0133875104184324 
1.429999999999859, -1.0077243516422076 
1.4399999999998578, -1.0006737565584758 
1.4499999999998567, -0.9934875072859735 
1.4599999999998556, -0.98844037744581 
1.4699999999998545, -0.9876246210432003 
1.4799999999998534, -0.9912895922763113 
1.4899999999998523, -0.9976259482472065 
1.4999999999998512, -1.0042684319911863 
1.5099999999998501, -1.0097181714497272 
1.519999999999849, -1.0135699976676749 
1.529999999999848, -1.016035082190638 
1.5399999999998468, -1.0174866713968176 
1.5499999999998457, -1.018245653532284 
1.5599999999998446, -1.0185279028391785 
1.5699999999998435, -1.0184526521106456 
1.5799999999998424, -1.0180597721909863 
1.5899999999998413, -1.0173178739051019 
1.5999999999998402, -1.0161198467044534 
1.6099999999998391, -1.0142705688553098 
1.619999999999838, -1.0114859327921153 
1.629999999999837, -1.007454504496279 
1.6399999999998358, -1.002055812400896 
1.6499999999998347, -0.9957967537154188 
1.6599999999998336, -0.9902334279008744 
1.6699999999998325, -0.9876700567477938 
1.6799999999998314, -0.9897129235021916 
1.6899999999998303, -0.995844285182628 
1.6999999999998292, -1.0037715640453582 
1.709999999999828, -1.0111676861491066 
1.719999999999827, -1.0168479364237046 
1.729999999999826, -1.0206961569478046 
1.7399999999998248, -1.02308617829439 
1.7499999999998237, -1.024457059861749 
1.7599999999998226, -1.025147541592677 
1.7699999999998215, -1.0253732216155684 
1.7799999999998204, -1.0252477471631904 
1.7899999999998193, -1.024804445693801 
1.7999999999998182, -1.0240060704749971 
1.809999999999817, -1.022743186665022 
1.819999999999816, -1.0208310915678382 
1.8299999999998149, -1.0180341743676387 
1.8399999999998138, -1.014182973780999 
1.8499999999998127, -1.0094754123472076 
1.8599999999998116, -1.0049413549320252 
1.8699999999998105, -1.002636564475285 
1.8799999999998094, -1.0047869208238331 
1.8899999999998083, -1.0119908906722468 
1.8999999999998072, -1.0223526557401192 
1.909999999999806, -1.0328518049670046 
1.919999999999805, -1.0413660119529609 
1.9299999999998039, -1.0473155110901358 
1.9399999999998028, -1.0510802672604878 
1.9499999999998017, -1.0532944137516331 
1.9599999999998006, -1.0544950590083073 
1.9699999999997995, -1.0550433052576258 
1.9799999999997984, -1.055150075248604 
1.9899999999997973, -1.0549175933426245 
1.9999999999997962, -1.0543689564883918 
2.0099999999998173, -1.0534649064596506 
2.0199999999998384, -1.0521196694091302 
2.0299999999998595, -1.0502445493684758 
2.0399999999998806, -1.04787697472539 
2.0499999999999017, -1.0454682761977816 
2.059999999999923, -1.0442902784552412 
2.069999999999944, -1.0465311892817875 
2.079999999999965, -1.0543197187425142 
2.089999999999986, -1.0677903620893412 
2.100000000000007, -1.0842003139903886 
2.1100000000000283, -1.0996536028075479 
2.1200000000000494, -1.1116195868752086 
2.1300000000000705, -1.1196655742404542 
2.1400000000000916, -1.124576855913669 
2.1500000000001127, -1.1273709650549342 
2.160000000000134, -1.1288468027635097 
2.170000000000155, -1.1295183662983885 
2.180000000000176, -1.1296816239854561 
2.190000000000197, -1.129491785808116 
2.2000000000002182, -1.1290215187212715 
2.2100000000002393, -1.1283089689210768 
2.2200000000002604, -1.1274200106818981 
2.2300000000002815, -1.126554556000832 
2.2400000000003026, -1.1261972732324974 
2.2500000000003237, -1.1271996889907492 
2.260000000000345, -1.1305488098624221 
2.270000000000366, -1.136753611377816 
2.280000000000387, -1.145330365556705 
2.290000000000408, -1.1549604862718412 
2.3000000000004293, -1.1641683412847494 
2.3100000000004504, -1.1719067683445088 
2.3200000000004715, -1.1777462773680363 
2.3300000000004926, -1.1817577615175827 
2.3400000000005137, -1.1842804498726216 
2.3500000000005348, -1.185715373846624 
2.360000000000556, -1.186405718390413 
2.370000000000577, -1.186599485619312 
2.380000000000598, -1.186460998508886 
2.390000000000619, -1.1861029171170792 
2.4000000000006403, -1.1856260788307913 
2.4100000000006614, -1.1851609801544054 
2.4200000000006825, -1.1848935022644134 
2.4300000000007036, -1.1850402608559034 
2.4400000000007247, -1.185760005749508 
2.450000000000746, -1.1870623783457528 
2.460000000000767, -1.1888027016901477 
2.470000000000788, -1.190761648761067 
2.480000000000809, -1.1927304088720638 
2.49000000000083, -1.1945511749917952 
2.5000000000008513, -1.1961198189399476 
2.5100000000008724, -1.197374520661248 
2.5200000000008935, -1.1982851565719368 
2.5300000000009146, -1.1988474355982783 
2.5400000000009357, -1.199079508444854 
2.550000000000957, -1.1990175887696455 
2.560000000000978, -1.1987102371618001 
2.570000000000999, -1.198214502712585 
2.58000000000102, -1.1975966826074171 
2.5900000000010412, -1.1969354724575958 
2.6000000000010624, -1.1963197870205151 
2.6100000000010835, -1.195834735808178 
2.6200000000011046, -1.1955401374385786 
2.6300000000011257, -1.1954547448590935 
2.6400000000011468, -1.195553482197177 
2.650000000001168, -1.1957754636581233 
2.660000000001189, -1.196039457697224 
2.67000000000121, -1.1962620306571101 
2.680000000001231, -1.1963703823599883 
2.6900000000012523, -1.1963061520840772 
2.7000000000012734, -1.19602409480416 
2.7100000000012945, -1.195491066535883 
2.7200000000013156, -1.1946869585699238 
2.7300000000013367, -1.1936061093065722 
2.740000000001358, -1.1922581895503892 
2.750000000001379, -1.1906698022381061 
2.7600000000014, -1.1888888177689985 
2.770000000001421, -1.1869917008660047 
2.780000000001442, -1.185090620897759 
2.7900000000014633, -1.1833322924448797 
2.8000000000014844, -1.181875483355683 
2.8100000000015055, -1.1808392597609834 
2.8200000000015266, -1.18024363331019 
2.8300000000015477, -1.1799938531377192 
2.840000000001569, -1.1799295140645856 
2.85000000000159, -1.1798924508754087 
2.860000000001611, -1.1797589749584223 
2.870000000001632, -1.1794301096585589 
2.8800000000016532, -1.1788030688409177 
2.8900000000016743, -1.1777433773137875 
2.9000000000016954, -1.176068451386661 
2.9100000000017165, -1.1735533995949246 
2.9200000000017377, -1.1699710038284732 
2.9300000000017588, -1.165168507225263 
2.94000000000178, -1.1591646073932027 
2.950000000001801, -1.1522370812612674 
2.960000000001822, -1.1449668283140952 
2.970000000001843, -1.1381833228870883 
2.9800000000018643, -1.1327400301025754 
2.9900000000018854, -1.129151021121282 
3.0000000000019065, -1.1273431861269765 
3.0100000000019276, -1.1267795796441864 
3.0200000000019487, -1.126830129062927 
3.03000000000197, -1.1270405087797117 
3.040000000001991, -1.127170752978577 
3.050000000002012, -1.1271133059626703 
3.060000000002033, -1.1268040717374812 
3.070000000002054, -1.1261586144455136 
3.0800000000020753, -1.1250215641684465 
3.0900000000020964, -1.1231112905417897 
3.1000000000021175, -1.1199543754986663 
3.1100000000021386, -1.1148383622512341 
3.1200000000021597, -1.1068803390254809 
3.130000000002181, -1.095379952442065 
3.140000000002202, -1.0805255010731132 
3.150000000002223, -1.0640453612247547 
3.160000000002244, -1.048915332441411 
3.1700000000022652, -1.0378288125126083 
3.1800000000022863, -1.0316705487453133 
3.1900000000023074, -1.0294480791590903 
3.2000000000023285, -1.0294409633242059 
3.2100000000023496, -1.0302519610368246 
3.2200000000023707, -1.0311191424888646 
3.230000000002392, -1.0317510799640932 
3.240000000002413, -1.0320853065649422 
3.250000000002434, -1.0321308753651384 
3.260000000002455, -1.031891656526707 
3.2700000000024763, -1.031329276072036 
3.2800000000024974, -1.0303342512330382 
3.2900000000025185, -1.0286868761117594 
3.3000000000025396, -1.0259998046602745 
3.3100000000025607, -1.0216539610908926 
3.3200000000025818, -1.014790250686539 
3.330000000002603, -1.0045080462789677 
3.340000000002624, -0.9904447096916942 
3.350000000002645, -0.9735906508541478 
3.360000000002666, -0.9565327979567468 
3.3700000000026873, -0.9423588847326055 
3.3800000000027084, -0.9329228545348581 
3.3900000000027295, -0.9281154726841464 
3.4000000000027506, -0.9265578961725984 
3.4100000000027717, -0.9267023438054263 
3.420000000002793, -0.9274526638162852 
3.430000000002814, -0.9282334677393834 
3.440000000002835, -0.928817992540384 
3.450000000002856, -0.9291496194009634 
3.460000000002877, -0.9292292363061188 
3.4700000000028983, -0.9290577272944835 
3.4800000000029194, -0.928606622110024 
3.4900000000029405, -0.927796704817774 
3.5000000000029616, -0.9264733061230839 
3.5100000000029827, -0.9243757357151955 
3.520000000003004, -0.9211128589393525 
3.530000000003025, -0.9161834378536107 
3.540000000003046, -0.9091059937590659 
3.550000000003067, -0.8996906475403229 
3.5600000000030882, -0.8883369671492168 
3.5700000000031094, -0.8760942330740153 
3.5800000000031305, -0.864341472059815 
3.5900000000031516, -0.8542831293965983 
3.6000000000031727, -0.846591155616857 
3.6100000000031938, -0.8413402240423343 
3.620000000003215, -0.838166489973761 
3.630000000003236, -0.8365066100652078 
3.640000000003257, -0.8358014171201855 
3.650000000003278, -0.8356096476242568 
3.6600000000032993, -0.8356348716329277 
3.6700000000033204, -0.8357002470407704 
3.6800000000033415, -0.8357066238289409 
3.6900000000033626, -0.8355947068106669 
3.7000000000033837, -0.8353178685254476 
3.710000000003405, -0.8348253809303301 
3.720000000003426, -0.8340552782490664 
3.730000000003447, -0.8329383079366861 
3.740000000003468, -0.8314151509319547 
3.750000000003489, -0.8294637253094331 
3.7600000000035103, -0.8271225661182451 
3.7700000000035314, -0.8244920345210431 
3.7800000000035525, -0.8217091954745837 
3.7900000000035736, -0.818913116726583 
3.8000000000035947, -0.8162212473619526 
3.810000000003616, -0.8137233574127102 
3.820000000003637, -0.8114861100660213 
3.830000000003658, -0.8095587837065393 
3.840000000003679, -0.8079749518092468 
3.8500000000037002, -0.8067498951099527 
3.8600000000037213, -0.8058766204146244 
3.8700000000037424, -0.8053242435317818 
3.8800000000037635, -0.8050412504621844 
3.8900000000037847, -0.8049634266229455 
3.9000000000038058, -0.8050236813147222 
3.910000000003827, -0.805160337270741 
3.920000000003848, -0.8053219566595107 
3.930000000003869, -0.8054689937749965 
3.94000000000389, -0.8055738024249861 
3.9500000000039113, -0.8056201304358266 
3.9600000000039324, -0.8056018389836787 
3.9700000000039535, -0.8055197237817999 
3.9800000000039746, -0.805376326887463 
3.9900000000039957, -0.8051709383451946 
4.000000000004016, -0.8048980164609298 
4.010000000003993, -0.804550292110422 
4.02000000000397, -0.8041244806870749 
4.030000000003946, -0.8036261474165871 
4.040000000003923, -0.8030720040559789 
4.0500000000039, -0.802490493309417 
4.0600000000038765, -0.801922291504795 
4.070000000003853, -0.8014210981316298 
4.08000000000383, -0.8010533280185357 
4.090000000003807, -0.8008945906405168 
4.100000000003783, -0.8010218615594867 
4.11000000000376, -0.801502668682127 
4.120000000003737, -0.802384814560901 
4.130000000003713, -0.8036902125848513 
4.14000000000369, -0.8054139360115521 
4.150000000003667, -0.8075262485412434 
4.1600000000036434, -0.8099734656961696 
4.17000000000362, -0.8126743514587981 
4.180000000003597, -0.815512836103025 
4.1900000000035735, -0.8183344803330341 
4.20000000000355, -0.8209590791063516 
4.210000000003527, -0.8232162078352365 
4.220000000003504, -0.8249909202558365 
4.23000000000348, -0.8262507493856933 
4.240000000003457, -0.8270364515142736 
4.250000000003434, -0.827427960672422 
4.26000000000341, -0.827510338162968 
4.270000000003387, -0.8273544332885694 
4.280000000003364, -0.827012937142025 
4.2900000000033405, -0.8265275069094715 
4.300000000003317, -0.8259449406145889 
4.310000000003294, -0.8253444761420836 
4.320000000003271, -0.8248802820878112 
4.330000000003247, -0.8248392897234185 
4.340000000003224, -0.8256998870692434 
4.350000000003201, -0.8281504742227904 
4.360000000003177, -0.8330012187347039 
4.370000000003154, -0.840930158956456 
4.380000000003131, -0.8520853607868396 
4.390000000003107, -0.8657252697039703 
4.400000000003084, -0.8802209478096185 
4.410000000003061, -0.8936204395572214 
4.4200000000030375, -0.904483147852327 
4.430000000003014, -0.9123449994517216 
4.440000000002991, -0.9175455914716009 
4.450000000002968, -0.9207560544643674 
4.460000000002944, -0.9226191584311616 
4.470000000002921, -0.9236105400437102 
4.480000000002898, -0.9240361583112128 
4.490000000002874, -0.9240731380903047 
4.500000000002851, -0.9238092609517926 
4.510000000002828, -0.9232696701183036 
4.520000000002804, -0.9224333267136368 
4.530000000002781, -0.9212480594242644 
4.540000000002758, -0.9196605980915236 
4.5500000000027345, -0.9176900824342157 
4.560000000002711, -0.9155810000980535 
4.570000000002688, -0.9140353825636247 
4.580000000002665, -0.9143793122789108 
4.590000000002641, -0.9183004872639643 
4.600000000002618, -0.92687419422668 
4.610000000002595, -0.9394086459084459 
4.620000000002571, -0.9534255225832817 
4.630000000002548, -0.9661379877089911 
4.640000000002525, -0.9759472454280409 
4.6500000000025015, -0.9826790872444547 
4.660000000002478, -0.9869386902884422 
4.670000000002455, -0.9894768037683173 
4.6800000000024315, -0.9908965077711944 
4.690000000002408, -0.991600843317498 
4.700000000002385, -0.9918299099204013 
4.710000000002362, -0.9917081675889445 
4.720000000002338, -0.9912771425716794 
4.730000000002315, -0.9905112630811839 
4.740000000002292, -0.989322032283418 
4.750000000002268, -0.9875621340334242 
4.760000000002245, -0.985055987510502 
4.770000000002222, -0.9817103643848071 
4.7800000000021985, -0.9777728785668517 
4.790000000002175, -0.9742089999506047 
4.800000000002152, -0.9728456423265742 
4.810000000002129, -0.9756582196759339 
4.820000000002105, -0.9832393179918798 
4.830000000002082, -0.9939347828334087 
4.840000000002059, -1.0049050886879294 
4.850000000002035, -1.0139882021599107 
4.860000000002012, -1.0204740563361965 
4.870000000001989, -1.0246632384541114 
4.880000000001965, -1.0271809811572383 
4.890000000001942, -1.0285902452037887 
4.900000000001919, -1.029284119696284 
4.9100000000018955, -1.029500667823265 
4.920000000001872, -1.0293631774570298 
4.930000000001849, -1.028911134233728 
4.940000000001826, -1.028116373310422 
