t, s[1].omega / s[0].omega 
0, -0.9199396441313616 
0.009999999999999995, -0.9158045869706021 
0.019999999999999934, -0.915414589137316 
0.029999999999999874, -0.9176823608539941 
0.04000000000000012, -0.9209998974820662 
0.050000000000000405, -0.924168694580184 
0.06000000000000069, -0.9266531373780952 
0.07000000000000098, -0.9283769485612744 
0.08000000000000126, -0.9294584488866124 
0.09000000000000155, -0.9300488875206712 
0.10000000000000184, -0.9302661412321287 
0.11000000000000212, -0.9301765595388145 
0.12000000000000241, -0.9297911550065774 
0.130000000000002, -0.9290588037601477 
0.1400000000000009, -0.9278475885969059 
0.1499999999999998, -0.9259089963874478 
0.1599999999999987, -0.9228256062523068 
0.1699999999999976, -0.9179635337040754 
0.1799999999999965, -0.9105020610691652 
0.1899999999999954, -0.8996805421180778 
0.1999999999999943, -0.8853585609806359 
0.2099999999999932, -0.8686276654826548 
0.2199999999999921, -0.8517783776986191 
0.229999999999991, -0.8372976608886689 
0.2399999999999899, -0.8266763126843651 
0.2499999999999888, -0.8200206474112971 
0.2599999999999877, -0.8165024079400041 
0.2699999999999866, -0.8150256407525898 
0.2799999999999855, -0.8146615397748155 
0.2899999999999844, -0.8147873883361271 
0.2999999999999833, -0.8150498212730513 
0.3099999999999822, -0.8152737370961306 
0.3199999999999811, -0.8153804053792884 
0.32999999999998, -0.8153318537061123 
0.3399999999999789, -0.8150975046323818 
0.3499999999999778, -0.814634670347381 
0.35999999999997667, -0.8138773526036236 
0.36999999999997557, -0.8127330983094305 
0.37999999999997447, -0.8110932220808929 
0.38999999999997337, -0.808863316777885 
0.39999999999997227, -0.8060111526828914 
0.40999999999997117, -0.8026079028614486 
0.41999999999997006, -0.7988289490096177 
0.42999999999996896, -0.7949067182375149 
0.43999999999996786, -0.7910675748420202 
0.44999999999996676, -0.7874904345520098 
0.45999999999996566, -0.7842969874510395 
0.46999999999996456, -0.7815601467502071 
0.47999999999996346, -0.7793150767134442 
0.48999999999996235, -0.7775656790887809 
0.49999999999996125, -0.7762871682867492 
0.5099999999999602, -0.7754286380932567 
0.519999999999959, -0.7749188652510314 
0.529999999999958, -0.7746757470975709 
0.5399999999999568, -0.7746169637317311 
0.5499999999999557, -0.774668578481393 
0.5599999999999546, -0.7747696438204079 
0.5699999999999535, -0.7748731214718056 
0.5799999999999524, -0.7749449303522188 
0.5899999999999513, -0.7749629476640104 
0.5999999999999502, -0.7749164973740633 
0.6099999999999491, -0.7748051813899604 
0.619999999999948, -0.7746353561794698 
0.6299999999999469, -0.7744142140049399 
0.6399999999999458, -0.7741441660493815 
0.6499999999999447, -0.7738211072607439 
0.6599999999999436, -0.7734377661329699 
0.6699999999999425, -0.772989813501551 
0.6799999999999414, -0.772481102292045 
0.6899999999999403, -0.771926243270195 
0.6999999999999392, -0.7713513547531141 
0.7099999999999381, -0.77079469852195 
0.719999999999937, -0.7703078176905946 
0.7299999999999359, -0.7699561430915061 
0.7399999999999348, -0.7698171481481748 
0.7499999999999337, -0.7699746415522496 
0.7599999999999326, -0.7705095802663036 
0.7699999999999315, -0.7714898096418614 
0.7799999999999304, -0.7729617874581775 
0.7899999999999293, -0.774945766462193 
0.7999999999999282, -0.7774329389006112 
0.8099999999999271, -0.7803807326190035 
0.819999999999926, -0.7837029476611495 
0.8299999999999249, -0.7872564499477788 
0.8399999999999238, -0.7908355462692945 
0.8499999999999227, -0.7941923959171066 
0.8599999999999216, -0.797092269444696 
0.8699999999999205, -0.7993814033134585 
0.8799999999999194, -0.8010228995420088 
0.8899999999999183, -0.802078325618407 
0.8999999999999172, -0.8026570520823801 
0.9099999999999161, -0.8028698418586695 
0.919999999999915, -0.8028041825009676 
0.9299999999999139, -0.802518728619722 
0.9399999999999128, -0.802048667485782 
0.9499999999999117, -0.8014176214335933 
0.9599999999999106, -0.8006576170861905 
0.9699999999999095, -0.7998439501101933 
0.9799999999999084, -0.7991548937219969 
0.9899999999999073, -0.7989619740014071 
0.9999999999999062, -0.7999332725769065 
1.0099999999999052, -0.8030768823768341 
1.019999999999904, -0.8095769511834643 
1.029999999999903, -0.8202733206664107 
1.039999999999902, -0.8348881269513162 
1.0499999999999008, -0.8516088104254284 
1.0599999999998997, -0.8677313034693508 
1.0699999999998986, -0.8810574716865647 
1.0799999999998975, -0.8907743476779366 
1.0899999999998964, -0.8972363277085587 
1.0999999999998953, -0.9012686133884437 
1.1099999999998942, -0.9036658241030079 
1.119999999999893, -0.9050135175762584 
1.129999999999892, -0.9056891409818549 
1.1399999999998909, -0.905914503948182 
1.1499999999998898, -0.9058040505366881 
1.1599999999998887, -0.9053949033950607 
1.1699999999998876, -0.9046588292385597 
1.1799999999998865, -0.9034987213472941 
1.1899999999998854, -0.9017323974213113 
1.1999999999998843, -0.8990701207973535 
1.2099999999998832, -0.8951050209175129 
1.219999999999882, -0.8893619753724475 
1.229999999999881, -0.8814783544145375 
1.2399999999998799, -0.8715589736949839 
1.2499999999998788, -0.860559858277506 
1.2599999999998777, -0.8502702494757605 
1.2699999999998766, -0.8425502100690949 
1.2799999999998755, -0.8382815199113012 
1.2899999999998744, -0.8370317253034554 
1.2999999999998733, -0.8376454944855386 
1.3099999999998722, -0.8390142610186413 
1.319999999999871, -0.8404369612644358 
1.32999999999987, -0.8415989432871089 
1.3399999999998689, -0.8424184230731265 
1.3499999999998678, -0.8429140230980403 
1.3599999999998666, -0.8431279945961035 
1.3699999999998655, -0.8430899986498579 
1.3799999999998644, -0.8428005010960463 
1.3899999999998633, -0.8422195652047868 
1.3999999999998622, -0.8412535817210767 
1.4099999999998611, -0.8397383403019413 
1.41999999999986, -0.8374254798205358 
1.429999999999859, -0.8339943237005057 
1.4399999999998578, -0.8291257977877949 
1.4499999999998567, -0.8226583686114399 
1.4599999999998556, -0.8147648857077738 
1.4699999999998545, -0.8060043647325694 
1.4799999999998534, -0.7971644354144736 
1.4899999999998523, -0.7889977108617382 
1.4999999999998512, -0.7820286786468796 
1.5099999999998501, -0.776499982653012 
1.519999999999849, -0.7724144812423066 
1.529999999999848, -0.7696109888115629 
1.5399999999998468, -0.767840060551955 
1.5499999999998457, -0.7668277409049427 
1.5599999999998446, -0.7663217876936862 
1.5699999999998435, -0.7661173631134767 
1.5799999999998424, -0.7660635248636655 
1.5899999999998413, -0.7660563111095213 
1.5999999999998402, -0.7660257952060323 
1.6099999999998391, -0.7659231339169882 
1.619999999999838, -0.7657113003939251 
1.629999999999837, -0.7653613136887676 
1.6399999999998358, -0.7648541730109945 
1.6499999999998347, -0.764186375236617 
1.6599999999998336, -0.7633741132445921 
1.6699999999998325, -0.7624509070446108 
1.6799999999998314, -0.761457936620636 
1.6899999999998303, -0.7604325122568265 
1.6999999999998292, -0.7594015051881123 
1.709999999999828, -0.7583821465314722 
1.719999999999827, -0.7573875731347682 
1.729999999999826, -0.7564329800896916 
1.7399999999998248, -0.755539756083073 
1.7499999999998237, -0.7547369565808875 
1.7599999999998226, -0.7540603776805492 
1.7699999999998215, -0.7535495622747009 
1.7799999999998204, -0.7532431783792635 
1.7899999999998193, -0.7531737190868795 
1.7999999999998182, -0.7533630054041685 
1.809999999999817, -0.7538199289765352 
1.819999999999816, -0.7545410522372311 
1.8299999999998149, -0.7555134527939396 
1.8399999999998138, -0.7567181320206539 
1.8499999999998127, -0.7581317764928802 
1.8599999999998116, -0.7597248201388289 
1.8699999999998105, -0.7614549156819967 
1.8799999999998094, -0.7632576996160894 
1.8899999999998083, -0.76504103120816 
1.8999999999998072, -0.7666916754359463 
1.909999999999806, -0.7680986544759569 
1.919999999999805, -0.7691839231425441 
1.9299999999998039, -0.7699210907772825 
1.9399999999998028, -0.7703309364788684 
1.9499999999998017, -0.7704608745854209 
1.9599999999998006, -0.7703638444359592 
1.9699999999997995, -0.7700863182962668 
1.9799999999997984, -0.7696668588682748 
1.9899999999997973, -0.7691436600266167 
1.9999999999997962, -0.7685709616585066 
2.0099999999998173, -0.7680467704394665 
2.0199999999998384, -0.7677550686395771 
2.0299999999998595, -0.7680214970942824 
2.0399999999998806, -0.7693683605602492 
2.0499999999999017, -0.7725304326678792 
2.059999999999923, -0.7783638418819525 
2.069999999999944, -0.7875730889991714 
2.079999999999965, -0.800254496637552 
2.089999999999986, -0.8154655977906525 
2.100000000000007, -0.8312616474928131 
2.1100000000000283, -0.8454570982471603 
2.1200000000000494, -0.8566270907616269 
2.1300000000000705, -0.8645051392485457 
2.1400000000000916, -0.869626053222686 
2.1500000000001127, -0.872763525084701 
2.160000000000134, -0.8745879979262771 
2.170000000000155, -0.875570411718738 
2.180000000000176, -0.8760049531109709 
2.190000000000197, -0.8760580396484101 
2.2000000000002182, -0.8758074093549636 
2.2100000000002393, -0.875264124022739 
2.2200000000002604, -0.8743791038686115 
2.2300000000002815, -0.8730371548623876 
2.2400000000003026, -0.8710425617107097 
2.2500000000003237, -0.8681057585737335 
2.260000000000345, -0.8638541493670534 
2.270000000000366, -0.8579105642211401 
2.280000000000387, -0.8500898003615296 
2.290000000000408, -0.8407059300335599 
2.3000000000004293, -0.8308160798507638 
2.3100000000004504, -0.8220517179582967 
2.3200000000004715, -0.8158719341618182 
2.3300000000004926, -0.8127566024747482 
2.3400000000005137, -0.8121188081397536 
2.3500000000005348, -0.8129068450678172 
2.360000000000556, -0.8142102552592758 
2.370000000000577, -0.8154861207235464 
2.380000000000598, -0.8165029866692197 
2.390000000000619, -0.8172076306050057 
2.4000000000006403, -0.8176202219571203 
2.4100000000006614, -0.81777512088995 
2.4200000000006825, -0.8176925896581724 
2.4300000000007036, -0.8173648607028701 
2.4400000000007247, -0.8167458598598222 
2.450000000000746, -0.8157396554568732 
2.460000000000767, -0.8141886701081988 
2.470000000000788, -0.8118717185220188 
2.480000000000809, -0.8085339721645418 
2.49000000000083, -0.8039731409168533 
2.5000000000008513, -0.7981712977776688 
2.5100000000008724, -0.7913921642326812 
2.5200000000008935, -0.7841455626946717 
2.5300000000009146, -0.7770237196966074 
2.5400000000009357, -0.7705265646729691 
2.550000000000957, -0.7649730885709385 
2.560000000000978, -0.760500301193421 
2.570000000000999, -0.7571030370054245 
2.58000000000102, -0.7546792484993547 
2.5900000000010412, -0.7530693792978868 
2.6000000000010624, -0.7520897003129073 
2.6100000000010835, -0.7515597161428998 
2.6200000000011046, -0.7513215151009528 
2.6300000000011257, -0.7512492191710142 
2.6400000000011468, -0.751249304628672 
2.650000000001168, -0.7512550355663834 
2.660000000001189, -0.751219033637873 
2.67000000000121, -0.7511073061560256 
2.680000000001231, -0.7508966546706664 
2.6900000000012523, -0.7505755459947848 
2.7000000000012734, -0.7501462796645468 
2.7100000000012945, -0.749624713553602 
2.7200000000013156, -0.7490350064861723 
2.7300000000013367, -0.7484009660601666 
2.740000000001358, -0.747738980340783 
2.750000000001379, -0.7470565628298695 
2.7600000000014, -0.7463563984583604 
2.770000000001421, -0.7456425790286295 
2.780000000001442, -0.7449257436406566 
2.7900000000014633, -0.744225948505836 
2.8000000000014844, -0.7435738062908502 
2.8100000000015055, -0.7430105795673224 
2.8200000000015266, -0.7425871243012645 
2.8300000000015477, -0.742361047445667 
2.840000000001569, -0.742391796654711 
2.85000000000159, -0.7427344403620151 
2.860000000001611, -0.7434338255016891 
2.870000000001632, -0.7445207774727522 
2.8800000000016532, -0.7460107933102085 
2.8900000000016743, -0.7479038262152019 
2.9000000000016954, -0.7501822166544212 
2.9100000000017165, -0.7528035921108812 
2.9200000000017377, -0.755687846152852 
2.9300000000017588, -0.758703345571171 
2.94000000000178, -0.7616659037059998 
2.950000000001801, -0.7643661067004915 
2.960000000001822, -0.7666240419670017 
2.970000000001843, -0.7683419220876455 
2.9800000000018643, -0.7695188018169432 
2.9900000000018854, -0.7702226290223981 
3.0000000000019065, -0.7705465594312895 
3.0100000000019276, -0.7705760144804682 
3.0200000000019487, -0.7703741030261194 
3.03000000000197, -0.7699805884262194 
3.040000000001991, -0.7694185728332725 
3.050000000002012, -0.7687073412416521 
3.060000000002033, -0.7678848659619143 
3.070000000002054, -0.7670478657586057 
3.0800000000020753, -0.7664189401113989 
3.0900000000020964, -0.7664422389735737 
3.1000000000021175, -0.7678773682590931 
3.1100000000021386, -0.7717934563696754 
3.1200000000021597, -0.7792918655988283 
3.130000000002181, -0.7908525787241041 
3.140000000002202, -0.805606034643702 
3.150000000002223, -0.821323174356197 
3.160000000002244, -0.8355024185732296 
3.1700000000022652, -0.8466296892630842 
3.1800000000022863, -0.854491126107986 
3.1900000000023074, -0.8596559250631325 
3.2000000000023285, -0.8628835806968403 
3.2100000000023496, -0.864816725580661 
3.2200000000023707, -0.8659074725347548 
3.230000000002392, -0.8664426618955245 
3.240000000002413, -0.8665883377798116 
3.250000000002434, -0.8664243809729502 
3.260000000002455, -0.8659629664877349 
3.2700000000024763, -0.865150694359784 
3.2800000000024974, -0.863853990786874 
3.2900000000025185, -0.8618262130555587 
3.3000000000025396, -0.8586579839659482 
3.3100000000025607, -0.8537296497900085 
3.3200000000025818, -0.8462319920591327 
3.330000000002603, -0.8353917208184214 
3.340000000002624, -0.8210155729418803 
3.350000000002645, -0.8041254925955978 
3.360000000002666, -0.786972799228917 
3.3700000000026873, -0.7720433753885103 
3.3800000000027084, -0.7608478690707449 
3.3900000000027295, -0.7535418599451723 
3.4000000000027506, -0.7493792433555325 
3.4100000000027717, -0.7473472509743064 
3.420000000002793, -0.7465655946643992 
3.430000000002814, -0.7464172996980228 
3.440000000002835, -0.7465270583563892 
3.450000000002856, -0.7466896493834876 
3.460000000002877, -0.7468009978496056 
3.4700000000028983, -0.7468081979145726 
3.4800000000029194, -0.746677890885767 
3.4900000000029405, -0.7463777982282728 
3.5000000000029616, -0.7458673259044079 
3.5100000000029827, -0.7450962113004206 
3.520000000003004, -0.7440128295310401 
3.530000000003025, -0.7425830782351117 
3.540000000003046, -0.7408140396964987 
3.550000000003067, -0.7387675560691678 
3.5600000000030882, -0.7365501000396126 
3.5700000000031094, -0.7342825306561717 
3.5800000000031305, -0.7320694539807372 
3.5900000000031516, -0.7299845837551191 
3.6000000000031727, -0.7280729869854077 
3.6100000000031938, -0.7263613009122785 
3.620000000003215, -0.7248674624562632 
3.630000000003236, -0.7236061185708169 
3.640000000003257, -0.7225895852004734 
3.650000000003278, -0.7218259096732031 
3.6600000000032993, -0.7213159866713311 
3.6700000000033204, -0.7210514544102309 
3.6800000000033415, -0.7210144970420763 
3.6900000000033626, -0.7211798246180752 
3.7000000000033837, -0.7215182548517797 
3.710000000003405, -0.7220008065624858 
3.720000000003426, -0.7226021555937489 
3.730000000003447, -0.7233024926932339 
3.740000000003468, -0.7240869491720595 
3.750000000003489, -0.7249418691948781 
3.7600000000035103, -0.7258479425001424 
3.7700000000035314, -0.7267722424056172 
3.7800000000035525, -0.7276639487082626 
3.7900000000035736, -0.7284592111219649 
3.8000000000035947, -0.7290960442343459 
3.810000000003616, -0.7295319355724097 
3.820000000003637, -0.7297532860119379 
3.830000000003658, -0.7297722106711788 
3.840000000003679, -0.7296158642095657 
3.8500000000037002, -0.7293166789863875 
3.8600000000037213, -0.7289086753169794 
3.8700000000037424, -0.7284312418645654 
3.8800000000037635, -0.7279405986908454 
3.8900000000037847, -0.7275296721593565 
3.9000000000038058, -0.7273572021047452 
3.910000000003827, -0.7276845381844625 
3.920000000003848, -0.7289119910965465 
3.930000000003869, -0.7315947718134962 
3.94000000000389, -0.7364026517556803 
3.9500000000039113, -0.7439745651123544 
3.9600000000039324, -0.7546325590681277 
3.9700000000039535, -0.7680080844836591 
3.9800000000039746, -0.7828220437838678 
3.9900000000039957, -0.7971698291166702 
4.000000000004016, -0.80932512415827 
4.010000000003993, -0.818458500641837 
4.02000000000397, -0.8246947157502935 
4.030000000003946, -0.8286646931568091 
4.040000000003923, -0.8310606047271236 
4.0500000000039, -0.8324261639940482 
4.0600000000038765, -0.8331249103322798 
4.070000000003853, -0.8333760955637273 
4.08000000000383, -0.8332967585610824 
4.090000000003807, -0.8329302724788672 
4.100000000003783, -0.8322587918296612 
4.11000000000376, -0.8312007147435349 
4.120000000003737, -0.8295936397806167 
4.130000000003713, -0.8271632436265103 
4.14000000000369, -0.8234837903180345 
4.150000000003667, -0.8179551188053867 
4.1600000000036434, -0.8098648902706111 
4.17000000000362, -0.7986591315215087 
4.180000000003597, -0.7844882907708903 
4.1900000000035735, -0.7687249745289181 
4.20000000000355, -0.7537278001381763 
4.210000000003527, -0.7416652523966805 
4.220000000003504, -0.7334473581605985 
4.23000000000348, -0.7286958860845352 
4.240000000003457, -0.7264153480949013 
4.250000000003434, -0.7256071707013861 
4.26000000000341, -0.7255388038844924 
4.270000000003387, -0.7257625855960665 
4.280000000003364, -0.726039069143855 
4.2900000000033405, -0.7262534719523535 
4.300000000003317, -0.7263543785134366 
4.310000000003294, -0.7263156363757074 
4.320000000003271, -0.7261144830297591 
4.330000000003247, -0.7257196183750847 
4.340000000003224, -0.725086248122344 
4.350000000003201, -0.7241587825801107 
4.360000000003177, -0.7228840646103623 
4.370000000003154, -0.721235415205013 
4.380000000003131, -0.7192383096923725 
4.390000000003107, -0.7169793281758792 
4.400000000003084, -0.7145865552475301 
4.410000000003061, -0.7121920676389382 
4.4200000000030375, -0.7099008246398926 
4.430000000003014, -0.7077802674250676 
4.440000000002991, -0.7058670112079641 
4.450000000002968, -0.7041794875156341 
4.460000000002944, -0.702728332476154 
4.470000000002921, -0.7015217180473492 
4.480000000002898, -0.7005662454689899 
4.490000000002874, -0.6998652415332309 
4.500000000002851, -0.6994163569115884 
4.510000000002828, -0.6992099647784 
4.520000000002804, -0.6992292301050114 
4.530000000002781, -0.6994519745934157 
4.540000000002758, -0.6998537928980326 
4.5500000000027345, -0.7004114851745825 
4.560000000002711, -0.7011057832085373 
4.570000000002688, -0.7019223700990472 
4.580000000002665, -0.70285016421076 
4.590000000002641, -0.7038760119865042 
4.600000000002618, -0.7049760763794289 
4.610000000002595, -0.7061069022524437 
4.620000000002571, -0.7072023252773489 
4.630000000002548, -0.7081823926504388 
4.640000000002525, -0.7089736510291258 
4.6500000000025015, -0.7095299980851127 
4.660000000002478, -0.709841051087985 
4.670000000002455, -0.7099250088696221 
4.6800000000024315, -0.7098141673328023 
4.690000000002408, -0.7095429207076679 
4.700000000002385, -0.7091429783617302 
4.710000000002362, -0.7086463088205643 
4.720000000002338, -0.708095741344827 
4.730000000002315, -0.7075647841688637 
4.740000000002292, -0.707189929177595 
4.750000000002268, -0.7072183557295395 
4.760000000002245, -0.7080682119505611 
4.770000000002222, -0.7103821750405551 
4.7800000000021985, -0.7150221922081517 
4.790000000002175, -0.7229097900491711 
4.800000000002152, -0.7346122084615107 
4.810000000002129, -0.7497367428361471 
4.820000000002105, -0.7665830566052473 
4.830000000002082, -0.7826652507589701 
4.840000000002059, -0.7959457519626484 
4.850000000002035, -0.8056718679462815 
4.860000000002012, -0.8121980482631409 
4.870000000001989, -0.8163284280517485 
4.880000000001965, -0.8188361470491279 
4.890000000001942, -0.8202930820242097 
4.900000000001919, -0.8210715580455895 
4.9100000000018955, -0.821394649360062 
4.920000000001872, -0.8213823331626674 
