t, s[1].omega / s[0].omega 
0, -0.7600014165190047 
0.009999999999999995, -0.7601178003405205 
0.019999999999999934, -0.7601690536276127 
0.029999999999999874, -0.7601321960511002 
0.04000000000000012, -0.7599905201331958 
0.050000000000000405, -0.7597396955727728 
0.06000000000000069, -0.7593891413671697 
0.07000000000000098, -0.7589603463734051 
0.08000000000000126, -0.7584857098993047 
0.09000000000000155, -0.7580103511116875 
0.10000000000000184, -0.7575970843011961 
0.11000000000000212, -0.7573327898672756 
0.12000000000000241, -0.7573330165698661 
0.130000000000002, -0.7577411058725979 
0.1400000000000009, -0.75871910865605 
0.1499999999999998, -0.760430356514455 
0.1599999999999987, -0.7630161633120044 
0.1699999999999976, -0.7665692944098544 
0.1799999999999965, -0.7711040778356584 
0.1899999999999954, -0.7765212687298918 
0.1999999999999943, -0.7825724221131461 
0.2099999999999932, -0.7888476900063505 
0.2199999999999921, -0.7948283861119319 
0.229999999999991, -0.8000222009356308 
0.2399999999999899, -0.804120899895719 
0.2499999999999888, -0.8070711690252249 
0.2599999999999877, -0.8090177853166448 
0.2699999999999866, -0.8101866129735731 
0.2799999999999855, -0.810791742134463 
0.2899999999999844, -0.8109943103604131 
0.2999999999999833, -0.8108972945044274 
0.3099999999999822, -0.8105544789320771 
0.3199999999999811, -0.8099815027692066 
0.32999999999998, -0.8091662226031027 
0.3399999999999789, -0.8080819419137665 
0.3499999999999778, -0.8067125652204311 
0.35999999999997667, -0.8051042728922646 
0.36999999999997557, -0.8034583567413309 
0.37999999999997447, -0.80225623503114 
0.38999999999997337, -0.8023342524705657 
0.39999999999997227, -0.8047237974223551 
0.40999999999997117, -0.8101166776125457 
0.41999999999997006, -0.8182247377443728 
0.42999999999996896, -0.8277136734072756 
0.43999999999996786, -0.8369252204250003 
0.44999999999996676, -0.844687046862003 
0.45999999999996566, -0.8505744322283197 
0.46999999999996456, -0.8547082938806916 
0.47999999999996346, -0.8574463982527029 
0.48999999999996235, -0.8591688663778291 
0.49999999999996125, -0.8601831294957556 
0.5099999999999602, -0.8607038851438615 
0.519999999999959, -0.8608634480700268 
0.529999999999958, -0.8607267655965171 
0.5399999999999568, -0.8602999055811923 
0.5499999999999557, -0.8595274783314573 
0.5599999999999546, -0.8582762455726776 
0.5699999999999535, -0.8563031937812748 
0.5799999999999524, -0.8532125468732022 
0.5899999999999513, -0.8484279114196653 
0.5999999999999502, -0.8412515458039854 
0.6099999999999491, -0.8311208938086532 
0.619999999999948, -0.8180771781461337 
0.6299999999999469, -0.8031451209487683 
0.6399999999999458, -0.7881403209384491 
0.6499999999999447, -0.7748930405461555 
0.6599999999999436, -0.7645185523664996 
0.6699999999999425, -0.7572324428754802 
0.6799999999999414, -0.7526148248258238 
0.6899999999999403, -0.749982745746473 
0.6999999999999392, -0.7486610097842833 
0.7099999999999381, -0.74811197786784 
0.719999999999937, -0.7479627095532604 
0.7299999999999359, -0.7479793714033619 
0.7399999999999348, -0.7480253924509216 
0.7499999999999337, -0.748022713279408 
0.7599999999999326, -0.7479228768927462 
0.7699999999999315, -0.7476882826850837 
0.7799999999999304, -0.7472822452063311 
0.7899999999999293, -0.746667266109877 
0.7999999999999282, -0.7458116563489827 
0.8099999999999271, -0.7447027988303484 
0.819999999999926, -0.7433602785367628 
0.8299999999999249, -0.7418385464860305 
0.8399999999999238, -0.7402140449452419 
0.8499999999999227, -0.738563876352612 
0.8599999999999216, -0.7369492577164191 
0.8699999999999205, -0.7354110266097236 
0.8799999999999194, -0.7339748347966262 
0.8899999999999183, -0.7326595129018296 
0.8999999999999172, -0.7314836330973028 
0.9099999999999161, -0.7304684196779202 
0.919999999999915, -0.7296372456416642 
0.9299999999999139, -0.729012783886312 
0.9399999999999128, -0.7286131331454083 
0.9499999999999117, -0.728448310621747 
0.9599999999999106, -0.7285183343578425 
0.9699999999999095, -0.7288135708489667 
0.9799999999999084, -0.7293172024896041 
0.9899999999999073, -0.7300088939853034 
0.9999999999999062, -0.7308682741363189 
1.0099999999999052, -0.7318767217805688 
1.019999999999904, -0.7330160549082525 
1.029999999999903, -0.7342632474951114 
1.039999999999902, -0.7355818842342724 
1.0499999999999008, -0.7369141432047708 
1.0599999999998997, -0.7381802251503181 
1.0699999999998986, -0.7392910670834502 
1.0799999999998975, -0.7401715956383648 
1.0899999999998964, -0.7407813175301624 
1.0999999999998953, -0.7411192701436394 
1.1099999999998942, -0.7412129537933505 
1.119999999999893, -0.7411017272990559 
1.129999999999892, -0.740824789591736 
1.1399999999998909, -0.740417658066663 
1.1499999999998898, -0.7399170514339639 
1.1599999999998887, -0.7393740520359665 
1.1699999999998876, -0.7388771847598334 
1.1799999999998865, -0.7385880677853999 
1.1899999999998854, -0.7387900262106097 
1.1999999999998843, -0.7399412743044272 
1.2099999999998832, -0.7427056974112963 
1.219999999999882, -0.7479063865254073 
1.229999999999881, -0.7563241347165155 
1.2399999999998799, -0.7682927105143367 
1.2499999999998788, -0.7832077847857971 
1.2599999999998777, -0.7993512336250759 
1.2699999999998766, -0.8144547734360646 
1.2799999999998755, -0.826762832559894 
1.2899999999998744, -0.8356884552352832 
1.2999999999998733, -0.8416168954104932 
1.3099999999998722, -0.8453185661394944 
1.319999999999871, -0.8475210438752467 
1.32999999999987, -0.848757272698835 
1.3399999999998689, -0.8493698186250283 
1.3499999999998678, -0.8495593436964365 
1.3599999999998666, -0.849428189420016 
1.3699999999998655, -0.8490068424694537 
1.3799999999998644, -0.8482632904235933 
1.3899999999998633, -0.8470967460102147 
1.3999999999998622, -0.845316075403874 
1.4099999999998611, -0.8426040917438208 
1.41999999999986, -0.8384774708708935 
1.429999999999859, -0.8322786868403785 
1.4399999999998578, -0.8232889478662117 
1.4499999999998567, -0.8110907992449355 
1.4599999999998556, -0.796170730690027 
1.4699999999998545, -0.7802937119169597 
1.4799999999998534, -0.7659438914607799 
1.4899999999998523, -0.7550198539017037 
1.4999999999998512, -0.7480094442023911 
1.5099999999998501, -0.7442452524745813 
1.519999999999849, -0.742643888625923 
1.529999999999848, -0.7422442006664515 
1.5399999999998468, -0.7423913586566129 
1.5499999999998457, -0.7427093702994898 
1.5599999999998446, -0.7430097405291695 
1.5699999999998435, -0.7432085007374385 
1.5799999999998424, -0.7432699581638509 
1.5899999999998413, -0.7431733383924588 
1.5999999999998402, -0.7428940434261992 
1.6099999999998391, -0.7423934826613517 
1.619999999999838, -0.7416154731206372 
1.629999999999837, -0.740491312765096 
1.6399999999998358, -0.7389576655154663 
1.6499999999998347, -0.7369870186679017 
1.6599999999998336, -0.7346177668871566 
1.6699999999998325, -0.7319610021685148 
1.6799999999998314, -0.7291726989299778 
1.6899999999998303, -0.7264082071827621 
1.6999999999998292, -0.7237882393757865 
1.709999999999828, -0.7213897925878832 
1.719999999999827, -0.7192550239483216 
1.729999999999826, -0.717404957216743 
1.7399999999998248, -0.7158496969155921 
1.7499999999998237, -0.7145930119579635 
1.7599999999998226, -0.7136326314234676 
1.7699999999998215, -0.7129586476439956 
1.7799999999998204, -0.7125522003595595 
1.7899999999998193, -0.7123858139660335 
1.7999999999998182, -0.7124257281474708 
1.809999999999817, -0.7126356376853431 
1.819999999999816, -0.7129807747644452 
1.8299999999998149, -0.7134313267280568 
1.8399999999998138, -0.7139645190933297 
1.8499999999998127, -0.7145648781731178 
1.8599999999998116, -0.7152220718636364 
1.8699999999998105, -0.7159257899906737 
1.8799999999998094, -0.7166582365485935 
1.8899999999998083, -0.7173871883362816 
1.8999999999998072, -0.7180646545233067 
1.909999999999806, -0.7186348884691149 
1.919999999999805, -0.7190494870325471 
1.9299999999998039, -0.7192809432813817 
1.9399999999998028, -0.7193266592368632 
1.9499999999998017, -0.7192032341700083 
1.9599999999998006, -0.7189374331230983 
1.9699999999997995, -0.7185603497844912 
1.9799999999997984, -0.718107893370165 
1.9899999999997973, -0.7176283526245018 
1.9999999999997962, -0.7171974146445023 
2.0099999999998173, -0.7169411836467552 
2.0199999999998384, -0.7170666045019887 
2.0299999999998595, -0.7178946947536924 
2.0399999999998806, -0.7198840840077827 
2.0499999999999017, -0.7236205166361753 
2.059999999999923, -0.7297345974298355 
2.069999999999944, -0.7387056116150651 
2.079999999999965, -0.7505453415800688 
2.089999999999986, -0.7644814895493035 
2.100000000000007, -0.7789394785322826 
2.1100000000000283, -0.7920718138760977 
2.1200000000000494, -0.8025727575900431 
2.1300000000000705, -0.8101045524964429 
2.1400000000000916, -0.8150762304758269 
2.1500000000001127, -0.818164964457263 
2.160000000000134, -0.8199864882205053 
2.170000000000155, -0.8209852793450307 
2.180000000000176, -0.8214441918429902 
2.190000000000197, -0.8215258055588782 
2.2000000000002182, -0.8213077204219708 
2.2100000000002393, -0.8208025476910568 
2.2200000000002604, -0.8199624679128205 
2.2300000000002815, -0.8186689682199523 
2.2400000000003026, -0.816707286619069 
2.2500000000003237, -0.8137264651483317 
2.260000000000345, -0.8091964439523152 
2.270000000000366, -0.8024058789783911 
2.280000000000387, -0.7926063036504183 
2.290000000000408, -0.7794412017561835 
2.3000000000004293, -0.7635916095748236 
2.3100000000004504, -0.7470412425297327 
2.3200000000004715, -0.7323049563806772 
2.3300000000004926, -0.7211079267771183 
2.3400000000005137, -0.7137706282541656 
2.3500000000005348, -0.7095971282954615 
2.360000000000556, -0.7075693280942998 
2.370000000000577, -0.7067966125709634 
2.380000000000598, -0.7066591856584672 
2.390000000000619, -0.7067830594021733 
2.4000000000006403, -0.7069648875529506 
2.4100000000006614, -0.7071022244740355 
2.4200000000006825, -0.7071442191217063 
2.4300000000007036, -0.7070609554662728 
2.4400000000007247, -0.7068257998224547 
2.450000000000746, -0.7064064572423531 
2.460000000000767, -0.7057632627404349 
2.470000000000788, -0.7048556047057629 
2.480000000000809, -0.703657076677008 
2.49000000000083, -0.702174834529063 
2.5000000000008513, -0.7004612202682148 
2.5100000000008724, -0.6986059195647609 
2.5200000000008935, -0.6967104893263047 
2.5300000000009146, -0.6948614546811182 
2.5400000000009357, -0.6931169197474399 
2.550000000000957, -0.6915086509530952 
2.560000000000978, -0.6900521948611396 
2.570000000000999, -0.6887571992365492 
2.58000000000102, -0.6876340419946199 
2.5900000000010412, -0.6866962950926402 
2.6000000000010624, -0.68596008763425 
2.6100000000010835, -0.6854417208851654 
2.6200000000011046, -0.6851547718876185 
2.6300000000011257, -0.6851077474165652 
2.6400000000011468, -0.6853030723370996 
2.650000000001168, -0.6857377293081414 
2.660000000001189, -0.6864052685031249 
2.67000000000121, -0.6872983257314222 
2.680000000001231, -0.6884103162050957 
2.6900000000012523, -0.6897346208361271 
2.7000000000012734, -0.6912595172112581 
2.7100000000012945, -0.6929579945077633 
2.7200000000013156, -0.6947745322696821 
2.7300000000013367, -0.6966161047823325 
2.740000000001358, -0.6983585138632556 
2.750000000001379, -0.69987382067575 
2.7600000000014, -0.7010678300340181 
2.770000000001421, -0.701903858534506 
2.780000000001442, -0.7023987644947849 
2.7900000000014633, -0.702599681633237 
2.8000000000014844, -0.7025595378304786 
2.8100000000015055, -0.7023220769662608 
2.8200000000015266, -0.7019171474668005 
2.8300000000015477, -0.7013633230014262 
2.840000000001569, -0.7006763408670905 
2.85000000000159, -0.6998850880411769 
2.860000000001611, -0.6990601630398282 
2.870000000001632, -0.6983618146395074 
2.8800000000016532, -0.6981098018235956 
2.8900000000016743, -0.6988567920430012 
2.9000000000016954, -0.7013954829416668 
2.9100000000017165, -0.7065617782220712 
2.9200000000017377, -0.7147321011777417 
2.9300000000017588, -0.7252559300671692 
2.94000000000178, -0.7364957167590132 
2.950000000001801, -0.7467171262070769 
2.960000000001822, -0.7549528033044756 
2.970000000001843, -0.761073183133988 
2.9800000000018643, -0.7653886078311086 
2.9900000000018854, -0.7683177958852495 
3.0000000000019065, -0.7702389862775872 
3.0100000000019276, -0.7714464997520774 
3.0200000000019487, -0.7721497796872787 
3.03000000000197, -0.7724861891498657 
3.040000000001991, -0.7725349836301838 
3.050000000002012, -0.7723268710480167 
3.060000000002033, -0.7718468323406549 
3.070000000002054, -0.7710294124444677 
3.0800000000020753, -0.7697473762231775 
3.0900000000020964, -0.7677992837467593 
3.1000000000021175, -0.7649124399768155 
3.1100000000021386, -0.7607924980445813 
3.1200000000021597, -0.7552476079421928 
3.130000000002181, -0.748355363650905 
3.140000000002202, -0.7405474566235537 
3.150000000002223, -0.7325002761719333 
3.160000000002244, -0.7248929197206764 
3.1700000000022652, -0.7182116706094896 
3.1800000000022863, -0.7126948269692251 
3.1900000000023074, -0.7083786092904295 
3.2000000000023285, -0.705170635279433 
3.2100000000023496, -0.7029110736281647 
3.2200000000023707, -0.7014142770329175 
3.230000000002392, -0.700495734830229 
3.240000000002413, -0.6999891088835751 
3.250000000002434, -0.6997555613775039 
3.260000000002455, -0.6996865024608 
3.2700000000024763, -0.6997012975873579 
3.2800000000024974, -0.6997421610724254 
3.2900000000025185, -0.6997686136458688 
3.3000000000025396, -0.6997533925561703 
3.3100000000025607, -0.6996806970265251 
3.3200000000025818, -0.6995461774856115 
3.330000000002603, -0.6993565144571768 
3.340000000002624, -0.6991260314892888 
3.350000000002645, -0.6988697704822423 
3.360000000002666, -0.698595850345678 
3.3700000000026873, -0.698301570502857 
3.3800000000027084, -0.697975700223457 
3.3900000000027295, -0.6976053441925677 
3.4000000000027506, -0.6971831859951843 
3.4100000000027717, -0.6967118187853628 
3.420000000002793, -0.6962049805451591 
3.430000000002814, -0.6956877976833976 
3.440000000002835, -0.6951981743249636 
3.450000000002856, -0.6947901114291019 
3.460000000002877, -0.6945383026833962 
3.4700000000028983, -0.6945423939941746 
3.4800000000029194, -0.6949289077811016 
3.4900000000029405, -0.6958490640892474 
3.5000000000029616, -0.6974713915483439 
3.5100000000029827, -0.6999683435263395 
3.520000000003004, -0.7034950019037159 
3.530000000003025, -0.7081551639592611 
3.540000000003046, -0.7139485764506899 
3.550000000003067, -0.7207009419604445 
3.5600000000030882, -0.7280056781073905 
3.5700000000031094, -0.7352442184176755 
3.5800000000031305, -0.7417423702398308 
3.5900000000031516, -0.747008565302541 
3.6000000000031727, -0.7508845430403963 
3.6100000000031938, -0.753505035323814 
3.620000000003215, -0.7551429713555975 
3.630000000003236, -0.7560732383265847 
3.640000000003257, -0.7565084085139887 
3.650000000003278, -0.7565877282918257 
3.6600000000032993, -0.7563870555785753 
3.6700000000033204, -0.7559302519202251 
3.6800000000033415, -0.7551944474981551 
3.6900000000033626, -0.7541070078278792 
3.7000000000033837, -0.7525334870837911 
3.710000000003405, -0.7502562567971447 
3.720000000003426, -0.7469454120136798 
3.730000000003447, -0.7421317821068647 
3.740000000003468, -0.7352185750273859 
3.750000000003489, -0.7256284014460616 
3.7600000000035103, -0.7132207266422045 
3.7700000000035314, -0.698877681580784 
3.7800000000035525, -0.6845886215899419 
3.7900000000035736, -0.6725072736992339 
3.8000000000035947, -0.6637858357745295 
3.810000000003616, -0.6583290488324074 
3.820000000003637, -0.6553485686078624 
3.830000000003658, -0.6539576016116364 
3.840000000003679, -0.6534604446204589 
3.8500000000037002, -0.6534013150883515 
3.8600000000037213, -0.6535136733295628 
3.8700000000037424, -0.6536535848013453 
3.8800000000037635, -0.6537468688430561 
3.8900000000037847, -0.6537541064903682 
3.9000000000038058, -0.6536496032563798 
3.910000000003827, -0.6534098993305851 
3.920000000003848, -0.6530092640707528 
3.930000000003869, -0.6524215888522055 
3.94000000000389, -0.6516286732575886 
3.9500000000039113, -0.650632594781396 
3.9600000000039324, -0.6494652077192399 
3.9700000000039535, -0.6481860305290352 
3.9800000000039746, -0.6468664850636454 
3.9900000000039957, -0.6455693775705205 
4.000000000004016, -0.6443357645128529 
4.010000000003993, -0.6431841165191614 
4.02000000000397, -0.6421181169502899 
4.030000000003946, -0.641136635633413 
4.040000000003923, -0.6402415082328929 
4.0500000000039, -0.6394419361911146 
4.0600000000038765, -0.6387562643309375 
4.070000000003853, -0.638212268402321 
4.08000000000383, -0.6378466494516418 
4.090000000003807, -0.6377039915058706 
4.100000000003783, -0.6378353320402214 
4.11000000000376, -0.6382966263752576 
4.120000000003737, -0.639147460560495 
4.130000000003713, -0.6404500711493831 
4.14000000000369, -0.6422678430091857 
4.150000000003667, -0.6446609091178386 
4.1600000000036434, -0.6476745433132647 
4.17000000000362, -0.6513150015968667 
4.180000000003597, -0.6555108587040616 
4.1900000000035735, -0.6600712254919471 
4.20000000000355, -0.6646747071287338 
4.210000000003527, -0.6689300047481841 
4.220000000003504, -0.6725026815980177 
4.23000000000348, -0.6752273622754765 
4.240000000003457, -0.677123841509512 
4.250000000003434, -0.6783264356391359 
4.26000000000341, -0.6789979272058583 
4.270000000003387, -0.6792760759640973 
4.280000000003364, -0.6792548144263615 
4.2900000000033405, -0.678983418402082 
4.300000000003317, -0.6784694905007911 
4.310000000003294, -0.677678146808977 
4.320000000003271, -0.6765233315865762 
4.330000000003247, -0.6748475953582374 
4.340000000003224, -0.6723858000424993 
4.350000000003201, -0.6687103600897913 
4.360000000003177, -0.6631739989476515 
4.370000000003154, -0.6549291312385839 
4.380000000003131, -0.6432117480175392 
4.390000000003107, -0.6280288945215866 
4.400000000003084, -0.6108119759244997 
4.410000000003061, -0.594054105353224 
4.4200000000030375, -0.5799438218558327 
4.430000000003014, -0.569396292956138 
4.440000000002991, -0.5621870927583041 
4.450000000002968, -0.5575758952457714 
4.460000000002944, -0.5547788066113151 
4.470000000002921, -0.553164732586618 
4.480000000002898, -0.5522854895639482 
4.490000000002874, -0.551843723305162 
4.500000000002851, -0.5516499486323923 
4.510000000002828, -0.5515862988747264 
4.520000000002804, -0.5515802744614301 
4.530000000002781, -0.5515872635800241 
4.540000000002758, -0.5515798637501851 
4.5500000000027345, -0.5515423804977788 
4.560000000002711, -0.551469163044519 
4.570000000002688, -0.5513651172641898 
4.580000000002665, -0.5512458950853973 
4.590000000002641, -0.5511349254825768 
4.600000000002618, -0.5510559821859088 
4.610000000002595, -0.5510232043895614 
4.620000000002571, -0.5510331253422539 
4.630000000002548, -0.5510632000077551 
4.640000000002525, -0.5510783611539284 
4.6500000000025015, -0.5510426359040146 
4.660000000002478, -0.5509297101795347 
4.670000000002455, -0.5507275430751583 
4.6800000000024315, -0.5504368321496327 
4.690000000002408, -0.5500668548337176 
4.700000000002385, -0.5496325192178098 
4.710000000002362, -0.5491549032015359 
4.720000000002338, -0.5486664732810899 
4.730000000002315, -0.5482223295192352 
4.740000000002292, -0.5479197696063761 
4.750000000002268, -0.54792911542927 
4.760000000002245, -0.5485366358454835 
4.770000000002222, -0.5501892892165177 
4.7800000000021985, -0.5534985488354909 
4.790000000002175, -0.5590990330385701 
4.800000000002152, -0.5672274500860998 
4.810000000002129, -0.5771196976767241 
4.820000000002105, -0.5869268471442148 
4.830000000002082, -0.594802969538065 
4.840000000002059, -0.6001658620407715 
4.850000000002035, -0.6035924770502497 
4.860000000002012, -0.6058778871420927 
4.870000000001989, -0.6075229895806598 
4.880000000001965, -0.6087546737886894 
4.890000000001942, -0.6096706150094902 
4.900000000001919, -0.6103253638320005 
4.9100000000018955, -0.6107594220164105 
4.920000000001872, -0.6110040000762252 
