t, s[1].omega / s[0].omega 
0, -0.5499977436444822 
0.009999999999999995, -0.5497914456391461 
0.019999999999999934, -0.5496146972462387 
0.029999999999999874, -0.5494450203480653 
0.04000000000000012, -0.549255031233314 
0.050000000000000405, -0.5490217696538965 
0.06000000000000069, -0.5487322926358275 
0.07000000000000098, -0.5483844786769804 
0.08000000000000126, -0.5479851434140776 
0.09000000000000155, -0.5475484930004062 
0.10000000000000184, -0.5470971381038553 
0.11000000000000212, -0.5466670036326476 
0.12000000000000241, -0.5463173476728271 
0.130000000000002, -0.5461475937308196 
0.1400000000000009, -0.5463230406529341 
0.1499999999999998, -0.5471101574698773 
0.1599999999999987, -0.5489153505870987 
0.1699999999999976, -0.5523012151475875 
0.1799999999999965, -0.5579134844114985 
0.1899999999999954, -0.5662110381086451 
0.1999999999999943, -0.5769702145071924 
0.2099999999999932, -0.5889039711878202 
0.2199999999999921, -0.6000641768681179 
0.229999999999991, -0.6089825961725548 
0.2399999999999899, -0.6153501597483978 
0.2499999999999888, -0.6196523878537061 
0.2599999999999877, -0.6225243728534399 
0.2699999999999866, -0.6244485928190449 
0.2799999999999855, -0.6257349057677019 
0.2899999999999844, -0.6265764692537736 
0.2999999999999833, -0.6270953716449836 
0.3099999999999822, -0.6273683829819667 
0.3199999999999811, -0.627440203051562 
0.32999999999998, -0.6273300403027872 
0.3399999999999789, -0.6270345909058179 
0.3499999999999778, -0.6265295248416127 
0.35999999999997667, -0.6257722158916411 
0.36999999999997557, -0.624709928588775 
0.37999999999997447, -0.6232979126497386 
0.38999999999997337, -0.6215268560680348 
0.39999999999997227, -0.6194474897039731 
0.40999999999997117, -0.6171720620301606 
0.41999999999997006, -0.6148443823269186 
0.42999999999996896, -0.6125962414308036 
0.43999999999996786, -0.610517808906303 
0.44999999999996676, -0.6086532173038808 
0.45999999999996566, -0.6070131708721006 
0.46999999999996456, -0.6055915199441411 
0.47999999999996346, -0.6043780172866071 
0.48999999999996235, -0.6033654523834064 
0.49999999999996125, -0.6025523749003016 
0.5099999999999602, -0.60194323726183 
0.519999999999959, -0.6015473983213908 
0.529999999999958, -0.601377912033581 
0.5399999999999568, -0.6014506625704472 
0.5499999999999557, -0.6017841622599046 
0.5599999999999546, -0.6024000750856866 
0.5699999999999535, -0.6033241552230979 
0.5799999999999524, -0.6045867034644495 
0.5899999999999513, -0.6062207710399382 
0.5999999999999502, -0.60825527381348 
0.6099999999999491, -0.6106996257807447 
0.619999999999948, -0.613518477899555 
0.6299999999999469, -0.6166028400051016 
0.6399999999999458, -0.6197572659203996 
0.6499999999999447, -0.6227291587698109 
0.6599999999999436, -0.6252832284872528 
0.6699999999999425, -0.6272787485450629 
0.6799999999999414, -0.6286954828205947 
0.6899999999999403, -0.6296006041063247 
0.6999999999999392, -0.6300943398465264 
0.7099999999999381, -0.6302691998034643 
0.719999999999937, -0.6301909538939994 
0.7299999999999359, -0.6298934365960548 
0.7399999999999348, -0.6293775688959955 
0.7499999999999337, -0.6286081925398982 
0.7599999999999326, -0.6275045668054603 
0.7699999999999315, -0.6259207026471405 
0.7799999999999304, -0.6236116122459154 
0.7899999999999293, -0.6201861012791896 
0.7999999999999282, -0.6150697305823442 
0.8099999999999271, -0.6075632875640323 
0.819999999999926, -0.5971500387984177 
0.8299999999999249, -0.5840690463501941 
0.8399999999999238, -0.5696711993113265 
0.8499999999999227, -0.5559196661308576 
0.8599999999999216, -0.5443596683043379 
0.8699999999999205, -0.5355697208807596 
0.8799999999999194, -0.5293528762379994 
0.8899999999999183, -0.525175460771224 
0.8999999999999172, -0.5224751323174848 
0.9099999999999161, -0.5207888207305353 
0.919999999999915, -0.5197754295765973 
0.9299999999999139, -0.5191980099537405 
0.9399999999999128, -0.5188974513495321 
0.9499999999999117, -0.5187692422076969 
0.9599999999999106, -0.5187459490064809 
0.9699999999999095, -0.5187850697096944 
0.9799999999999084, -0.5188612591586158 
0.9899999999999073, -0.5189619454669343 
0.9999999999999062, -0.5190853337695555 
1.0099999999999052, -0.5192394416786648 
1.019999999999904, -0.51944027701322 
1.029999999999903, -0.5197072126412962 
1.039999999999902, -0.5200547888150436 
1.0499999999999008, -0.5204825781729326 
1.0599999999998997, -0.5209673519365812 
1.0699999999998986, -0.5214628895517446 
1.0799999999998975, -0.5219102709861196 
1.0899999999998964, -0.5222549384597895 
1.0999999999998953, -0.5224610812846772 
1.1099999999998942, -0.5225157231810769 
1.119999999999893, -0.5224228867688947 
1.129999999999892, -0.5221938339932493 
1.1399999999998909, -0.5218387045136257 
1.1499999999998898, -0.5213613305248036 
1.1599999999998887, -0.5207564672069367 
1.1699999999998876, -0.5200077785816412 
1.1799999999998865, -0.519084418385166 
1.1899999999998854, -0.5179323238310528 
1.1999999999998843, -0.5164515560322067 
1.2099999999998832, -0.5144424255680242 
1.219999999999882, -0.5115008850635044 
1.229999999999881, -0.5068962764394168 
1.2399999999998799, -0.4996509487463551 
1.2499999999998788, -0.4891912616319415 
1.2599999999998777, -0.4763243434921868 
1.2699999999998766, -0.4632091876166412 
1.2799999999998755, -0.4519458228465189 
1.2899999999998744, -0.44345481878279147 
1.2999999999998733, -0.4375881598205672 
1.3099999999998722, -0.4337485537255059 
1.319999999999871, -0.4313198137961572 
1.32999999999987, -0.4298219258650614 
1.3399999999998689, -0.4289224891907927 
1.3499999999998678, -0.42840398456482054 
1.3599999999998666, -0.42812825435856716 
1.3699999999998655, -0.42800936559172814 
1.3799999999998644, -0.4279953692055041 
1.3899999999998633, -0.4280569479511276 
1.3999999999998622, -0.42818095098996656 
1.4099999999998611, -0.4283672450663854 
1.41999999999986, -0.428627478610944 
1.429999999999859, -0.42898412024927035 
1.4399999999998578, -0.42946773247713005 
1.4499999999998567, -0.4301103955624351 
1.4599999999998556, -0.43093406459767614 
1.4699999999998545, -0.4319349507091294 
1.4799999999998534, -0.43306926270715157 
1.4899999999998523, -0.4342504077099217 
1.4999999999998512, -0.4353665831716548 
1.5099999999998501, -0.4363145066015198 
1.519999999999849, -0.4370292837871096 
1.529999999999848, -0.43749228196158885 
1.5399999999998468, -0.4377177470971292 
1.5499999999998457, -0.43773205527085884 
1.5599999999998446, -0.4375567274530291 
1.5699999999998435, -0.4371975293885357 
1.5799999999998424, -0.4366365712094889 
1.5899999999998413, -0.43582304531812505 
1.5999999999998402, -0.43465874829353657 
1.6099999999998391, -0.43297647319778676 
1.619999999999838, -0.430516472742753 
1.629999999999837, -0.42692658423104674 
1.6399999999998358, -0.42184588928028405 
1.6499999999998347, -0.41512969742965994 
1.6599999999998336, -0.40712528409582377 
1.6699999999998325, -0.3986905493461753 
1.6799999999998314, -0.3908033719940545 
1.6899999999998303, -0.3841094660069073 
1.6999999999998292, -0.37879538939499036 
1.709999999999828, -0.37473934032740874 
1.719999999999827, -0.3717029119192558 
1.729999999999826, -0.3694474717272524 
1.7399999999998248, -0.36777892708692606 
1.7499999999998237, -0.3665547518410267 
1.7599999999998226, -0.3656773399113169 
1.7699999999998215, -0.3650850364474565 
1.7799999999998204, -0.36474500551583183 
1.7899999999998193, -0.36464907712384376 
1.7999999999998182, -0.36481276135202995 
1.809999999999817, -0.36527749648247465 
1.819999999999816, -0.36611629424407505 
1.8299999999998149, -0.36744280423886255 
1.8399999999998138, -0.3694227156632087 
1.8499999999998127, -0.37228279881116555 
1.8599999999998116, -0.37630396231495117 
1.8699999999998105, -0.38176841390301747 
1.8799999999998094, -0.38881789331897953 
1.8899999999998083, -0.3972187154440764 
1.8999999999998072, -0.4061855678332734 
1.909999999999806, -0.4145627579177048 
1.919999999999805, -0.42139066897062144 
1.9299999999998039, -0.42634315977435006 
1.9399999999998028, -0.42964877458563694 
1.9499999999998017, -0.4317443066961256 
1.9599999999998006, -0.433027148852758 
1.9699999999997995, -0.43377885662621185 
1.9799999999997984, -0.43417636238828683 
1.9899999999997973, -0.43432268970233795 
1.9999999999997962, -0.43427210145713524 
2.0099999999998173, -0.43404626052974715 
2.0199999999998384, -0.4336443648088468 
2.0299999999998595, -0.43305138249210967 
2.0399999999998806, -0.43224842513490513 
2.0499999999999017, -0.4312277378301119 
2.059999999999923, -0.4300099727489962 
2.069999999999944, -0.42865437394317735 
2.079999999999965, -0.4272510046411419 
2.089999999999986, -0.4258952732103837 
2.100000000000007, -0.42465984459316475 
2.1100000000000283, -0.42358003127623467 
2.1200000000000494, -0.42265613953870246 
2.1300000000000705, -0.42186571560540387 
2.1400000000000916, -0.42117740458436925 
2.1500000000001127, -0.4205616196703302 
2.160000000000134, -0.4199966356387542 
2.170000000000155, -0.4194709373288853 
2.180000000000176, -0.4189837439627338 
2.190000000000197, -0.41854575051363074 
2.2000000000002182, -0.41818175842506955 
2.2100000000002393, -0.4179366106275209 
2.2200000000002604, -0.4178859967789926 
2.2300000000002815, -0.41815408486388617 
2.2400000000003026, -0.4189396708296022 
2.2500000000003237, -0.42054888930884127 
2.260000000000345, -0.42341834114369614 
2.270000000000366, -0.428074442459123 
2.280000000000387, -0.434911137825884 
2.290000000000408, -0.44367749373752563 
2.3000000000004293, -0.4529446694724303 
2.3100000000004504, -0.4604890047714515 
2.3200000000004715, -0.46489696571321026 
2.3300000000004926, -0.46655020921460844 
2.3400000000005137, -0.4667573905635316 
2.3500000000005348, -0.4665531881233084 
2.360000000000556, -0.4663897207261113 
2.370000000000577, -0.4663596861081379 
2.380000000000598, -0.4664264835552471 
2.390000000000619, -0.4665340484519079 
2.4000000000006403, -0.466639601195092 
2.4100000000006614, -0.4667162834611614 
2.4200000000006825, -0.4667481280765844 
2.4300000000007036, -0.46672507424747156 
2.4400000000007247, -0.46664003000929616 
2.450000000000746, -0.46648835369101116 
2.460000000000767, -0.46626969710530847 
2.470000000000788, -0.46599153760343004 
2.480000000000809, -0.4656724812707277 
2.49000000000083, -0.46534230649674385 
2.5000000000008513, -0.46503645863519527 
2.5100000000008724, -0.4647859001857316 
2.5200000000008935, -0.4646065866971899 
2.5300000000009146, -0.4644935042714759 
2.5400000000009357, -0.46442207098396837 
2.550000000000957, -0.4643563969260015 
2.560000000000978, -0.46426061619209624 
2.570000000000999, -0.4641079399581053 
2.58000000000102, -0.4638839408281412 
2.5900000000010412, -0.4635845379278658 
2.6000000000010624, -0.4632117202217425 
2.6100000000010835, -0.4627698428024389 
2.6200000000011046, -0.4622638134131615 
2.6300000000011257, -0.46169927407435607 
2.6400000000011468, -0.4610842253879367 
2.650000000001168, -0.46043054241660164 
2.660000000001189, -0.4597505804896228 
2.67000000000121, -0.459035133967663 
2.680000000001231, -0.4581813165428049 
2.6900000000012523, -0.4568268958198495 
2.7000000000012734, -0.45412464671788755 
2.7100000000012945, -0.44879481753039147 
2.7200000000013156, -0.44001119804086936 
2.7300000000013367, -0.42865079920714616 
2.740000000001358, -0.41705905318247394 
2.750000000001379, -0.4072958011203336 
2.7600000000014, -0.4001000192408986 
2.770000000001421, -0.39521712705235756 
2.780000000001442, -0.3920577798615556 
2.7900000000014633, -0.39006989719155366 
2.8000000000014844, -0.3888447025609526 
2.8100000000015055, -0.3881081898569613 
2.8200000000015266, -0.38768524595694515 
2.8300000000015477, -0.387467018643928 
2.840000000001569, -0.3873877598160069 
2.85000000000159, -0.38741006950227724 
2.860000000001611, -0.38751626011035883 
2.870000000001632, -0.3877039192968781 
2.8800000000016532, -0.3879841563994523 
2.8900000000016743, -0.3883810416452309 
2.9000000000016954, -0.3889303869745645 
2.9100000000017165, -0.38967553219880696 
2.9200000000017377, -0.39065761543637734 
2.9300000000017588, -0.3918986335620918 
2.94000000000178, -0.39337902617958836 
2.950000000001801, -0.3950192051388098 
2.960000000001822, -0.3966823554820609 
2.970000000001843, -0.398209825143787 
2.9800000000018643, -0.3994739465964558 
2.9900000000018854, -0.40041285384566827 
3.0000000000019065, -0.40102778316713683 
3.0100000000019276, -0.40135569052180575 
3.0200000000019487, -0.40144045628372516 
3.03000000000197, -0.40131419588187384 
3.040000000001991, -0.40098765823772303 
3.050000000002012, -0.40044441999219516 
3.060000000002033, -0.3996346006441114 
3.070000000002054, -0.3984667789806068 
3.0800000000020753, -0.39680195332313156 
3.0900000000020964, -0.3944629427291749 
3.1000000000021175, -0.39128374808853933 
3.1100000000021386, -0.3872146357445833 
3.1200000000021597, -0.38243769900653757 
3.130000000002181, -0.37737388428552354 
3.140000000002202, -0.3725216117705758 
3.150000000002223, -0.3682502705433823 
3.160000000002244, -0.3647125811654832 
3.1700000000022652, -0.361888973568199 
3.1800000000022863, -0.3596749576445305 
3.1900000000023074, -0.35794736461752696 
3.2000000000023285, -0.35659765181613856 
3.2100000000023496, -0.3555431027029362 
3.2200000000023707, -0.3547276430678782 
3.230000000002392, -0.3541194296294136 
3.240000000002413, -0.3537087753322333 
3.250000000002434, -0.35350811463394527 
3.260000000002455, -0.353555033805871 
3.2700000000024763, -0.3539194024155498 
3.2800000000024974, -0.35471599963492817 
3.2900000000025185, -0.356124283540172 
3.3000000000025396, -0.3584159390292834 
3.3100000000025607, -0.3619852771033102 
3.3200000000025818, -0.36735967911920575 
3.330000000002603, -0.3751258129047218 
3.340000000002624, -0.3856543706096035 
3.350000000002645, -0.3985669200548463 
3.360000000002666, -0.41230433098885155 
3.3700000000026873, -0.4246104839304873 
3.3800000000027084, -0.43390982863620087 
3.3900000000027295, -0.4400683436149352 
3.4000000000027506, -0.4438574120723131 
3.4100000000027717, -0.4461413244396053 
3.420000000002793, -0.4475309595796409 
3.430000000002814, -0.44838641544170005 
3.440000000002835, -0.4489066091571611 
3.450000000002856, -0.4492001734898813 
3.460000000002877, -0.4493260640183091 
3.4700000000028983, -0.4493145064427309 
3.4800000000029194, -0.449177861356367 
3.4900000000029405, -0.4489172848047648 
3.5000000000029616, -0.4485287576132183 
3.5100000000029827, -0.4480105585567572 
3.520000000003004, -0.44737220409031375 
3.530000000003025, -0.4466417453282756 
3.540000000003046, -0.445866083396757 
3.550000000003067, -0.445101310088695 
3.5600000000030882, -0.44439686566655084 
3.5700000000031094, -0.44378202035704445 
3.5800000000031305, -0.4432609518953757 
3.5900000000031516, -0.44281683740267475 
3.6000000000031727, -0.4424213712812593 
3.6100000000031938, -0.4420451016913042 
3.620000000003215, -0.4416648892194999 
3.630000000003236, -0.4412670075717157 
3.640000000003257, -0.4408468665323209 
3.650000000003278, -0.44040761274056156 
3.6600000000032993, -0.43995968618251335 
3.6700000000033204, -0.4395226922716122 
3.6800000000033415, -0.4391305261387071 
3.6900000000033626, -0.43884063439173915 
3.7000000000033837, -0.4387478786391685 
3.710000000003405, -0.4390006012164799 
3.720000000003426, -0.43980616195319433 
3.730000000003447, -0.4413865647219503 
3.740000000003468, -0.4438025987772686 
3.750000000003489, -0.44658334669542554 
3.7600000000035103, -0.44840489132430755 
3.7700000000035314, -0.4475973639109103 
3.7800000000035525, -0.44366223402374316 
3.7900000000035736, -0.4379540624601179 
3.8000000000035947, -0.43238773118695173 
3.810000000003616, -0.42805591216089517 
3.820000000003637, -0.42511617815860864 
3.830000000003658, -0.4232853063251806 
3.840000000003679, -0.42221111626069846 
3.8500000000037002, -0.42161272721730647 
3.8600000000037213, -0.4212990308655213 
3.8700000000037424, -0.4211492995224669 
3.8800000000037635, -0.4210901929789609 
3.8900000000037847, -0.42107835304532 
3.9000000000038058, -0.421089221096641 
3.910000000003827, -0.4211107627565144 
3.920000000003848, -0.42114074162471493 
3.930000000003869, -0.4211863025518666 
3.94000000000389, -0.421264369835058 
3.9500000000039113, -0.42140087745476507 
3.9600000000039324, -0.42162678911408846 
3.9700000000039535, -0.4219698764086953 
3.9800000000039746, -0.42244321882072267 
3.9900000000039957, -0.4230338055941121 
4.000000000004016, -0.4236969246445005 
4.010000000003993, -0.42436232792481043 
4.02000000000397, -0.4249529219832195 
4.030000000003946, -0.42540710199284365 
4.040000000003923, -0.4256916946253084 
4.0500000000039, -0.42580000637772086 
4.0600000000038765, -0.42574016356207867 
4.070000000003853, -0.4255219572537484 
4.08000000000383, -0.425146366870434 
4.090000000003807, -0.4245971829838459 
4.100000000003783, -0.4238316079933971 
4.11000000000376, -0.4227656346903399 
4.120000000003737, -0.4212495052943295 
4.130000000003713, -0.4190306630084901 
4.14000000000369, -0.4157152181175311 
4.150000000003667, -0.4107809997238728 
4.1600000000036434, -0.40375753622314264 
4.17000000000362, -0.39463645238710177 
4.180000000003597, -0.3842241494039845 
4.1900000000035735, -0.3738992510932418 
4.20000000000355, -0.3648618323718959 
4.210000000003527, -0.3576457983588325 
4.220000000003504, -0.35220378239670275 
4.23000000000348, -0.34821963618349994 
4.240000000003457, -0.34533818942483907 
4.250000000003434, -0.3432624425483978 
4.26000000000341, -0.3417730993041078 
4.270000000003387, -0.3407188721409738 
4.280000000003364, -0.34000101706520874 
4.2900000000033405, -0.3395603262412472 
4.300000000003317, -0.33936848214535614 
4.310000000003294, -0.33942371293164514 
4.320000000003271, -0.339750401276381 
4.330000000003247, -0.34040251235747804 
4.340000000003224, -0.34147086807851423 
4.350000000003201, -0.34309385554829075 
4.360000000003177, -0.3454690002087618 
4.370000000003154, -0.34885660112185063 
4.380000000003131, -0.3535529929675376 
4.390000000003107, -0.35979211047912285 
4.400000000003084, -0.36754002176857425 
4.410000000003061, -0.37625334527470294 
4.4200000000030375, -0.3848739954556016 
4.430000000003014, -0.3922813819900922 
4.440000000002991, -0.39787292191710827 
4.450000000002968, -0.4016975861714971 
4.460000000002944, -0.4041540296100209 
4.470000000002921, -0.40567295073326265 
4.480000000002898, -0.40658051870240836 
4.490000000002874, -0.40708807710939965 
4.500000000002851, -0.4073216534448574 
4.510000000002828, -0.4073510953975684 
4.520000000002804, -0.4072099368307677 
4.530000000002781, -0.4069078402360593 
4.540000000002758, -0.4064395915303881 
4.5500000000027345, -0.4057944667557455 
4.560000000002711, -0.4049684688600056 
4.570000000002688, -0.4039783993845399 
4.580000000002665, -0.40287131490478234 
4.590000000002641, -0.4017206877776901 
4.600000000002618, -0.4006075702305861 
4.610000000002595, -0.3995969020680157 
4.620000000002571, -0.39872249343461685 
4.630000000002548, -0.3979859459844887 
4.640000000002525, -0.3973655781468398 
4.6500000000025015, -0.3968287624623239 
4.660000000002478, -0.39634279041964066 
4.670000000002455, -0.39588179679574553 
4.6800000000024315, -0.3954294520826639 
4.690000000002408, -0.39497881410195473 
4.700000000002385, -0.39453139412641447 
4.710000000002362, -0.39409719640991103 
4.720000000002338, -0.39369690807459834 
4.730000000002315, -0.3933670488525276 
4.740000000002292, -0.3931685743353338 
4.750000000002268, -0.3931980372605548 
4.760000000002245, -0.3935948749754808 
4.770000000002222, -0.39452182884914755 
4.7800000000021985, -0.3960596313032298 
4.790000000002175, -0.39792501807465347 
4.800000000002152, -0.3990512599147508 
4.810000000002129, -0.3976096359259041 
4.820000000002105, -0.39232022773605 
4.830000000002082, -0.3840662734737776 
4.840000000002059, -0.375299025628996 
4.850000000002035, -0.3679594932382445 
4.860000000002012, -0.36264229508276646 
4.870000000001989, -0.3590940732202045 
4.880000000001965, -0.35682982839740107 
