t, s[1].omega / s[0].omega 
0, -1.399956222319538 
0.009999999999999995, -1.3948711623566843 
0.019999999999999934, -1.3884446048626737 
0.029999999999999874, -1.38116939261268 
0.04000000000000012, -1.3742225324887662 
0.050000000000000405, -1.3691177486259054 
0.06000000000000069, -1.3666311204586985 
0.07000000000000098, -1.3661898461092759 
0.08000000000000126, -1.3666322125719985 
0.09000000000000155, -1.3671450963052971 
0.10000000000000184, -1.367410119131887 
0.11000000000000212, -1.3673546637134915 
0.12000000000000241, -1.3669499352596797 
0.130000000000002, -1.3661129150351676 
0.1400000000000009, -1.3646575256402618 
0.1499999999999998, -1.3622921020160845 
0.1599999999999987, -1.3587988701879283 
0.1699999999999976, -1.35473677190132 
0.1799999999999965, -1.352695964105161 
0.1899999999999954, -1.3570368201712948 
0.1999999999999943, -1.3694973318710073 
0.2099999999999932, -1.3859340493838297 
0.2199999999999921, -1.40056487481633 
0.229999999999991, -1.4107948119660636 
0.2399999999999899, -1.4169680663442032 
0.2499999999999888, -1.4203503116864447 
0.2599999999999877, -1.4220393010488643 
0.2699999999999866, -1.4227435085743465 
0.2799999999999855, -1.422867340315904 
0.2899999999999844, -1.422635618430626 
0.2999999999999833, -1.4221959919414608 
0.3099999999999822, -1.4217004234686628 
0.3199999999999811, -1.4213503658502842 
0.32999999999998, -1.4213540112433372 
0.3399999999999789, -1.421801323389384 
0.3499999999999778, -1.422600002195801 
0.35999999999997667, -1.4235564610416167 
0.36999999999997557, -1.4244879896285503 
0.37999999999997447, -1.4252667299084705 
0.38999999999997337, -1.4258143113383823 
0.39999999999997227, -1.4260855440159657 
0.40999999999997117, -1.4260544325342763 
0.41999999999997006, -1.4257050588358704 
0.42999999999996896, -1.425027475454808 
0.43999999999996786, -1.42401785517858 
0.44999999999996676, -1.4226831275042118 
0.45999999999996566, -1.4210521136930572 
0.46999999999996456, -1.419195970665379 
0.47999999999996346, -1.4172577299010685 
0.48999999999996235, -1.4154717683569622 
0.49999999999996125, -1.4141134677058376 
0.5099999999999602, -1.4133414580607229 
0.519999999999959, -1.4130675010890816 
0.529999999999958, -1.4130329171707205 
0.5399999999999568, -1.4129874421350992 
0.5499999999999557, -1.4127611425548277 
0.5599999999999546, -1.4122176053499846 
0.5699999999999535, -1.411165717638526 
0.5799999999999524, -1.4092540839763132 
0.5899999999999513, -1.4058351368898134 
0.5999999999999502, -1.3998319794954983 
0.6099999999999491, -1.3898524354563162 
0.619999999999948, -1.375208524341987 
0.6299999999999469, -1.3582426760470905 
0.6399999999999458, -1.3452399676347537 
0.6499999999999447, -1.3412826292135616 
0.6599999999999436, -1.3446210772238654 
0.6699999999999425, -1.350025901741659 
0.6799999999999414, -1.3543466752642188 
0.6899999999999403, -1.3570073631905877 
0.6999999999999392, -1.3584033204133994 
0.7099999999999381, -1.3589868429137513 
0.719999999999937, -1.3590493543166227 
0.7299999999999359, -1.358739493085504 
0.7399999999999348, -1.3581242959079816 
0.7499999999999337, -1.3572724687182482 
0.7599999999999326, -1.3563980307383028 
0.7699999999999315, -1.3560512931583868 
0.7799999999999304, -1.357105009788555 
0.7899999999999293, -1.3601889747745113 
0.7999999999999282, -1.3650070735345106 
0.8099999999999271, -1.3705107478073077 
0.819999999999926, -1.3756766577654174 
0.8299999999999249, -1.3799359244498037 
0.8399999999999238, -1.383126856565879 
0.8499999999999227, -1.385315031207417 
0.8599999999999216, -1.3866606468985085 
0.8699999999999205, -1.3873450427893912 
0.8799999999999194, -1.3875333436610446 
0.8899999999999183, -1.3873606277456967 
0.8999999999999172, -1.3869364978500311 
0.9099999999999161, -1.386361699857121 
0.919999999999915, -1.3857437416213365 
0.9299999999999139, -1.3851935132486028 
0.9399999999999128, -1.3847990279764761 
0.9499999999999117, -1.3846005238835795 
0.9599999999999106, -1.3845862897374093 
0.9699999999999095, -1.3846987546369305 
0.9799999999999084, -1.3848458379956778 
0.9899999999999073, -1.3849230156875263 
0.9999999999999062, -1.3848324793749753 
1.0099999999999052, -1.384483903134676 
1.019999999999904, -1.3837826439771046 
1.029999999999903, -1.382620173888478 
1.039999999999902, -1.3808754737282587 
1.0499999999999008, -1.3784291915230182 
1.0599999999998997, -1.3751918087271835 
1.0699999999998986, -1.37115494823037 
1.0799999999998975, -1.366482932263762 
1.0899999999998964, -1.3616332652286862 
1.0999999999998953, -1.3573760111787965 
1.1099999999998942, -1.354478877528086 
1.119999999999893, -1.353156189599946 
1.129999999999892, -1.3529386132734944 
1.1399999999998909, -1.353154770685307 
1.1499999999998898, -1.3533565093754798 
1.1599999999998887, -1.3533480056402132 
1.1699999999998876, -1.3530441521790497 
1.1799999999998865, -1.352348499276066 
1.1899999999998854, -1.3510668322515547 
1.1999999999998843, -1.3488248742693645 
1.2099999999998832, -1.3450057696234818 
1.219999999999882, -1.3388926052665413 
1.229999999999881, -1.3305297264004428 
1.2399999999998799, -1.3225826057691523 
1.2499999999998788, -1.320738705372524 
1.2599999999998777, -1.328534106854542 
1.2699999999998766, -1.3422471126095687 
1.2799999999998755, -1.3552685440887908 
1.2899999999998744, -1.3643699121604151 
1.2999999999998733, -1.369735768029689 
1.3099999999998722, -1.372589598446302 
1.319999999999871, -1.3739618302776049 
1.32999999999987, -1.3744841367463847 
1.3399999999998689, -1.374497367249329 
1.3499999999998678, -1.374179399361533 
1.3599999999998666, -1.3736470922825623 
1.3699999999998655, -1.3730532194973992 
1.3799999999998644, -1.3726751717730548 
1.3899999999998633, -1.3729019556952067 
1.3999999999998622, -1.374015623810691 
1.4099999999998611, -1.3759402703546972 
1.41999999999986, -1.3782907232578752 
1.429999999999859, -1.3806460329363563 
1.4399999999998578, -1.3827250691955233 
1.4499999999998567, -1.3843939837135182 
1.4599999999998556, -1.3856125068154852 
1.4699999999998545, -1.3863889406960321 
1.4799999999998534, -1.3867552727958137 
1.4899999999998523, -1.3867551162962175 
1.4999999999998512, -1.3864378129483574 
1.5099999999998501, -1.38585673686933 
1.519999999999849, -1.3850725018810848 
1.529999999999848, -1.3841594900216214 
1.5399999999998468, -1.383209332805296 
1.5499999999998457, -1.3823257973456147 
1.5599999999998446, -1.3816110843291765 
1.5699999999998435, -1.3811392588190556 
1.5799999999998424, -1.3809158433303552 
1.5899999999998413, -1.3808587925296305 
1.5999999999998402, -1.3808336047147884 
1.6099999999998391, -1.3807052668775819 
1.619999999999838, -1.380352725223992 
1.629999999999837, -1.379643572028664 
1.6399999999998358, -1.3783942744268574 
1.6499999999998347, -1.3763352828185722 
1.6599999999998336, -1.37309823424493 
1.6699999999998325, -1.3682546174656423 
1.6799999999998314, -1.3614543834434425 
1.6899999999998303, -1.3527224871086452 
1.6999999999998292, -1.3428919452102832 
1.709999999999828, -1.333806145530042 
1.719999999999827, -1.3275430766633343 
1.729999999999826, -1.324833367507138 
1.7399999999998248, -1.3246196444101146 
1.7499999999998237, -1.3253549360495378 
1.7599999999998226, -1.3260942971802405 
1.7699999999998215, -1.3265178356302556 
1.7799999999998204, -1.3265848430224159 
1.7899999999998193, -1.3263036546789149 
1.7999999999998182, -1.3256359064169168 
1.809999999999817, -1.3244583658525617 
1.819999999999816, -1.3225601104222038 
1.8299999999998149, -1.3197536305782136 
1.8399999999998138, -1.3163301208176816 
1.8499999999998127, -1.3140151668642583 
1.8599999999998116, -1.3163693637947147 
1.8699999999998105, -1.3261928158167486 
1.8799999999998094, -1.3416154248618686 
1.8899999999998083, -1.357359594857972 
1.8999999999998072, -1.3695966200593626 
1.909999999999806, -1.377586505167359 
1.919999999999805, -1.382249068809747 
1.9299999999998039, -1.3847453673357193 
1.9399999999998028, -1.3859415262414252 
1.9499999999998017, -1.3863710571023677 
1.9599999999998006, -1.3863360185567564 
1.9699999999997995, -1.386011428514809 
1.9799999999997984, -1.3855313858125005 
1.9899999999997973, -1.3850586873836321 
1.9999999999997962, -1.384809898569973 
2.0099999999998173, -1.3849845468641324 
2.0199999999998384, -1.3856352440519852 
2.0299999999998595, -1.3866318707930192 
2.0399999999998806, -1.3877624922406457 
2.0499999999999017, -1.3888412198970137 
2.059999999999923, -1.3897439387073158 
2.069999999999944, -1.39039902843777 
2.079999999999965, -1.390769380281642 
2.089999999999986, -1.3908381103629297 
2.100000000000007, -1.390599831581492 
2.1100000000000283, -1.390056775450458 
2.1200000000000494, -1.3892186792879897 
2.1300000000000705, -1.388106327339738 
2.1400000000000916, -1.386759504293254 
2.1500000000001127, -1.3852494673683053 
2.160000000000134, -1.3836936961543291 
2.170000000000155, -1.3822626814184453 
2.180000000000176, -1.3811488514058345 
2.190000000000197, -1.380472851138199 
2.2000000000002182, -1.3801915347429419 
2.2100000000002393, -1.3801235943959402 
2.2200000000002604, -1.3800647016107774 
2.2300000000002815, -1.3798559580175407 
2.2400000000003026, -1.3793644619619407 
2.2500000000003237, -1.378419791666777 
2.260000000000345, -1.3767350504173297 
2.270000000000366, -1.3738150843902999 
2.280000000000387, -1.3688740965610533 
2.290000000000408, -1.3608760896585956 
2.3000000000004293, -1.3489776843594221 
2.3100000000004504, -1.3336705988153725 
2.3200000000004715, -1.3180386873218424 
2.3300000000004926, -1.3067953091858766 
2.3400000000005137, -1.3023404720105567 
2.3500000000005348, -1.302842799115636 
2.360000000000556, -1.3050623130503303 
2.370000000000577, -1.307079772206467 
2.380000000000598, -1.308377109311778 
2.390000000000619, -1.3090219567576977 
2.4000000000006403, -1.3091778885360807 
2.4100000000006614, -1.308950699813298 
2.4200000000006825, -1.3083670773894494 
2.4300000000007036, -1.3073936923122642 
2.4400000000007247, -1.306003939413165 
2.450000000000746, -1.30437466331868 
2.460000000000767, -1.3032900229094386 
2.470000000000788, -1.3044511189129233 
2.480000000000809, -1.3097156419444516 
2.49000000000083, -1.3191956633210835 
2.5000000000008513, -1.3306695861103466 
2.5100000000008724, -1.3413880316026794 
2.5200000000008935, -1.3497761212785373 
2.5300000000009146, -1.3555701918281593 
2.5400000000009357, -1.3592036484298908 
2.550000000000957, -1.361280697465521 
2.560000000000978, -1.3623220097732314 
2.570000000000999, -1.3626975067782443 
2.58000000000102, -1.3626459782408005 
2.5900000000010412, -1.3623231781180072 
2.6000000000010624, -1.3618545223096854 
2.6100000000010835, -1.3613786715174891 
2.6200000000011046, -1.3610561862529513 
2.6300000000011257, -1.3610201155261312 
2.6400000000011468, -1.3613056791954439 
2.650000000001168, -1.3618394485808967 
2.660000000001189, -1.3624941510207615 
2.67000000000121, -1.3631431815464707 
2.680000000001231, -1.3636837380047635 
2.6900000000012523, -1.3640404471464649 
2.7000000000012734, -1.36416108180441 
2.7100000000012945, -1.3640095719248664 
2.7200000000013156, -1.3635604371073227 
2.7300000000013367, -1.3627964588563015 
2.740000000001358, -1.36170936353224 
2.750000000001379, -1.360303780815531 
2.7600000000014, -1.3586063155639674 
2.770000000001421, -1.3566820322894 
2.780000000001442, -1.3546579168083672 
2.7900000000014633, -1.3527403682905716 
2.8000000000014844, -1.3511860400310618 
2.8100000000015055, -1.35018606037857 
2.8200000000015266, -1.3497318824460822 
2.8300000000015477, -1.3496215395445277 
2.840000000001569, -1.3496043235616348 
2.85000000000159, -1.3494898265960484 
2.860000000001611, -1.3491451624521802 
2.870000000001632, -1.3484322386770686 
2.8800000000016532, -1.3471297555543882 
2.8900000000016743, -1.344841869441272 
2.9000000000016954, -1.3408926374090624 
2.9100000000017165, -1.3342674540320645 
2.9200000000017377, -1.323823888281445 
2.9300000000017588, -1.3091740127982106 
2.94000000000178, -1.29223531790827 
2.950000000001801, -1.2776640712936334 
2.960000000001822, -1.2697416063401614 
2.970000000001843, -1.2684923059651187 
2.9800000000018643, -1.2706482308760363 
2.9900000000018854, -1.2733055482992603 
3.0000000000019065, -1.275278644672112 
3.0100000000019276, -1.2764381276285268 
3.0200000000019487, -1.2769647473517833 
3.03000000000197, -1.2770321940214238 
3.040000000001991, -1.276733026822193 
3.050000000002012, -1.2760808719276566 
3.060000000002033, -1.2750369429806037 
3.070000000002054, -1.2735858580634356 
3.0800000000020753, -1.2719465053404773 
3.0900000000020964, -1.2709763400565828 
3.1000000000021175, -1.272434338910526 
3.1100000000021386, -1.2781690696341093 
3.1200000000021597, -1.2882529406138512 
3.130000000002181, -1.3004158939407744 
3.140000000002202, -1.3118086530820001 
3.150000000002223, -1.3207476027450504 
3.160000000002244, -1.3269258958403432 
3.1700000000022652, -1.330799496254937 
3.1800000000022863, -1.3330193262681247 
3.1900000000023074, -1.334146905620744 
3.2000000000023285, -1.3345784817287767 
3.2100000000023496, -1.334566548224363 
3.2200000000023707, -1.334271482145456 
3.230000000002392, -1.3338172870310052 
3.240000000002413, -1.3333409326781462 
3.250000000002434, -1.33301288138148 
3.260000000002455, -1.3329963100090825 
3.2700000000024763, -1.3333620141552223 
3.2800000000024974, -1.3340486370927878 
3.2900000000025185, -1.334912214942889 
3.3000000000025396, -1.335800818655827 
3.3100000000025607, -1.3365937605107074 
3.3200000000025818, -1.3372078181223401 
3.330000000002603, -1.3375906299077391 
3.340000000002624, -1.3377115983652907 
3.350000000002645, -1.3375544453413206 
3.360000000002666, -1.3371129344410273 
3.3700000000026873, -1.3363896160449236 
3.3800000000027084, -1.3353973304339943 
3.3900000000027295, -1.3341639086742643 
3.4000000000027506, -1.3327404686269226 
3.4100000000027717, -1.3312121741823915 
3.420000000002793, -1.329707104082021 
3.430000000002814, -1.3283905175874027 
3.440000000002835, -1.3274206694107158 
3.450000000002856, -1.3268651286679973 
3.460000000002877, -1.3266475425822324 
3.4700000000028983, -1.3265937870238989 
3.4800000000029194, -1.3265252219929828 
3.4900000000029405, -1.326302001944623 
3.5000000000029616, -1.3258011063166546 
3.5100000000029827, -1.3248649177263678 
3.520000000003004, -1.3232430612965742 
3.530000000003025, -1.3205362847721784 
3.540000000003046, -1.3161668836716856 
3.550000000003067, -1.3094451061403263 
3.5600000000030882, -1.2998517859778693 
3.5700000000031094, -1.287624800464532 
3.5800000000031305, -1.2744173178938494 
3.5900000000031516, -1.2631459681522579 
3.6000000000031727, -1.2562643658980368 
3.6100000000031938, -1.2538860694000267 
3.620000000003215, -1.2541949923566151 
3.630000000003236, -1.2553325577911771 
3.640000000003257, -1.2563376773723172 
3.650000000003278, -1.2569400180662487 
3.6600000000032993, -1.2571429225238975 
3.6700000000033204, -1.2569910882012452 
3.6800000000033415, -1.2564842113428474 
3.6900000000033626, -1.255546372306115 
3.7000000000033837, -1.2540144344363786 
3.710000000003405, -1.2516727923208664 
3.720000000003426, -1.248459582598492 
3.730000000003447, -1.245059888571366 
3.740000000003468, -1.243760782949591 
3.750000000003489, -1.2481272656273719 
3.7600000000035103, -1.259917273829185 
3.7700000000035314, -1.276287752783068 
3.7800000000035525, -1.292063322590206 
3.7900000000035736, -1.303981974493579 
3.8000000000035947, -1.3116558880375182 
3.810000000003616, -1.316105789844644 
3.820000000003637, -1.3184849053913066 
3.830000000003658, -1.3196272040972716 
3.840000000003679, -1.3200381485311046 
3.8500000000037002, -1.319999574941962 
3.8600000000037213, -1.3196699726113932 
3.8700000000037424, -1.3191667823877835 
3.8800000000037635, -1.3186424847208829 
3.8900000000037847, -1.318339833764187 
3.9000000000038058, -1.3185577924638179 
3.910000000003827, -1.3194884099236783 
3.920000000003848, -1.3210654125166987 
3.930000000003869, -1.3230104926318915 
3.94000000000389, -1.3250101984862641 
3.9500000000039113, -1.3268348165629056 
3.9600000000039324, -1.3283546602607554 
3.9700000000039535, -1.329511789788778 
3.9800000000039746, -1.3302911959869963 
3.9900000000039957, -1.330702864899735 
4.000000000004016, -1.3307724582599707 
4.010000000003993, -1.3305363254555522 
4.02000000000397, -1.3300388872128452 
4.030000000003946, -1.329333173722072 
4.040000000003923, -1.3284848727347147 
4.0500000000039, -1.3275759753230996 
4.0600000000038765, -1.3267014198995497 
4.070000000003853, -1.325956746580427 
4.08000000000383, -1.3254189111614978 
4.090000000003807, -1.3251194988319566 
4.100000000003783, -1.3250208003836395 
4.11000000000376, -1.3250228506818527 
4.120000000003737, -1.3250025173748001 
4.130000000003713, -1.3248455482385235 
4.14000000000369, -1.3244466566154136 
4.150000000003667, -1.3236885181737397 
4.1600000000036434, -1.3224202322963854 
4.17000000000362, -1.320449555431502 
4.180000000003597, -1.3175585424946423 
4.1900000000035735, -1.3135496223037781 
4.20000000000355, -1.3083282060260397 
4.210000000003527, -1.302029734032303 
4.220000000003504, -1.2951772903029481 
4.23000000000348, -1.2887470198161757 
4.240000000003457, -1.2838754512919244 
4.250000000003434, -1.2811741808252357 
4.26000000000341, -1.2803142091509783 
4.270000000003387, -1.2804344047928413 
4.280000000003364, -1.2808052650261526 
4.2900000000033405, -1.281057219313571 
4.300000000003317, -1.281060043358632 
4.310000000003294, -1.2807606183221363 
4.320000000003271, -1.2800802464895837 
4.330000000003247, -1.2788466484543781 
4.340000000003224, -1.276726191366175 
4.350000000003201, -1.273162934282315 
4.360000000003177, -1.2674454276734692 
4.370000000003154, -1.259254319949742 
4.380000000003131, -1.2500457051668243 
4.390000000003107, -1.2441365443794175 
4.400000000003084, -1.2461674467285537 
4.410000000003061, -1.2558521775290301 
4.4200000000030375, -1.2680186314889927 
4.430000000003014, -1.2780909932085238 
4.440000000002991, -1.2847412466125392 
4.450000000002968, -1.2885926187947179 
4.460000000002944, -1.2906265344251406 
4.470000000002921, -1.2915752887062304 
4.480000000002898, -1.2918743827027188 
4.490000000002874, -1.291754619203111 
4.500000000002851, -1.2913317169136822 
4.510000000002828, -1.2906832622772728 
4.520000000002804, -1.289941735208952 
4.530000000002781, -1.2894174164904355 
4.540000000002758, -1.289664906933957 
4.5500000000027345, -1.291285909151247 
4.560000000002711, -1.2944705966569017 
4.570000000002688, -1.2987721274667081 
4.580000000002665, -1.3034163560526002 
4.590000000002641, -1.307740089559771 
4.600000000002618, -1.3113653593973544 
4.610000000002595, -1.3141569304394374 
4.620000000002571, -1.316130327403313 
4.630000000002548, -1.3173813869931377 
4.640000000002525, -1.3180396718600442 
4.6500000000025015, -1.318237171258499 
4.660000000002478, -1.318090939943772 
4.670000000002455, -1.3177010553697086 
4.6800000000024315, -1.3171613745529438 
4.690000000002408, -1.3165733252429948 
4.700000000002385, -1.3160464106118812 
4.710000000002362, -1.3156756186168541 
4.720000000002338, -1.3155111904394725 
4.730000000002315, -1.3155474297757084 
4.740000000002292, -1.3157323158458971 
4.750000000002268, -1.3159834873274954 
4.760000000002245, -1.3162066689387726 
4.770000000002222, -1.3163131691845695 
4.7800000000021985, -1.3162275056707433 
4.790000000002175, -1.3158846082313498 
4.800000000002152, -1.3152250708262938 
4.810000000002129, -1.3141950158417348 
4.820000000002105, -1.3127509407318652 
4.830000000002082, -1.3108673439275467 
4.840000000002059, -1.3085475511239728 
4.850000000002035, -1.3058425279432722 
4.860000000002012, -1.3028825312963823 
4.870000000001989, -1.2999132557522324 
4.880000000001965, -1.2972924937871224 
4.890000000001942, -1.2953760763551454 
4.900000000001919, -1.2943107867732098 
4.9100000000018955, -1.2939333914873499 
4.920000000001872, -1.2939099183298186 
4.930000000001849, -1.2939434258543803 
4.940000000001826, -1.2938497084687073 
