t, s[1].omega / s[0].omega 
0, -1.0999961672672924 
0.009999999999999995, -1.099498122210128 
0.019999999999999934, -1.0987727275206027 
0.029999999999999874, -1.0978200979008441 
0.04000000000000012, -1.0966421224854617 
0.050000000000000405, -1.0952447250423842 
0.06000000000000069, -1.0936401760998689 
0.07000000000000098, -1.0918490214550123 
0.08000000000000126, -1.0899013456755944 
0.09000000000000155, -1.0878371670910465 
0.10000000000000184, -1.085705759743417 
0.11000000000000212, -1.0835637530663977 
0.12000000000000241, -1.081472111549773 
0.130000000000002, -1.0794924932214318 
0.1400000000000009, -1.0776837219577347 
0.1499999999999998, -1.0760988510213585 
0.1599999999999987, -1.0747825828671373 
0.1699999999999976, -1.0737682120420615 
0.1799999999999965, -1.0730734756924163 
0.1899999999999954, -1.0726958575019871 
0.1999999999999943, -1.0726092134960559 
0.2099999999999932, -1.0727638884859008 
0.2199999999999921, -1.0730912426227341 
0.229999999999991, -1.073511453807776 
0.2399999999999899, -1.0739420499441945 
0.2499999999999888, -1.0743047389090559 
0.2599999999999877, -1.0745294180421927 
0.2699999999999866, -1.0745557318824293 
0.2799999999999855, -1.0743333860351962 
0.2899999999999844, -1.073822413344023 
0.2999999999999833, -1.0729939790392373 
0.3099999999999822, -1.0718315157753777 
0.3199999999999811, -1.0703313990612149 
0.32999999999998, -1.068502301585147 
0.3399999999999789, -1.0663628552145494 
0.3499999999999778, -1.0639380355619503 
0.35999999999997667, -1.0612553082790361 
0.36999999999997557, -1.0583416951001237 
0.37999999999997447, -1.0552225225673706 
0.38999999999997337, -1.0519219809291986 
0.39999999999997227, -1.0484650674007547 
0.40999999999997117, -1.044880200317553 
0.41999999999997006, -1.0412017798166031 
0.42999999999996896, -1.0374721466784498 
0.43999999999996786, -1.0337426416298492 
0.44999999999996676, -1.0300736880445889 
0.45999999999996566, -1.026533908733117 
0.46999999999996456, -1.023198164028162 
0.47999999999996346, -1.0201441035351715 
0.48999999999996235, -1.0174466145493468 
0.49999999999996125, -1.0151698395122881 
0.5099999999999602, -1.013357475597081 
0.519999999999959, -1.0120235462766993 
0.529999999999958, -1.0111467929648073 
0.5399999999999568, -1.0106712701053826 
0.5499999999999557, -1.010513533185367 
0.5599999999999546, -1.010574149740832 
0.5699999999999535, -1.0107497658821354 
0.5799999999999524, -1.0109424031104866 
0.5899999999999513, -1.0110644712647607 
0.5999999999999502, -1.0110399345595626 
0.6099999999999491, -1.010803262476158 
0.619999999999948, -1.010298046958627 
0.6299999999999469, -1.0094767261729751 
0.6399999999999458, -1.008302036327368 
0.6499999999999447, -1.0067498514046958 
0.6599999999999436, -1.0048122133966273 
0.6699999999999425, -1.0024989447740664 
0.6799999999999414, -0.9998365731167583 
0.6899999999999403, -0.9968643479193747 
0.6999999999999392, -0.9936283801060429 
0.7099999999999381, -0.9901756914443145 
0.719999999999937, -0.9865498560331432 
0.7299999999999359, -0.9827891370283938 
0.7399999999999348, -0.9789270764634384 
0.7499999999999337, -0.9749948156800158 
0.7599999999999326, -0.9710241624891393 
0.7699999999999315, -0.9670505039952325 
0.7799999999999304, -0.9631149293046395 
0.7899999999999293, -0.9592652282266343 
0.7999999999999282, -0.9555556745125354 
0.8099999999999271, -0.9520456336128039 
0.819999999999926, -0.9487970450853728 
0.8299999999999249, -0.9458707685904857 
0.8399999999999238, -0.9433217754928397 
0.8499999999999227, -0.9411933720000044 
0.8599999999999216, -0.9395111149925696 
0.8699999999999205, -0.9382776599333106 
0.8799999999999194, -0.9374700745071486 
0.8899999999999183, -0.937040792096672 
0.8999999999999172, -0.9369223451551151 
0.9099999999999161, -0.9370347648543268 
0.919999999999915, -0.9372937248788817 
0.9299999999999139, -0.9376175479450962 
0.9399999999999128, -0.937931966075388 
0.9499999999999117, -0.9381725436378692 
0.9599999999999106, -0.9382854469299229 
0.9699999999999095, -0.9382275329902084 
0.9799999999999084, -0.9379665473526657 
0.9899999999999073, -0.9374817254607741 
0.9999999999999062, -0.9367645072474634 
1.0099999999999052, -0.9358186512713725 
1.019999999999904, -0.934659000581028 
1.029999999999903, -0.9333085820941845 
1.039999999999902, -0.9317944303975471 
1.0499999999999008, -0.9301431362286765 
1.0599999999998997, -0.9283772990056428 
1.0699999999998986, -0.926513748950057 
1.0799999999998975, -0.9245638034503076 
1.0899999999998964, -0.9225352290780212 
1.0999999999998953, -0.9204352053191788 
1.1099999999998942, -0.918273493935076 
1.119999999999893, -0.9160651539187351 
1.129999999999892, -0.9138323850518918 
1.1399999999998909, -0.911605310048654 
1.1499999999998898, -0.9094216511287417 
1.1599999999998887, -0.9073253370018323 
1.1699999999998876, -0.9053641525315718 
1.1799999999998865, -0.903586658056548 
1.1899999999998854, -0.9020387357808878 
1.1999999999998843, -0.9007601933184026 
1.2099999999998832, -0.8997818107888849 
1.219999999999882, -0.899123076089226 
1.229999999999881, -0.8987907056608758 
1.2399999999998799, -0.8987779874714024 
1.2499999999998788, -0.899065017218795 
1.2599999999998777, -0.8996199392771468 
1.2699999999998766, -0.9004012418865313 
1.2799999999998755, -0.9013609638170789 
1.2899999999998744, -0.9024484341292537 
1.2999999999998733, -0.9036140233934304 
1.3099999999998722, -0.9048124114812075 
1.319999999999871, -0.9060050384820856 
1.32999999999987, -0.9071615904067706 
1.3399999999998689, -0.9082604829227515 
1.3499999999998678, -0.9092883298976586 
1.3599999999998666, -0.9102383896121937 
1.3699999999998655, -0.9111080660482443 
1.3799999999998644, -0.9118957473838046 
1.3899999999998633, -0.912597532908534 
1.3999999999998622, -0.9132046034945769 
1.4099999999998611, -0.9137019966315575 
1.41999999999986, -0.9140692854163732 
1.429999999999859, -0.914283164132235 
1.4399999999998578, -0.9143213607457569 
1.4499999999998567, -0.9141668708767887 
1.4599999999998556, -0.9138114658831475 
1.4699999999998545, -0.9132578205279094 
1.4799999999998534, -0.9125202312429684 
1.4899999999998523, -0.9116244154069045 
1.4999999999998512, -0.9106070434264145 
1.5099999999998501, -0.9095154290853561 
1.519999999999849, -0.9084073459217558 
1.529999999999848, -0.9073504724151943 
1.5399999999998468, -0.9064207027913924 
1.5499999999998457, -0.905698643959275 
1.5599999999998446, -0.9052641032873668 
1.5699999999998435, -0.9051891382640412 
1.5799999999998424, -0.9055309760852013 
1.5899999999998413, -0.9063264302814723 
1.5999999999998402, -0.9075891170479671 
1.6099999999998391, -0.9093099304277024 
1.619999999999838, -0.9114602926503227 
1.629999999999837, -0.9139970889440528 
1.6399999999998358, -0.9168681030072459 
1.6499999999998347, -0.9200170585978161 
1.6599999999998336, -0.9233877673947464 
1.6699999999998325, -0.9269271673735756 
1.6799999999998314, -0.9305871512328517 
1.6899999999998303, -0.9343250980519456 
1.6999999999998292, -0.9381030397494631 
1.709999999999828, -0.9418854988619404 
1.719999999999827, -0.9456362616231289 
1.729999999999826, -0.9493146877095343 
1.7399999999998248, -0.9528725333291513 
1.7499999999998237, -0.9562525262838344 
1.7599999999998226, -0.9593898544441543 
1.7699999999998215, -0.9622171011726698 
1.7799999999998204, -0.9646719865909464 
1.7899999999998193, -0.9667059703907032 
1.7999999999998182, -0.9682910926291176 
1.809999999999817, -0.969422956787513 
1.819999999999816, -0.970119340166104 
1.8299999999998149, -0.9704156654691353 
1.8399999999998138, -0.9703595502034116 
1.8499999999998127, -0.9700065569116907 
1.8599999999998116, -0.969418442521512 
1.8699999999998105, -0.968664179899129 
1.8799999999998094, -0.9678231074686957 
1.8899999999998083, -0.9669887951498018 
1.8999999999998072, -0.9662715887009287 
1.909999999999806, -0.965797487716843 
1.919999999999805, -0.9657014358186866 
1.9299999999998039, -0.9661146270365882 
1.9399999999998028, -0.9671478793274222 
1.9499999999998017, -0.9688754419537483 
1.9599999999998006, -0.971324300262769 
1.9699999999997995, -0.9744723397051706 
1.9799999999997984, -0.9782554058084969 
1.9899999999997973, -0.9825802255613065 
1.9999999999997962, -0.9873388838298277 
2.0099999999998173, -0.992421261158203 
2.0199999999998384, -0.997723575723595 
2.0299999999998595, -1.003152789694777 
2.0399999999998806, -1.00862754913579 
2.0499999999999017, -1.0140765753842342 
2.059999999999923, -1.019435374909649 
2.069999999999944, -1.0246421135903672 
2.079999999999965, -1.0296336409437779 
2.089999999999986, -1.034342866981908 
2.100000000000007, -1.0386987479042444 
2.1100000000000283, -1.0426297330867607 
2.1200000000000494, -1.046070509547833 
2.1300000000000705, -1.048970480058547 
2.1400000000000916, -1.051301320460183 
2.1500000000001127, -1.0530609818972057 
2.160000000000134, -1.054272865538677 
2.170000000000155, -1.0549809098270957 
2.180000000000176, -1.0552428534582172 
2.190000000000197, -1.055124267028404 
2.2000000000002182, -1.054695210268337 
2.2100000000002393, -1.0540301650295898 
2.2200000000002604, -1.0532107011107 
2.2300000000002815, -1.052329307199266 
2.2400000000003026, -1.0514919934522018 
2.2500000000003237, -1.0508168916437237 
2.260000000000345, -1.050426707933885 
2.270000000000366, -1.0504349929673296 
2.280000000000387, -1.0509293509871631 
2.290000000000408, -1.0519571907669254 
2.3000000000004293, -1.0535194057094686 
2.3100000000004504, -1.0555740712689128 
2.3200000000004715, -1.058047888620892 
2.3300000000004926, -1.0608504947531516 
2.3400000000005137, -1.0638871048335827 
2.3500000000005348, -1.0670672179811773 
2.360000000000556, -1.0703094061282319 
2.370000000000577, -1.0735433454234924 
2.380000000000598, -1.076710239819078 
2.390000000000619, -1.0797622653664167 
2.4000000000006403, -1.0826612230553236 
2.4100000000006614, -1.085376462950748 
2.4200000000006825, -1.087882279341158 
2.4300000000007036, -1.0901552199447098 
2.4400000000007247, -1.0921719527866036 
2.450000000000746, -1.0939083666678948 
2.460000000000767, -1.0953403534287471 
2.470000000000788, -1.096446230113262 
2.480000000000809, -1.0972101606594629 
2.49000000000083, -1.0976255242652757 
2.5000000000008513, -1.0976972254322366 
2.5100000000008724, -1.0974424793708428 
2.5200000000008935, -1.0968903426474033 
2.5300000000009146, -1.096080754970275 
2.5400000000009357, -1.0950638257413257 
2.550000000000957, -1.093899557669815 
2.560000000000978, -1.0926574296688232 
2.570000000000999, -1.091414680586822 
2.58000000000102, -1.0902521760777448 
2.5900000000010412, -1.0892476397804696 
2.6000000000010624, -1.0884675126423107 
2.6100000000010835, -1.0879598760413827 
2.6200000000011046, -1.0877507403385795 
2.6300000000011257, -1.0878444116636747 
2.6400000000011468, -1.0882266756453436 
2.650000000001168, -1.0888686219979757 
2.660000000001189, -1.089729606258559 
2.67000000000121, -1.0907593229644623 
2.680000000001231, -1.0918999725457768 
2.6900000000012523, -1.0930893851142225 
2.7000000000012734, -1.0942650812773036 
2.7100000000012945, -1.095368469812317 
2.7200000000013156, -1.0963482583900348 
2.7300000000013367, -1.0971625803575997 
2.740000000001358, -1.097779847830312 
2.750000000001379, -1.098178582149487 
2.7600000000014, -1.0983464381055243 
2.770000000001421, -1.0982785398447599 
2.780000000001442, -1.0979752787659263 
2.7900000000014633, -1.0974399087833602 
2.8000000000014844, -1.096676467901386 
2.8100000000015055, -1.0956885793825222 
2.8200000000015266, -1.0944794726206402 
2.8300000000015477, -1.0930532008608205 
2.840000000001569, -1.0914166949650277 
2.85000000000159, -1.0895821216035353 
2.860000000001611, -1.087569034376146 
2.870000000001632, -1.0854059274984966 
2.8800000000016532, -1.0831309120393176 
2.8900000000016743, -1.0807913084221954 
2.9000000000016954, -1.078442068728431 
2.9100000000017165, -1.0761431916799702 
2.9200000000017377, -1.0739565968208542 
2.9300000000017588, -1.071943018209758 
2.94000000000178, -1.0701591311421617 
2.950000000001801, -1.0686544763867054 
2.960000000001822, -1.0674673740667655 
2.970000000001843, -1.0666195172994184 
2.9800000000018643, -1.0661102632098973 
2.9900000000018854, -1.065912889217324 
3.0000000000019065, -1.0659750857479764 
3.0100000000019276, -1.0662243564095766 
3.0200000000019487, -1.0665767571719218 
3.03000000000197, -1.0669460655072325 
3.040000000001991, -1.0672508135288281 
3.050000000002012, -1.0674181465243542 
3.060000000002033, -1.067385056699356 
3.070000000002054, -1.0670983860896155 
3.0800000000020753, -1.0665149455466045 
3.0900000000020964, -1.0656024385071283 
3.1000000000021175, -1.0643410084739002 
3.1100000000021386, -1.0627245372593057 
3.1200000000021597, -1.0607606311389872 
3.130000000002181, -1.0584686714702443 
3.140000000002202, -1.0558761650822064 
3.150000000002223, -1.053014424909641 
3.160000000002244, -1.049914900251646 
3.1700000000022652, -1.04660715771783 
3.1800000000022863, -1.0431188433517027 
3.1900000000023074, -1.0394773042052567 
3.2000000000023285, -1.0357121595599799 
3.2100000000023496, -1.0318580359436713 
3.2200000000023707, -1.0279568309438234 
3.230000000002392, -1.0240591224697952 
3.240000000002413, -1.0202245737209614 
3.250000000002434, -1.0165212947917726 
3.260000000002455, -1.0130240375636927 
3.2700000000024763, -1.0098108558135162 
3.2800000000024974, -1.0069576815064567 
3.2900000000025185, -1.004530521122627 
3.3000000000025396, -1.0025759110129584 
3.3100000000025607, -1.0011116455657134 
3.3200000000025818, -1.000120766980537 
3.330000000002603, -0.9995514228514156 
3.340000000002624, -0.9993232429170734 
3.350000000002645, -0.9993383259639774 
3.360000000002666, -0.9994932923946509 
3.3700000000026873, -0.9996890299304604 
3.3800000000027084, -0.9998363648663736 
3.3900000000027295, -0.9998578070294969 
3.4000000000027506, -0.9996868099840651 
3.4100000000027717, -0.9992663751123959 
3.420000000002793, -0.9985485012198957 
3.430000000002814, -0.9974952410099225 
3.440000000002835, -0.9960812064146988 
3.450000000002856, -0.9942964945470442 
3.460000000002877, -0.99214850283724 
3.4700000000028983, -0.989661286528997 
3.4800000000029194, -0.9868720294749237 
3.4900000000029405, -0.9838254321172517 
3.5000000000029616, -0.9805676904576709 
3.5100000000029827, -0.9771417971006455 
3.520000000003004, -0.9735852239149075 
3.530000000003025, -0.9699301103452823 
3.540000000003046, -0.9662053409057095 
3.550000000003067, -0.962439556252121 
3.5600000000030882, -0.958664166247036 
3.5700000000031094, -0.9549156703353098 
3.5800000000031305, -0.9512368919920671 
3.5900000000031516, -0.9476770007825981 
3.6000000000031727, -0.9442903750182302 
3.6100000000031938, -0.9411344284124205 
3.620000000003215, -0.938266498288833 
3.630000000003236, -0.9357398405068141 
3.640000000003257, -0.9335988232467405 
3.650000000003278, -0.9318736695990616 
3.6600000000032993, -0.930575541774726 
3.6700000000033204, -0.929693154259191 
3.6800000000033415, -0.9291921055184688 
3.6900000000033626, -0.9290175297402135 
3.7000000000033837, -0.9290996619696559 
3.710000000003405, -0.9293609773118562 
3.720000000003426, -0.9297231999683436 
3.730000000003447, -0.9301128267679766 
3.740000000003468, -0.9304646085228686 
3.750000000003489, -0.9307232374441785 
3.7600000000035103, -0.9308439606197115 
3.7700000000035314, -0.9307928689982033 
3.7800000000035525, -0.9305472820173651 
3.7900000000035736, -0.9300961516937961 
3.8000000000035947, -0.9294399868746565 
3.810000000003616, -0.928589675754918 
3.820000000003637, -0.9275638714368032 
3.830000000003658, -0.9263851895625707 
3.840000000003679, -0.9250760409098802 
3.8500000000037002, -0.9236551687143438 
3.8600000000037213, -0.9221357634641357 
3.8700000000037424, -0.9205255172572184 
3.8800000000037635, -0.9188284078271599 
3.8900000000037847, -0.9170475872495616 
3.9000000000038058, -0.9151885975307695 
3.910000000003827, -0.9132622312387274 
3.920000000003848, -0.9112865961786959 
3.930000000003869, -0.9092881899891644 
3.94000000000389, -0.907301943559811 
3.9500000000039113, -0.9053702422589344 
3.9600000000039324, -0.9035409525430236 
3.9700000000039535, -0.9018645542609218 
3.9800000000039746, -0.900390631863372 
3.9900000000039957, -0.8991641492183878 
4.000000000004016, -0.898222015229481 
4.010000000003993, -0.8975903727314399 
4.02000000000397, -0.897282845029364 
4.030000000003946, -0.8972997701801843 
4.040000000003923, -0.8976283513217994 
4.0500000000039, -0.8982436649239373 
4.0600000000038765, -0.8991105111086948 
4.070000000003853, -0.9001860575801014 
4.08000000000383, -0.9014230942193904 
4.090000000003807, -0.902773550257617 
4.100000000003783, -0.9041918348997163 
4.11000000000376, -0.9056375960371983 
4.120000000003737, -0.9070776137570603 
4.130000000003713, -0.9084866747559058 
4.14000000000369, -0.9098473584360386 
4.150000000003667, -0.911148723060981 
4.1600000000036434, -0.9123839767781838 
4.17000000000362, -0.9135474038501755 
4.180000000003597, -0.9146310700244183 
4.1900000000035735, -0.9156220544846337 
4.20000000000355, -0.9165010184568233 
4.210000000003527, -0.9172427206161031 
4.220000000003504, -0.917818610571069 
4.23000000000348, -0.9182009899352296 
4.240000000003457, -0.918367681299035 
4.250000000003434, -0.9183059840616953 
4.26000000000341, -0.9180150570117407 
4.270000000003387, -0.9175065817509811 
4.280000000003364, -0.9168042419264225 
4.2900000000033405, -0.915942860470368 
4.300000000003317, -0.9149678772537625 
4.310000000003294, -0.9139353638172892 
4.320000000003271, -0.9129121936916683 
4.330000000003247, -0.9119755335433064 
4.340000000003224, -0.911210669590199 
4.350000000003201, -0.9107064650993669 
4.360000000003177, -0.9105484723508622 
4.370000000003154, -0.9108106933843628 
4.380000000003131, -0.9115477728172041 
4.390000000003107, -0.9127895611763636 
4.400000000003084, -0.9145393443171997 
4.410000000003061, -0.9167758841730146 
4.4200000000030375, -0.919458332860149 
4.430000000003014, -0.922532536973272 
4.440000000002991, -0.9259373336416642 
4.450000000002968, -0.9296099029805616 
4.460000000002944, -0.9334897371196821 
4.470000000002921, -0.9375211004633234 
4.480000000002898, -0.9416539718994218 
4.490000000002874, -0.945843484351458 
4.500000000002851, -0.9500479374401136 
4.510000000002828, -0.954225637200973 
4.520000000002804, -0.9583311288545299 
4.530000000002781, -0.9623117764494697 
4.540000000002758, -0.9661059597205554 
4.5500000000027345, -0.9696441668514079 
4.560000000002711, -0.9728537107381866 
4.570000000002688, -0.9756666217262118 
4.580000000002665, -0.9780288352164864 
4.590000000002641, -0.9799078825391344 
4.600000000002618, -0.9812966327366027 
4.610000000002595, -0.9822122174177629 
4.620000000002571, -0.9826912265851916 
4.630000000002548, -0.9827835094453946 
4.640000000002525, -0.9825469781727231 
4.6500000000025015, -0.9820449962996401 
4.660000000002478, -0.9813468359086341 
4.670000000002455, -0.9805306993654227 
4.6800000000024315, -0.979687984566719 
4.690000000002408, -0.9789267743118556 
4.700000000002385, -0.9783720661662946 
4.710000000002362, -0.9781604389876484 
4.720000000002338, -0.9784281729050842 
4.730000000002315, -0.9792943357804457 
4.740000000002292, -0.9808430896333385 
4.750000000002268, -0.9831107908725696 
4.760000000002245, -0.9860821547756733 
4.770000000002222, -0.9896962916294362 
4.7800000000021985, -0.9938597887719713 
4.790000000002175, -0.9984621801350201 
4.800000000002152, -1.0033896381004987 
4.810000000002129, -1.0085345955809328 
4.820000000002105, -1.0138009031563688 
4.830000000002082, -1.019105247022118 
4.840000000002059, -1.024375867321906 
4.850000000002035, -1.02954951603197 
4.860000000002012, -1.0345674783811076 
4.870000000001989, -1.0393715400199774 
4.880000000001965, -1.0439009684664036 
4.890000000001942, -1.0480916794634323 
4.900000000001919, -1.0518784980157745 
4.9100000000018955, -1.0552006128088374 
4.920000000001872, -1.0580090820484844 
4.930000000001849, -1.0602741277995824 
