t, s[1].omega / s[0].omega 
0, -1.4600062314600055 
0.009999999999999995, -1.460412182339145 
0.019999999999999934, -1.4604220162188635 
0.029999999999999874, -1.4600863954012506 
0.04000000000000012, -1.4594560359885786 
0.050000000000000405, -1.458586702427898 
0.06000000000000069, -1.4575486144881693 
0.07000000000000098, -1.456435227453003 
0.08000000000000126, -1.455366902663417 
0.09000000000000155, -1.4544827842340458 
0.10000000000000184, -1.4538974146418746 
0.11000000000000212, -1.4536230250745539 
0.12000000000000241, -1.4535420192396573 
0.130000000000002, -1.4534775748122701 
0.1400000000000009, -1.4532694237554877 
0.1499999999999998, -1.452774608488832 
0.1599999999999987, -1.4518107007093035 
0.1699999999999976, -1.4500742117696634 
0.1799999999999965, -1.447044239729023 
0.1899999999999954, -1.441899908366973 
0.1999999999999943, -1.4335835203489915 
0.2099999999999932, -1.4213443201365117 
0.2199999999999921, -1.406110040103226 
0.229999999999991, -1.3917630454225007 
0.2399999999999899, -1.383184875221572 
0.2499999999999888, -1.3814296824558467 
0.2599999999999877, -1.3833464917061071 
0.2699999999999866, -1.3857891589529938 
0.2799999999999855, -1.3875221985726152 
0.2899999999999844, -1.3884562816152988 
0.2999999999999833, -1.3887897369542301 
0.3099999999999822, -1.38868620974501 
0.3199999999999811, -1.3882200917793646 
0.32999999999998, -1.3874035617033598 
0.3399999999999789, -1.3862715833474484 
0.3499999999999778, -1.385089296697458 
0.35999999999997667, -1.3846773039642108 
0.36999999999997557, -1.3864030612049587 
0.37999999999997447, -1.391162174787456 
0.38999999999997337, -1.398233009747244 
0.39999999999997227, -1.4058137605630558 
0.40999999999997117, -1.4124319533456318 
0.41999999999997006, -1.4174812060356508 
0.42999999999996896, -1.4209684669607396 
0.43999999999996786, -1.4231623067705308 
0.44999999999996676, -1.4243833313236474 
0.45999999999996566, -1.4249118610534635 
0.46999999999996456, -1.4249608166134395 
0.47999999999996346, -1.4246836224160702 
0.48999999999996235, -1.4242001834619427 
0.49999999999996125, -1.423626162582352 
0.5099999999999602, -1.423084758023085 
0.519999999999959, -1.4226846149332033 
0.529999999999958, -1.422483144885363 
0.5399999999999568, -1.4224754179735775 
0.5499999999999557, -1.422607854168186 
0.5599999999999546, -1.4227928318813743 
0.5699999999999535, -1.4229262772769982 
0.5799999999999524, -1.4229074612234023 
0.5899999999999513, -1.422644529687101 
0.5999999999999502, -1.4220440455852352 
0.6099999999999491, -1.4209983741321603 
0.619999999999948, -1.419382167939601 
0.6299999999999469, -1.4170618352270348 
0.6399999999999458, -1.4139207710737292 
0.6499999999999447, -1.4099120062054329 
0.6599999999999436, -1.4051623441027628 
0.6699999999999425, -1.4001272489833367 
0.6799999999999414, -1.3956522373763869 
0.6899999999999403, -1.392629505797384 
0.6999999999999392, -1.3913206856072142 
0.7099999999999381, -1.391184246595607 
0.719999999999937, -1.3914669559355954 
0.7299999999999359, -1.3916962089820397 
0.7399999999999348, -1.3916844538807183 
0.7499999999999337, -1.3913563642946614 
0.7599999999999326, -1.3906167785408183 
0.7699999999999315, -1.3892659769650626 
0.7799999999999304, -1.3869346620379903 
0.7899999999999293, -1.3831018374338124 
0.7999999999999282, -1.3775088351898757 
0.8099999999999271, -1.3715148563172996 
0.819999999999926, -1.3696106371659196 
0.8299999999999249, -1.376788102132989 
0.8399999999999238, -1.3918178545136874 
0.8499999999999227, -1.4078294979815227 
0.8599999999999216, -1.4198661220566389 
0.8699999999999205, -1.4272761360565105 
0.8799999999999194, -1.4313361543180707 
0.8899999999999183, -1.4333702233321648 
0.8999999999999172, -1.434252193912667 
0.9099999999999161, -1.4344728114186915 
0.919999999999915, -1.4342934842604627 
0.9299999999999139, -1.4338705379409693 
0.9399999999999128, -1.4333531646305373 
0.9499999999999117, -1.4329532927932025 
0.9599999999999106, -1.4329281355732904 
0.9699999999999095, -1.433435020193108 
0.9799999999999084, -1.4344034690231777 
0.9899999999999073, -1.4356001407436476 
0.9999999999999062, -1.4367880517901621 
1.0099999999999052, -1.437806302734517 
1.019999999999904, -1.438566005090467 
1.029999999999903, -1.4390240558464718 
1.039999999999902, -1.4391620729615817 
1.0499999999999008, -1.4389737172707278 
1.0599999999998997, -1.4384587488287601 
1.0699999999998986, -1.4376220171320697 
1.0799999999998975, -1.4364769161881712 
1.0899999999998964, -1.4350544923743116 
1.0999999999998953, -1.4334198565761946 
1.1099999999998942, -1.4316958019459356 
1.119999999999893, -1.4300815679262435 
1.129999999999892, -1.428820741969886 
1.1399999999998909, -1.4280734435821714 
1.1499999999998898, -1.4277862869280173 
1.1599999999998887, -1.4277339394832391 
1.1699999999998876, -1.4276782046645864 
1.1799999999998865, -1.4274476899533481 
1.1899999999998854, -1.4269014272244989 
1.1999999999998843, -1.4258439842692874 
1.2099999999998832, -1.4239196628308086 
1.219999999999882, -1.420476228904083 
1.229999999999881, -1.414432087620121 
1.2399999999998799, -1.4043879795408656 
1.2499999999998788, -1.3896322998876633 
1.2599999999998777, -1.3724528019330422 
1.2699999999998766, -1.3590914936339362 
1.2799999999998755, -1.3546593612037918 
1.2899999999998744, -1.3574846844359931 
1.2999999999998733, -1.3624338340555586 
1.3099999999998722, -1.3664197029181542 
1.319999999999871, -1.3688651437598924 
1.32999999999987, -1.3701307395854116 
1.3399999999998689, -1.3706337408233642 
1.3499999999998678, -1.3706406691972222 
1.3599999999998666, -1.370284627262206 
1.3699999999998655, -1.3696260367767479 
1.3799999999998644, -1.368742648972198 
1.3899999999998633, -1.3678886748717942 
1.3999999999998622, -1.3676859425734795 
1.4099999999998611, -1.3690374349046246 
1.41999999999986, -1.3724588305949756 
1.429999999999859, -1.3774662600758236 
1.4399999999998578, -1.3829373454000278 
1.4499999999998567, -1.3879105624477228 
1.4599999999998556, -1.3919117142959707 
1.4699999999998545, -1.394845310467617 
1.4799999999998534, -1.396809641570656 
1.4899999999998523, -1.3979753639269972 
1.4999999999998512, -1.398521794370761 
1.5099999999998501, -1.3986064742960518 
1.519999999999849, -1.39835663190352 
1.529999999999848, -1.397877532208662 
1.5399999999998468, -1.3972702197667843 
1.5499999999998457, -1.3966437835883618 
1.5599999999998446, -1.396105633746797 
1.5699999999998435, -1.3957337377858825 
1.5799999999998424, -1.395557488878596 
1.5899999999998413, -1.395556158078953 
1.5999999999998402, -1.3956627564933712 
1.6099999999998391, -1.3957775807029502 
1.619999999999838, -1.3957934904830274 
1.629999999999837, -1.3956116435805843 
1.6399999999998358, -1.3951360103262744 
1.6499999999998347, -1.3942582824067729 
1.6599999999998336, -1.3928485961856352 
1.6699999999998325, -1.3907599086231015 
1.6799999999998314, -1.3878486563136978 
1.6899999999998303, -1.3840168551335903 
1.6999999999998292, -1.379291940360541 
1.709999999999828, -1.3739617882173805 
1.719999999999827, -1.368709894247823 
1.729999999999826, -1.364511561455261 
1.7399999999998248, -1.362071839015561 
1.7499999999998237, -1.3612669633861967 
1.7599999999998226, -1.3613632302933767 
1.7699999999998215, -1.3616756623094617 
1.7799999999998204, -1.361850496483641 
1.7899999999998193, -1.361760097709547 
1.7999999999998182, -1.3613382579407776 
1.809999999999817, -1.360472292978361 
1.819999999999816, -1.3589274154868165 
1.8299999999998149, -1.3562834948066946 
1.8399999999998138, -1.3519668417925506 
1.8499999999998127, -1.3457138897347216 
1.8599999999998116, -1.3389763899834994 
1.8699999999998105, -1.3363273638051418 
1.8799999999998094, -1.3427031134290786 
1.8899999999998083, -1.3569508807553938 
1.8999999999998072, -1.3724263966564332 
1.909999999999806, -1.3842018967160574 
1.919999999999805, -1.3915120690060427 
1.9299999999998039, -1.3955435237603373 
1.9399999999998028, -1.3975778873270108 
1.9499999999998017, -1.398471296029895 
1.9599999999998006, -1.3987061180060378 
1.9699999999997995, -1.3985372241943055 
1.9799999999997984, -1.3981117398209284 
1.9899999999997973, -1.3975667144564026 
1.9999999999997962, -1.397113341501219 
2.0099999999998173, -1.3970534447441239 
2.0199999999998384, -1.397641553490722 
2.0299999999998595, -1.3988814311999613 
2.0399999999998806, -1.4005170860522285 
2.0499999999999017, -1.4022253130266324 
2.059999999999923, -1.4037683892716415 
2.069999999999944, -1.4050177828334727 
2.079999999999965, -1.4059199008851762 
2.089999999999986, -1.4064620950459195 
2.100000000000007, -1.4066521144229862 
2.1100000000000283, -1.406508044844478 
2.1200000000000494, -1.4060544201683216 
2.1300000000000705, -1.4053223011466358 
2.1400000000000916, -1.4043532959919804 
2.1500000000001127, -1.4032073299730876 
2.160000000000134, -1.4019714303433766 
2.170000000000155, -1.4007652027588426 
2.180000000000176, -1.3997342168447173 
2.190000000000197, -1.399009471756601 
2.2000000000002182, -1.398630408330446 
2.2100000000002393, -1.3985033473148958 
2.2200000000002604, -1.3984567027205412 
2.2300000000002815, -1.3983251013371087 
2.2400000000003026, -1.3979720099657047 
2.2500000000003237, -1.3972511680987834 
2.260000000000345, -1.3959425094185203 
2.270000000000366, -1.3936788877714388 
2.280000000000387, -1.3898773177679637 
2.290000000000408, -1.3837325540554732 
2.3000000000004293, -1.3744281648740804 
2.3100000000004504, -1.3618052145948627 
2.3200000000004715, -1.3474516672719652 
2.3300000000004926, -1.3350117229822493 
2.3400000000005137, -1.3279036678116234 
2.3500000000005348, -1.3262391912354117 
2.360000000000556, -1.3274399505205452 
2.370000000000577, -1.3291696116700842 
2.380000000000598, -1.3304532098356632 
2.390000000000619, -1.3311496259772553 
2.4000000000006403, -1.3313609574437648 
2.4100000000006614, -1.331182592443583 
2.4200000000006825, -1.3306409483388584 
2.4300000000007036, -1.3296948073635932 
2.4400000000007247, -1.32828406788706 
2.450000000000746, -1.3265036768797531 
2.460000000000767, -1.3250226808434795 
2.470000000000788, -1.3255481894581762 
2.480000000000809, -1.330265096409056 
2.49000000000083, -1.339697474913566 
2.5000000000008513, -1.351606511666523 
2.5100000000008724, -1.362885459577999 
2.5200000000008935, -1.371698824802814 
2.5300000000009146, -1.377735316799744 
2.5400000000009357, -1.3814810676740457 
2.550000000000957, -1.3836001008884509 
2.560000000000978, -1.3846514353773292 
2.570000000000999, -1.3850241396618983 
2.58000000000102, -1.3849652600836662 
2.5900000000010412, -1.3846343802073557 
2.6000000000010624, -1.384160173712713 
2.6100000000010835, -1.383684812600897 
2.6200000000011046, -1.383368947618822 
2.6300000000011257, -1.383337272473287 
2.6400000000011468, -1.3836115614618303 
2.650000000001168, -1.3841106237569922 
2.660000000001189, -1.384708669610182 
2.67000000000121, -1.3852842335703248 
2.680000000001231, -1.385738539827444 
2.6900000000012523, -1.3859979177068067 
2.7000000000012734, -1.3860092141596647 
2.7100000000012945, -1.3857326478165837 
2.7200000000013156, -1.3851366738739954 
2.7300000000013367, -1.384196647099364 
2.740000000001358, -1.3828969169876906 
2.750000000001379, -1.381237100528034 
2.7600000000014, -1.3792457668998601 
2.770000000001421, -1.377005739439754 
2.780000000001442, -1.374689396308921 
2.7900000000014633, -1.372576111462136 
2.8000000000014844, -1.3709823769393519 
2.8100000000015055, -1.3700787300302326 
2.8200000000015266, -1.3697571878288108 
2.8300000000015477, -1.3697283572587484 
2.840000000001569, -1.3697192047508664 
2.85000000000159, -1.3695525128981356 
2.860000000001611, -1.3691021236051626 
2.870000000001632, -1.3682091776890288 
2.8800000000016532, -1.366588917829618 
2.8900000000016743, -1.3637144705699915 
2.9000000000016954, -1.3586857268076868 
2.9100000000017165, -1.350225061714704 
2.9200000000017377, -1.3372525027295663 
2.9300000000017588, -1.3206072498380659 
2.94000000000178, -1.3048256038563113 
2.950000000001801, -1.2959258339657473 
2.960000000001822, -1.295441726968789 
2.970000000001843, -1.2995436699559404 
2.9800000000018643, -1.3040862507199982 
2.9900000000018854, -1.307357561801551 
3.0000000000019065, -1.3092854979782804 
3.0100000000019276, -1.310249390949299 
3.0200000000019487, -1.310583132487117 
3.03000000000197, -1.3104848972371237 
3.040000000001991, -1.3100438344150738 
3.050000000002012, -1.3092891025085687 
3.060000000002033, -1.3082698826894017 
3.070000000002054, -1.3072187509397608 
3.0800000000020753, -1.3067977257072358 
3.0900000000020964, -1.3081429566475429 
3.1000000000021175, -1.3122131529573047 
3.1100000000021386, -1.3187978233205513 
3.1200000000021597, -1.3265167508651652 
3.130000000002181, -1.333845020336953 
3.140000000002202, -1.3398666073165049 
3.150000000002223, -1.3443146552371323 
3.160000000002244, -1.3473145767163028 
3.1700000000022652, -1.349151352224269 
3.1800000000022863, -1.3501287493155052 
3.1900000000023074, -1.3505023476911049 
3.2000000000023285, -1.350462265185243 
3.2100000000023496, -1.3501462587902018 
3.2200000000023707, -1.3496681428523813 
3.230000000002392, -1.3491465400598783 
3.240000000002413, -1.348712313033567 
3.250000000002434, -1.3484780369403224 
3.260000000002455, -1.3484916383961543 
3.2700000000024763, -1.3487232561024958 
3.2800000000024974, -1.3490921722797198 
3.2900000000025185, -1.349498874004825 
3.3000000000025396, -1.3498456299402526 
3.3100000000025607, -1.3500484825863261 
3.3200000000025818, -1.350040484082447 
3.330000000002603, -1.3497677072127603 
3.340000000002624, -1.3491844913665199 
3.350000000002645, -1.3482523268607436 
3.360000000002666, -1.3469423529870594 
3.3700000000026873, -1.3452407263638924 
3.3800000000027084, -1.3431589123898153 
3.3900000000027295, -1.3407536834590195 
3.4000000000027506, -1.338159743318583 
3.4100000000027717, -1.335622237612558 
3.420000000002793, -1.3334780723181596 
3.430000000002814, -1.3320204089990635 
3.440000000002835, -1.331304646607873 
3.450000000002856, -1.3311119415239983 
3.460000000002877, -1.3311255231073198 
3.4700000000028983, -1.3311002019775282 
3.4800000000029194, -1.3308864882600315 
3.4900000000029405, -1.3303664278555898 
3.5000000000029616, -1.3293727091145744 
3.5100000000029827, -1.3276010580069304 
3.520000000003004, -1.324501309070366 
3.530000000003025, -1.3191661610093746 
3.540000000003046, -1.310367973012092 
3.550000000003067, -1.2971477454789013 
3.5600000000030882, -1.280350215583121 
3.5700000000031094, -1.2640474714701535 
3.5800000000031305, -1.2536696784712844 
3.5900000000031516, -1.2511033709566024 
3.6000000000031727, -1.2534986318294754 
3.6100000000031938, -1.2571114004911366 
3.620000000003215, -1.2600179516619805 
3.630000000003236, -1.2618520379388924 
3.640000000003257, -1.2628232629105 
3.650000000003278, -1.2631949168577539 
3.6600000000032993, -1.2631400977999108 
3.6700000000033204, -1.2627352594730203 
3.6800000000033415, -1.2619850672787434 
3.6900000000033626, -1.2608677883259438 
3.7000000000033837, -1.2594488117996305 
3.710000000003405, -1.2581407161235028 
3.720000000003426, -1.2580575254932946 
3.730000000003447, -1.2609359805294242 
3.740000000003468, -1.2679553420754837 
3.750000000003489, -1.2783356312737362 
3.7600000000035103, -1.289693931291763 
3.7700000000035314, -1.2997668773728452 
3.7800000000035525, -1.3074526856209578 
3.7900000000035736, -1.3126951219116703 
3.8000000000035947, -1.315955942896611 
3.810000000003616, -1.31780222910491 
3.820000000003637, -1.3187085155205085 
3.830000000003658, -1.3190082302866704 
3.840000000003679, -1.318916201478994 
3.8500000000037002, -1.3185747170617974 
3.8600000000037213, -1.3181038058879517 
3.8700000000037424, -1.3176438483771649 
3.8800000000037635, -1.3173648375792968 
3.8900000000037847, -1.3174154273163772 
3.9000000000038058, -1.3178429327148897 
3.910000000003827, -1.3185703998983525 
3.920000000003848, -1.3194526806869966 
3.930000000003869, -1.32034411836625 
3.94000000000389, -1.3211308295900162 
3.9500000000039113, -1.3217347948032463 
3.9600000000039324, -1.3221072851558593 
3.9700000000039535, -1.3222203048509897 
3.9800000000039746, -1.3220597758465018 
3.9900000000039957, -1.3216217351812405 
4.000000000004016, -1.3209113384592548 
4.010000000003993, -1.3199444394778865 
4.02000000000397, -1.3187520900128102 
4.030000000003946, -1.317388019377241 
4.040000000003923, -1.3159374464866471 
4.0500000000039, -1.314522775771722 
4.0600000000038765, -1.31329548217983 
4.070000000003853, -1.3123955334446742 
4.08000000000383, -1.3118793457706277 
4.090000000003807, -1.311675111647883 
4.100000000003783, -1.3116227561758327 
4.11000000000376, -1.3115552978040892 
4.120000000003737, -1.311338571792461 
4.130000000003713, -1.3108534751782894 
4.14000000000369, -1.309951345359015 
4.150000000003667, -1.3084050590264886 
4.1600000000036434, -1.305867253682331 
4.17000000000362, -1.3018581084616796 
4.180000000003597, -1.295832890736842 
4.1900000000035735, -1.287401914336383 
4.20000000000355, -1.2767445033407758 
4.210000000003527, -1.2650754992979114 
4.220000000003504, -1.2546327004975226 
4.23000000000348, -1.2475797045382566 
4.240000000003457, -1.2444670432543685 
4.250000000003434, -1.2440880482216043 
4.26000000000341, -1.2448212180532505 
4.270000000003387, -1.2456494321584128 
4.280000000003364, -1.2461944985572186 
4.2900000000033405, -1.2463915649841404 
4.300000000003317, -1.2462539512220974 
4.310000000003294, -1.2457679147453837 
4.320000000003271, -1.2448466702230119 
4.330000000003247, -1.2432994342065276 
4.340000000003224, -1.2408214709795513 
4.350000000003201, -1.2370970534628385 
4.360000000003177, -1.2322488842906956 
4.370000000003154, -1.22781479330552 
4.380000000003131, -1.2273859755788132 
4.390000000003107, -1.2345546238109377 
4.400000000003084, -1.2487077509502658 
4.410000000003061, -1.264790994633843 
4.4200000000030375, -1.278062141451403 
4.430000000003014, -1.2869933942027671 
4.440000000002991, -1.2922867849496473 
4.450000000002968, -1.2951668797693605 
4.460000000002944, -1.2965999727387891 
4.470000000002921, -1.2971857946622796 
4.480000000002898, -1.2972571919706164 
4.490000000002874, -1.296990638175334 
4.500000000002851, -1.2964932632104884 
4.510000000002828, -1.2958841248011024 
4.520000000002804, -1.2953822449317876 
4.530000000002781, -1.2953540532479337 
4.540000000002758, -1.2962025051612895 
4.5500000000027345, -1.2980936336377653 
4.560000000002711, -1.3007987989492016 
4.570000000002688, -1.3038527255598873 
4.580000000002665, -1.3068193108689248 
4.590000000002641, -1.309418559850493 
4.600000000002618, -1.311516556125202 
4.610000000002595, -1.3130753034787337 
4.620000000002571, -1.3141130922752864 
4.630000000002548, -1.314680829645347 
4.640000000002525, -1.3148466983980942 
4.6500000000025015, -1.3146847953949776 
4.660000000002478, -1.314269150025032 
4.670000000002455, -1.3136755221360172 
4.6800000000024315, -1.3129883421966762 
4.690000000002408, -1.3123030033736043 
4.700000000002385, -1.3117139792698553 
4.710000000002362, -1.3112930847017816 
4.720000000002338, -1.3110724734421624 
4.730000000002315, -1.3110369019280599 
4.740000000002292, -1.3111240916470686 
4.750000000002268, -1.3112396778111344 
4.760000000002245, -1.3112826216948243 
4.770000000002222, -1.311161426850091 
4.7800000000021985, -1.3107926246645032 
4.790000000002175, -1.3100914492427496 
4.800000000002152, -1.3089673674977413 
4.810000000002129, -1.3073298565487312 
4.820000000002105, -1.305103019841861 
4.830000000002082, -1.3022461639718466 
4.840000000002059, -1.298782588320241 
4.850000000002035, -1.2948446193422405 
4.860000000002012, -1.2907324699834954 
4.870000000001989, -1.286936398395059 
4.880000000001965, -1.2840115723922663 
4.890000000001942, -1.2822778396430148 
4.900000000001919, -1.281602147292385 
4.9100000000018955, -1.281541250987671 
4.920000000001872, -1.2816636055908674 
4.930000000001849, -1.281706699132299 
4.940000000001826, -1.281539650163657 
