t, s[1].omega / s[0].omega 
0, -0.7599976682051564 
0.009999999999999995, -0.7597420206407361 
0.019999999999999934, -0.7594387799369187 
0.029999999999999874, -0.7590810104256397 
0.04000000000000012, -0.758663385090496 
0.050000000000000405, -0.75818734511903 
0.06000000000000069, -0.7576638727582313 
0.07000000000000098, -0.7571143052510385 
0.08000000000000126, -0.756570859587661 
0.09000000000000155, -0.7560778774239374 
0.10000000000000184, -0.7556933199066544 
0.11000000000000212, -0.7554889271263769 
0.12000000000000241, -0.7555473342698266 
0.130000000000002, -0.7559554584649681 
0.1400000000000009, -0.7567951824342753 
0.1499999999999998, -0.7581336135884531 
0.1599999999999987, -0.7600148120163 
0.1699999999999976, -0.762452764232907 
0.1799999999999965, -0.7654229546260457 
0.1899999999999954, -0.768849564824548 
0.1999999999999943, -0.7725896517534702 
0.2099999999999932, -0.7764253205075414 
0.2199999999999921, -0.7800836818585192 
0.229999999999991, -0.7832962624580488 
0.2399999999999899, -0.7858764724814582 
0.2499999999999888, -0.7877658246580197 
0.2599999999999877, -0.7890196404940805 
0.2699999999999866, -0.7897528778478575 
0.2799999999999855, -0.7900871398437481 
0.2899999999999844, -0.7901207078565757 
0.2999999999999833, -0.7899198355287782 
0.3099999999999822, -0.7895216201749348 
0.3199999999999811, -0.7889417904721369 
0.32999999999998, -0.7881862817558973 
0.3399999999999789, -0.7872704296806978 
0.3499999999999778, -0.7862537687076818 
0.35999999999997667, -0.7853000610531786 
0.36999999999997557, -0.784764117652628 
0.37999999999997447, -0.7852748613970082 
0.38999999999997337, -0.7877188922174789 
0.39999999999997227, -0.7929743112284131 
0.40999999999997117, -0.8013514784854202 
0.41999999999997006, -0.8120802671109407 
0.42999999999996896, -0.8234564235542681 
0.43999999999996786, -0.8337169373095955 
0.44999999999996676, -0.8418483084742245 
0.45999999999996566, -0.8477035939768467 
0.46999999999996456, -0.8516431729965326 
0.47999999999996346, -0.8541635652642616 
0.48999999999996235, -0.8557006848427943 
0.49999999999996125, -0.8565730459936385 
0.5099999999999602, -0.8569891916835843 
0.519999999999959, -0.8570715512267817 
0.529999999999958, -0.8568765275611983 
0.5399999999999568, -0.8564044874034952 
0.5499999999999557, -0.855597881508247 
0.5599999999999546, -0.8543262665882508 
0.5699999999999535, -0.8523575392265353 
0.5799999999999524, -0.8493203069721101 
0.5899999999999513, -0.844681834240871 
0.5999999999999502, -0.8378067914090522 
0.6099999999999491, -0.82819695865333 
0.619999999999948, -0.815929053265519 
0.6299999999999469, -0.802016050980687 
0.6399999999999458, -0.7882229285707484 
0.6499999999999447, -0.776298745913291 
0.6599999999999436, -0.7672464750581032 
0.6699999999999425, -0.7611582534795974 
0.6799999999999414, -0.7575199887428765 
0.6899999999999403, -0.7556112299793601 
0.6999999999999392, -0.7547732434925969 
0.7099999999999381, -0.7545163389771903 
0.719999999999937, -0.754522984562845 
0.7299999999999359, -0.7546070079173335 
0.7399999999999348, -0.7546662442685267 
0.7499999999999337, -0.7546443106475396 
0.7599999999999326, -0.7545044509628955 
0.7699999999999315, -0.754213520139053 
0.7799999999999304, -0.7537339627220008 
0.7899999999999293, -0.7530233657300242 
0.7999999999999282, -0.7520424941037148 
0.8099999999999271, -0.750771061176694 
0.819999999999926, -0.7492246884482399 
0.8299999999999249, -0.7474612104201431 
0.8399999999999238, -0.7455687080508494 
0.8499999999999227, -0.7436414229903111 
0.8599999999999216, -0.7417586842008309 
0.8699999999999205, -0.7399767338786374 
0.8799999999999194, -0.7383321511561032 
0.8899999999999183, -0.7368498769400773 
0.8999999999999172, -0.7355499926267394 
0.9099999999999161, -0.7344508563758672 
0.919999999999915, -0.7335687594378546 
0.9299999999999139, -0.7329154283247328 
0.9399999999999128, -0.7324950133690369 
0.9499999999999117, -0.732302058781016 
0.9599999999999106, -0.7323214273726901 
0.9699999999999095, -0.7325303482169212 
0.9799999999999084, -0.7329019498317033 
0.9899999999999073, -0.7334091657442116 
0.9999999999999062, -0.73402785987613 
1.0099999999999052, -0.7347382134632452 
1.019999999999904, -0.7355235987805044 
1.029999999999903, -0.7363664793513113 
1.039999999999902, -0.7372419277369306 
1.0499999999999008, -0.7381114837512188 
1.0599999999998997, -0.7389221240942438 
1.0699999999998986, -0.7396141919092403 
1.0799999999998975, -0.7401364730499941 
1.0899999999998964, -0.7404600256896641 
1.0999999999998953, -0.7405824045193209 
1.1099999999998942, -0.7405215742995568 
1.119999999999893, -0.7403058701141993 
1.129999999999892, -0.7399668332866411 
1.1399999999998909, -0.739538228900579 
1.1499999999998898, -0.7390618531292423 
1.1599999999998887, -0.7386001997867877 
1.1699999999998876, -0.7382562814056769 
1.1799999999998865, -0.7382000006255108 
1.1899999999998854, -0.738696925241631 
1.1999999999998843, -0.7401283878175288 
1.2099999999998832, -0.7429823046177382 
1.219999999999882, -0.7477854007805805 
1.229999999999881, -0.7549480964860649 
1.2399999999998799, -0.7645224428710121 
1.2499999999998788, -0.7759583806127884 
1.2599999999998777, -0.788062559008926 
1.2699999999998766, -0.7993491828224216 
1.2799999999998755, -0.808651681232401 
1.2899999999998744, -0.8155294446803956 
1.2999999999998733, -0.8201926206377836 
1.3099999999998722, -0.8231525928829407 
1.319999999999871, -0.8249275646494929 
1.32999999999987, -0.8259156075735691 
1.3399999999998689, -0.8263811031772134 
1.3499999999998678, -0.826481751217897 
1.3599999999998666, -0.8262975769025032 
1.3699999999998655, -0.8258495757187893 
1.3799999999998644, -0.8251062510915936 
1.3899999999998633, -0.8239786947565898 
1.3999999999998622, -0.8223049689225868 
1.4099999999998611, -0.8198261273472873 
1.41999999999986, -0.8161634451977695 
1.429999999999859, -0.8108255383495726 
1.4399999999998578, -0.8033079522239222 
1.4499999999998567, -0.7933673404361173 
1.4599999999998556, -0.7814483329329368 
1.4699999999998545, -0.7689280647586709 
1.4799999999998534, -0.7576913612696293 
1.4899999999998523, -0.7491732890211177 
1.4999999999998512, -0.7437414077052101 
1.5099999999998501, -0.7408733910676604 
1.519999999999849, -0.7397147687318265 
1.529999999999848, -0.7394999883344726 
1.5399999999998468, -0.7397035249641244 
1.5499999999998457, -0.7400223465874614 
1.5599999999998446, -0.740304529257702 
1.5699999999998435, -0.7404826826527919 
1.5799999999998424, -0.7405280829848773 
1.5899999999998413, -0.740423081831479 
1.5999999999998402, -0.7401453790084316 
1.6099999999998391, -0.7396594115770496 
1.619999999999838, -0.7389134264664692 
1.629999999999837, -0.7378442577705463 
1.6399999999998358, -0.7363935065738245 
1.6499999999998347, -0.734534959290646 
1.6599999999998336, -0.7323020044661062 
1.6699999999998325, -0.7297948449974674 
1.6799999999998314, -0.7271567634017633 
1.6899999999998303, -0.7245332972074399 
1.6999999999998292, -0.7220402031326401 
1.709999999999828, -0.7197534120681245 
1.719999999999827, -0.7177158380725638 
1.729999999999826, -0.715949447692853 
1.7399999999998248, -0.714464721075238 
1.7499999999998237, -0.7132651965807281 
1.7599999999998226, -0.7123481247561909 
1.7699999999998215, -0.7117033509431738 
1.7799999999998204, -0.7113123929776428 
1.7899999999998193, -0.7111489505965343 
1.7999999999998182, -0.7111811411234719 
1.809999999999817, -0.711374928606544 
1.819999999999816, -0.711697795672584 
1.8299999999998149, -0.7121217695820623 
1.8399999999998138, -0.7126252099829633 
1.8499999999998127, -0.7131929220838342 
1.8599999999998116, -0.7138140639510141 
1.8699999999998105, -0.714477412062003 
1.8799999999998094, -0.7151646023482242 
1.8899999999998083, -0.7158441210386922 
1.8999999999998072, -0.7164705789349719 
1.909999999999806, -0.7169924139277991 
1.919999999999805, -0.7173656467752634 
1.9299999999998039, -0.7175658413822122 
1.9399999999998028, -0.7175913446799019 
1.9499999999998017, -0.7174579005854611 
1.9599999999998006, -0.7171904151505034 
1.9699999999997995, -0.7168176303605318 
1.9799999999997984, -0.7163724533215248 
1.9899999999997973, -0.7158985790709192 
1.9999999999997962, -0.715463690382039 
2.0099999999998173, -0.7151796575270988 
2.0199999999998384, -0.7152291829962996 
2.0299999999998595, -0.715894853164391 
2.0399999999998806, -0.7175795770112879 
2.0499999999999017, -0.7207968358031821 
2.059999999999923, -0.7260974665980894 
2.069999999999944, -0.7338969749696431 
2.079999999999965, -0.744201611961349 
2.089999999999986, -0.7563412698660082 
2.100000000000007, -0.7689629509477626 
2.1100000000000283, -0.7804830834087864 
2.1200000000000494, -0.7897703923481766 
2.1300000000000705, -0.796506040444928 
2.1400000000000916, -0.8010098099485745 
2.1500000000001127, -0.8038455167100542 
2.160000000000134, -0.8055398657528915 
2.170000000000155, -0.8064814123097456 
2.180000000000176, -0.8069223180548434 
2.190000000000197, -0.8070103684366694 
2.2000000000002182, -0.8068180821865919 
2.2100000000002393, -0.8063597480906084 
2.2200000000002604, -0.8055955082170865 
2.2300000000002815, -0.8044226654293547 
2.2400000000003026, -0.8026537430991155 
2.2500000000003237, -0.7999823983320727 
2.260000000000345, -0.7959482794790512 
2.270000000000366, -0.7899409193883907 
2.280000000000387, -0.7813332379639668 
2.290000000000408, -0.7698472159078156 
2.3000000000004293, -0.7560629199748602 
2.3100000000004504, -0.7415901540309717 
2.3200000000004715, -0.7284579402838578 
2.3300000000004926, -0.7181235068938527 
2.3400000000005137, -0.7109839317281648 
2.3500000000005348, -0.7066079837041886 
2.360000000000556, -0.704231441594797 
2.370000000000577, -0.7031198206437919 
2.380000000000598, -0.7027180299984713 
2.390000000000619, -0.702662202670059 
2.4000000000006403, -0.702736297980934 
2.4100000000006614, -0.7028206745916937 
2.4200000000006825, -0.7028507349899951 
2.4300000000007036, -0.7027886927851253 
2.4400000000007247, -0.7026061571273019 
2.450000000000746, -0.7022747664831634 
2.460000000000767, -0.70176353371128 
2.470000000000788, -0.7010429840161749 
2.480000000000809, -0.7000957464760715 
2.49000000000083, -0.6989296962649524 
2.5000000000008513, -0.6975851423662304 
2.5100000000008724, -0.6961284136484546 
2.5200000000008935, -0.6946335814629248 
2.5300000000009146, -0.6931634997070625 
2.5400000000009357, -0.6917604599366606 
2.550000000000957, -0.6904480035111474 
2.560000000000978, -0.6892387437925477 
2.570000000000999, -0.6881424599767321 
2.58000000000102, -0.6871714477803536 
2.5900000000010412, -0.6863426766233489 
2.6000000000010624, -0.6856774676425814 
2.6100000000010835, -0.6851995813642893 
2.6200000000011046, -0.6849325205470712 
2.6300000000011257, -0.6848968423428231 
2.6400000000011468, -0.685108248954833 
2.650000000001168, -0.6855769913741894 
2.660000000001189, -0.6863086144534534 
2.67000000000121, -0.6873053977461658 
2.680000000001231, -0.6885671625020496 
2.6900000000012523, -0.6900895718470429 
2.7000000000012734, -0.6918579610919562 
2.7100000000012945, -0.6938358957205157 
2.7200000000013156, -0.6959512559560379 
2.7300000000013367, -0.6980886307675815 
2.740000000001358, -0.7001004671467606 
2.750000000001379, -0.7018416256574352 
2.7600000000014, -0.7032119775064254 
2.770000000001421, -0.7041796011361707 
2.780000000001442, -0.7047717678139938 
2.7900000000014633, -0.705046417568536 
2.8000000000014844, -0.7050647505707576 
2.8100000000015055, -0.7048753032187319 
2.8200000000015266, -0.7045088069290288 
2.8300000000015477, -0.703979591534871 
2.840000000001569, -0.7032909028857393 
2.85000000000159, -0.7024445115674252 
2.860000000001611, -0.701457792138362 
2.870000000001632, -0.7003930981892106 
2.8800000000016532, -0.6994017788153412 
2.8900000000016743, -0.698771285962796 
2.9000000000016954, -0.6989301735743157 
2.9100000000017165, -0.700327910335234 
2.9200000000017377, -0.703151963811293 
2.9300000000017588, -0.7070730425620082 
2.94000000000178, -0.7113785671728784 
2.950000000001801, -0.7154460388516527 
2.960000000001822, -0.718999925958477 
2.970000000001843, -0.7219837171120631 
2.9800000000018643, -0.7243968890775218 
2.9900000000018854, -0.7262609764363068 
3.0000000000019065, -0.7276287311137177 
3.0100000000019276, -0.7285758260854481 
3.0200000000019487, -0.7291812778884903 
3.03000000000197, -0.7295116335961285 
3.040000000001991, -0.7296126364139949 
3.050000000002012, -0.7295056112103535 
3.060000000002033, -0.729185085088873 
3.070000000002054, -0.7286156492385827 
3.0800000000020753, -0.7277284233957455 
3.0900000000020964, -0.7264210926051794 
3.1000000000021175, -0.7245703373452042 
3.1100000000021386, -0.7220675179698944 
3.1200000000021597, -0.7188775893440235 
3.130000000002181, -0.7150932557435279 
3.140000000002202, -0.7109378710352218 
3.150000000002223, -0.706701292835646 
3.160000000002244, -0.7026512898727849 
3.1700000000022652, -0.6989768890530551 
3.1800000000022863, -0.6957801289351424 
3.1900000000023074, -0.6930963588756149 
3.2000000000023285, -0.6909191631441804 
3.2100000000023496, -0.6892183550674263 
3.2200000000023707, -0.6879499863819883 
3.230000000002392, -0.6870614681797689 
3.240000000002413, -0.6864949745362248 
3.250000000002434, -0.6861908761928899 
3.260000000002455, -0.6860914839140004 
3.2700000000024763, -0.6861445281119917 
3.2800000000024974, -0.6863057073714625 
3.2900000000025185, -0.6865400504997216 
3.3000000000025396, -0.6868222883899133 
3.3100000000025607, -0.6871365038715169 
3.3200000000025818, -0.6874748888131842 
3.330000000002603, -0.6878348438664161 
3.340000000002624, -0.6882137373324123 
3.350000000002645, -0.6886020789096003 
3.360000000002666, -0.6889781284733124 
3.3700000000026873, -0.68930799931461 
3.3800000000027084, -0.6895530355486326 
3.3900000000027295, -0.68968122331086 
3.4000000000027506, -0.6896759969547899 
3.4100000000027717, -0.6895379890081301 
3.420000000002793, -0.6892809590984049 
3.430000000002814, -0.6889266389002019 
3.440000000002835, -0.6885026132899755 
3.450000000002856, -0.6880451711884434 
3.460000000002877, -0.6876077286729816 
3.4700000000028983, -0.6872751360837024 
3.4800000000029194, -0.6871838769095229 
3.4900000000029405, -0.6875466717699903 
3.5000000000029616, -0.6886762972373797 
3.5100000000029827, -0.6909966199193376 
3.520000000003004, -0.6950184375213823 
3.530000000003025, -0.7012459576698409 
3.540000000003046, -0.7099800177227837 
3.550000000003067, -0.7210333928585255 
3.5600000000030882, -0.7335089074993304 
3.5700000000031094, -0.7459209059658423 
3.5800000000031305, -0.7567706759307378 
3.5900000000031516, -0.7651894375635397 
3.6000000000031727, -0.7711165043947357 
3.6100000000031938, -0.7749997689138574 
3.620000000003215, -0.7774119013869191 
3.630000000003236, -0.7788350428111129 
3.640000000003257, -0.7796067250944938 
3.650000000003278, -0.7799388680161219 
3.6600000000032993, -0.779951008890104 
3.6700000000033204, -0.7796955059727236 
3.6800000000033415, -0.7791699376218552 
3.6900000000033626, -0.7783166385210747 
3.7000000000033837, -0.7770091850117427 
3.710000000003405, -0.7750253557918623 
3.720000000003426, -0.7720103726624122 
3.730000000003447, -0.7674516007025403 
3.740000000003468, -0.7607257020986555 
3.750000000003489, -0.7513202961334133 
3.7600000000035103, -0.7392624837087454 
3.7700000000035314, -0.7254916560331811 
3.7800000000035525, -0.7116931346860682 
3.7900000000035736, -0.6995471934503634 
3.8000000000035947, -0.690031549411984 
3.810000000003616, -0.6832857203457422 
3.820000000003637, -0.6789019308664093 
3.830000000003658, -0.6762768119574329 
3.840000000003679, -0.6748366237213606 
3.8500000000037002, -0.6741296553221808 
3.8600000000037213, -0.6738380818253695 
3.8700000000037424, -0.6737548989886794 
3.8800000000037635, -0.6737522592396079 
3.8900000000037847, -0.6737530511661516 
3.9000000000038058, -0.6737094852496288 
3.910000000003827, -0.6735888636566797 
3.920000000003848, -0.6733657303679002 
3.930000000003869, -0.6730197300953903 
3.94000000000389, -0.6725384286692735 
3.9500000000039113, -0.6719230200028887 
3.9600000000039324, -0.6711925783743475 
3.9700000000039535, -0.6703819648877324 
3.9800000000039746, -0.6695323056507732 
3.9900000000039957, -0.6686789132298543 
4.000000000004016, -0.6678436210502775 
4.010000000003993, -0.6670347911287473 
4.02000000000397, -0.6662530409516949 
4.030000000003946, -0.6654984432483383 
4.040000000003923, -0.6647760571361937 
4.0500000000039, -0.6640990200310429 
4.0600000000038765, -0.663489998311175 
4.070000000003853, -0.6629819615782264 
4.08000000000383, -0.6626186345406369 
4.090000000003807, -0.6624544100797488 
4.100000000003783, -0.6625533675727983 
4.11000000000376, -0.6629872878015161 
4.120000000003737, -0.6638328816727752 
4.130000000003713, -0.6651684259432866 
4.14000000000369, -0.6670692437697177 
4.150000000003667, -0.6695998726979212 
4.1600000000036434, -0.6727988341576305 
4.17000000000362, -0.6766514688036716 
4.180000000003597, -0.6810513318260597 
4.1900000000035735, -0.6857657460008124 
4.20000000000355, -0.6904413514828023 
4.210000000003527, -0.6946825357923292 
4.220000000003504, -0.6981807425412838 
4.23000000000348, -0.7008088885148497 
4.240000000003457, -0.7026163029211927 
4.250000000003434, -0.7037504462527027 
4.26000000000341, -0.7043754167710764 
4.270000000003387, -0.7046255697327254 
4.280000000003364, -0.7045912614380432 
4.2900000000033405, -0.704320041368202 
4.300000000003317, -0.703820669379125 
4.310000000003294, -0.7030637065926975 
4.320000000003271, -0.7019758462756174 
4.330000000003247, -0.7004260246827619 
4.340000000003224, -0.6982013665182804 
4.350000000003201, -0.6949730616255663 
4.360000000003177, -0.6902641208895537 
4.370000000003154, -0.6834694650524128 
4.380000000003131, -0.6740473616643275 
4.390000000003107, -0.661985668329958 
4.400000000003084, -0.6482978816061239 
4.410000000003061, -0.6348719761536432 
4.4200000000030375, -0.6235092279743993 
4.430000000003014, -0.6150715129534559 
4.440000000002991, -0.6094468490452838 
4.450000000002968, -0.606019252575576 
4.460000000002944, -0.6040961423236818 
4.470000000002921, -0.6031115766730171 
4.480000000002898, -0.602668246334835 
4.490000000002874, -0.6025108650522483 
4.500000000002851, -0.6024843512773643 
4.510000000002828, -0.6024974334157925 
4.520000000002804, -0.6024963694966082 
4.530000000002781, -0.6024478293511485 
4.540000000002758, -0.6023289004165365 
4.5500000000027345, -0.6021226553427692 
4.560000000002711, -0.6018182777970325 
4.570000000002688, -0.6014144621932414 
4.580000000002665, -0.6009233883644318 
4.590000000002641, -0.6003712204228134 
4.600000000002618, -0.5997922715996192 
4.610000000002595, -0.5992183805862815 
4.620000000002571, -0.5986691042803961 
4.630000000002548, -0.5981479897680269 
4.640000000002525, -0.5976460461097137 
4.6500000000025015, -0.5971494474439665 
4.660000000002478, -0.596647156429522 
4.670000000002455, -0.596135697279305 
4.6800000000024315, -0.5956210217396192 
4.690000000002408, -0.5951192352769435 
4.700000000002385, -0.5946581447885831 
4.710000000002362, -0.5942808618452597 
4.720000000002338, -0.5940519526054777 
4.730000000002315, -0.5940661716756744 
4.740000000002292, -0.5944594661929883 
4.750000000002268, -0.5954212856214928 
4.760000000002245, -0.5972056190441954 
4.770000000002222, -0.6001343803812251 
4.7800000000021985, -0.6045789880441267 
4.790000000002175, -0.6108940071061058 
4.800000000002152, -0.6192700795958002 
4.810000000002129, -0.629505806909046 
4.820000000002105, -0.6408142041842867 
4.830000000002082, -0.6519134354965525 
4.840000000002059, -0.6615230389718169 
4.850000000002035, -0.6689278501239263 
4.860000000002012, -0.6741213898593537 
4.870000000001989, -0.6775251370532153 
4.880000000001965, -0.6796490744397631 
4.890000000001942, -0.6809120354383088 
4.900000000001919, -0.6816030429277053 
4.9100000000018955, -0.6819018824032221 
4.920000000001872, -0.6819087626986494 
