t, s[1].omega / s[0].omega 
0, -1.4599853600431085 
0.009999999999999995, -1.4582810579950998 
0.019999999999999934, -1.4561016894324033 
0.029999999999999874, -1.4534485942011717 
0.04000000000000012, -1.4503233416496053 
0.050000000000000405, -1.4467277487927612 
0.06000000000000069, -1.4426639033352002 
0.07000000000000098, -1.4381341914215457 
0.08000000000000126, -1.433141329953262 
0.09000000000000155, -1.4276884032700945 
0.10000000000000184, -1.4217789039462045 
0.11000000000000212, -1.415416777394137 
0.12000000000000241, -1.4086064699050969 
0.130000000000002, -1.4013529796828603 
0.1400000000000009, -1.3936619103528738 
0.1499999999999998, -1.38553952635015 
0.1599999999999987, -1.3769928095124089 
0.1699999999999976, -1.3680295161315146 
0.1799999999999965, -1.3586582336500779 
0.1899999999999954, -1.3488884361340083 
0.1999999999999943, -1.3387305376084022 
0.2099999999999932, -1.3281959423153131 
0.2199999999999921, -1.3172970909385884 
0.229999999999991, -1.3060475018427888 
0.2399999999999899, -1.2944618063891642 
0.2499999999999888, -1.2825557774194778 
0.2599999999999877, -1.2703463500355054 
0.2699999999999866, -1.2578516338453225 
0.2799999999999855, -1.2450909158944727 
0.2899999999999844, -1.2320846535492407 
0.2999999999999833, -1.2188544566502342 
0.3099999999999822, -1.205423058308977 
0.3199999999999811, -1.1918142737816784 
0.32999999999998, -1.1780529469280998 
0.3399999999999789, -1.16416488385601 
0.3499999999999778, -1.1501767734702355 
0.35999999999997667, -1.1361160947964977 
0.36999999999997557, -1.1220110111391246 
0.37999999999997447, -1.107890251361011 
0.38999999999997337, -1.0937829788427245 
0.39999999999997227, -1.0797186489804231 
0.40999999999997117, -1.0657268564097406 
0.41999999999997006, -1.051837173481587 
0.42999999999996896, -1.038078981849175 
0.43999999999996786, -1.024481299334757 
0.44999999999996676, -1.0110726045102207 
0.45999999999996566, -0.9978806616295076 
0.46999999999996456, -0.984932348677372 
0.47999999999996346, -0.9722534913366848 
0.48999999999996235, -0.959868705619063 
0.49999999999996125, -0.947801251750536 
0.5099999999999602, -0.9360729016604256 
0.519999999999959, -0.9247038220983396 
0.529999999999958, -0.9137124750162345 
0.5399999999999568, -0.9031155364183924 
0.5499999999999557, -0.8929278344221574 
0.5599999999999546, -0.8831623068071764 
0.5699999999999535, -0.8738299778803523 
0.5799999999999524, -0.8649399540654725 
0.5899999999999513, -0.8564994372548739 
0.5999999999999502, -0.8485137546465528 
0.6099999999999491, -0.8409864035406538 
0.619999999999948, -0.8339191093874109 
0.6299999999999469, -0.8273118952638844 
0.6399999999999458, -0.8211631609057065 
0.6499999999999447, -0.8154697694266101 
0.6599999999999436, -0.8102271399150637 
0.6699999999999425, -0.8054293441951567 
0.6799999999999414, -0.801069206168806 
0.6899999999999403, -0.7971384023092557 
0.6999999999999392, -0.793627562043273 
0.7099999999999381, -0.7905263669335625 
0.719999999999937, -0.7878236477472315 
0.7299999999999359, -0.785507478665019 
0.7399999999999348, -0.7835652680452831 
0.7499999999999337, -0.7819838453032002 
0.7599999999999326, -0.7807495435972244 
0.7699999999999315, -0.7798482781304442 
0.7799999999999304, -0.779265619973719 
0.7899999999999293, -0.7789868654006726 
0.7999999999999282, -0.7789971007925884 
0.8099999999999271, -0.779281263225187 
0.819999999999926, -0.7798241968906026 
0.8299999999999249, -0.7806107055381549 
0.8399999999999238, -0.7816256011384013 
0.8499999999999227, -0.7828537489880012 
0.8599999999999216, -0.7842801094796896 
0.8699999999999205, -0.7858897767634353 
0.8799999999999194, -0.7876680145229357 
0.8899999999999183, -0.7896002890869451 
0.8999999999999172, -0.7916723000883495 
0.9099999999999161, -0.7938700088760463 
0.919999999999915, -0.7961796648759049 
0.9299999999999139, -0.798587830087608 
0.9399999999999128, -0.8010814018940944 
0.9499999999999117, -0.8036476343493778 
0.9599999999999106, -0.8062741580986521 
0.9699999999999095, -0.8089489990713017 
0.9799999999999084, -0.811660596072437 
0.9899999999999073, -0.8143978173813583 
0.9999999999999062, -0.8171499764456405 
1.0099999999999052, -0.8199068467368447 
1.019999999999904, -0.8226586758081327 
1.029999999999903, -0.8253961985650836 
1.039999999999902, -0.8281106497289867 
1.0499999999999008, -0.8307937754370616 
1.0599999999998997, -0.8334378438870821 
1.0699999999998986, -0.8360356548954863 
1.0799999999998975, -0.8385805481993636 
1.0899999999998964, -0.8410664102950541 
1.0999999999998953, -0.8434876795709205 
1.1099999999998942, -0.8458393494609365 
1.119999999999893, -0.8481169693208166 
1.129999999999892, -0.8503166427113285 
1.1399999999998909, -0.8524350227659178 
1.1499999999998898, -0.8544693043234348 
1.1599999999998887, -0.8564172125228765 
1.1699999999998876, -0.8582769875865813 
1.1799999999998865, -0.8600473655617358 
1.1899999999998854, -0.8617275548472957 
1.1999999999998843, -0.8633172084037696 
1.2099999999998832, -0.8648163916256711 
1.219999999999882, -0.8662255459487307 
1.229999999999881, -0.8675454483639594 
1.2399999999998799, -0.868777167115453 
1.2499999999998788, -0.8699220139651035 
1.2599999999998777, -0.8709814935119188 
1.2699999999998766, -0.8719572501527538 
1.2799999999998755, -0.8728510133616717 
1.2899999999998744, -0.8736645420436288 
1.2999999999998733, -0.8743995687819942 
1.3099999999998722, -0.875057744846189 
1.319999999999871, -0.8756405868537352 
1.32999999999987, -0.8761494259890209 
1.3399999999998689, -0.8765853606685705 
1.3499999999998678, -0.8769492135094765 
1.3599999999998666, -0.8772414934044979 
1.3699999999998655, -0.8774623634351362 
1.3799999999998644, -0.8776116152641781 
1.3899999999998633, -0.8776886505435785 
1.3999999999998622, -0.8776924697542382 
1.4099999999998611, -0.8776216687636152 
1.41999999999986, -0.8774744432478258 
1.429999999999859, -0.8772486009798296 
1.4399999999998578, -0.87694158183758 
1.4499999999998567, -0.8765504852388379 
1.4599999999998556, -0.8760721045662864 
1.4699999999998545, -0.8755029680111083 
1.4799999999998534, -0.8748393851388957 
1.4899999999998523, -0.8740774983722218 
1.4999999999998512, -0.873213338492675 
1.5099999999998501, -0.8722428831946615 
1.519999999999849, -0.8711621176762473 
1.529999999999848, -0.8699670962305112 
1.5399999999998468, -0.8686540038054261 
1.5499999999998457, -0.8672192165310864 
1.5599999999998446, -0.8656593602694613 
1.5699999999998435, -0.8639713663217349 
1.5799999999998424, -0.8621525235290401 
1.5899999999998413, -0.8602005261202956 
1.5999999999998402, -0.8581135167916613 
1.6099999999998391, -0.8558901246411397 
1.619999999999838, -0.8535294977240816 
1.629999999999837, -0.851031330135946 
1.6399999999998358, -0.8483958836629538 
1.6499999999998347, -0.8456240041651433 
1.6599999999998336, -0.842717132966293 
1.6699999999998325, -0.839677313618596 
1.6799999999998314, -0.8365071944849749 
1.6899999999998303, -0.8332100276377434 
1.6999999999998292, -0.8297896646087374 
1.709999999999828, -0.8262505495439699 
1.719999999999827, -0.822597710316586 
1.729999999999826, -0.8188367481373976 
1.7399999999998248, -0.8149738261748724 
1.7499999999998237, -0.8110156576586426 
1.7599999999998226, -0.8069694938950582 
1.7699999999998215, -0.8028431125724983 
1.7799999999998204, -0.7986448066806232 
1.7899999999998193, -0.794383374313484 
1.7999999999998182, -0.7900681095733827 
1.809999999999817, -0.7857087947420621 
1.819999999999816, -0.7813156938392316 
1.8299999999998149, -0.7768995476465547 
1.8399999999998138, -0.7724715702382356 
1.8499999999998127, -0.7680434470275365 
1.8599999999998116, -0.7636273343115461 
1.8699999999998105, -0.7592358602739845 
1.8799999999998094, -0.7548821273870198 
1.8899999999998083, -0.7505797161371572 
1.8999999999998072, -0.7463426899862617 
1.909999999999806, -0.742185601465598 
1.919999999999805, -0.7381234992872345 
1.9299999999998039, -0.7341719363420812 
1.9399999999998028, -0.7303469784359627 
1.9499999999998017, -0.7266652135932076 
1.9599999999998006, -0.7231437617300963 
1.9699999999997995, -0.7198002844668782 
1.9799999999997984, -0.7166529948058371 
1.9899999999997973, -0.713720666352942 
1.9999999999997962, -0.7110226417009221 
2.0099999999998173, -0.7085788395212491 
2.0199999999998384, -0.7064097598307199 
2.0299999999998595, -0.704536486804454 
2.0399999999998806, -0.7029806884008507 
2.0499999999999017, -0.7017646119452862 
2.059999999999923, -0.7009110746884417 
2.069999999999944, -0.7004434482130986 
2.079999999999965, -0.7003856354115139 
2.089999999999986, -0.7007620385967127 
2.100000000000007, -0.7015975171486408 
2.1100000000000283, -0.7029173329351585 
2.1200000000000494, -0.7047470815948076 
2.1300000000000705, -0.7071126076315751 
2.1400000000000916, -0.7100399011621823 
2.1500000000001127, -0.7135549740867576 
2.160000000000134, -0.7176837134396937 
2.170000000000155, -0.7224517097373867 
2.180000000000176, -0.7278840582940429 
2.190000000000197, -0.7340051317486646 
2.2000000000002182, -0.7408383224596484 
2.2100000000002393, -0.7484057540021971 
2.2200000000002604, -0.7567279617700926 
2.2300000000002815, -0.765823543655213 
2.2400000000003026, -0.7757087829660029 
2.2500000000003237, -0.7863972471494168 
2.260000000000345, -0.7978993674840202 
2.270000000000366, -0.8102220066799415 
2.280000000000387, -0.8233680231960706 
2.290000000000408, -0.8373358429821155 
2.3000000000004293, -0.8521190511615941 
2.3100000000004504, -0.8677060177549971 
2.3200000000004715, -0.8840795727434001 
2.3300000000004926, -0.901216746424168 
2.3400000000005137, -0.9190885909474695 
2.3500000000005348, -0.9376600980009857 
2.360000000000556, -0.9568902257273835 
2.370000000000577, -0.976732045073292 
2.380000000000598, -0.9971330119181486 
2.390000000000619, -1.0180353666472135 
2.4000000000006403, -1.0393766575415861 
2.4100000000006614, -1.0610903787722745 
2.4200000000006825, -1.0831067082836663 
2.4300000000007036, -1.1053533258444252 
2.4400000000007247, -1.1277562874311642 
2.450000000000746, -1.1502409292377471 
2.460000000000767, -1.1727327732194937 
2.470000000000788, -1.1951584063076999 
2.480000000000809, -1.2174463072421264 
2.49000000000083, -1.2395275982017602 
2.5000000000008513, -1.2613367027793208 
2.5100000000008724, -1.2828118969683169 
2.5200000000008935, -1.3038957452958257 
2.5300000000009146, -1.324535419627003 
2.5400000000009357, -1.3446829031225478 
2.550000000000957, -1.364295086060725 
2.560000000000978, -1.3833337635520166 
2.570000000000999, -1.401765547490915 
2.58000000000102, -1.4195617064152197 
2.5900000000010412, -1.4366979473661345 
2.6000000000010624, -1.4531541535055963 
2.6100000000010835, -1.4689140903247093 
2.6200000000011046, -1.4839650919507699 
2.6300000000011257, -1.4982977375018256 
2.6400000000011468, -1.511905525794532 
2.650000000001168, -1.5247845550996473 
2.660000000001189, -1.5369332131430282 
2.67000000000121, -1.548351881219533 
2.680000000001231, -1.5590426551476437 
2.6900000000012523, -1.569009084847244 
2.7000000000012734, -1.5782559335611122 
2.7100000000012945, -1.5867889571427816 
2.7200000000013156, -1.594614703376169 
2.7300000000013367, -1.6017403309519975 
2.740000000001358, -1.6081734474808291 
2.750000000001379, -1.6139219657537287 
2.7600000000014, -1.6189939773540323 
2.770000000001421, -1.6233976426651566 
2.780000000001442, -1.6271410963006991 
2.7900000000014633, -1.6302323669966172 
2.8000000000014844, -1.632679311045135 
2.8100000000015055, -1.634489558410742 
2.8200000000015266, -1.6356704707452312 
2.8300000000015477, -1.6362291106063358 
2.840000000001569, -1.6361722212777858 
2.85000000000159, -1.6355062166826804 
2.860000000001611, -1.6342371809714564 
2.870000000001632, -1.632370877445555 
2.8800000000016532, -1.6299127665434474 
2.8900000000016743, -1.6268680326632108 
2.9000000000016954, -1.6232416196224444 
2.9100000000017165, -1.6190382745609837 
2.9200000000017377, -1.6142626000749063 
2.9300000000017588, -1.6089191143346218 
2.94000000000178, -1.6030123188904393 
2.950000000001801, -1.5965467738129073 
2.960000000001822, -1.5895271797617851 
2.970000000001843, -1.581958466536937 
2.9800000000018643, -1.5738458876472283 
2.9900000000018854, -1.5651951204487176 
3.0000000000019065, -1.5560123714571776 
3.0100000000019276, -1.5463044865328648 
3.0200000000019487, -1.536079065761296 
3.03000000000197, -1.5253445829975767 
3.040000000001991, -1.5141105101790948 
3.050000000002012, -1.5023874466085345 
3.060000000002033, -1.4901872534253995 
3.070000000002054, -1.4775231933748139 
3.0800000000020753, -1.464410075704044 
3.0900000000020964, -1.4508644055343891 
3.1000000000021175, -1.436904536348302 
3.1100000000021386, -1.4225508232999375 
3.1200000000021597, -1.4078257739305162 
3.130000000002181, -1.3927541916076265 
3.140000000002202, -1.3773633056999817 
3.150000000002223, -1.3616828812638107 
3.160000000002244, -1.3457452999901316 
3.1700000000022652, -1.3295856034869866 
3.1800000000022863, -1.3132414897830793 
3.1900000000023074, -1.2967532543510356 
3.2000000000023285, -1.2801636680320974 
3.2100000000023496, -1.263517786018691 
3.2200000000023707, -1.2468626844743478 
3.230000000002392, -1.2302471243340187 
3.240000000002413, -1.2137211451636236 
3.250000000002434, -1.1973355954481015 
3.260000000002455, -1.1811416090742526 
3.2700000000024763, -1.1651900408229228 
3.2800000000024974, -1.1495308761473837 
3.2900000000025185, -1.1342126321969506 
3.3000000000025396, -1.1192817678157738 
3.3100000000025607, -1.104782120051777 
3.3200000000025818, -1.0907543835761662 
3.330000000002603, -1.0772356474422995 
3.340000000002624, -1.0642590009692279 
3.350000000002645, -1.051853217428621 
3.360000000002666, -1.0400425208731832 
3.3700000000026873, -1.028846438096828 
3.3800000000027084, -1.0182797345655266 
3.3900000000027295, -1.008352430368514 
3.4000000000027506, -0.9990698899303153 
3.4100000000027717, -0.9904329774620884 
3.420000000002793, -0.9824382689349241 
3.430000000002814, -0.9750783107055421 
3.440000000002835, -0.9683419147614819 
3.450000000002856, -0.9622144808023725 
3.460000000002877, -0.9566783359486032 
3.4700000000028983, -0.9517130836791671 
3.4800000000029194, -0.9472959545617927 
3.4900000000029405, -0.9434021523758931 
3.5000000000029616, -0.9400051902804339 
3.5100000000029827, -0.9370772126965017 
3.520000000003004, -0.9345892995241036 
3.530000000003025, -0.9325117501726855 
3.540000000003046, -0.9308143456439657 
3.550000000003067, -0.9294665875612189 
3.5600000000030882, -0.9284379135945547 
3.5700000000031094, -0.9276978891948034 
3.5800000000031305, -0.927216375929394 
3.5900000000031516, -0.926963677023369 
3.6000000000031727, -0.9269106609585284 
3.6100000000031938, -0.9270288641840589 
3.620000000003215, -0.9272905741520328 
3.630000000003236, -0.9276688940185772 
3.640000000003257, -0.9281377904525142 
3.650000000003278, -0.9286721260727372 
3.6600000000032993, -0.9292476780969392 
3.6700000000033204, -0.9298411448302426 
3.6800000000033415, -0.9304301416542985 
3.6900000000033626, -0.9309931881967679 
3.7000000000033837, -0.9315096883682404 
3.710000000003405, -0.9319599049489119 
3.720000000003426, -0.9323249303907604 
3.730000000003447, -0.9325866554723213 
3.740000000003468, -0.9327277374020921 
3.750000000003489, -0.9327315689125295 
3.7600000000035103, -0.932582249818709 
3.7700000000035314, -0.9322645624329242 
3.7800000000035525, -0.9317639521275095 
3.7900000000035736, -0.931066514221368 
3.8000000000035947, -0.9301589882293517 
3.810000000003616, -0.9290287603558967 
3.820000000003637, -0.927663874933424 
3.830000000003658, -0.9260530553004173 
3.840000000003679, -0.9241857343828936 
3.8500000000037002, -0.9220520949860037 
3.8600000000037213, -0.9196431195208148 
3.8700000000037424, -0.9169506485875086 
3.8800000000037635, -0.9139674475146188 
3.8900000000037847, -0.91068727962105 
3.9000000000038058, -0.9071049846321378 
3.910000000003827, -0.9032165603538947 
3.920000000003848, -0.899019245403956 
3.930000000003869, -0.8945116005282854 
3.94000000000389, -0.8896935858153832 
3.9500000000039113, -0.8845666309706695 
3.9600000000039324, -0.8791336957482696 
3.9700000000039535, -0.8733993176689346 
3.9800000000039746, -0.8673696442914673 
3.9900000000039957, -0.8610524475563222 
4.000000000004016, -0.85445711808415 
4.010000000003993, -0.8475946377826588 
4.02000000000397, -0.8404775296794442 
4.030000000003946, -0.8331197845369841 
4.040000000003923, -0.8255367644937294 
4.0500000000039, -0.8177450846826312 
4.0600000000038765, -0.8097624744732568 
4.070000000003853, -0.8016076206330726 
4.08000000000383, -0.7932999952763614 
4.090000000003807, -0.7848596719382773 
4.100000000003783, -0.7763071334553552 
4.11000000000376, -0.7676630755380431 
4.120000000003737, -0.7589482099796608 
4.130000000003713, -0.7501830713617523 
4.14000000000369, -0.7413878308983907 
4.150000000003667, -0.7325821207284801 
4.1600000000036434, -0.7237848715377212 
4.17000000000362, -0.7150141658961554 
4.180000000003597, -0.7062871091601185 
4.1900000000035735, -0.6976197192354179 
4.20000000000355, -0.689026835956164 
4.210000000003527, -0.6805220503218546 
4.220000000003504, -0.672117653370889 
4.23000000000348, -0.6638246040637779 
4.240000000003457, -0.6556525152112492 
4.250000000003434, -0.6476096562142748 
4.26000000000341, -0.6397029711837039 
4.270000000003387, -0.6319381108728166 
4.280000000003364, -0.6243194767802013 
4.2900000000033405, -0.6168502757551525 
4.300000000003317, -0.6095325834546642 
4.310000000003294, -0.6023674150513344 
4.320000000003271, -0.5953548016669155 
4.330000000003247, -0.588493871099377 
4.340000000003224, -0.5817829315158145 
4.350000000003201, -0.5752195568941819 
4.360000000003177, -0.5688006731096308 
4.370000000003154, -0.5625226436732953 
4.380000000003131, -0.5563813542408065 
4.390000000003107, -0.5503722951135097 
4.400000000003084, -0.5444906410568137 
4.410000000003061, -0.5387313278572858 
4.4200000000030375, -0.5330891251331721 
4.430000000003014, -0.527558705002313 
4.440000000002991, -0.5221347062971825 
4.450000000002968, -0.5168117940992092 
4.460000000002944, -0.5115847144436831 
4.470000000002921, -0.5064483441222748 
4.480000000002898, -0.5013977355821911 
4.490000000002874, -0.49642815698890347 
4.500000000002851, -0.49153512758265205 
4.510000000002828, -0.48671444851704293 
4.520000000002804, -0.4819622294205424 
4.530000000002781, -0.47727491096803276 
4.540000000002758, -0.47264928378954524 
4.5500000000027345, -0.46808250407665813 
4.560000000002711, -0.463572106273799 
4.570000000002688, -0.45911601326203244 
4.580000000002665, -0.45471254445716164 
4.590000000002641, -0.45036042225266487 
4.600000000002618, -0.446058777241743 
4.610000000002595, -0.44180715265238235 
4.620000000002571, -0.4376055084256652 
4.630000000002548, -0.43345422536154926 
4.640000000002525, -0.42935410974889116 
4.6500000000025015, -0.4253063988886498 
4.660000000002478, -0.42131276791185074 
4.670000000002455, -0.4173753382880443 
4.6800000000024315, -0.4134966884164599 
4.690000000002408, -0.4096798666918122 
4.700000000002385, -0.40592840744048814 
4.710000000002362, -0.40224635013153925 
4.720000000002338, -0.3986382622812215 
4.730000000002315, -0.3951092664906349 
4.740000000002292, -0.3916650720840737 
4.750000000002268, -0.38831201185191083 
4.760000000002245, -0.38505708444706044 
4.770000000002222, -0.3819080030394011 
4.7800000000021985, -0.3788732508990528 
4.790000000002175, -0.37596214465846645 
4.800000000002152, -0.37318490609634297 
4.810000000002129, -0.3705527433952422 
4.820000000002105, -0.3680779429513355 
4.830000000002082, -0.3657739729614395 
4.840000000002059, -0.3636556001819477 
4.850000000002035, -0.3617390214495991 
4.860000000002012, -0.3600420117787555 
4.870000000001989, -0.3585840911079788 
4.880000000001965, -0.35738671206472333 
4.890000000001942, -0.3564734714558487 
4.900000000001919, -0.35587034857884586 
4.9100000000018955, -0.3556059738898647 
4.920000000001872, -0.35571193206567925 
