t, s[1].omega / s[0].omega 
0, -1.0099979015817535 
0.009999999999999995, -1.0097095444804787 
0.019999999999999934, -1.0094834482497896 
0.029999999999999874, -1.0093515277976135 
0.04000000000000012, -1.0090640908934605 
0.050000000000000405, -1.0088002498196658 
0.06000000000000069, -1.008667509719297 
0.07000000000000098, -1.0083828099364187 
0.08000000000000126, -1.0080840951885852 
0.09000000000000155, -1.0079474131880808 
0.10000000000000184, -1.007667786829189 
0.11000000000000212, -1.007338729428197 
0.12000000000000241, -1.0071927788663142 
0.130000000000002, -1.00692134368751 
0.1400000000000009, -1.0065677701760638 
0.1499999999999998, -1.0064055454922156 
0.1599999999999987, -1.0061460471181713 
0.1699999999999976, -1.0057745444869464 
0.1799999999999965, -1.0055883544648754 
0.1899999999999954, -1.0053446209741546 
0.1999999999999943, -1.0049620169519449 
0.2099999999999932, -1.0047447012326944 
0.2199999999999921, -1.0045197910485382 
0.229999999999991, -1.0041328264956713 
0.2399999999999899, -1.0038789844428082 
0.2499999999999888, -1.0036741496682273 
0.2599999999999877, -1.0032894077277257 
0.2699999999999866, -1.0029964805560556 
0.2799999999999855, -1.00281016182426 
0.2899999999999844, -1.0024341561684864 
0.2999999999999833, -1.002103174743816 
0.3099999999999822, -1.0019303814494895 
0.3199999999999811, -1.0015695922539214 
0.32999999999998, -1.001205343480609 
0.3399999999999789, -1.001037803902864 
0.3499999999999778, -1.0006984765533349 
0.35999999999997667, -1.0003089218999248 
0.36999999999997557, -1.0001361603562435 
0.37999999999997447, -0.9998238365240081 
0.38999999999997337, -0.9994189187696698 
0.39999999999997227, -0.999230005799752 
0.40999999999997117, -0.9989488915534623 
0.41999999999997006, -0.9985391825269884 
0.42999999999996896, -0.9983246323189127 
0.43999999999996786, -0.9980769063141594 
0.44999999999996676, -0.9976725601454282 
0.45999999999996566, -0.9974259404705201 
0.46999999999996456, -0.9972110507021061 
0.47999999999996346, -0.9968212273118279 
0.48999999999996235, -0.9965402988305824 
0.49999999999996125, -0.9963543645432716 
0.5099999999999602, -0.9959869876282919 
0.519999999999959, -0.9956742328602872 
0.529999999999958, -0.9955098735357981 
0.5399999999999568, -0.9951715023898654 
0.5499999999999557, -0.9948337878974736 
0.5599999999999546, -0.994680790219091 
0.5699999999999535, -0.9943764706884355 
0.5799999999999524, -0.9940237680044768 
0.5899999999999513, -0.9938706647282497 
0.5999999999999502, -0.9936037421067878 
0.6099999999999491, -0.9932473881404548 
0.619999999999948, -0.9930834174553295 
0.6299999999999469, -0.9928553379491484 
0.6399999999999458, -0.9925065753794844 
0.6499999999999447, -0.9923233100885593 
0.6599999999999436, -0.9921333969255772 
0.6699999999999425, -0.9918025053001055 
0.6799999999999414, -0.9915949093294123 
0.6899999999999403, -0.9914400981465399 
0.6999999999999392, -0.9911359160029317 
0.7099999999999381, -0.9909029507652569 
0.719999999999937, -0.9907776269637883 
0.7299999999999359, -0.9905072606235953 
0.7399999999999348, -0.9902519795524619 
0.7499999999999337, -0.9901482291957895 
0.7599999999999326, -0.9899169520822819 
0.7699999999999315, -0.9896459568693493 
0.7799999999999304, -0.9895543486762303 
0.7899999999999293, -0.9893656804908996 
0.7999999999999282, -0.989088279304849 
0.8099999999999271, -0.9889988018495958 
0.819999999999926, -0.9888546331551893 
0.8299999999999249, -0.9885821851044156 
0.8399999999999238, -0.9884849455022975 
0.8499999999999227, -0.9883855801241682 
0.8599999999999216, -0.98813086371423 
0.8699999999999205, -0.9880168061996094 
0.8799999999999194, -0.9879608977550828 
0.8899999999999183, -0.9877370284163091 
0.8999999999999172, -0.9875991449612374 
0.9099999999999161, -0.9875835736146611 
0.919999999999915, -0.987402710029817 
0.9299999999999139, -0.9872375413566892 
0.9399999999999128, -0.9872571965227027 
0.9499999999999117, -0.9871298089141726 
0.9599999999999106, -0.9869387693598787 
0.9699999999999095, -0.9869859561954502 
0.9799999999999084, -0.9869208655495525 
0.9899999999999073, -0.9867114471235412 
0.9999999999999062, -0.9867747034882884 
1.0099999999999052, -0.9867793682936375 
1.019999999999904, -0.9865659859682727 
1.029999999999903, -0.9866291126260864 
1.039999999999902, -0.9867096211603086 
1.0499999999999008, -0.9865128656537916 
1.0599999999998997, -0.9865559926162333 
1.0699999999998986, -0.9867165714936853 
1.0799999999998975, -0.9865605016392729 
1.0899999999998964, -0.9865639068781475 
1.0999999999998953, -0.9868058310482439 
1.1099999999998942, -0.9867152404759877 
1.119999999999893, -0.9866644071120595 
1.129999999999892, -0.9869838066051011 
1.1399999999998909, -0.9869832749927023 
1.1499999999998898, -0.9868737839802012 
1.1599999999998887, -0.9872577015099071 
1.1699999999998876, -0.9873718822221168 
1.1799999999998865, -0.9872135659259191 
1.1899999999998854, -0.9876352936497599 
1.1999999999998843, -0.9878887856767645 
1.2099999999998832, -0.9877067168058836 
1.219999999999882, -0.9881247279458509 
1.229999999999881, -0.9885403292165471 
1.2399999999998799, -0.9883702068173531 
1.2499999999998788, -0.9887348365137233 
1.2599999999998777, -0.9893294489350707 
1.2699999999998766, -0.9892108446686569 
1.2799999999998755, -0.9894765126513879 
1.2899999999998744, -0.9902542386056453 
1.2999999999998733, -0.9902277919240361 
1.3099999999998722, -0.9903649400941192 
1.319999999999871, -0.9913077968979407 
1.32999999999987, -0.9914160922151166 
1.3399999999998689, -0.9914202219474882 
1.3499999999998678, -0.9924795070148492 
1.3599999999998666, -0.99276638603102 
1.3699999999998655, -0.9926615300373036 
1.3799999999998644, -0.9937569074301114 
1.3899999999998633, -0.9942620061556832 
1.3999999999998622, -0.9940936656488076 
1.4099999999998611, -0.9951269879746769 
1.41999999999986, -0.9958762286578738 
1.429999999999859, -0.9956961135543777 
1.4399999999998578, -0.9965765856111788 
1.4499999999998567, -0.9975713218057248 
1.4599999999998556, -0.9974257172453098 
1.4699999999998545, -0.9980922168728272 
1.4799999999998534, -0.9993003946254658 
1.4899999999998523, -0.9992284927938198 
1.4999999999998512, -0.9996592042377712 
1.5099999999998501, -1.0010127871404508 
1.519999999999849, -1.0010492131733217 
1.529999999999848, -1.001259419575381 
1.5399999999998468, -1.0026623773141254 
1.5499999999998457, -1.0028358832007613 
1.5599999999998446, -1.0028679408227903 
1.5699999999998435, -1.0042152689271653 
1.5799999999998424, -1.0045420077322913 
1.5899999999998413, -1.0044510929792185 
1.5999999999998402, -1.0056520723321725 
1.6099999999998391, -1.0061284837443982 
1.619999999999838, -1.005968892518718 
1.629999999999837, -1.00696396318114 
1.6399999999998358, -1.0075651265912076 
1.6499999999998347, -1.0073818033932138 
1.6599999999998336, -1.008146919622545 
1.6699999999998325, -1.0088315321783479 
1.6799999999998314, -1.00865795393055 
1.6899999999998303, -1.0091983869625016 
1.6999999999998292, -1.0099173418256662 
1.709999999999828, -1.0097770405327098 
1.719999999999827, -1.010116816167624 
1.729999999999826, -1.010822044255717 
1.7399999999998248, -1.0107302603550428 
1.7499999999998237, -1.0109023734538845 
1.7599999999998226, -1.0115539552654773 
1.7699999999998215, -1.0115178949451304 
1.7799999999998204, -1.0115574486264065 
1.7899999999998193, -1.0121277256085008 
1.7999999999998182, -1.0121463189076705 
1.809999999999817, -1.012086562360056 
1.819999999999816, -1.012560622699751 
1.8299999999998149, -1.0126254149463967 
1.8399999999998138, -1.012495840794694 
1.8499999999998127, -1.012869112922615 
1.8599999999998116, -1.012966707938162 
1.8699999999998105, -1.012792357461543 
1.8799999999998094, -1.013067100153915 
1.8899999999998083, -1.0131822114398856 
1.8999999999998072, -1.01298356391785 
1.909999999999806, -1.0131658040391902 
1.919999999999805, -1.01328385680498 
1.9299999999998039, -1.0130769009631602 
1.9399999999998028, -1.013174415942128 
1.9499999999998017, -1.0132832896408857 
1.9599999999998006, -1.0130795782175808 
1.9699999999997995, -1.0131008100167094 
1.9799999999997984, -1.0131917426263692 
1.9899999999997973, -1.0129984600998931 
1.9999999999997962, -1.0129520278900248 
2.0099999999998173, -1.013019738387833 
2.0199999999998384, -1.012839998682853 
2.0299999999998595, -1.0127345275985344 
2.0399999999998806, -1.0127766125107418 
2.0499999999999017, -1.0126101850959224 
2.059999999999923, -1.0124542705076929 
2.069999999999944, -1.0124700940308522 
2.079999999999965, -1.0123145231276869 
2.089999999999986, -1.012116717928844 
2.100000000000007, -1.0121061841346044 
2.1100000000000283, -1.0119580436218205 
2.1200000000000494, -1.0117267878342222 
2.1300000000000705, -1.0116893730152317 
2.1400000000000916, -1.0115453702572827 
2.1500000000001127, -1.0112888053826359 
2.160000000000134, -1.0112230686290784 
2.170000000000155, -1.0110808180737434 
2.180000000000176, -1.0108064726113697 
2.190000000000197, -1.0107100776209361 
2.2000000000002182, -1.01056846941439 
2.2100000000002393, -1.010282878414585 
2.2200000000002604, -1.0101530210823577 
2.2300000000002815, -1.0100121611670616 
2.2400000000003026, -1.0097205639236326 
2.2500000000003237, -1.0095546300488458 
2.260000000000345, -1.009415363918911 
2.270000000000366, -1.0091216465472836 
2.280000000000387, -1.0089179192426863 
2.290000000000408, -1.0087810195389126 
2.3000000000004293, -1.008487989131209 
2.3100000000004504, -1.0082462571584596 
2.3200000000004715, -1.008111460612018 
2.3300000000004926, -1.007821386114563 
2.3400000000005137, -1.0075433371697338 
2.3500000000005348, -1.0074085148945968 
2.360000000000556, -1.0071237338322976 
2.370000000000577, -1.0068130451028328 
2.380000000000598, -1.0066738093350598 
2.390000000000619, -1.006397156164378 
2.4000000000006403, -1.0060592458803481 
2.4100000000006614, -1.0059091776026508 
2.4200000000006825, -1.005644061113044 
2.4300000000007036, -1.005285559366088 
2.4400000000007247, -1.005117018507522 
2.450000000000746, -1.0048671080456468 
2.460000000000767, -1.0044952111448142 
2.470000000000788, -1.004300507009438 
2.480000000000809, -1.0040690852563334 
2.49000000000083, -1.0036910039448224 
2.5000000000008513, -1.003463669885446 
2.5100000000008724, -1.0032527459673302 
2.5200000000008935, -1.0028753982068375 
2.5300000000009146, -1.002611378578059 
2.5400000000009357, -1.0024207056532037 
2.550000000000957, -1.002050662158243 
2.560000000000978, -1.001749241544958 
2.570000000000999, -1.001575507620563 
2.58000000000102, -1.0012190490682042 
2.5900000000010412, -1.0008832968666685 
2.6000000000010624, -1.0007198742964698 
2.6100000000010835, -1.0003829565259545 
2.6200000000011046, -1.0000194613926559 
2.6300000000011257, -0.9998570210638495 
2.6400000000011468, -0.9995450208173471 
2.650000000001168, -0.9991629081121657 
2.660000000001189, -0.9989908535486467 
2.67000000000121, -0.9987081146813427 
2.680000000001231, -0.9983176913231564 
2.6900000000012523, -0.9981259783319372 
2.7000000000012734, -0.9978752504243574 
2.7100000000012945, -0.9974867773582758 
2.7200000000013156, -0.9972676092072199 
2.7300000000013367, -0.9970494343261312 
2.740000000001358, -0.9966723274476457 
2.750000000001379, -0.9964214544549023 
2.7600000000014, -0.9962335569559831 
2.770000000001421, -0.9958759978346514 
2.780000000001442, -0.9955935147760032 
2.7900000000014633, -0.9954304022362364 
2.8000000000014844, -0.9950991822194366 
2.8100000000015055, -0.9947896234589354 
2.8200000000015266, -0.9946427873581196 
2.8300000000015477, -0.9943432266146778 
2.840000000001569, -0.994014766639372 
2.85000000000159, -0.9938737477489274 
2.860000000001611, -0.9936096064193799 
2.870000000001632, -0.9932725986090857 
2.8800000000016532, -0.9931266599727583 
2.8900000000016743, -0.9929000194737216 
2.9000000000016954, -0.9925655215797972 
2.9100000000017165, -0.9924052805976602 
2.9200000000017377, -0.9922163840587619 
2.9300000000017588, -0.9918951180327589 
2.94000000000178, -0.9917137457197316 
2.950000000001801, -0.991560776356735 
2.960000000001822, -0.9912624488574048 
2.970000000001843, -0.9910565080533319 
2.9800000000018643, -0.9909353629444523 
2.9900000000018854, -0.9906681569174264 
3.0000000000019065, -0.9904381046694715 
3.0100000000019276, -0.990342386538885 
3.0200000000019487, -0.9901126674183388 
3.03000000000197, -0.9898628121164164 
3.040000000001991, -0.9897842395655199 
3.050000000002012, -0.9895965490428269 
3.060000000002033, -0.989334544670565 
3.070000000002054, -0.9892636133535253 
3.0800000000020753, -0.9891208221882524 
3.0900000000020964, -0.9888571468084439 
3.1000000000021175, -0.9887836788553128 
3.1100000000021386, -0.98868709689659 
3.1200000000021597, -0.9884345444566246 
3.130000000002181, -0.9883482546230495 
3.140000000002202, -0.9882976135970986 
3.150000000002223, -0.988070278722671 
3.160000000002244, -0.9879619305834253 
3.1700000000022652, -0.9879552673160138 
3.1800000000022863, -0.9877670029050232 
3.1900000000023074, -0.987630187969718 
3.2000000000023285, -0.9876636140576925 
3.2100000000023496, -0.9875268092323279 
3.2200000000023707, -0.9873597265644569 
3.230000000002392, -0.9874268463417335 
3.240000000002413, -0.9873521247401037 
3.250000000002434, -0.9871591228278123 
3.260000000002455, -0.9872497789252767 
3.2700000000024763, -0.987246263273322 
3.2800000000024974, -0.9870391268670394 
3.2900000000025185, -0.9871379158645494 
3.3000000000025396, -0.9872133524552227 
3.3100000000025607, -0.9870113185268553 
3.3200000000025818, -0.9870976655879529 
3.330000000002603, -0.9872580223609013 
3.340000000002624, -0.9870854848662728 
3.350000000002645, -0.9871368214315422 
3.360000000002666, -0.9873852596827646 
3.3700000000026873, -0.9872684630869146 
3.3800000000027084, -0.9872655630992809 
3.3900000000027295, -0.9876005086026998 
3.4000000000027506, -0.9875656825240322 
3.4100000000027717, -0.9874981087916724 
3.420000000002793, -0.987909799565005 
3.430000000002814, -0.9879830558077408 
3.440000000002835, -0.9878539581893364 
3.450000000002856, -0.9883196476214099 
3.460000000002877, -0.9885270120104045 
3.4700000000028983, -0.9883557914570745 
3.4800000000029194, -0.9888367534383035 
3.4900000000029405, -0.9892028584832645 
3.5000000000029616, -0.9890224848535762 
3.5100000000029827, -0.9894679245549874 
3.520000000003004, -0.9900125768555808 
3.530000000003025, -0.9898623227805315 
3.540000000003046, -0.9902207850120929 
3.550000000003067, -0.9909529787991018 
3.5600000000030882, -0.9908730303524315 
3.5700000000031094, -0.9911054603489972 
3.5800000000031305, -0.9920150620016078 
3.5900000000031516, -0.9920461519228574 
3.6000000000031727, -0.992135981956143 
3.6100000000031938, -0.9931851384830445 
3.620000000003215, -0.9933690503685497 
3.630000000003236, -0.993327798149541 
3.640000000003257, -0.9944472675597513 
3.650000000003278, -0.9948233978923716 
3.6600000000032993, -0.9946881786226671 
3.6700000000033204, -0.9957854564238592 
3.6800000000033415, -0.9963828926471052 
3.6900000000033626, -0.9962040691654291 
3.7000000000033837, -0.9971844650515033 
3.710000000003405, -0.9980122846309073 
3.720000000003426, -0.9978389676781404 
3.730000000003447, -0.9986294417406804 
3.740000000003468, -0.9996685981184411 
3.750000000003489, -0.999541965893055 
3.7600000000035103, -1.0001051127331682 
3.7700000000035314, -1.0013050412816238 
3.7800000000035525, -1.0012594254998972 
3.7900000000035736, -1.0015946270981493 
3.8000000000035947, -1.0028775285033167 
3.810000000003616, -1.0029418185248251 
3.820000000003637, -1.0030778744366358 
3.830000000003658, -1.004351905063508 
3.840000000003679, -1.0045463565817598 
3.8500000000037002, -1.0045299244746577 
3.8600000000037213, -1.0057079278250585 
3.8700000000037424, -1.006038075848803 
3.8800000000037635, -1.005921258394852 
3.8900000000037847, -1.0069374198184742 
3.9000000000038058, -1.0073904333563315 
3.910000000003827, -1.0072209330908064 
3.920000000003848, -1.008038821844942 
3.930000000003869, -1.0085854613085148 
3.94000000000389, -1.008401583414953 
3.9500000000039113, -1.0090126603093128 
3.9600000000039324, -1.0096135343665424 
3.9700000000039535, -1.009443592916982 
3.9800000000039746, -1.0098599184586445 
3.9900000000039957, -1.010472964077345 
4.000000000004016, -1.0103366115396888 
4.010000000003993, -1.0105823146376227 
4.02000000000397, -1.0111693919145586 
4.030000000003946, -1.0110785860844147 
4.040000000003923, -1.0111829249234114 
4.0500000000039, -1.011714459293322 
4.0600000000038765, -1.011673558242779 
4.070000000003853, -1.0116663854988246 
4.08000000000383, -1.0121233323263596 
4.090000000003807, -1.012129356191043 
4.100000000003783, -1.012038623654026 
4.11000000000376, -1.0124116802655938 
4.120000000003737, -1.0124557463172752 
4.130000000003713, -1.0123063424557364 
4.14000000000369, -1.0125934177592932 
4.150000000003667, -1.012663191317301 
4.1600000000036434, -1.0124764914889115 
4.17000000000362, -1.0126799052589417 
4.180000000003597, -1.0127621658253771 
4.1900000000035735, -1.0125558691610212 
4.20000000000355, -1.012680246923492 
4.210000000003527, -1.0127628937959325 
4.220000000003504, -1.0125509035851632 
4.23000000000348, -1.0126019689847408 
4.240000000003457, -1.012675295703091 
4.250000000003434, -1.0124675826406138 
4.26000000000341, -1.0124516184078511 
4.270000000003387, -1.012508889444384 
4.280000000003364, -1.012311466626852 
4.2900000000033405, -1.0122351426077425 
4.300000000003317, -1.0122724858848737 
4.310000000003294, -1.0120877220277733 
4.320000000003271, -1.0119580727039368 
4.330000000003247, -1.0119737585097506 
4.340000000003224, -1.0118011471417765 
4.350000000003201, -1.0116255738738729 
4.360000000003177, -1.0116189332906735 
4.370000000003154, -1.0114561947656344 
4.380000000003131, -1.0112424196671133 
4.390000000003107, -1.0112127761348702 
4.400000000003084, -1.0110570136676866 
4.410000000003061, -1.0108129319060637 
4.4200000000030375, -1.0107588664735192 
4.430000000003014, -1.0106075206890404 
4.440000000002991, -1.0103409176474758 
4.450000000002968, -1.0102600262509371 
4.460000000002944, -1.010111482533469 
4.470000000002921, -1.0098296300335428 
4.480000000002898, -1.0097187611438059 
4.490000000002874, -1.0095725518482044 
4.500000000002851, -1.009281776152033 
4.510000000002828, -1.0091376151256015 
4.520000000002804, -1.0089942044648967 
4.530000000002781, -1.0086995872330005 
4.540000000002758, -1.0085194012377396 
4.5500000000027345, -1.0083795854669253 
4.560000000002711, -1.008084951465713 
4.570000000002688, -1.0078673162451932 
4.580000000002665, -1.0077313543073445 
4.590000000002641, -1.007439589926957 
4.600000000002618, -1.007184951338761 
4.610000000002595, -1.0070516531063454 
4.620000000002571, -1.006765241189285 
4.630000000002548, -1.0064761947964769 
4.640000000002525, -1.0063422745280002 
4.6500000000025015, -1.0060638183532573 
4.660000000002478, -1.0057450309944975 
4.670000000002455, -1.005605000226412 
4.6800000000024315, -1.0053375097552317 
4.690000000002408, -1.0049952869482284 
4.700000000002385, -1.0048419815519123 
4.710000000002362, -1.0045888012697224 
4.720000000002338, -1.0042304182886725 
4.730000000002315, -1.0040560217768104 
4.740000000002292, -1.0038204065192307 
4.750000000002268, -1.0034534092072391 
4.760000000002245, -1.0032507087409153 
4.770000000002222, -1.0030351196322866 
4.7800000000021985, -1.0026667985216358 
4.790000000002175, -1.0024304372484163 
4.800000000002152, -1.0022356580828917 
4.810000000002129, -1.0018727982909337 
4.820000000002105, -1.0016003476737305 
4.830000000002082, -1.001424604078167 
4.840000000002059, -1.001073464755559 
4.850000000002035, -1.0007661191592367 
4.860000000002012, -1.0006045242704233 
4.870000000001989, -1.0002708820830888 
4.880000000001965, -0.9999335345558434 
4.890000000001942, -0.999778234758952 
4.900000000001919, -0.9994673110757079 
4.9100000000018955, -0.9991078849014643 
4.920000000001872, -0.9989490638173388 
4.930000000001849, -0.9986652577226147 
