t, s[1].omega / s[0].omega 
0, -0.6899976961354319 
0.009999999999999995, -0.6897611607387719 
0.019999999999999934, -0.6895064074916633 
0.029999999999999874, -0.6892187120995661 
0.04000000000000012, -0.6888824870323444 
0.050000000000000405, -0.6884889363125443 
0.06000000000000069, -0.6880402220753767 
0.07000000000000098, -0.687550291910045 
0.08000000000000126, -0.687044874649744 
0.09000000000000155, -0.6865630451592144 
0.10000000000000184, -0.6861612785738272 
0.11000000000000212, -0.6859194286734771 
0.12000000000000241, -0.685947033063108 
0.130000000000002, -0.6863877563330617 
0.1400000000000009, -0.6874196615381132 
0.1499999999999998, -0.6892492545247915 
0.1599999999999987, -0.6920971732360697 
0.1699999999999976, -0.6961717655929186 
0.1799999999999965, -0.7016233138916304 
0.1899999999999954, -0.708470172250985 
0.1999999999999943, -0.7165002857309641 
0.2099999999999932, -0.7251921275099424 
0.2199999999999921, -0.7337518803017617 
0.229999999999991, -0.7413392854493674 
0.2399999999999899, -0.7473840500822017 
0.2499999999999888, -0.7517528672469315 
0.2599999999999877, -0.7546601124651505 
0.2699999999999866, -0.75645817868247 
0.2799999999999855, -0.7574774863184837 
0.2899999999999844, -0.7579627193542524 
0.2999999999999833, -0.7580694855712097 
0.3099999999999822, -0.7578805179346875 
0.3199999999999811, -0.7574202163487719 
0.32999999999998, -0.7566602645293286 
0.3399999999999789, -0.7555142061146451 
0.3499999999999778, -0.7538194240235041 
0.35999999999997667, -0.7513045460071747 
0.36999999999997557, -0.7475428105331794 
0.37999999999997447, -0.7419064848021041 
0.38999999999997337, -0.7335843944619828 
0.39999999999997227, -0.7218151275111078 
0.40999999999997117, -0.7064976904018302 
0.41999999999997006, -0.688915007411296 
0.42999999999996896, -0.6716262881669148 
0.43999999999996786, -0.6571408872925049 
0.44999999999996676, -0.6466414351315299 
0.45999999999996566, -0.6399095101287683 
0.46999999999996456, -0.6360292969068164 
0.47999999999996346, -0.6340187079419762 
0.48999999999996235, -0.6331102000934474 
0.49999999999996125, -0.6327909551742767 
0.5099999999999602, -0.6327495485121122 
0.519999999999959, -0.6328085426298153 
0.529999999999958, -0.6328704785462342 
0.5399999999999568, -0.6328812326952366 
0.5499999999999557, -0.6328073808174748 
0.5599999999999546, -0.632623554143584 
0.5699999999999535, -0.6323072126308953 
0.5799999999999524, -0.6318397198646666 
0.5899999999999513, -0.631212697653201 
0.5999999999999502, -0.6304364866203317 
0.6099999999999491, -0.6295444777921253 
0.619999999999948, -0.6285875274669006 
0.6299999999999469, -0.6276192794266038 
0.6399999999999458, -0.626680690411487 
0.6499999999999447, -0.6257923807696912 
0.6599999999999436, -0.6249570115348495 
0.6699999999999425, -0.6241678112182687 
0.6799999999999414, -0.6234178239739345 
0.6899999999999403, -0.6227064906418466 
0.6999999999999392, -0.6220431063550107 
0.7099999999999381, -0.6214484875525502 
0.719999999999937, -0.6209563352248149 
0.7299999999999359, -0.6206150273435714 
0.7399999999999348, -0.6204898015988439 
0.7499999999999337, -0.6206649082915735 
0.7599999999999326, -0.6212452951833765 
0.7699999999999315, -0.622357467845148 
0.7799999999999304, -0.6241488989466129 
0.7899999999999293, -0.6267840883877915 
0.7999999999999282, -0.6304324127782227 
0.8099999999999271, -0.6352382617207961 
0.819999999999926, -0.6412606651212809 
0.8299999999999249, -0.6483780807493494 
0.8399999999999238, -0.6561914327736443 
0.8499999999999227, -0.6640192851344204 
0.8599999999999216, -0.6710792973889858 
0.8699999999999205, -0.6767930854189481 
0.8799999999999194, -0.680979972295961 
0.8899999999999183, -0.6838017703142774 
0.8999999999999172, -0.6855706231006363 
0.9099999999999161, -0.6865912466893788 
0.919999999999915, -0.6870935408612299 
0.9299999999999139, -0.6872251606585336 
0.9399999999999128, -0.6870645639065216 
0.9499999999999117, -0.686633086697312 
0.9599999999999106, -0.6858979497692058 
0.9699999999999095, -0.6847628357965675 
0.9799999999999084, -0.6830429099759558 
0.9899999999999073, -0.6804217471937373 
0.9999999999999062, -0.676396997738051 
1.0099999999999052, -0.6702570828741456 
1.019999999999904, -0.6612055718634116 
1.029999999999903, -0.6487868593295317 
1.039999999999902, -0.6335171937414603 
1.0499999999999008, -0.6170942354686733 
1.0599999999998997, -0.6016722393777078 
1.0699999999998986, -0.5887997404122756 
1.0799999999998975, -0.578992225291589 
1.0899999999998964, -0.5720016095476662 
1.0999999999998953, -0.5672588047650526 
1.1099999999998942, -0.5641682145385185 
1.119999999999893, -0.5622310885587912 
1.129999999999892, -0.5610706781012875 
1.1399999999998909, -0.5604180136858522 
1.1499999999998898, -0.5600877159887279 
1.1599999999998887, -0.5599551362512541 
1.1699999999998876, -0.5599380552777393 
1.1799999999998865, -0.5599832538208078 
1.1899999999998854, -0.5600574540375304 
1.1999999999998843, -0.5601419810496736 
1.2099999999998832, -0.5602303128423678 
1.219999999999882, -0.5603271380744943 
1.229999999999881, -0.5604467678792012 
1.2399999999998799, -0.5606085851439176 
1.2499999999998788, -0.560828643746808 
1.2599999999998777, -0.5611093869290491 
1.2699999999998766, -0.5614320929900125 
1.2799999999998755, -0.5617570994782684 
1.2899999999998744, -0.5620337195799858 
1.2999999999998733, -0.5622156643732523 
1.3099999999998722, -0.5622734051580144 
1.319999999999871, -0.5621973668139792 
1.32999999999987, -0.5619929719692816 
1.3399999999998689, -0.5616730817520005 
1.3499999999998678, -0.5612526367374403 
1.3599999999998666, -0.5607475459469059 
1.3699999999998655, -0.5601783465538906 
1.3799999999998644, -0.5595794119692525 
1.3899999999998633, -0.5590156128131399 
1.3999999999998622, -0.5586088776179647 
1.4099999999998611, -0.558573933740272 
1.41999999999986, -0.5592479362285745 
1.429999999999859, -0.5610596018227083 
1.4399999999998578, -0.5643240027743543 
1.4499999999998567, -0.5687829881907447 
1.4599999999998556, -0.5732110444818914 
1.4699999999998545, -0.575945053583409 
1.4799999999998534, -0.5763347901451739 
1.4899999999998523, -0.5752562230150351 
1.4999999999998512, -0.5739928165973467 
1.5099999999998501, -0.5732231201890535 
1.519999999999849, -0.5730049044075476 
1.529999999999848, -0.5731447698918413 
1.5399999999998468, -0.5734416382872243 
1.5499999999998457, -0.5737605204637714 
1.5599999999998446, -0.5740278543462505 
1.5699999999998435, -0.5742086105340498 
1.5799999999998424, -0.5742865324062534 
1.5899999999998413, -0.574251253975137 
1.5999999999998402, -0.5740911685400134 
1.6099999999998391, -0.5737908466029581 
1.619999999999838, -0.5733328985748114 
1.629999999999837, -0.5727046857916548 
1.6399999999998358, -0.5719087730489716 
1.6499999999998347, -0.5709722189114 
1.6599999999998336, -0.5699470367594173 
1.6699999999998325, -0.5688979346755303 
1.6799999999998314, -0.5678830163669829 
1.6899999999998303, -0.5669387708420335 
1.6999999999998292, -0.5660764212138623 
1.709999999999828, -0.5652883935177522 
1.719999999999827, -0.5645591026916408 
1.729999999999826, -0.5638746747427862 
1.7399999999998248, -0.5632290813751051 
1.7499999999998237, -0.5626270390968385 
1.7599999999998226, -0.5620855379716018 
1.7699999999998215, -0.5616358805413577 
1.7799999999998204, -0.5613274092560392 
1.7899999999998193, -0.561233455549625 
1.7999999999998182, -0.5614597122338295 
1.809999999999817, -0.5621550559901312 
1.819999999999816, -0.563524417411969 
1.8299999999998149, -0.565841804292389 
1.8399999999998138, -0.5694574015538726 
1.8499999999998127, -0.5747831327583882 
1.8599999999998116, -0.5822245584330202 
1.8699999999998105, -0.5920132526760257 
1.8799999999998094, -0.6039265533042562 
1.8899999999998083, -0.6170311747867306 
1.8999999999998072, -0.6297838289012929 
1.909999999999806, -0.6406652482025952 
1.919999999999805, -0.6488885768833267 
1.9299999999998039, -0.6545349212731691 
1.9399999999998028, -0.6581618746802397 
1.9499999999998017, -0.660385782255854 
1.9599999999998006, -0.6616872733889887 
1.9699999999997995, -0.6623853647331196 
1.9799999999997984, -0.662671853104114 
1.9899999999997973, -0.6626490932082384 
1.9999999999997962, -0.6623546317603436 
2.0099999999998173, -0.6617714256347063 
2.0199999999998384, -0.6608255299156003 
2.0299999999998595, -0.6593738760986417 
2.0399999999998806, -0.657189011076274 
2.0499999999999017, -0.6539606658702075 
2.059999999999923, -0.6493546941020093 
2.069999999999944, -0.6431694403479051 
2.079999999999965, -0.635548304817657 
2.089999999999986, -0.6270693870343432 
2.100000000000007, -0.6185600185083324 
2.1100000000000283, -0.6107587045345755 
2.1200000000000494, -0.6040976939260151 
2.1300000000000705, -0.5987008526058231 
2.1400000000000916, -0.5944941965840372 
2.1500000000001127, -0.5913159209142596 
2.160000000000134, -0.5889848012913979 
2.170000000000155, -0.5873320403333743 
2.180000000000176, -0.5862121314788407 
2.190000000000197, -0.5855043638705791 
2.2000000000002182, -0.5851110636465554 
2.2100000000002393, -0.5849550828119988 
2.2200000000002604, -0.5849773385836181 
2.2300000000002815, -0.5851346214155629 
2.2400000000003026, -0.5853977900955438 
2.2500000000003237, -0.5857504180495982 
2.260000000000345, -0.5861876639885312 
2.270000000000366, -0.586714522699159 
2.280000000000387, -0.5873419369001979 
2.290000000000408, -0.5880792413885343 
2.3000000000004293, -0.5889229082565376 
2.3100000000004504, -0.5898447745574644 
2.3200000000004715, -0.5907865486371753 
2.3300000000004926, -0.5916677652030704 
2.3400000000005137, -0.5924073879304065 
2.3500000000005348, -0.5929478473357019 
2.360000000000556, -0.5932667273229089 
2.370000000000577, -0.5933714739154718 
2.380000000000598, -0.5932848471751218 
2.390000000000619, -0.5930312025099689 
2.4000000000006403, -0.5926283794670375 
2.4100000000006614, -0.5920850693205749 
2.4200000000006825, -0.5914021091268092 
2.4300000000007036, -0.5905769194970439 
2.4400000000007247, -0.5896113387762121 
2.450000000000746, -0.5885225549221637 
2.460000000000767, -0.5873512108518961 
2.470000000000788, -0.586143415941275 
2.480000000000809, -0.5848525632610498 
2.49000000000083, -0.5831102291018959 
2.5000000000008513, -0.5800149778696516 
2.5100000000008724, -0.5744979918314832 
2.5200000000008935, -0.5665050715366131 
2.5300000000009146, -0.5576085122587889 
2.5400000000009357, -0.5498363741038526 
2.550000000000957, -0.5442433630353042 
2.560000000000978, -0.5407732312013291 
2.570000000000999, -0.5388675202744229 
2.58000000000102, -0.5379452090066106 
2.5900000000010412, -0.5375759410893108 
2.6000000000010624, -0.5374857576558149 
2.6100000000010835, -0.5375139965288167 
2.6200000000011046, -0.5375705348415122 
2.6300000000011257, -0.5376052323479107 
2.6400000000011468, -0.5375888276596862 
2.650000000001168, -0.5375022147767701 
2.660000000001189, -0.537331752481763 
2.67000000000121, -0.5370692675820983 
2.680000000001231, -0.5367155367785574 
2.6900000000012523, -0.5362848197673088 
2.7000000000012734, -0.5358063648104137 
2.7100000000012945, -0.5353192481082167 
2.7200000000013156, -0.5348609785239609 
2.7300000000013367, -0.5344551889020347 
2.740000000001358, -0.5341047766864738 
2.750000000001379, -0.5337934789321396 
2.7600000000014, -0.5334943172749051 
2.770000000001421, -0.5331803107633416 
2.780000000001442, -0.5328325864413848 
2.7900000000014633, -0.5324436111530895 
2.8000000000014844, -0.5320167429965788 
2.8100000000015055, -0.5315651111819746 
2.8200000000015266, -0.5311125755407134 
2.8300000000015477, -0.5306986359001354 
2.840000000001569, -0.5303888885056798 
2.85000000000159, -0.5302931724840109 
2.860000000001611, -0.5305944188209105 
2.870000000001632, -0.5315911506262359 
2.8800000000016532, -0.5337522244597994 
2.8900000000016743, -0.5377652659271628 
2.9000000000016954, -0.5445148084065629 
2.9100000000017165, -0.5548481971160701 
2.9200000000017377, -0.568973026129858 
2.9300000000017588, -0.5856808534709699 
2.94000000000178, -0.6023329219584643 
2.950000000001801, -0.6162899311189343 
2.960000000001822, -0.6264589160658524 
2.970000000001843, -0.6332714534527788 
2.9800000000018643, -0.6376916559955487 
2.9900000000018854, -0.6405488580629718 
3.0000000000019065, -0.6423964751319952 
3.0100000000019276, -0.6435769302253104 
3.0200000000019487, -0.6443001819656817 
3.03000000000197, -0.6446942504282368 
3.040000000001991, -0.6448332409961213 
3.050000000002012, -0.6447519943334299 
3.060000000002033, -0.644452908007141 
3.070000000002054, -0.6439083491437066 
3.0800000000020753, -0.6430622400092054 
3.0900000000020964, -0.641836545300555 
3.1000000000021175, -0.640150731591559 
3.1100000000021386, -0.6379591102383386 
3.1200000000021597, -0.6352953529658728 
3.130000000002181, -0.6322928994203691 
3.140000000002202, -0.6291546747165501 
3.150000000002223, -0.6260866778403358 
3.160000000002244, -0.6232415042224723 
3.1700000000022652, -0.6207008296782877 
3.1800000000022863, -0.6184897333181707 
3.1900000000023074, -0.6166012693744156 
3.2000000000023285, -0.6150166472239971 
3.2100000000023496, -0.6137168896281374 
3.2200000000023707, -0.6126874769137357 
3.230000000002392, -0.6119188299969095 
3.240000000002413, -0.6114049946055437 
3.250000000002434, -0.611142059902064 
3.260000000002455, -0.6111271781118481 
3.2700000000024763, -0.6113585730983868 
3.2800000000024974, -0.6118365486030116 
3.2900000000025185, -0.6125651604945093 
3.3000000000025396, -0.6135538284961377 
3.3100000000025607, -0.6148176258669352 
3.3200000000025818, -0.6163742535852406 
3.330000000002603, -0.6182350853059473 
3.340000000002624, -0.6203882758817427 
3.350000000002645, -0.6227758685992368 
3.360000000002666, -0.6252755715872491 
3.3700000000026873, -0.6277065918111686 
3.3800000000027084, -0.6298725360837908 
3.3900000000027295, -0.6316245935308487 
3.4000000000027506, -0.6329028219191073 
3.4100000000027717, -0.6337301747047996 
3.420000000002793, -0.6341747545431617 
3.430000000002814, -0.634311312643198 
3.440000000002835, -0.634198042508805 
3.450000000002856, -0.6338673099546146 
3.460000000002877, -0.6333229421117155 
3.4700000000028983, -0.6325378812388198 
3.4800000000029194, -0.6314481255282736 
3.4900000000029405, -0.6299392830111468 
3.5000000000029616, -0.6278200997951311 
3.5100000000029827, -0.6247734063200829 
3.520000000003004, -0.6202756991207311 
3.530000000003025, -0.6135131425323379 
3.540000000003046, -0.6034590125243682 
3.550000000003067, -0.5894512779827525 
3.5600000000030882, -0.5722430311695256 
3.5700000000031094, -0.5543315042021321 
3.5800000000031305, -0.5385811567330385 
3.5900000000031516, -0.5265610069541349 
3.6000000000031727, -0.5182962572231866 
3.6100000000031938, -0.5130094046407623 
3.620000000003215, -0.5097976872561695 
3.630000000003236, -0.5079286391091705 
3.640000000003257, -0.506889294209858 
3.650000000003278, -0.5063456795949526 
3.6600000000032993, -0.5060886688916744 
3.6700000000033204, -0.5059900863646913 
3.6800000000033415, -0.5059722501514469 
3.6900000000033626, -0.5059884301103301 
3.7000000000033837, -0.5060111857003449 
3.710000000003405, -0.5060262920389023 
3.720000000003426, -0.5060305510408912 
3.730000000003447, -0.5060317252568505 
3.740000000003468, -0.5060482238279888 
3.750000000003489, -0.5061058728998418 
3.7600000000035103, -0.5062302791109211 
3.7700000000035314, -0.5064360201812014 
3.7800000000035525, -0.5067166736266742 
3.7900000000035736, -0.5070408852755829 
3.8000000000035947, -0.5073582188719122 
3.810000000003616, -0.5076136779743746 
3.820000000003637, -0.5077636594941568 
3.830000000003658, -0.5077846704905319 
3.840000000003679, -0.5076718705621397 
3.8500000000037002, -0.5074313903718267 
3.8600000000037213, -0.5070721479830498 
3.8700000000037424, -0.5066003423852942 
3.8800000000037635, -0.5060169732282537 
3.8900000000037847, -0.5053174302774424 
3.9000000000038058, -0.5044917117122447 
3.910000000003827, -0.5035223825882008 
3.920000000003848, -0.5023720754444796 
3.930000000003869, -0.5009384425540395 
3.94000000000389, -0.49893118424560556 
3.9500000000039113, -0.49563217473469956 
3.9600000000039324, -0.4896905109144276 
3.9700000000039535, -0.4795803802751055 
3.9800000000039746, -0.4651864220378242 
3.9900000000039957, -0.44889449112108126 
4.000000000004016, -0.43404628522218325 
4.010000000003993, -0.422589865370143 
4.02000000000397, -0.41466665838718314 
4.030000000003946, -0.40952862351144576 
4.040000000003923, -0.40631531600026927 
4.0500000000039, -0.40435082326751876 
4.0600000000038765, -0.4031746032031876 
4.070000000003853, -0.4024920049874413 
4.08000000000383, -0.4021200322266951 
4.090000000003807, -0.40194708017202185 
4.100000000003783, -0.40190671418598817 
4.11000000000376, -0.4019617588474798 
4.120000000003737, -0.40209534871275227 
4.130000000003713, -0.4023065655461515 
4.14000000000369, -0.40260885428992593 
4.150000000003667, -0.40302939421397416 
4.1600000000036434, -0.4036071957259117 
4.17000000000362, -0.4043873389826591 
4.180000000003597, -0.4054089697198583 
4.1900000000035735, -0.40668615069706515 
4.20000000000355, -0.4081851034392484 
4.210000000003527, -0.40980975135417774 
4.220000000003504, -0.41141316258718624 
4.23000000000348, -0.41284048951019814 
4.240000000003457, -0.4139803077522724 
4.250000000003434, -0.4147894605981948 
4.26000000000341, -0.4152810999399598 
4.270000000003387, -0.41549466143218455 
4.280000000003364, -0.41546901777822887 
4.2900000000033405, -0.41522601098569617 
4.300000000003317, -0.4147610064198977 
4.310000000003294, -0.4140345179290234 
4.320000000003271, -0.41296030913495485 
4.330000000003247, -0.41138863865918696 
4.340000000003224, -0.40909126185861844 
4.350000000003201, -0.4057732110459771 
4.360000000003177, -0.4011607645944343 
4.370000000003154, -0.39519720848172474 
4.380000000003131, -0.3882438170591404 
4.390000000003107, -0.38104208563225656 
4.400000000003084, -0.3743739174515038 
4.410000000003061, -0.36872480459077167 
4.4200000000030375, -0.3642157623845537 
4.430000000003014, -0.3607344213289654 
4.440000000002991, -0.35808430641223893 
4.450000000002968, -0.3560728693762755 
4.460000000002944, -0.3545451228119363 
4.470000000002921, -0.3533890312269238 
4.480000000002898, -0.3525307259201426 
4.490000000002874, -0.3519281990926216 
4.500000000002851, -0.351566902760034 
4.510000000002828, -0.35145852285292695 
4.520000000002804, -0.3516436318260984 
4.530000000002781, -0.35219911732300496 
4.540000000002758, -0.3532518108679361 
4.5500000000027345, -0.3550001338343421 
4.560000000002711, -0.3577446139016461 
4.570000000002688, -0.3619222204934378 
4.580000000002665, -0.36811985707472716 
4.590000000002641, -0.3769955926770511 
4.600000000002618, -0.3889738994000648 
4.610000000002595, -0.40364490157175154 
4.620000000002571, -0.4192701941104276 
4.630000000002548, -0.433320917899717 
4.640000000002525, -0.4440186073427069 
4.6500000000025015, -0.4511793276563085 
4.660000000002478, -0.4556286663526901 
4.670000000002455, -0.45831799186131034 
4.6800000000024315, -0.4599387775122534 
4.690000000002408, -0.4609116028414311 
4.700000000002385, -0.46147518737860044 
4.710000000002362, -0.4617614455265612 
4.720000000002338, -0.4618406066172908 
4.730000000002315, -0.4617455377828126 
4.740000000002292, -0.46148492076019576 
4.750000000002268, -0.4610519795719384 
4.760000000002245, -0.46043349709923553 
4.770000000002222, -0.4596220890002443 
4.7800000000021985, -0.4586310423922904 
4.790000000002175, -0.457505187863419 
4.800000000002152, -0.45631828780656425 
4.810000000002129, -0.4551541852733417 
4.820000000002105, -0.4540817808308775 
4.830000000002082, -0.4531384703180752 
4.840000000002059, -0.45232839507058725 
4.850000000002035, -0.45163172885154135 
4.860000000002012, -0.4510178356338138 
4.870000000001989, -0.4504567880030512 
4.880000000001965, -0.4499265938989628 
4.890000000001942, -0.4494161346182953 
4.900000000001919, -0.4489256688070877 
4.9100000000018955, -0.4484673389201318 
