t, s[1].omega / s[0].omega 
0, -0.9899947551412137 
0.009999999999999995, -0.9893938764845923 
0.019999999999999934, -0.9886411169847936 
0.029999999999999874, -0.9877345039966732 
0.04000000000000012, -0.986671156076756 
0.050000000000000405, -0.9854481464720135 
0.06000000000000069, -0.9840635343713747 
0.07000000000000098, -0.9825174293758783 
0.08000000000000126, -0.9808129704470349 
0.09000000000000155, -0.9789571356198616 
0.10000000000000184, -0.9769613403517762 
0.11000000000000212, -0.9748418168738238 
0.12000000000000241, -0.9726197845972367 
0.130000000000002, -0.9703214200735691 
0.1400000000000009, -0.9679776195919653 
0.1499999999999998, -0.9656235291608707 
0.1599999999999987, -0.9632978078400724 
0.1699999999999976, -0.9610416006884018 
0.1799999999999965, -0.9588972297787907 
0.1899999999999954, -0.9569066599497618 
0.1999999999999943, -0.9551098465823946 
0.2099999999999932, -0.9535431084636659 
0.2199999999999921, -0.9522376753749585 
0.229999999999991, -0.9512185324238687 
0.2399999999999899, -0.9505036288206424 
0.2499999999999888, -0.9501034555767442 
0.2599999999999877, -0.9500209454495813 
0.2699999999999866, -0.9502516247383281 
0.2799999999999855, -0.9507839537012813 
0.2899999999999844, -0.9515998210845678 
0.2999999999999833, -0.952675191188562 
0.3099999999999822, -0.9539809216870433 
0.3199999999999811, -0.9554837671161458 
0.32999999999998, -0.9571475577259437 
0.3399999999999789, -0.9589345070225794 
0.3499999999999778, -0.9608065686590864 
0.35999999999997667, -0.9627267464520264 
0.36999999999997557, -0.9646602647783761 
0.37999999999997447, -0.9665755266682073 
0.38999999999997337, -0.9684448144018807 
0.39999999999997227, -0.9702447126604511 
0.40999999999997117, -0.9719562513360752 
0.41999999999997006, -0.9735647738088025 
0.42999999999996896, -0.9750595416261708 
0.43999999999996786, -0.9764330949292223 
0.44999999999996676, -0.9776804048919333 
0.45999999999996566, -0.978797880619954 
0.46999999999996456, -0.9797823236807314 
0.47999999999996346, -0.9806299498888168 
0.48999999999996235, -0.9813356101857121 
0.49999999999996125, -0.9818923326914218 
0.5099999999999602, -0.9822912733506461 
0.519999999999959, -0.9825221063035393 
0.529999999999958, -0.9825738166475849 
0.5399999999999568, -0.9824357919819837 
0.5499999999999557, -0.9820990612562885 
0.5599999999999546, -0.981557513328403 
0.5699999999999535, -0.9808089485586322 
0.5799999999999524, -0.979855868743059 
0.5899999999999513, -0.9787059775196523 
0.5999999999999502, -0.9773724241623616 
0.6099999999999491, -0.9758738603806217 
0.619999999999948, -0.9742343832443555 
0.6299999999999469, -0.9724834095526672 
0.6399999999999458, -0.9706554789527942 
0.6499999999999447, -0.9687899312436195 
0.6599999999999436, -0.9669303649605515 
0.6699999999999425, -0.9651237742851345 
0.6799999999999414, -0.9634192882805458 
0.6899999999999403, -0.9618664999312763 
0.6999999999999392, -0.960513460615 
0.7099999999999381, -0.9594045060512905 
0.719999999999937, -0.9585781448095941 
0.7299999999999359, -0.9580652565899518 
0.7399999999999348, -0.957887805290922 
0.7499999999999337, -0.9580581815593506 
0.7599999999999326, -0.958579178268658 
0.7699999999999315, -0.9594445039601344 
0.7799999999999304, -0.9606396806504409 
0.7899999999999293, -0.9621431637724995 
0.7999999999999282, -0.9639275548062718 
0.8099999999999271, -0.9659608299462823 
0.819999999999926, -0.9682075569505701 
0.8299999999999249, -0.9706301001813493 
0.8399999999999238, -0.9731898159647147 
0.8499999999999227, -0.9758482232944542 
0.8599999999999216, -0.978568111232029 
0.8699999999999205, -0.9813145262846757 
0.8799999999999194, -0.9840555774696045 
0.8899999999999183, -0.9867630040627281 
0.8999999999999172, -0.9894124670967283 
0.9099999999999161, -0.9919835455450745 
0.919999999999915, -0.9944594388613808 
0.9299999999999139, -0.9968263990687452 
0.9399999999999128, -0.9990729394390885 
0.9499999999999117, -1.0011888937102476 
0.9599999999999106, -1.0031644276662128 
0.9699999999999095, -1.004989128197956 
0.9799999999999084, -1.0066513057441757 
0.9899999999999073, -1.0081376363794676 
0.9999999999999062, -1.0094332348226613 
1.0099999999999052, -1.0105221900356358 
1.019999999999904, -1.011388519157398 
1.029999999999903, -1.0120174189899116 
1.039999999999902, -1.0123966371960922 
1.0499999999999008, -1.012517765970477 
1.0599999999998997, -1.0123772879111623 
1.0699999999998986, -1.0119772711767347 
1.0799999999998975, -1.0113256987112689 
1.0899999999998964, -1.0104364972867257 
1.0999999999998953, -1.009329382344411 
1.1099999999998942, -1.008029641296269 
1.119999999999893, -1.0065679421266152 
1.129999999999892, -1.0049801882178497 
1.1399999999998909, -1.0033073631430414 
1.1499999999998898, -1.001595241533239 
1.1599999999998887, -0.9998938037478086 
1.1699999999998876, -0.998256198796333 
1.1799999999998865, -0.9967371597926986 
1.1899999999998854, -0.9953908841910917 
1.1999999999998843, -0.9942685254084883 
1.2099999999998832, -0.9934155663688282 
1.219999999999882, -0.9928694171391205 
1.229999999999881, -0.9926575676083983 
1.2399999999998799, -0.9927965282330746 
1.2499999999998788, -0.9932916353107591 
1.2599999999998777, -0.9941376323522775 
1.2699999999998766, -0.9953198176453846 
1.2799999999998755, -0.9968155019612048 
1.2899999999998744, -0.998595550568588 
1.2999999999998733, -1.000625863953898 
1.3099999999998722, -1.002868742778572 
1.319999999999871, -1.0052841501607608 
1.32999999999987, -1.0078309107910075 
1.3399999999998689, -1.0104678741119526 
1.3499999999998678, -1.0131550345603666 
1.3599999999998666, -1.0158545665313718 
1.3699999999998655, -1.0185317107412435 
1.3799999999998644, -1.0211554473929294 
1.3899999999998633, -1.0236989062800388 
1.3999999999998622, -1.0261394867726188 
1.4099999999998611, -1.0284586846461832 
1.41999999999986, -1.0306416450976865 
1.429999999999859, -1.0326764829206492 
1.4399999999998578, -1.034553433685159 
1.4499999999998567, -1.0362639239622011 
1.4599999999998556, -1.0377996705751091 
1.4699999999998545, -1.0391519317588098 
1.4799999999998534, -1.040311029233516 
1.4899999999998523, -1.041266234071181 
1.4999999999998512, -1.0420060605359547 
1.5099999999998501, -1.0425189473946948 
1.519999999999849, -1.0427942387602351 
1.529999999999848, -1.0428233234733644 
1.5399999999998468, -1.0426007691294334 
1.5499999999998457, -1.0421253023033816 
1.5599999999998446, -1.0414005364524446 
1.5699999999998435, -1.0404354175187553 
1.5799999999998424, -1.0392444218919297 
1.5899999999998413, -1.0378475812605563 
1.5999999999998402, -1.0362704121475506 
1.6099999999998391, -1.0345437951640033 
1.619999999999838, -1.0327037921463313 
1.629999999999837, -1.0307913277480287 
1.6399999999998358, -1.0288516178050258 
1.6499999999998347, -1.0269332196115974 
1.6599999999998336, -1.025086620992137 
1.6699999999998325, -1.023362373922352 
1.6799999999998314, -1.0218088950888433 
1.6899999999998303, -1.020470165124447 
1.6999999999998292, -1.0193836198002073 
1.709999999999828, -1.0185785109443568 
1.719999999999827, -1.018074919982509 
1.729999999999826, -1.017883462376374 
1.7399999999998248, -1.0180055778076493 
1.7499999999998237, -1.0184342088591989 
1.7599999999998226, -1.0191546574593622 
1.7699999999998215, -1.0201454671898755 
1.7799999999998204, -1.0213792762092275 
1.7899999999998193, -1.022823674679669 
1.7999999999998182, -1.0244421462923037 
1.809999999999817, -1.0261951631188646 
1.819999999999816, -1.0280414493719015 
1.8299999999998149, -1.0299393617821482 
1.8399999999998138, -1.031848282461457 
1.8499999999998127, -1.0337299025183555 
1.8599999999998116, -1.0355492919819005 
1.8699999999998105, -1.0372756903674554 
1.8799999999998094, -1.038882994095115 
1.8899999999998083, -1.0403499477565539 
1.8999999999998072, -1.0416600610759525 
1.909999999999806, -1.0428012766904355 
1.919999999999805, -1.0437654150315956 
1.9299999999998039, -1.0445474305426783 
1.9399999999998028, -1.0451445320055828 
1.9499999999998017, -1.0455552456456527 
1.9599999999998006, -1.045778524013007 
1.9699999999997995, -1.045813015575019 
1.9799999999997984, -1.0456566012226034 
1.9899999999997973, -1.045306272140764 
1.9999999999997962, -1.0447583734578547 
2.0099999999998173, -1.044009180456764 
2.0199999999998384, -1.0430557226078425 
2.0299999999998595, -1.041896737968331 
2.0399999999998806, -1.0405336341427769 
2.0499999999999017, -1.0389713514973153 
2.059999999999923, -1.0372190607959058 
2.069999999999944, -1.0352906666474402 
2.079999999999965, -1.0332051159045983 
2.089999999999986, -1.0309865177852722 
2.100000000000007, -1.02866407028517 
2.1100000000000283, -1.0262717646209558 
2.1200000000000494, -1.0238478208302422 
2.1300000000000705, -1.0214338082953587 
2.1400000000000916, -1.0190734339364564 
2.1500000000001127, -1.0168110362071061 
2.160000000000134, -1.0146898901112809 
2.170000000000155, -1.0127504832695955 
2.180000000000176, -1.011028941392889 
2.190000000000197, -1.0095557505179145 
2.2000000000002182, -1.0083548498859054 
2.2100000000002393, -1.0074430796600393 
2.2200000000002604, -1.0068298970764156 
2.2300000000002815, -1.006517251468692 
2.2400000000003026, -1.0064995407688624 
2.2500000000003237, -1.0067636427437354 
2.260000000000345, -1.0072890891815909 
2.270000000000366, -1.008048494295644 
2.280000000000387, -1.0090083378364956 
2.290000000000408, -1.0101301408230976 
2.3000000000004293, -1.0113719819048392 
2.3100000000004504, -1.0126902203480688 
2.3200000000004715, -1.014041247328917 
2.3300000000004926, -1.015383092834025 
2.3400000000005137, -1.0166767627507856 
2.3500000000005348, -1.017887247410964 
2.360000000000556, -1.0189842038884245 
2.370000000000577, -1.0199423518821245 
2.380000000000598, -1.0207416313938837 
2.390000000000619, -1.0213671558039028 
2.4000000000006403, -1.021808970149499 
2.4100000000006614, -1.022061607008513 
2.4200000000006825, -1.0221234330439144 
2.4300000000007036, -1.021995801602356 
2.4400000000007247, -1.021682065058661 
2.450000000000746, -1.02118654195403 
2.460000000000767, -1.0205135632283944 
2.470000000000788, -1.0196667272887594 
2.480000000000809, -1.0186484710973913 
2.49000000000083, -1.0174600182247804 
2.5000000000008513, -1.0161017057849469 
2.5100000000008724, -1.0145736342274785 
2.5200000000008935, -1.0128765400273014 
2.5300000000009146, -1.0110127699796925 
2.5400000000009357, -1.008987239075366 
2.550000000000957, -1.0068082767396067 
2.560000000000978, -1.0044882982474408 
2.570000000000999, -1.002044267577195 
2.58000000000102, -0.9994979360437329 
2.5900000000010412, -0.9968758452875697 
2.6000000000010624, -0.9942090781832031 
2.6100000000010835, -0.9915327364987978 
2.6200000000011046, -0.9888851299331376 
2.6300000000011257, -0.9863066836301105 
2.6400000000011468, -0.9838386088767208 
2.650000000001168, -0.9815214244042115 
2.660000000001189, -0.9793934480800056 
2.67000000000121, -0.9774893862683911 
2.680000000001231, -0.9758391243781874 
2.6900000000012523, -0.974466773391884 
2.7000000000012734, -0.9733899712383376 
2.7100000000012945, -0.9726193968311947 
2.7200000000013156, -0.9721584448851821 
2.7300000000013367, -0.9720030339994146 
2.740000000001358, -0.9721415661004151 
2.750000000001379, -0.9725550989882421 
2.7600000000014, -0.9732178121654156 
2.770000000001421, -0.9740978265397646 
2.780000000001442, -0.9751583845605357 
2.7900000000014633, -0.9763593273437242 
2.8000000000014844, -0.9776587444758024 
2.8100000000015055, -0.9790146412545728 
2.8200000000015266, -0.9803864753111086 
2.8300000000015477, -0.9817364533966213 
2.840000000001569, -0.9830305329165401 
2.85000000000159, -0.9842391224774353 
2.860000000001611, -0.9853375072009039 
2.870000000001632, -0.9863060329233936 
2.8800000000016532, -0.9871300731162331 
2.8900000000016743, -0.987799784468918 
2.9000000000016954, -0.9883096446499446 
2.9100000000017165, -0.988657769020089 
2.9200000000017377, -0.9888450255747152 
2.9300000000017588, -0.9888740044848471 
2.94000000000178, -0.9887479389558642 
2.950000000001801, -0.9884697038265552 
2.960000000001822, -0.9880410259628014 
2.970000000001843, -0.9874620209538059 
2.9800000000018643, -0.986731126440286 
2.9900000000018854, -0.9858454426619074 
3.0000000000019065, -0.9848014284739186 
3.0100000000019276, -0.9835958498306185 
3.0200000000019487, -0.9822268486556226 
3.03000000000197, -0.9806949985676672 
3.040000000001991, -0.9790042379557138 
3.050000000002012, -0.9771626108987864 
3.060000000002033, -0.9751827885504359 
3.070000000002054, -0.9730823745312629 
3.0800000000020753, -0.97088400956632 
3.0900000000020964, -0.9686152829777521 
3.1000000000021175, -0.9663084391833185 
3.1100000000021386, -0.9639998482033074 
3.1200000000021597, -0.9617292028635267 
3.130000000002181, -0.959538420402252 
3.140000000002202, -0.957470263592148 
3.150000000002223, -0.9555667484412557 
3.160000000002244, -0.9538674568575698 
3.1700000000022652, -0.952407905581475 
3.1800000000022863, -0.9512181236959353 
3.1900000000023074, -0.9503215570535902 
3.2000000000023285, -0.9497343587694106 
3.2100000000023496, -0.9494650598603975 
3.2200000000023707, -0.9495145643035111 
3.230000000002392, -0.9498763923577984 
3.240000000002413, -0.9505371064777203 
3.250000000002434, -0.951476884580058 
3.260000000002455, -0.9526702379357178 
3.2700000000024763, -0.954086888879678 
3.2800000000024974, -0.9556928184071829 
3.2900000000025185, -0.9574514681316901 
3.3000000000025396, -0.9593250464102949 
3.3100000000025607, -0.9612758590330285 
3.3200000000025818, -0.9632675715157516 
3.330000000002603, -0.9652663158921659 
3.340000000002624, -0.9672415753805462 
3.350000000002645, -0.9691668064000621 
3.360000000002666, -0.9710197804405055 
3.3700000000026873, -0.9727826436829058 
3.3800000000027084, -0.974441700966661 
3.3900000000027295, -0.9759869378571945 
3.4000000000027506, -0.9774113064443938 
3.4100000000027717, -0.9787098209639554 
3.420000000002793, -0.9798785374721263 
3.430000000002814, -0.9809135216220348 
3.440000000002835, -0.9818099308213039 
3.450000000002856, -0.9825613422679119 
3.460000000002877, -0.983159440130886 
3.4700000000028983, -0.9835941323042169 
3.4800000000029194, -0.983854104893747 
3.4900000000029405, -0.9839277521993643 
3.5000000000029616, -0.9838043570837821 
3.5100000000029827, -0.9834753575708151 
3.520000000003004, -0.9829355319266945 
3.530000000003025, -0.982183968243963 
3.540000000003046, -0.9812247457143474 
3.550000000003067, -0.9800673242476496 
3.5600000000030882, -0.9787266954254004 
3.5700000000031094, -0.9772233748795505 
3.5800000000031305, -0.9755833083418208 
3.5900000000031516, -0.9738377261412414 
3.6000000000031727, -0.9720229273367422 
3.6100000000031938, -0.9701799223736345 
3.620000000003215, -0.9683538294518664 
3.630000000003236, -0.9665929184349858 
3.640000000003257, -0.9649472339869127 
3.650000000003278, -0.9634668035242672 
3.6600000000032993, -0.9621995304879567 
3.6700000000033204, -0.9611889641803264 
3.6800000000033415, -0.9604721952199649 
3.6900000000033626, -0.9600781285233261 
3.7000000000033837, -0.9600263282529939 
3.710000000003405, -0.9603265267150488 
3.720000000003426, -0.9609787729474931 
3.730000000003447, -0.9619741015951149 
3.740000000003468, -0.9632955534040548 
3.750000000003489, -0.9649193812816085 
3.7600000000035103, -0.9668163175202676 
3.7700000000035314, -0.9689528345271092 
3.7800000000035525, -0.9712923791743722 
3.7900000000035736, -0.9737965846930521 
3.8000000000035947, -0.9764264617551267 
3.810000000003616, -0.9791435507045158 
3.820000000003637, -0.9819109932333916 
3.830000000003658, -0.9846944657488578 
3.840000000003679, -0.9874629138223758 
3.8500000000037002, -0.9901890366506689 
3.8600000000037213, -0.9928494878207864 
3.8700000000037424, -0.9954247791784162 
3.8800000000037635, -0.9978988959431777 
3.8900000000037847, -1.0002586537604694 
3.9000000000038058, -1.0024928534873803 
3.910000000003827, -1.0045913171354772 
3.920000000003848, -1.0065439153671423 
3.930000000003869, -1.0083397168393513 
3.94000000000389, -1.0099663943605368 
3.9500000000039113, -1.011410005038193 
3.9600000000039324, -1.0126552179999762 
3.9700000000039535, -1.013685996981431 
3.9800000000039746, -1.0144866669961135 
3.9900000000039957, -1.0150432221456611 
4.000000000004016, -1.0153446856658463 
4.010000000003993, -1.0153843293502554 
4.02000000000397, -1.0151606016280972 
4.030000000003946, -1.0146776906145623 
4.040000000003923, -1.0139457368986977 
4.0500000000039, -1.012980783476289 
4.0600000000038765, -1.0118045861602127 
4.070000000003853, -1.0104443988899334 
4.08000000000383, -1.0089328000328304 
4.090000000003807, -1.007307553280064 
4.100000000003783, -1.0056114201872561 
4.11000000000376, -1.0038917817497088 
4.120000000003737, -1.0021999025958999 
4.130000000003713, -1.0005896972365453 
4.14000000000369, -0.9991159373147653 
4.150000000003667, -0.9978319609527941 
4.1600000000036434, -0.9967870817537746 
4.17000000000362, -0.9960240048879148 
4.180000000003597, -0.9955766006645634 
4.1900000000035735, -0.9954683398117529 
4.20000000000355, -0.9957115679660375 
4.210000000003527, -0.9963076287988997 
4.220000000003504, -0.9972476903361958 
4.23000000000348, -0.9985140343955773 
4.240000000003457, -1.000081555375257 
4.250000000003434, -1.001919270647957 
4.26000000000341, -1.003991736234214 
4.270000000003387, -1.006260348055456 
4.280000000003364, -1.0086845614695137 
4.2900000000033405, -1.0112230704500529 
4.300000000003317, -1.0138349623551979 
4.310000000003294, -1.0164808252252722 
4.320000000003271, -1.0191237523126266 
4.330000000003247, -1.0217301750705103 
4.340000000003224, -1.0242704622873926 
4.350000000003201, -1.0267192428668563 
4.360000000003177, -1.029055434295788 
4.370000000003154, -1.0312619823092861 
4.380000000003131, -1.0333253384600884 
4.390000000003107, -1.0352347232364916 
4.400000000003084, -1.0369812450743712 
4.410000000003061, -1.0385569692554393 
4.4200000000030375, -1.039954050540766 
4.430000000003014, -1.0411640519835537 
4.440000000002991, -1.0421775622812102 
4.450000000002968, -1.042984191158057 
4.460000000002944, -1.0435729684168948 
4.470000000002921, -1.0439331062453303 
4.480000000002898, -1.0440550207901946 
4.490000000002874, -1.0439314648783549 
4.500000000002851, -1.0435586126521406 
4.510000000002828, -1.0429369632156344 
4.520000000002804, -1.0420719862989605 
4.530000000002781, -1.0409745001378075 
4.540000000002758, -1.0396608279660713 
4.5500000000027345, -1.0381528067158106 
4.560000000002711, -1.0364777121125168 
4.570000000002688, -1.0346681230354193 
4.580000000002665, -1.0327616896401781 
4.590000000002641, -1.0308007150271816 
4.600000000002618, -1.0288314307374673 
4.610000000002595, -1.026902859074377 
4.620000000002571, -1.02506521676952 
4.630000000002548, -1.0233679157313953 
4.640000000002525, -1.0218573310621486 
4.6500000000025015, -1.0205745958538102 
4.660000000002478, -1.019553709795028 
4.670000000002455, -1.0188201963765302 
4.6800000000024315, -1.018390423845196 
4.690000000002408, -1.0182715587116606 
4.700000000002385, -1.0184619999821225 
4.710000000002362, -1.0189520882663312 
4.720000000002338, -1.0197249082048445 
4.730000000002315, -1.0207570843864726 
4.740000000002292, -1.0220195682601336 
4.750000000002268, -1.023478483484758 
4.760000000002245, -1.0250961137996055 
4.770000000002222, -1.0268320808986744 
4.7800000000021985, -1.0286446925609476 
4.790000000002175, -1.0304923756456061 
4.800000000002152, -1.0323350709210433 
4.810000000002129, -1.0341354672670493 
4.820000000002105, -1.0358599843580452 
4.830000000002082, -1.037479457734629 
4.840000000002059, -1.0389695199433462 
4.850000000002035, -1.0403106953700518 
4.860000000002012, -1.0414882340293847 
4.870000000001989, -1.0424917085566174 
4.880000000001965, -1.043314399567515 
4.890000000001942, -1.043952505321195 
4.900000000001919, -1.0444042336830233 
4.9100000000018955, -1.0446688620131874 
4.920000000001872, -1.0447458733497699 
4.930000000001849, -1.0446342843019112 
