t, s[1].omega / s[0].omega 
0, -0.6599977065971067 
0.009999999999999995, -0.6597620940591045 
0.019999999999999934, -0.659509742062194 
0.029999999999999874, -0.659230079163357 
0.04000000000000012, -0.6589117821545422 
0.050000000000000405, -0.6585481703236682 
0.06000000000000069, -0.6581401468807383 
0.07000000000000098, -0.6576967240353299 
0.08000000000000126, -0.6572348331787035 
0.09000000000000155, -0.6567801889100136 
0.10000000000000184, -0.6563701378156839 
0.11000000000000212, -0.6560585653656162 
0.12000000000000241, -0.6559223163749934 
0.130000000000002, -0.656068038748579 
0.1400000000000009, -0.656637672222018 
0.1499999999999998, -0.6578097887262047 
0.1599999999999987, -0.6597923628207959 
0.1699999999999976, -0.6628000194054615 
0.1799999999999965, -0.6670061990677084 
0.1899999999999954, -0.6724628628009856 
0.1999999999999943, -0.6789988181542758 
0.2099999999999932, -0.6861511202069014 
0.2199999999999921, -0.6932219620552431 
0.229999999999991, -0.699500166628869 
0.2399999999999899, -0.7045258119582067 
0.2499999999999888, -0.708200532138008 
0.2599999999999877, -0.7106958926972968 
0.2699999999999866, -0.7122867969794278 
0.2799999999999855, -0.7132320676375301 
0.2899999999999844, -0.713727406325614 
0.2999999999999833, -0.7139022030865013 
0.3099999999999822, -0.713831008863229 
0.3199999999999811, -0.7135446339495723 
0.32999999999998, -0.7130355826310658 
0.3399999999999789, -0.7122564240747968 
0.3499999999999778, -0.7111107889631505 
0.35999999999997667, -0.7094379634558959 
0.36999999999997557, -0.706996948913641 
0.37999999999997447, -0.7034687262579044 
0.38999999999997337, -0.6985156348997796 
0.39999999999997227, -0.6919387775949085 
0.40999999999997117, -0.6839007189018261 
0.41999999999997006, -0.6750391984985449 
0.42999999999996896, -0.6662917743855316 
0.43999999999996786, -0.6585171978843845 
0.44999999999996676, -0.6522113699302554 
0.45999999999996566, -0.6474737519999678 
0.46999999999996456, -0.6441374680552601 
0.47999999999996346, -0.6419206721970647 
0.48999999999996235, -0.6405299502669926 
0.49999999999996125, -0.6397113250694345 
0.5099999999999602, -0.6392664172218343 
0.519999999999959, -0.6390504236354573 
0.529999999999958, -0.6389625700227718 
0.5399999999999568, -0.6389348398067394 
0.5499999999999557, -0.6389218248442228 
0.5599999999999546, -0.638892939484513 
0.5699999999999535, -0.6388274410589019 
0.5799999999999524, -0.6387122474102245 
0.5899999999999513, -0.6385419956685842 
0.5999999999999502, -0.6383199158538168 
0.6099999999999491, -0.6380573307913002 
0.619999999999948, -0.6377700516191699 
0.6299999999999469, -0.6374721470046998 
0.6399999999999458, -0.6371700763115818 
0.6499999999999447, -0.6368605988027628 
0.6599999999999436, -0.6365335935367595 
0.6699999999999425, -0.6361778485255221 
0.6799999999999414, -0.6357864957402368 
0.6899999999999403, -0.6353599435120059 
0.6999999999999392, -0.6349065017040247 
0.7099999999999381, -0.6344423878589822 
0.719999999999937, -0.6339927980115401 
0.7299999999999359, -0.6335949554213146 
0.7399999999999348, -0.6333033144979167 
0.7499999999999337, -0.6331965894926384 
0.7599999999999326, -0.6333857892479217 
0.7699999999999315, -0.634021671427536 
0.7799999999999304, -0.6352986319491184 
0.7899999999999293, -0.637449513462806 
0.7999999999999282, -0.6407217434068885 
0.8099999999999271, -0.6453209424369057 
0.819999999999926, -0.6513109913688294 
0.8299999999999249, -0.6584862168377059 
0.8399999999999238, -0.6662920358907563 
0.8499999999999227, -0.673914603181178 
0.8599999999999216, -0.6805683318179864 
0.8699999999999205, -0.6857977772141519 
0.8799999999999194, -0.6895612647575159 
0.8899999999999183, -0.6920896223496127 
0.8999999999999172, -0.6936947150728413 
0.9099999999999161, -0.6946515650759417 
0.919999999999915, -0.6951607506946437 
0.9299999999999139, -0.6953521889510396 
0.9399999999999128, -0.6952999077479659 
0.9499999999999117, -0.695034321130912 
0.9599999999999106, -0.694548054047621 
0.9699999999999095, -0.6937947463215837 
0.9799999999999084, -0.6926813438517752 
0.9899999999999073, -0.6910563014008186 
0.9999999999999062, -0.688702035343774 
1.0099999999999052, -0.685352118004803 
1.019999999999904, -0.6807652278966364 
1.029999999999903, -0.6748694133377862 
1.039999999999902, -0.6679111442616416 
1.0499999999999008, -0.6604661922733074 
1.0599999999998997, -0.6532469418110253 
1.0699999999998986, -0.6468399718888432 
1.0799999999998975, -0.6415607110424983 
1.0899999999998964, -0.6374668189010777 
1.0999999999998953, -0.6344500883285835 
1.1099999999998942, -0.6323276893184077 
1.119999999999893, -0.6309026442703262 
1.129999999999892, -0.6299952546833705 
1.1399999999998909, -0.6294556874128169 
1.1499999999998898, -0.629166225636699 
1.1599999999998887, -0.629038411330042 
1.1699999999998876, -0.6290080407095893 
1.1799999999998865, -0.6290297464743327 
1.1899999999998854, -0.6290722444208114 
1.1999999999998843, -0.6291148893235058 
1.2099999999998832, -0.6291457464265032 
1.219999999999882, -0.6291607727643027 
1.229999999999881, -0.6291629570348528 
1.2399999999998799, -0.6291598888970917 
1.2499999999998788, -0.6291589857340114 
1.2599999999998777, -0.6291615635307635 
1.2699999999998766, -0.6291587568474715 
1.2799999999998755, -0.6291321414494299 
1.2899999999998744, -0.6290593214780962 
1.2999999999998733, -0.628921472288815 
1.3099999999998722, -0.6287087214527671 
1.319999999999871, -0.6284213634433976 
1.32999999999987, -0.6280680966023021 
1.3399999999998689, -0.6276640013754494 
1.3499999999998678, -0.6272304905850055 
1.3599999999998666, -0.6267983790138113 
1.3699999999998655, -0.6264146004653502 
1.3799999999998644, -0.6261529561623147 
1.3899999999998633, -0.6261290476908317 
1.3999999999998622, -0.6265184562696569 
1.4099999999998611, -0.627574202635582 
1.41999999999986, -0.6296330235074181 
1.429999999999859, -0.6330888783693763 
1.4399999999998578, -0.638300217433047 
1.4499999999998567, -0.6454053056917423 
1.4599999999998556, -0.6540895869998101 
1.4699999999998545, -0.6634853554063248 
1.4799999999998534, -0.672418169316835 
1.4899999999998523, -0.679922494831726 
1.4999999999998512, -0.685602743268101 
1.5099999999998501, -0.6895821871383213 
1.519999999999849, -0.6922260181725386 
1.529999999999848, -0.6939144587064714 
1.5399999999998468, -0.6949470124453148 
1.5499999999998457, -0.6955305209595972 
1.5599999999998446, -0.6957965428948862 
1.5699999999998435, -0.695821123061231 
1.5799999999998424, -0.6956386363681799 
1.5899999999998413, -0.6952486476833531 
1.5999999999998402, -0.6946166798900565 
1.6099999999998391, -0.6936705774235659 
1.619999999999838, -0.6922961897976305 
1.629999999999837, -0.690340934041864 
1.6399999999998358, -0.6876402658410112 
1.6499999999998347, -0.6840809032209662 
1.6599999999998336, -0.6796891137811362 
1.6699999999998325, -0.674687175993908 
1.6799999999998314, -0.669454051085874 
1.6899999999998303, -0.6644004861538346 
1.6999999999998292, -0.659846046117588 
1.709999999999828, -0.6559673820136378 
1.719999999999827, -0.6528141528555531 
1.729999999999826, -0.650352197874781 
1.7399999999998248, -0.6485034341791035 
1.7499999999998237, -0.647172641595732 
1.7599999999998226, -0.6462628141112119 
1.7699999999998215, -0.6456833651140192 
1.7799999999998204, -0.6453543786493201 
1.7899999999998193, -0.6452085589186467 
1.7999999999998182, -0.6451916212838797 
1.809999999999817, -0.6452615903759973 
1.819999999999816, -0.645387497953031 
1.8299999999998149, -0.6455479886153624 
1.8399999999998138, -0.6457301383708042 
1.8499999999998127, -0.645928301837137 
1.8599999999998116, -0.6461422060383877 
1.8699999999998105, -0.6463733349283254 
1.8799999999998094, -0.6466195197847093 
1.8899999999998083, -0.6468694845193863 
1.8999999999998072, -0.6471005732871908 
1.909999999999806, -0.6472821843574821 
1.919999999999805, -0.6473840826428627 
1.9299999999998039, -0.6473851203004158 
1.9399999999998028, -0.6472775956509365 
1.9499999999998017, -0.6470660574677728 
1.9599999999998006, -0.6467631793695852 
1.9699999999997995, -0.646386284379858 
1.9799999999997984, -0.6459568010130015 
1.9899999999997973, -0.6455035488775354 
1.9999999999997962, -0.6450702993911632 
2.0099999999998173, -0.6447282139666723 
2.0199999999998384, -0.6445936980712433 
2.0299999999998595, -0.6448508805452148 
2.0399999999998806, -0.6457738324298278 
2.0499999999999017, -0.6477347400366404 
2.059999999999923, -0.6511696578747144 
2.069999999999944, -0.6564606684059833 
2.079999999999965, -0.6637126885015066 
2.089999999999986, -0.672504054590013 
2.100000000000007, -0.6818421459954938 
2.1100000000000283, -0.6905162053342113 
2.1200000000000494, -0.6976465678055243 
2.1300000000000705, -0.7029609113185737 
2.1400000000000916, -0.7066547066805162 
2.1500000000001127, -0.7091034967358817 
2.160000000000134, -0.7106677456800272 
2.170000000000155, -0.7116229481004791 
2.180000000000176, -0.7121573608240278 
2.190000000000197, -0.7123901092891767 
2.2000000000002182, -0.7123890639719372 
2.2100000000002393, -0.7121826977149506 
2.2200000000002604, -0.7117653950516629 
2.2300000000002815, -0.7110970500080075 
2.2400000000003026, -0.7100986266731375 
2.2500000000003237, -0.7086477533894968 
2.260000000000345, -0.7065837684694246 
2.270000000000366, -0.7037381514308952 
2.280000000000387, -0.7000033004913007 
2.290000000000408, -0.6954234028743091 
2.3000000000004293, -0.6902454406250429 
2.3100000000004504, -0.6848689743664026 
2.3200000000004715, -0.679714523717588 
2.3300000000004926, -0.6751021376387739 
2.3400000000005137, -0.6712044364678829 
2.3500000000005348, -0.6680654116715882 
2.360000000000556, -0.6656441390727587 
2.370000000000577, -0.6638545525165087 
2.380000000000598, -0.6625925480735247 
2.390000000000619, -0.6617522181101412 
2.4000000000006403, -0.6612351138011346 
2.4100000000006614, -0.660955280395066 
2.4200000000006825, -0.6608414616240004 
2.4300000000007036, -0.6608372258044468 
2.4400000000007247, -0.660899687398888 
2.450000000000746, -0.6609975919700712 
2.460000000000767, -0.6611094977043994 
2.470000000000788, -0.6612224658207085 
2.480000000000809, -0.661331044020843 
2.49000000000083, -0.6614356268450107 
2.5000000000008513, -0.6615391194969449 
2.5100000000008724, -0.6616418433562294 
2.5200000000008935, -0.6617365152088504 
2.5300000000009146, -0.6618063523513974 
2.5400000000009357, -0.661828276573552 
2.550000000000957, -0.6617799937475554 
2.560000000000978, -0.6616469600938234 
2.570000000000999, -0.6614256370289158 
2.58000000000102, -0.6611226140867926 
2.5900000000010412, -0.6607519998565549 
2.6000000000010624, -0.6603339382902234 
2.6100000000010835, -0.6598960033592196 
2.6200000000011046, -0.6594781467242796 
2.6300000000011257, -0.6591413806525378 
2.6400000000011468, -0.658980080412432 
2.650000000001168, -0.6591370117696808 
2.660000000001189, -0.6598182537406343 
2.67000000000121, -0.6613013852793681 
2.680000000001231, -0.6639240324257666 
2.6900000000012523, -0.6680320233352827 
2.7000000000012734, -0.6738641151904573 
2.7100000000012945, -0.6813742650867758 
2.7200000000013156, -0.6900677893351046 
2.7300000000013367, -0.6990183364634224 
2.740000000001358, -0.7071776427391401 
2.750000000001379, -0.713809774441575 
2.7600000000014, -0.7187045440397506 
2.770000000001421, -0.7220605484190216 
2.780000000001442, -0.7242383688518732 
2.7900000000014633, -0.7255836575819926 
2.8000000000014844, -0.7263594167239898 
2.8100000000015055, -0.7267424053376438 
2.8200000000015266, -0.7268403446179444 
2.8300000000015477, -0.7267090614708595 
2.840000000001569, -0.7263630722988031 
2.85000000000159, -0.7257785870911063 
2.860000000001611, -0.72488929026886 
2.870000000001632, -0.7235761056185489 
2.8800000000016532, -0.7216553604252498 
2.8900000000016743, -0.7188783687529297 
2.9000000000016954, -0.7149692459727476 
2.9100000000017165, -0.7097313902664637 
2.9200000000017377, -0.703210082684692 
2.9300000000017588, -0.6958047805116809 
2.94000000000178, -0.6881953226250589 
2.950000000001801, -0.6810948157333796 
2.960000000001822, -0.6750116822265068 
2.970000000001843, -0.6701644289563111 
2.9800000000018643, -0.6665334316936777 
2.9900000000018854, -0.6639602990297098 
3.0000000000019065, -0.6622328975835333 
3.0100000000019276, -0.6611388628577834 
3.0200000000019487, -0.6604926079987512 
3.03000000000197, -0.6601451063162946 
3.040000000001991, -0.6599837780000047 
3.050000000002012, -0.6599273605802145 
3.060000000002033, -0.6599189339279627 
3.070000000002054, -0.6599191437080423 
3.0800000000020753, -0.6599008796221429 
3.0900000000020964, -0.6598460615542209 
3.1000000000021175, -0.6597445639942605 
3.1100000000021386, -0.6595944585030225 
3.1200000000021597, -0.6594018382872313 
3.130000000002181, -0.6591783452585858 
3.140000000002202, -0.6589359927049834 
3.150000000002223, -0.6586813402497554 
3.160000000002244, -0.6584123556916417 
3.1700000000022652, -0.6581199239192841 
3.1800000000022863, -0.657792961637307 
3.1900000000023074, -0.6574240221371597 
3.2000000000023285, -0.6570127575417837 
3.2100000000023496, -0.6565668586180083 
3.2200000000023707, -0.6561019579470138 
3.230000000002392, -0.6556422964886366 
3.240000000002413, -0.6552232113793194 
3.250000000002434, -0.6548956242784717 
3.260000000002455, -0.6547320621997552 
3.2700000000024763, -0.6548332141439936 
3.2800000000024974, -0.6553334099983661 
3.2900000000025185, -0.6564025230639478 
3.3000000000025396, -0.6582403726572473 
3.3100000000025607, -0.6610573975101451 
3.3200000000025818, -0.6650326501249321 
3.330000000002603, -0.6702408584823414 
3.340000000002624, -0.676554627282055 
3.350000000002645, -0.6835664335323004 
3.360000000002666, -0.69061790368942 
3.3700000000026873, -0.696992813757072 
3.3800000000027084, -0.7021834487147315 
3.3900000000027295, -0.7060341843427852 
3.4000000000027506, -0.7086798569566752 
3.4100000000027717, -0.7103841594257816 
3.420000000002793, -0.7114099376813232 
3.430000000002814, -0.7119618704659888 
3.440000000002835, -0.7121781247319463 
3.450000000002856, -0.7121404786345774 
3.460000000002877, -0.7118857769243088 
3.4700000000028983, -0.7114122871688281 
3.4800000000029194, -0.7106791624118818 
3.4900000000029405, -0.7095985593526704 
3.5000000000029616, -0.7080210238844467 
3.5100000000029827, -0.7057188071354635 
3.520000000003004, -0.7023831657776876 
3.530000000003025, -0.69767152114917 
3.540000000003046, -0.6913486405669276 
3.550000000003067, -0.6835074501249193 
3.5600000000030882, -0.6747152301563188 
3.5700000000031094, -0.6658862014727024 
3.5800000000031305, -0.6579157223112408 
3.5900000000031516, -0.6513640382661186 
3.6000000000031727, -0.6463854074527006 
3.6100000000031938, -0.6428435842269052 
3.620000000003215, -0.6404667391480804 
3.630000000003236, -0.6389594702297834 
3.640000000003257, -0.638060675109431 
3.650000000003278, -0.6375637058151307 
3.6600000000032993, -0.6373162673516278 
3.6700000000033204, -0.6372115986317956 
3.6800000000033415, -0.6371773062686155 
3.6900000000033626, -0.6371650113875036 
3.7000000000033837, -0.6371422137885674 
3.710000000003405, -0.6370868978481846 
3.720000000003426, -0.6369849325929303 
3.730000000003447, -0.636829813839679 
3.740000000003468, -0.6366234778696024 
3.750000000003489, -0.6363760899535064 
3.7600000000035103, -0.6361029176937418 
3.7700000000035314, -0.6358183629545462 
3.7800000000035525, -0.6355298287498594 
3.7900000000035736, -0.6352349443548493 
3.8000000000035947, -0.6349237489172682 
3.810000000003616, -0.6345843031568908 
3.820000000003637, -0.6342084194191784 
3.830000000003658, -0.6337950186584338 
3.840000000003679, -0.6333509592281557 
3.8500000000037002, -0.6328909283786597 
3.8600000000037213, -0.632438198170896 
3.8700000000037424, -0.6320273283195773 
3.8800000000037635, -0.631709130824101 
3.8900000000037847, -0.6315576867305316 
3.9000000000038058, -0.6316787383132912 
3.910000000003827, -0.6322180520218275 
3.920000000003848, -0.633366994505333 
3.930000000003869, -0.6353600725142013 
3.94000000000389, -0.6384550431537506 
3.9500000000039113, -0.6428812936726159 
3.9600000000039324, -0.6487428782530593 
3.9700000000039535, -0.6558853601867993 
3.9800000000039746, -0.6637954397320692 
3.9900000000039957, -0.6716597542664045 
4.000000000004016, -0.6786404491869823 
4.010000000003993, -0.6842054344957584 
4.02000000000397, -0.6882554620101595 
4.030000000003946, -0.6910008315774394 
4.040000000003923, -0.6927595098738977 
4.0500000000039, -0.6938224664075302 
4.0600000000038765, -0.6944060537261494 
4.070000000003853, -0.6946526391231395 
4.08000000000383, -0.6946455862519395 
4.090000000003807, -0.6944227730549581 
4.100000000003783, -0.6939838175148065 
4.11000000000376, -0.6932902701547646 
4.120000000003737, -0.6922592440327903 
4.130000000003713, -0.6907525420735625 
4.14000000000369, -0.6885683430717238 
4.150000000003667, -0.6854533540490542 
4.1600000000036434, -0.6811652317034287 
4.17000000000362, -0.6756031334830475 
4.180000000003597, -0.6689562710061638 
4.1900000000035735, -0.6617392709293957 
4.20000000000355, -0.6546323027394887 
4.210000000003527, -0.6482292956618241 
4.220000000003504, -0.6428773982953346 
4.23000000000348, -0.6386700081346303 
4.240000000003457, -0.6355273352945676 
4.250000000003434, -0.6332851330765108 
4.26000000000341, -0.6317566676964247 
4.270000000003387, -0.6307664879112573 
4.280000000003364, -0.6301651025607343 
4.2900000000033405, -0.6298328866971219 
4.300000000003317, -0.6296784659910319 
4.310000000003294, -0.6296345665724115 
4.320000000003271, -0.6296530900936668 
4.330000000003247, -0.6297005398267965 
4.340000000003224, -0.6297545182300033 
4.350000000003201, -0.6298016093100689 
4.360000000003177, -0.6298363864188737 
4.370000000003154, -0.6298605513759659 
4.380000000003131, -0.6298807335426542 
4.390000000003107, -0.6299040125062014 
4.400000000003084, -0.6299320216481135 
4.410000000003061, -0.6299564371627724 
4.4200000000030375, -0.6299589014836496 
4.430000000003014, -0.6299161486855365 
4.440000000002991, -0.6298076940171351 
4.450000000002968, -0.6296218213866693 
4.460000000002944, -0.6293573417421116 
4.470000000002921, -0.6290219292413035 
4.480000000002898, -0.6286297624360435 
4.490000000002874, -0.6282009124433408 
4.500000000002851, -0.6277637903102189 
4.510000000002828, -0.6273612433158353 
4.520000000002804, -0.6270607267938175 
4.530000000002781, -0.6269688460804467 
4.540000000002758, -0.6272496905312205 
4.5500000000027345, -0.6281437107004857 
4.560000000002711, -0.6299778725485354 
4.570000000002688, -0.6331469972825017 
4.580000000002665, -0.6380331094268679 
4.590000000002641, -0.6448317873369827 
4.600000000002618, -0.6533135924194681 
4.610000000002595, -0.6626840001964329 
4.620000000002571, -0.6717746382985494 
4.630000000002548, -0.6795488498754464 
4.640000000002525, -0.6855171052586699 
4.6500000000025015, -0.6897419235630686 
4.660000000002478, -0.6925707825475457 
4.670000000002455, -0.6943907171376346 
4.6800000000024315, -0.6955151501996761 
4.690000000002408, -0.6961639099993648 
4.700000000002385, -0.6964786636211036 
4.710000000002362, -0.6965431019825471 
4.720000000002338, -0.6963977904888704 
4.730000000002315, -0.6960480657815048 
4.740000000002292, -0.6954657353807999 
4.750000000002268, -0.6945861139203002 
4.760000000002245, -0.6933036261391079 
4.770000000002222, -0.6914734756804666 
4.7800000000021985, -0.6889332287428723 
4.790000000002175, -0.6855590334447706 
4.800000000002152, -0.6813505810970024 
4.810000000002129, -0.6764955579704688 
4.820000000002105, -0.6713474379125735 
4.830000000002082, -0.6663122723920578 
4.840000000002059, -0.6617227357785997 
4.850000000002035, -0.6577753286550634 
4.860000000002012, -0.6545375925081421 
4.870000000001989, -0.6519881590440162 
4.880000000001965, -0.6500569839609404 
4.890000000001942, -0.6486534222903918 
4.900000000001919, -0.6476826755754626 
4.9100000000018955, -0.6470547186488678 
4.920000000001872, -0.6466890467531918 
