t, s[1].omega / s[0].omega 
0, -1.0299982293172147 
0.009999999999999995, -1.0297301127118597 
0.019999999999999934, -1.0292785944187268 
0.029999999999999874, -1.0286622031867316 
0.04000000000000012, -1.0279625293000865 
0.050000000000000405, -1.0273240187507777 
0.06000000000000069, -1.0268954301806263 
0.07000000000000098, -1.0267545611243782 
0.08000000000000126, -1.0268669976690175 
0.09000000000000155, -1.0270911737344512 
0.10000000000000184, -1.0272564934832003 
0.11000000000000212, -1.027246683288654 
0.12000000000000241, -1.0270238959700557 
0.130000000000002, -1.0266047471826882 
0.1400000000000009, -1.0260124744191197 
0.1499999999999998, -1.0252666707812468 
0.1599999999999987, -1.0244227902224023 
0.1699999999999976, -1.023598482377739 
0.1799999999999965, -1.0229447177965738 
0.1899999999999954, -1.0225799013999886 
0.1999999999999943, -1.022520798220894 
0.2099999999999932, -1.0226446413123202 
0.2199999999999921, -1.0227577406835906 
0.229999999999991, -1.0227035690900175 
0.2399999999999899, -1.0224061847434538 
0.2499999999999888, -1.0218702303445546 
0.2599999999999877, -1.0211411430362585 
0.2699999999999866, -1.0202581804230393 
0.2799999999999855, -1.0192666180470464 
0.2899999999999844, -1.0182597184952165 
0.2999999999999833, -1.01738245604293 
0.3099999999999822, -1.0167845951142813 
0.3199999999999811, -1.0165395255566 
0.32999999999998, -1.016562627048779 
0.3399999999999789, -1.0166487841560763 
0.3499999999999778, -1.0166028897584052 
0.35999999999997667, -1.016304619392301 
0.36999999999997557, -1.015722594692176 
0.37999999999997447, -1.014902778336519 
0.38999999999997337, -1.0139098918772562 
0.39999999999997227, -1.0127962144380396 
0.40999999999997117, -1.0116362238053385 
0.41999999999997006, -1.0105588827027878 
0.42999999999996896, -1.0097285687425224 
0.43999999999996786, -1.0092724214652546 
0.44999999999996676, -1.0091691499422013 
0.45999999999996566, -1.0092283400174502 
0.46999999999996456, -1.0092234435291318 
0.47999999999996346, -1.0089921390464096 
0.48999999999996235, -1.0084567401144522 
0.49999999999996125, -1.007635185888405 
0.5099999999999602, -1.0066040916465706 
0.519999999999959, -1.005433438974497 
0.529999999999958, -1.0041881095676883 
0.5399999999999568, -1.0029732168232082 
0.5499999999999557, -1.0019457728587768 
0.5599999999999546, -1.00126745110989 
0.5699999999999535, -1.0009958960353311 
0.5799999999999524, -1.0009985844981821 
0.5899999999999513, -1.0010388096210407 
0.5999999999999502, -1.0009167240119343 
0.6099999999999491, -1.000511963587404 
0.619999999999948, -0.9997972868580216 
0.6299999999999469, -0.9988338770281144 
0.6399999999999458, -0.9977050822649725 
0.6499999999999447, -0.9964753564958756 
0.6599999999999436, -0.9952244143953557 
0.6699999999999425, -0.9940833442424157 
0.6799999999999414, -0.9932175531712242 
0.6899999999999403, -0.992748950592299 
0.6999999999999392, -0.9926424921180474 
0.7099999999999381, -0.9926988231657425 
0.719999999999937, -0.9926925324596272 
0.7299999999999359, -0.9924659687543654 
0.7399999999999348, -0.991947148557591 
0.7499999999999337, -0.9911591152430823 
0.7599999999999326, -0.9901796520207657 
0.7699999999999315, -0.9890753913172937 
0.7799999999999304, -0.9879049922394927 
0.7899999999999293, -0.9867650852629537 
0.7999999999999282, -0.9858004255067366 
0.8099999999999271, -0.985158319786791 
0.819999999999926, -0.9848980136775024 
0.8299999999999249, -0.9849139822699309 
0.8399999999999238, -0.9849943970815146 
0.8499999999999227, -0.9849501083721941 
0.8599999999999216, -0.9846699307886676 
0.8699999999999205, -0.984132115391239 
0.8799999999999194, -0.983388029095487 
0.8899999999999183, -0.9824996949139432 
0.8999999999999172, -0.9815102320274167 
0.9099999999999161, -0.9804814340583277 
0.919999999999915, -0.979526827934702 
0.9299999999999139, -0.9787903502729545 
0.9399999999999128, -0.9783828665405884 
0.9499999999999117, -0.9783042919710031 
0.9599999999999106, -0.9784154083136863 
0.9699999999999095, -0.9785228039497016 
0.9799999999999084, -0.9784797728803873 
0.9899999999999073, -0.9782217465987861 
0.9999999999999062, -0.9777622540120127 
1.0099999999999052, -0.9771472560299221 
1.019999999999904, -0.9764069067677431 
1.029999999999903, -0.9755715765223391 
1.039999999999902, -0.9747180222641458 
1.0499999999999008, -0.9739758022053397 
1.0599999999998997, -0.973478266448489 
1.0699999999998986, -0.9732945015338093 
1.0799999999998975, -0.9733799359399672 
1.0899999999998964, -0.9735871943140996 
1.0999999999998953, -0.9737522059453978 
1.1099999999998942, -0.9737699588461202 
1.119999999999893, -0.9736125987235003 
1.129999999999892, -0.9733003534244824 
1.1399999999998909, -0.9728493654337632 
1.1499999999998898, -0.9722633297188197 
1.1599999999998887, -0.971578739497733 
1.1699999999998876, -0.970897702529056 
1.1799999999998865, -0.970366268850896 
1.1899999999998854, -0.9701036603647999 
1.1999999999998843, -0.9701385777648386 
1.2099999999998832, -0.9703938626664063 
1.219999999999882, -0.97072522192907 
1.229999999999881, -0.9709990587171162 
1.2399999999998799, -0.9711451741375707 
1.2499999999998788, -0.9711513515057095 
1.2599999999998777, -0.9710164319146541 
1.2699999999998766, -0.970721330434153 
1.2799999999998755, -0.9702629857142187 
1.2899999999998744, -0.9697028015082075 
1.2999999999998733, -0.9691761562575332 
1.3099999999998722, -0.9688482196906253 
1.319999999999871, -0.9688238063499196 
1.32999999999987, -0.9690922378772964 
1.3399999999998689, -0.9695485682037484 
1.3499999999998678, -0.9700538782649619 
1.3599999999998666, -0.9705007813902049 
1.3699999999998655, -0.9708393841579962 
1.3799999999998644, -0.9710464946867605 
1.3899999999998633, -0.9710823874131648 
1.3999999999998622, -0.9709061217995988 
1.4099999999998611, -0.9705339969232372 
1.41999999999986, -0.9700665547581352 
1.429999999999859, -0.969678607263743 
1.4399999999998578, -0.9695583481648319 
1.4499999999998567, -0.9697944634278585 
1.4599999999998556, -0.9703334705853183 
1.4699999999998545, -0.9710418997470347 
1.4799999999998534, -0.9717841256890412 
1.4899999999998523, -0.9724697609861055 
1.4999999999998512, -0.973047353549643 
1.5099999999998501, -0.973457550902803 
1.519999999999849, -0.973622844571342 
1.529999999999848, -0.9735107710977076 
1.5399999999998468, -0.9731814471720649 
1.5499999999998457, -0.9727820880876548 
1.5599999999998446, -0.9725327029771422 
1.5699999999998435, -0.9726460272701752 
1.5799999999998424, -0.9731850611683077 
1.5899999999998413, -0.9740443185393194 
1.5999999999998402, -0.9750594540655219 
1.6099999999998391, -0.9760946139422761 
1.619999999999838, -0.9770617866407335 
1.629999999999837, -0.9778815415796692 
1.6399999999998358, -0.9784452703962102 
1.6499999999998347, -0.9786650451410668 
1.6599999999998336, -0.9785556992085166 
1.6699999999998325, -0.9782335940620778 
1.6799999999998314, -0.9778950367341959 
1.6899999999998303, -0.9778105571103921 
1.6999999999998292, -0.978206675681844 
1.709999999999828, -0.9790955448612615 
1.719999999999827, -0.9803082700998393 
1.729999999999826, -0.981652363603033 
1.7399999999998248, -0.9829892354860853 
1.7499999999998237, -0.9842145743865323 
1.7599999999998226, -0.9852005638904903 
1.7699999999998215, -0.9858067968037953 
1.7799999999998204, -0.9859863120488841 
1.7899999999998193, -0.9858256906922052 
1.7999999999998182, -0.985493338395612 
1.809999999999817, -0.9852380377456644 
1.819999999999816, -0.985377262488663 
1.8299999999998149, -0.9861099834948194 
1.8399999999998138, -0.9873574267604669 
1.8499999999998127, -0.9888885528740653 
1.8599999999998116, -0.9904988643012701 
1.8699999999998105, -0.9920474199340432 
1.8799999999998094, -0.9933989471589795 
1.8899999999998083, -0.9943849355261838 
1.8999999999998072, -0.9948880817635269 
1.909999999999806, -0.9949439407517883 
1.919999999999805, -0.9947017411438553 
1.9299999999998039, -0.9943733597980499 
1.9399999999998028, -0.9942649487362706 
1.9499999999998017, -0.9947012528846528 
1.9599999999998006, -0.9957733741092571 
1.9699999999997995, -0.9972891775721808 
1.9799999999997984, -0.9989908329898535 
1.9899999999997973, -1.0006905515011935 
1.9999999999997962, -1.0022482834549373 
2.0099999999998173, -1.003502601432539 
2.0199999999998384, -1.00429126183591 
2.0299999999998595, -1.0045749625549418 
2.0399999999998806, -1.0044657300699364 
2.0499999999999017, -1.0041496141928976 
2.059999999999923, -1.0038855317532371 
2.069999999999944, -1.0040151966175488 
2.079999999999965, -1.0047681381413227 
2.089999999999986, -1.0060632534508815 
2.100000000000007, -1.0076426163277117 
2.1100000000000283, -1.0092813376679892 
2.1200000000000494, -1.0108304254339189 
2.1300000000000705, -1.0121562331088532 
2.1400000000000916, -1.013101281933324 
2.1500000000001127, -1.0135632436229391 
2.160000000000134, -1.0135864396744565 
2.170000000000155, -1.0133230059605098 
2.180000000000176, -1.0129892620315017 
2.190000000000197, -1.0128870357613615 
2.2000000000002182, -1.013298298653787 
2.2100000000002393, -1.014255276979305 
2.2200000000002604, -1.0155541357907552 
2.2300000000002815, -1.0169635210782244 
2.2400000000003026, -1.01832470251008 
2.2500000000003237, -1.0195284119537102 
2.260000000000345, -1.0204564977775605 
2.270000000000366, -1.0209907977101362 
2.280000000000387, -1.0211050852746963 
2.290000000000408, -1.0208953119643227 
2.3000000000004293, -1.0205368284869631 
2.3100000000004504, -1.0202813298700972 
2.3200000000004715, -1.0204031434556036 
2.3300000000004926, -1.0210068748265122 
2.3400000000005137, -1.0219638387434653 
2.3500000000005348, -1.0230671281785497 
2.360000000000556, -1.0241536021498652 
2.370000000000577, -1.02512255193112 
2.380000000000598, -1.0258956003168753 
2.390000000000619, -1.0263810784650262 
2.4000000000006403, -1.026516087851012 
2.4100000000006614, -1.0263331365753312 
2.4200000000006825, -1.025958894456142 
2.4300000000007036, -1.0255974152201792 
2.4400000000007247, -1.025492368714216 
2.450000000000746, -1.0257826538973855 
2.460000000000767, -1.0264096886591647 
2.470000000000788, -1.0272082088144066 
2.480000000000809, -1.0280172913580548 
2.49000000000083, -1.028729536646346 
2.5000000000008513, -1.0292857375306768 
2.5100000000008724, -1.0296326141383485 
2.5200000000008935, -1.0297119157369616 
2.5300000000009146, -1.029512082897314 
2.5400000000009357, -1.0291076797527556 
2.550000000000957, -1.0286564459389418 
2.560000000000978, -1.0283670592317287 
2.570000000000999, -1.028391592485377 
2.58000000000102, -1.0287292819958782 
2.5900000000010412, -1.0292618722948284 
2.6000000000010624, -1.0298353874199266 
2.6100000000010835, -1.0303257218436965 
2.6200000000011046, -1.0306688987464547 
2.6300000000011257, -1.0308373119903749 
2.6400000000011468, -1.0308003114374034 
2.650000000001168, -1.030534314640967 
2.660000000001189, -1.0300717553780552 
2.67000000000121, -1.0295255872643023 
2.680000000001231, -1.0290704040466805 
2.6900000000012523, -1.028862285296771 
2.7000000000012734, -1.0289482787140243 
2.7100000000012945, -1.029257885598115 
2.7200000000013156, -1.0296476895083428 
2.7300000000013367, -1.0299720848766805 
2.740000000001358, -1.030143607785928 
2.750000000001379, -1.0301373016991993 
2.7600000000014, -1.0299506187820733 
2.770000000001421, -1.029574599801669 
2.780000000001442, -1.0290203829240985 
2.7900000000014633, -1.0283621895197617 
2.8000000000014844, -1.0277420989585815 
2.8100000000015055, -1.0273157521784324 
2.8200000000015266, -1.0271713350226461 
2.8300000000015477, -1.0272872647597782 
2.840000000001569, -1.0275358193257684 
2.85000000000159, -1.0277495908786045 
2.860000000001611, -1.0278065478406195 
2.870000000001632, -1.0276610373625965 
2.8800000000016532, -1.0273225224915368 
2.8900000000016743, -1.0268087174788538 
2.9000000000016954, -1.0261331352092262 
2.9100000000017165, -1.0253436037157302 
2.9200000000017377, -1.0245518866718222 
2.9300000000017588, -1.0239088554311737 
2.94000000000178, -1.0235378450966683 
2.950000000001801, -1.0234691249996746 
2.960000000001822, -1.0236003676169478 
2.970000000001843, -1.0237468313770866 
2.9800000000018643, -1.0237481886035478 
2.9900000000018854, -1.023521406476994 
3.0000000000019065, -1.0230629795083968 
3.0100000000019276, -1.0224116186087204 
3.0200000000019487, -1.0216015238133898 
3.03000000000197, -1.0206714803676742 
3.040000000001991, -1.0197072538579375 
3.050000000002012, -1.0188488065669985 
3.060000000002033, -1.01824547753021 
3.070000000002054, -1.0179815288334573 
3.0800000000020753, -1.0179963760507273 
3.0900000000020964, -1.0181000004522038 
3.1000000000021175, -1.0180956908147418 
3.1100000000021386, -1.0178568521572942 
3.1200000000021597, -1.017344146562157 
3.130000000002181, -1.0165951871612275 
3.140000000002202, -1.0156695867801522 
3.150000000002223, -1.014615166829919 
3.160000000002244, -1.013499630020012 
3.1700000000022652, -1.012444824262972 
3.1800000000022863, -1.0116109996397025 
3.1900000000023074, -1.0111312461464181 
3.2000000000023285, -1.011006819932584 
3.2100000000023496, -1.0110675831842106 
3.2200000000023707, -1.011088565381345 
3.230000000002392, -1.0109013521761767 
3.240000000002413, -1.0104209449039023 
3.250000000002434, -1.009656108739787 
3.260000000002455, -1.0086773972775276 
3.2700000000024763, -1.0075524234200985 
3.2800000000024974, -1.006342067528685 
3.2900000000025185, -1.0051450435198797 
3.3000000000025396, -1.0041131228376854 
3.3100000000025607, -1.0034095376752525 
3.3200000000025818, -1.0031081153509898 
3.330000000002603, -1.0030978431779476 
3.340000000002624, -1.0031480133559776 
3.350000000002645, -1.003053054189458 
3.360000000002666, -1.0026853032940442 
3.3700000000026873, -1.002008395518808 
3.3800000000027084, -1.0010762565657991 
3.3900000000027295, -0.9999711326085722 
3.4000000000027506, -0.9987572886546005 
3.4100000000027717, -0.997510793725949 
3.420000000002793, -0.9963582453368829 
3.430000000002814, -0.9954646648257349 
3.440000000002835, -0.9949611317352804 
3.450000000002856, -0.9948299580803732 
3.460000000002877, -0.9948813224203963 
3.4700000000028983, -0.9948860389494091 
3.4800000000029194, -0.9946788216588244 
3.4900000000029405, -0.9941788880053192 
3.5000000000029616, -0.9934011425922454 
3.5100000000029827, -0.9924221074212713 
3.520000000003004, -0.9913115651460449 
3.530000000003025, -0.9901283314527527 
3.540000000003046, -0.9889659750953206 
3.550000000003067, -0.9879679924902535 
3.5600000000030882, -0.9872865966822058 
3.5700000000031094, -0.9869925765102883 
3.5800000000031305, -0.9869902927852209 
3.5900000000031516, -0.9870672255909748 
3.6000000000031727, -0.9870270868845538 
3.6100000000031938, -0.9867502785099952 
3.620000000003215, -0.9862067057611924 
3.630000000003236, -0.9854451335420452 
3.640000000003257, -0.9845322081475087 
3.650000000003278, -0.9835150113781005 
3.6600000000032993, -0.9824543354952607 
3.6700000000033204, -0.9814612766878837 
3.6800000000033415, -0.9806812484477416 
3.6900000000033626, -0.9802324532739224 
3.7000000000033837, -0.9801235880403453 
3.710000000003405, -0.9802176441057092 
3.720000000003426, -0.9803158822581749 
3.730000000003447, -0.980263818217619 
3.740000000003468, -0.9799890092106449 
3.750000000003489, -0.9795009309271872 
3.7600000000035103, -0.97884948163832 
3.7700000000035314, -0.9780714781886267 
3.7800000000035525, -0.9771991230970467 
3.7900000000035736, -0.9763064260256665 
3.8000000000035947, -0.9755205354173986 
3.810000000003616, -0.9749771526172538 
3.820000000003637, -0.9747523901464241 
3.830000000003658, -0.9748069242788988 
3.840000000003679, -0.9749915603944952 
3.8500000000037002, -0.9751358110953111 
3.8600000000037213, -0.9751275649409924 
3.8700000000037424, -0.9749341628810383 
3.8800000000037635, -0.9745779116678641 
3.8900000000037847, -0.9740826221558772 
3.9000000000038058, -0.9734569072989706 
3.910000000003827, -0.9727357816970715 
3.920000000003848, -0.9720167682330705 
3.930000000003869, -0.9714424839944229 
3.94000000000389, -0.9711336319812492 
3.9500000000039113, -0.9711247884218676 
3.9600000000039324, -0.9713422750591332 
3.9700000000039535, -0.9716391285852984 
3.9800000000039746, -0.9718760128979083 
3.9900000000039957, -0.971977851306012 
4.000000000004016, -0.9719326552742737 
4.010000000003993, -0.9717464817376862 
4.02000000000397, -0.971407991950403 
4.030000000003946, -0.9709150137430282 
4.040000000003923, -0.9703241665708469 
4.0500000000039, -0.9697644155606492 
4.0600000000038765, -0.969395427556851 
4.070000000003853, -0.9693217539796095 
4.08000000000383, -0.9695380713125035 
4.090000000003807, -0.9699432282066214 
4.100000000003783, -0.9703967029751837 
4.11000000000376, -0.9707872745920348 
4.120000000003737, -0.9710640302819995 
4.130000000003713, -0.9712096620104611 
4.14000000000369, -0.9711943977659526 
4.150000000003667, -0.9709816575851872 
4.1600000000036434, -0.9705834509709473 
4.17000000000362, -0.9700929301957829 
4.180000000003597, -0.9696766059726684 
4.1900000000035735, -0.9695143915403437 
4.20000000000355, -0.9696932519815162 
4.210000000003527, -0.9701659894119568 
4.220000000003504, -0.9708047963817843 
4.23000000000348, -0.9714745500792713 
4.240000000003457, -0.9720841175010325 
4.250000000003434, -0.972586307209905 
4.26000000000341, -0.9729327097223017 
4.270000000003387, -0.9730546706477624 
4.280000000003364, -0.9729172476426324 
4.2900000000033405, -0.9725714614605845 
4.300000000003317, -0.9721556900283516 
4.310000000003294, -0.9718795127546205 
4.320000000003271, -0.9719449277099133 
4.330000000003247, -0.9724138465700538 
4.340000000003224, -0.9731898756865678 
4.350000000003201, -0.974116750280745 
4.360000000003177, -0.9750615176098212 
4.370000000003154, -0.9759396181490431 
4.380000000003131, -0.9766817967131535 
4.390000000003107, -0.9771922388779857 
4.400000000003084, -0.9773847747108361 
4.410000000003061, -0.9772635225438774 
4.4200000000030375, -0.9769336098344686 
4.430000000003014, -0.9765818848087436 
4.440000000002991, -0.9764662609331805 
4.450000000002968, -0.9768032147642661 
4.460000000002944, -0.9776090018856666 
4.470000000002921, -0.9787276632818824 
4.480000000002898, -0.9799757855763448 
4.490000000002874, -0.9812193907684149 
4.500000000002851, -0.9823620903970887 
4.510000000002828, -0.9832896690025846 
4.520000000002804, -0.983868676815637 
4.530000000002781, -0.9840423751517346 
4.540000000002758, -0.9838825186708811 
4.5500000000027345, -0.9835475237852667 
4.560000000002711, -0.983275642306266 
4.570000000002688, -0.9833720119756706 
4.580000000002665, -0.9840345464844371 
4.590000000002641, -0.9851982491736554 
4.600000000002618, -0.986645677255499 
4.610000000002595, -0.9881783988974678 
4.620000000002571, -0.9896600682535757 
4.630000000002548, -0.9909653007810986 
4.640000000002525, -0.9919346936307264 
4.6500000000025015, -0.9924447089604438 
4.660000000002478, -0.9925141867967618 
4.670000000002455, -0.9922807621621846 
4.6800000000024315, -0.9919478213800831 
4.690000000002408, -0.991810167609795 
4.700000000002385, -0.9921902717084043 
4.710000000002362, -0.9931966804126405 
4.720000000002338, -0.9946558790094168 
4.730000000002315, -0.9963156044757905 
4.740000000002292, -0.997987420359331 
4.750000000002268, -0.9995338340187288 
4.760000000002245, -1.0007992134473849 
4.770000000002222, -1.0016180346458998 
4.7800000000021985, -1.0019352916482296 
4.790000000002175, -1.0018502817300032 
4.800000000002152, -1.0015425349176863 
4.810000000002129, -1.001261634272076 
4.820000000002105, -1.001345634305936 
4.830000000002082, -1.0020458457089376 
4.840000000002059, -1.0033098532570042 
4.850000000002035, -1.004886622012252 
4.860000000002012, -1.0065442518652152 
4.870000000001989, -1.0081277883311743 
4.880000000001965, -1.0095026590136225 
4.890000000001942, -1.0105081968665932 
4.900000000001919, -1.0110289514481676 
4.9100000000018955, -1.0110959959237285 
4.920000000001872, -1.0108561412991428 
4.930000000001849, -1.010519423354384 
