t, s[1].omega / s[0].omega 
0, -1.0000836344998592 
0.009999999999999995, -1.007754457659684 
0.019999999999999934, -1.0137893699456657 
0.029999999999999874, -1.0181100485762735 
0.04000000000000012, -1.020945996009541 
0.050000000000000405, -1.0226510246552 
0.06000000000000069, -1.0235609922134097 
0.07000000000000098, -1.0239311281737462 
0.08000000000000126, -1.023931186401497 
0.09000000000000155, -1.0236660369197828 
0.10000000000000184, -1.023204286636685 
0.11000000000000212, -1.0226132406880877 
0.12000000000000241, -1.0220064241388425 
0.130000000000002, -1.0216050859421892 
0.1400000000000009, -1.0217894978881552 
0.1499999999999998, -1.0230765212684594 
0.1599999999999987, -1.0259621664724852 
0.1699999999999976, -1.0306726035134441 
0.1799999999999965, -1.0369930384277282 
0.1899999999999954, -1.0443071487210378 
0.1999999999999943, -1.0518044703946219 
0.2099999999999932, -1.0587190225843885 
0.2199999999999921, -1.0645058258500708 
0.229999999999991, -1.0689219366496554 
0.2399999999999899, -1.0720043311934262 
0.2499999999999888, -1.073968609809779 
0.2599999999999877, -1.0750881707017061 
0.2699999999999866, -1.0756090064322963 
0.2799999999999855, -1.0757157791001033 
0.2899999999999844, -1.0755346222222477 
0.2999999999999833, -1.075154456277901 
0.3099999999999822, -1.074658013713384 
0.3199999999999811, -1.0741602421253136 
0.32999999999998, -1.0738459025716238 
0.3399999999999789, -1.0739790307106503 
0.3499999999999778, -1.0748466207179423 
0.35999999999997667, -1.0766390850764833 
0.36999999999997557, -1.0793462916008767 
0.37999999999997447, -1.0827547475196906 
0.38999999999997337, -1.0865370503717058 
0.39999999999997227, -1.0903541026539485 
0.40999999999997117, -1.093916940547785 
0.41999999999997006, -1.0970107087962462 
0.42999999999996896, -1.0995032128890825 
0.43999999999996786, -1.1013480560442357 
0.44999999999996676, -1.1025768463811187 
0.45999999999996566, -1.1032754091837877 
0.46999999999996456, -1.1035515951453228 
0.47999999999996346, -1.1035093988805968 
0.48999999999996235, -1.1032386872940667 
0.49999999999996125, -1.1028206883056826 
0.5099999999999602, -1.1023437687809003 
0.519999999999959, -1.1019197144151613 
0.529999999999958, -1.1016851525820068 
0.5399999999999568, -1.1017743164873606 
0.5499999999999557, -1.102270568091265 
0.5599999999999546, -1.1031709592080825 
0.5699999999999535, -1.1043920142976489 
0.5799999999999524, -1.1058073477241712 
0.5899999999999513, -1.107286874094545 
0.5999999999999502, -1.1087194777317042 
0.6099999999999491, -1.1100193470880737 
0.619999999999948, -1.1111235249165827 
0.6299999999999469, -1.1119877666661604 
0.6399999999999458, -1.1125848660652662 
0.6499999999999447, -1.1129057941682858 
0.6599999999999436, -1.1129608138989042 
0.6699999999999425, -1.1127777375738186 
0.6799999999999414, -1.1123978875895477 
0.6899999999999403, -1.1118732559247273 
0.6999999999999392, -1.111267182955647 
0.7099999999999381, -1.1106561042576872 
0.719999999999937, -1.1101256269144149 
0.7299999999999359, -1.1097559212303558 
0.7399999999999348, -1.109600776217319 
0.7499999999999337, -1.10967261644222 
0.7599999999999326, -1.1099416973852747 
0.7699999999999315, -1.110347230801718 
0.7799999999999304, -1.1108136294750997 
0.7899999999999293, -1.1112660014951798 
0.7999999999999282, -1.1116406826941738 
0.8099999999999271, -1.1118894298411495 
0.819999999999926, -1.1119791199395255 
0.8299999999999249, -1.1118896533017426 
0.8399999999999238, -1.1116116258886843 
0.8499999999999227, -1.1111445213077489 
0.8599999999999216, -1.1104961355442906 
0.8699999999999205, -1.1096836428761154 
0.8799999999999194, -1.1087359734451232 
0.8899999999999183, -1.1076965725534005 
0.8999999999999172, -1.1066249463845503 
0.9099999999999161, -1.1055945089010915 
0.919999999999915, -1.1046844131032512 
0.9299999999999139, -1.1039651887089548 
0.9399999999999128, -1.1034808805765375 
0.9499999999999117, -1.103233503662997 
0.9599999999999106, -1.103178666261001 
0.9699999999999095, -1.1032379792003264 
0.9799999999999084, -1.103321685985185 
0.9899999999999073, -1.1033470504600333 
0.9999999999999062, -1.1032446946230394 
1.0099999999999052, -1.1029566571505967 
1.019999999999904, -1.1024342181418323 
1.029999999999903, -1.1016401472343027 
1.039999999999902, -1.1005543117781658 
1.0499999999999008, -1.0991781700639018 
1.0599999999998997, -1.0975351254334251 
1.0699999999998986, -1.0956682612821036 
1.0799999999998975, -1.093639464156212 
1.0899999999998964, -1.0915318519164614 
1.0999999999998953, -1.0894529731097942 
1.1099999999998942, -1.0875323112004343 
1.119999999999893, -1.0859048915350566 
1.129999999999892, -1.0846769822752234 
1.1399999999998909, -1.0838848890557977 
1.1499999999998898, -1.0834749261164354 
1.1599999999998887, -1.0833250367907081 
1.1699999999998876, -1.0832929353278138 
1.1799999999998865, -1.0832545173768602 
1.1899999999998854, -1.0831135817740392 
1.1999999999998843, -1.0827903084920725 
1.2099999999998832, -1.0822044650452745 
1.219999999999882, -1.0812651039459784 
1.229999999999881, -1.0798735364182037 
1.2399999999998799, -1.0779418609808087 
1.2499999999998788, -1.075421578889993 
1.2599999999998777, -1.0723287507581012 
1.2699999999998766, -1.068753778376445 
1.2799999999998755, -1.064856511703305 
1.2899999999998744, -1.0608561366320097 
1.2999999999998733, -1.0570185301693313 
1.3099999999998722, -1.0536289469836202 
1.319999999999871, -1.050934443599798 
1.32999999999987, -1.0490644976956283 
1.3399999999998689, -1.0479779779987104 
1.3499999999998678, -1.0474869441429282 
1.3599999999998666, -1.047345771098991 
1.3699999999998655, -1.047337769809666 
1.3799999999998644, -1.0473102599282405 
1.3899999999998633, -1.0471628693488415 
1.3999999999998622, -1.0468171377296032 
1.4099999999998611, -1.046186994932596 
1.41999999999986, -1.0451576294662164 
1.429999999999859, -1.043577646487775 
1.4399999999998578, -1.0412729253437716 
1.4499999999998567, -1.038089775694635 
1.4599999999998556, -1.033960199822709 
1.4699999999998545, -1.028959998158024 
1.4799999999998534, -1.0233276189908989 
1.4899999999998523, -1.017437525964557 
1.4999999999998512, -1.011744360868144 
1.5099999999998501, -1.006707721838939 
1.519999999999849, -1.00269563082025 
1.529999999999848, -0.9998838479417704 
1.5399999999998468, -0.9982056561452112 
1.5499999999998457, -0.9974001274223661 
1.5599999999998446, -0.9971343620139044 
1.5699999999998435, -0.9971170813406515 
1.5799999999998424, -0.9971468206694322 
1.5899999999998413, -0.9971011355089405 
1.5999999999998402, -0.9969014314574803 
1.6099999999998391, -0.9964780958151923 
1.619999999999838, -0.9957441204705739 
1.629999999999837, -0.9945789246121771 
1.6399999999998358, -0.992826912501853 
1.6499999999998347, -0.9903201937464964 
1.6599999999998336, -0.9869310137032237 
1.6699999999998325, -0.9826392730775915 
1.6799999999998314, -0.9775781086130811 
1.6899999999998303, -0.972027502784033 
1.6999999999998292, -0.9663628640346904 
1.709999999999828, -0.9609887448514115 
1.719999999999827, -0.9562753173303353 
1.729999999999826, -0.9524964853898048 
1.7399999999998248, -0.9497740235322644 
1.7499999999998237, -0.9480528746601797 
1.7599999999998226, -0.9471331194283253 
1.7699999999998215, -0.9467491693111045 
1.7799999999998204, -0.9466515133503208 
1.7899999999998193, -0.9466516231202634 
1.7999999999998182, -0.9466247622507995 
1.809999999999817, -0.9464891818466509 
1.819999999999816, -0.9461807455439472 
1.8299999999998149, -0.945633008072303 
1.8399999999998138, -0.9447668824410288 
1.8499999999998127, -0.9434932582050944 
1.8599999999998116, -0.9417314599225467 
1.8699999999998105, -0.9394401206180145 
1.8799999999998094, -0.9366454137436205 
1.8899999999998083, -0.9334475201792314 
1.8999999999998072, -0.93000062836698 
1.909999999999806, -0.9264817234228186 
1.919999999999805, -0.9230664001972038 
1.9299999999998039, -0.9199163737412995 
1.9399999999998028, -0.9171711492386256 
1.9499999999998017, -0.9149353303780104 
1.9599999999998006, -0.913260827171434 
1.9699999999997995, -0.9121328298366416 
1.9799999999997984, -0.911471710004294 
1.9899999999997973, -0.9111548664676133 
1.9999999999997962, -0.9110486448023325 
2.0099999999998173, -0.911034329795363 
2.0199999999998384, -0.9110189836772058 
2.0299999999998595, -0.9109329435941687 
2.0399999999998806, -0.9107216074993344 
2.0499999999999017, -0.910338793303452 
2.059999999999923, -0.9097459899521384 
2.069999999999944, -0.9089180622009201 
2.079999999999965, -0.9078515650966086 
2.089999999999986, -0.9065688433136849 
2.100000000000007, -0.9051134276350391 
2.1100000000000283, -0.9035393029783669 
2.1200000000000494, -0.90190129393887 
2.1300000000000705, -0.9002514705629103 
2.1400000000000916, -0.8986408352215364 
2.1500000000001127, -0.8971222546062064 
2.160000000000134, -0.8957508311506744 
2.170000000000155, -0.8945798459772195 
2.180000000000176, -0.8936526360342583 
2.190000000000197, -0.8929928634932504 
2.2000000000002182, -0.8925971315737671 
2.2100000000002393, -0.8924337936892253 
2.2200000000002604, -0.8924493004673385 
2.2300000000002815, -0.8925795342828037 
2.2400000000003026, -0.8927612028579583 
2.2500000000003237, -0.8929394678401191 
2.260000000000345, -0.8930712158937141 
2.270000000000366, -0.8931257122845697 
2.280000000000387, -0.8930842867485065 
2.290000000000408, -0.8929391229822331 
2.3000000000004293, -0.8926903467652295 
2.3100000000004504, -0.8923417509724436 
2.3200000000004715, -0.8918974005352789 
2.3300000000004926, -0.8913614054195215 
2.3400000000005137, -0.8907408670695357 
2.3500000000005348, -0.8900498753058701 
2.360000000000556, -0.8893125238688029 
2.370000000000577, -0.8885643295896269 
2.380000000000598, -0.8878520327873805 
2.390000000000619, -0.8872310773061424 
2.4000000000006403, -0.8867596243014482 
2.4100000000006614, -0.886489170262848 
2.4200000000006825, -0.8864542705465214 
2.4300000000007036, -0.8866653655175132 
2.4400000000007247, -0.8871076468941468 
2.450000000000746, -0.8877460203745271 
2.460000000000767, -0.8885336356385964 
2.470000000000788, -0.8894205123515733 
2.480000000000809, -0.8903594342626355 
2.49000000000083, -0.8913077621147206 
2.5000000000008513, -0.8922254982157094 
2.5100000000008724, -0.8930716651180057 
2.5200000000008935, -0.8938025369553305 
2.5300000000009146, -0.8943750688855676 
2.5400000000009357, -0.8947555135549065 
2.550000000000957, -0.8949284040846361 
2.560000000000978, -0.8948999348391864 
2.570000000000999, -0.8946944315715598 
2.58000000000102, -0.8943482453696341 
2.5900000000010412, -0.8939065768696619 
2.6000000000010624, -0.8934257391960264 
2.6100000000010835, -0.8929794036864764 
2.6200000000011046, -0.8926640559900978 
2.6300000000011257, -0.892596967682404 
2.6400000000011468, -0.8929015975871376 
2.650000000001168, -0.8936822255261264 
2.660000000001189, -0.8949981941531675 
2.67000000000121, -0.8968500587881231 
2.680000000001231, -0.8991819466250114 
2.6900000000012523, -0.9018938684926662 
2.7000000000012734, -0.9048540212045287 
2.7100000000012945, -0.9079060177103748 
2.7200000000013156, -0.9108747419881409 
2.7300000000013367, -0.9135805701523154 
2.740000000001358, -0.9158681504087841 
2.750000000001379, -0.9176411028015732 
2.7600000000014, -0.9188810493710047 
2.770000000001421, -0.9196369321704208 
2.780000000001442, -0.9199934868160311 
2.7900000000014633, -0.9200400092985763 
2.8000000000014844, -0.9198532608182262 
2.8100000000015055, -0.9194961768947104 
2.8200000000015266, -0.9190289455167134 
2.8300000000015477, -0.9185298120253054 
2.840000000001569, -0.9181232968710932 
2.85000000000159, -0.9180083831471337 
2.860000000001611, -0.9184685595786558 
2.870000000001632, -0.9198392263558285 
2.8800000000016532, -0.9224228923783084 
2.8900000000016743, -0.9263795828010706 
2.9000000000016954, -0.9316456999247207 
2.9100000000017165, -0.9379180760009657 
2.9200000000017377, -0.9447014767366217 
2.9300000000017588, -0.9514010242747037 
2.94000000000178, -0.9574464331435422 
2.950000000001801, -0.9624246938609436 
2.960000000001822, -0.9661670386412367 
2.970000000001843, -0.9687396722927278 
2.9800000000018643, -0.9703513543735651 
2.9900000000018854, -0.971245419195977 
3.0000000000019065, -0.9716303017340968 
3.0100000000019276, -0.9716564608887701 
3.0200000000019487, -0.9714222189419207 
3.03000000000197, -0.9709925617956617 
3.040000000001991, -0.9704257851334346 
3.050000000002012, -0.9698113366732984 
3.060000000002033, -0.9693229692679358 
3.070000000002054, -0.9692778519160183 
3.0800000000020753, -0.9701613209841534 
3.0900000000020964, -0.9725515128226775 
3.1000000000021175, -0.9769143629072294 
3.1100000000021386, -0.9833515706074989 
3.1200000000021597, -0.9914632615283885 
3.130000000002181, -1.0004228620365698 
3.140000000002202, -1.009223248411002 
3.150000000002223, -1.016976180402238 
3.160000000002244, -1.0231426232381653 
3.1700000000022652, -1.027603066537678 
3.1800000000022863, -1.030558623838899 
3.1900000000023074, -1.0323527094812277 
3.2000000000023285, -1.0333236051306927 
3.2100000000023496, -1.033734092243277 
3.2200000000023707, -1.0337616898670567 
3.230000000002392, -1.0335174628048416 
3.240000000002413, -1.033074416081519 
3.250000000002434, -1.0325023323913176 
3.260000000002455, -1.031914097615179 
3.2700000000024763, -1.031523690353009 
3.2800000000024974, -1.0316909914263412 
3.2900000000025185, -1.0328929553678394 
3.3000000000025396, -1.035569876474058 
3.3100000000025607, -1.0399000533801066 
3.3200000000025818, -1.0456634961201934 
3.330000000002603, -1.052299273254833 
3.340000000002624, -1.0590960696992613 
3.350000000002645, -1.0653900305632553 
3.360000000002666, -1.0707020362264053 
3.3700000000026873, -1.074802075988642 
3.3800000000027084, -1.0776985706625677 
3.3900000000027295, -1.0795633080399643 
3.4000000000027506, -1.080631853223958 
3.4100000000027717, -1.0811259836475537 
3.420000000002793, -1.0812180544160805 
3.430000000002814, -1.0810296679741935 
3.440000000002835, -1.0806498306946946 
3.450000000002856, -1.0801637885064799 
3.460000000002877, -1.0796882918375614 
3.4700000000028983, -1.0794025517936467 
3.4800000000029194, -1.079547829883249 
3.4900000000029405, -1.0803666083587211 
3.5000000000029616, -1.0819968721575035 
3.5100000000029827, -1.0843974774641585 
3.520000000003004, -1.0873655802961772 
3.530000000003025, -1.090620606785934 
3.540000000003046, -1.0938853891108713 
3.550000000003067, -1.0969287698720913 
3.5600000000030882, -1.0995782748885907 
3.5700000000031094, -1.1017233495154903 
3.5800000000031305, -1.1033180599502241 
3.5900000000031516, -1.104378441602302 
3.6000000000031727, -1.1049678255905628 
3.6100000000031938, -1.1051731659963182 
3.620000000003215, -1.105083641271659 
3.630000000003236, -1.1047809164088616 
3.640000000003257, -1.104342966030372 
3.650000000003278, -1.1038569015965662 
3.6600000000032993, -1.1034308610234813 
3.6700000000033204, -1.103190543562222 
3.6800000000033415, -1.1032507989400617 
3.6900000000033626, -1.1036739361285117 
3.7000000000033837, -1.1044454294165542 
3.710000000003405, -1.1054851709288653 
3.720000000003426, -1.106681079383445 
3.730000000003447, -1.107920704716453 
3.740000000003468, -1.1091088889279253 
3.750000000003489, -1.110172663299688 
3.7600000000035103, -1.111059020796569 
3.7700000000035314, -1.1117309160063262 
3.7800000000035525, -1.1121650754229733 
3.7900000000035736, -1.112352526375971 
3.8000000000035947, -1.112300036869986 
3.810000000003616, -1.112029985658135 
3.820000000003637, -1.1115784096393653 
3.830000000003658, -1.1109935045741204 
3.840000000003679, -1.1103362150758485 
3.8500000000037002, -1.1096806102643382 
3.8600000000037213, -1.1091083816942717 
3.8700000000037424, -1.108694172546945 
3.8800000000037635, -1.108486714527469 
3.8900000000037847, -1.1084960664985337 
3.9000000000038058, -1.1086928006096772 
3.910000000003827, -1.1090174798840091 
3.920000000003848, -1.109395769343673 
3.930000000003869, -1.1097537729852314 
3.94000000000389, -1.1100285226733135 
3.9500000000039113, -1.1101719896107698 
3.9600000000039324, -1.110150889683768 
3.9700000000039535, -1.109945136675508 
3.9800000000039746, -1.109546091685083 
3.9900000000039957, -1.1089548321593843 
4.000000000004016, -1.1081811177315024 
4.010000000003993, -1.1072439625042112 
4.02000000000397, -1.1061739466256146 
4.030000000003946, -1.1050163020431918 
4.040000000003923, -1.103832837706776 
4.0500000000039, -1.102700017366491 
4.0600000000038765, -1.1017007484763828 
4.070000000003853, -1.1009091929523833 
4.08000000000383, -1.1003708663370797 
4.090000000003807, -1.1000850783374283 
4.100000000003783, -1.100001009249302 
4.11000000000376, -1.1000332070221464 
4.120000000003737, -1.1000869751476339 
4.130000000003713, -1.100076955243154 
4.14000000000369, -1.0999317900588994 
4.150000000003667, -1.099590389924559 
4.1600000000036434, -1.0989989219654737 
4.17000000000362, -1.0981136200000308 
4.180000000003597, -1.096908327940614 
4.1900000000035735, -1.0953814600502552 
4.20000000000355, -1.093557932704459 
4.210000000003527, -1.091486842633202 
4.220000000003504, -1.0892395451103358 
4.23000000000348, -1.0869111917218564 
4.240000000003457, -1.0846234879256595 
4.250000000003434, -1.0825212081143798 
4.26000000000341, -1.0807527561408223 
4.270000000003387, -1.0794307936211247 
4.280000000003364, -1.0785873334972502 
4.2900000000033405, -1.0781557017214394 
4.300000000003317, -1.07799910196302 
4.310000000003294, -1.077964754302794 
4.320000000003271, -1.0779235719540938 
4.330000000003247, -1.0777778420892292 
4.340000000003224, -1.0774471042923044 
4.350000000003201, -1.0768492510251706 
4.360000000003177, -1.0758884592660993 
4.370000000003154, -1.0744568673721395 
4.380000000003131, -1.0724534471416658 
4.390000000003107, -1.069816030674676 
4.400000000003084, -1.0665523869181384 
4.410000000003061, -1.062755029237229 
4.4200000000030375, -1.058597212473977 
4.430000000003014, -1.0543197091868233 
4.440000000002991, -1.050213380613944 
4.450000000002968, -1.046586890004678 
4.460000000002944, -1.0437042759818582 
4.470000000002921, -1.041701820904198 
4.480000000002898, -1.0405343911752991 
4.490000000002874, -1.0400025883229649 
4.500000000002851, -1.0398473062060907 
4.510000000002828, -1.0398408037512592 
4.520000000002804, -1.039823671402882 
4.530000000002781, -1.0396929671167523 
4.540000000002758, -1.0393708595402968 
4.5500000000027345, -1.038774098553302 
4.560000000002711, -1.0377917383118749 
4.570000000002688, -1.0362754023773333 
4.580000000002665, -1.0340501665902706 
4.590000000002641, -1.0309547965169548 
4.600000000002618, -1.026906902651358 
4.610000000002595, -1.0219651940207393 
4.620000000002571, -1.0163537002039968 
4.630000000002548, -1.0104372685489398 
4.640000000002525, -1.0046650232808347 
4.6500000000025015, -0.99949644661458 
4.660000000002478, -0.9953102276821474 
4.670000000002455, -0.9923073926561967 
4.6800000000024315, -0.9904548406836771 
4.690000000002408, -0.9895184248626535 
4.700000000002385, -0.9891741001892947 
4.710000000002362, -0.9891235120120647 
4.720000000002338, -0.9891521350787545 
4.730000000002315, -0.9891268797526669 
4.740000000002292, -0.9889643902889953 
4.750000000002268, -0.988596508522628 
4.760000000002245, -0.9879433519206821 
4.770000000002222, -0.9868963535777752 
4.7800000000021985, -0.9853149039394532 
4.790000000002175, -0.9830445921715487 
4.800000000002152, -0.9799625622234233 
4.810000000002129, -0.9760384296215321 
4.820000000002105, -0.9713780853054843 
4.830000000002082, -0.9662213054502491 
4.840000000002059, -0.9608972727459484 
4.850000000002035, -0.9557665713582578 
4.860000000002012, -0.9511685436344035 
4.870000000001989, -0.9473721313433161 
4.880000000001965, -0.9445273187883704 
4.890000000001942, -0.9426326865109429 
4.900000000001919, -0.9415449197137497 
4.9100000000018955, -0.9410357944658477 
4.920000000001872, -0.9408671040225295 
4.930000000001849, -0.9408439205517208 
