t, s[1].omega / s[0].omega 
0, -1.0999726495631132 
0.009999999999999995, -1.0970073454322196 
0.019999999999999934, -1.0936625142421375 
0.029999999999999874, -1.0900938392707482 
0.04000000000000012, -1.0865105551266159 
0.050000000000000405, -1.0831665087001654 
0.06000000000000069, -1.080326043337467 
0.07000000000000098, -1.0781934339636319 
0.08000000000000126, -1.076831908914896 
0.09000000000000155, -1.0761347125789444 
0.10000000000000184, -1.07588260032843 
0.11000000000000212, -1.075842365785974 
0.12000000000000241, -1.0758326528499509 
0.130000000000002, -1.0757324180053591 
0.1400000000000009, -1.075454958703356 
0.1499999999999998, -1.0749147480723913 
0.1599999999999987, -1.0739998858057878 
0.1699999999999976, -1.0725553668019363 
0.1799999999999965, -1.0703850312587566 
0.1899999999999954, -1.0672841699049975 
0.1999999999999943, -1.0631071168207664 
0.2099999999999932, -1.0578500010573444 
0.2199999999999921, -1.051708663752136 
0.229999999999991, -1.0450826202751957 
0.2399999999999899, -1.0385240637291535 
0.2499999999999888, -1.0326383824310206 
0.2599999999999877, -1.0279382469052458 
0.2699999999999866, -1.0246845856356528 
0.2799999999999855, -1.022804658950719 
0.2899999999999844, -1.0219623254438654 
0.2999999999999833, -1.0217355510908472 
0.3099999999999822, -1.0217710572458008 
0.3199999999999811, -1.0218394852610233 
0.32999999999998, -1.021812023378184 
0.3399999999999789, -1.021611285876316 
0.3499999999999778, -1.0211671231240096 
0.35999999999997667, -1.0203833105267992 
0.36999999999997557, -1.0191128563624545 
0.37999999999997447, -1.0171446243029891 
0.38999999999997337, -1.0142153533217635 
0.39999999999997227, -1.0100681317592861 
0.40999999999997117, -1.0045620013928125 
0.41999999999997006, -0.9977917721302256 
0.42999999999996896, -0.9901436582538865 
0.43999999999996786, -0.982242715669288 
0.44999999999996676, -0.9748139726952735 
0.45999999999996566, -0.9685086165407041 
0.46999999999996456, -0.9637418935981433 
0.47999999999996346, -0.9605958725972764 
0.48999999999996235, -0.9588400006957156 
0.49999999999996125, -0.958065844910481 
0.5099999999999602, -0.9578537584290103 
0.519999999999959, -0.9578802690408587 
0.529999999999958, -0.9579405429389137 
0.5399999999999568, -0.9579182318805024 
0.5499999999999557, -0.9577423161449286 
0.5599999999999546, -0.9573508898831514 
0.5699999999999535, -0.9566655904070572 
0.5799999999999524, -0.9555760348054513 
0.5899999999999513, -0.9539375449683127 
0.5999999999999502, -0.9515911003673294 
0.6099999999999491, -0.9484121875960925 
0.619999999999948, -0.9443763822977148 
0.6299999999999469, -0.9396050216807342 
0.6399999999999458, -0.9343575202610129 
0.6499999999999447, -0.9289757967141942 
0.6599999999999436, -0.9238168077149194 
0.6699999999999425, -0.9191991536896765 
0.6799999999999414, -0.9153637865872497 
0.6899999999999403, -0.9124415657038372 
0.6999999999999392, -0.9104332081380445 
0.7099999999999381, -0.9092177677110929 
0.719999999999937, -0.9085957461766219 
0.7299999999999359, -0.9083492189602447 
0.7399999999999348, -0.9082899855050934 
0.7499999999999337, -0.9082792159104273 
0.7599999999999326, -0.9082222685851692 
0.7699999999999315, -0.9080519946950437 
0.7799999999999304, -0.9077119305231773 
0.7899999999999293, -0.9071457522715312 
0.7999999999999282, -0.906296322660865 
0.8099999999999271, -0.9051155771355841 
0.819999999999926, -0.9035819892915014 
0.8299999999999249, -0.9017157098405904 
0.8399999999999238, -0.8995799536266029 
0.8499999999999227, -0.8972665686437675 
0.8599999999999216, -0.894875988251201 
0.8699999999999205, -0.8925035668690604 
0.8799999999999194, -0.8902357480279643 
0.8899999999999183, -0.8881513813469525 
0.8999999999999172, -0.8863217183318634 
0.9099999999999161, -0.884805411372942 
0.919999999999915, -0.8836389912048453 
0.9299999999999139, -0.8828270170712281 
0.9399999999999128, -0.882337850608938 
0.9499999999999117, -0.8821090429749567 
0.9599999999999106, -0.882060941170683 
0.9699999999999095, -0.8821122537176167 
0.9799999999999084, -0.8821911520125358 
0.9899999999999073, -0.8822396405850927 
0.9999999999999062, -0.8822133160205974 
1.0099999999999052, -0.8820801809854892 
1.019999999999904, -0.8818207647830271 
1.029999999999903, -0.8814290025715673 
1.039999999999902, -0.8809113957451176 
1.0499999999999008, -0.8802828917463493 
1.0599999999998997, -0.879561118724183 
1.0699999999998986, -0.8787626092719828 
1.0799999999998975, -0.8779031417015307 
1.0899999999998964, -0.8770011857976898 
1.0999999999998953, -0.8760818683085742 
1.1099999999998942, -0.8751794599528813 
1.119999999999893, -0.8743374275797018 
1.129999999999892, -0.8736054816757864 
1.1399999999998909, -0.8730333754790479 
1.1499999999998898, -0.8726623533919652 
1.1599999999998887, -0.8725167215893052 
1.1699999999998876, -0.8725986526294542 
1.1799999999998865, -0.8728882479598911 
1.1899999999998854, -0.8733486826966527 
1.1999999999998843, -0.8739342650325128 
1.2099999999998832, -0.8745984487761354 
1.219999999999882, -0.8752994004237248 
1.229999999999881, -0.8760019928612636 
1.2399999999998799, -0.8766763143788243 
1.2499999999998788, -0.8772938892088968 
1.2599999999998777, -0.877824100722656 
1.2699999999998766, -0.8782340743399576 
1.2799999999998755, -0.878493756777671 
1.2899999999998744, -0.8785839729530096 
1.2999999999998733, -0.8785023287905954 
1.3099999999998722, -0.878263629870385 
1.319999999999871, -0.8778963934178469 
1.32999999999987, -0.8774398800684065 
1.3399999999998689, -0.8769447832412363 
1.3499999999998678, -0.8764773050291208 
1.3599999999998666, -0.876123091528642 
1.3699999999998655, -0.8759856513682209 
1.3799999999998644, -0.8761749863033723 
1.3899999999998633, -0.8767873373870169 
1.3999999999998622, -0.8778836589830885 
1.4099999999998611, -0.8794766021583393 
1.41999999999986, -0.881530383669601 
1.429999999999859, -0.8839695682721433 
1.4399999999998578, -0.8866887039405824 
1.4499999999998567, -0.8895574050368575 
1.4599999999998556, -0.8924224207301048 
1.4699999999998545, -0.8951150454068479 
1.4799999999998534, -0.8974728563243362 
1.4899999999998523, -0.8993739796113502 
1.4999999999998512, -0.9007659187079236 
1.5099999999998501, -0.9016687323612033 
1.519999999999849, -0.9021513747032037 
1.529999999999848, -0.9022992835191113 
1.5399999999998468, -0.9021913306574826 
1.5499999999998457, -0.9018923193638623 
1.5599999999998446, -0.9014589246931823 
1.5699999999998435, -0.9009561021487821 
1.5799999999998424, -0.9004825075473966 
1.5899999999998413, -0.9002016496263874 
1.5999999999998402, -0.9003672448608621 
1.6099999999998391, -0.9013198955323819 
1.619999999999838, -0.9034314635905183 
1.629999999999837, -0.9069977114499285 
1.6399999999998358, -0.9121182622006285 
1.6499999999998347, -0.9186187646310733 
1.6599999999998336, -0.9260475855664735 
1.6699999999998325, -0.9337491605755487 
1.6799999999998314, -0.9410043105196226 
1.6899999999998303, -0.9472113400585229 
1.6999999999998292, -0.9520391623592117 
1.709999999999828, -0.955467495450048 
1.719999999999827, -0.9576989050204551 
1.729999999999826, -0.9590194674584038 
1.7399999999998248, -0.9596935031752665 
1.7499999999998237, -0.9599191992973314 
1.7599999999998226, -0.9598268771820863 
1.7699999999998215, -0.9594957249401013 
1.7799999999998204, -0.9589771256124425 
1.7899999999998193, -0.9583251800507128 
1.7999999999998182, -0.9576424175119349 
1.809999999999817, -0.9571475640641113 
1.819999999999816, -0.9572532930659255 
1.8299999999998149, -0.9585987242909288 
1.8399999999998138, -0.961943323273557 
1.8499999999998127, -0.9678742523072499 
1.8599999999998116, -0.9764388770918119 
1.8699999999998105, -0.9869485055197161 
1.8799999999998094, -0.998130751200196 
1.8899999999998083, -1.0085771750225017 
1.8999999999998072, -1.017237481298618 
1.909999999999806, -1.023686874001018 
1.919999999999805, -1.0280623183986595 
1.9299999999998039, -1.0307977230741314 
1.9399999999998028, -1.0323699786030252 
1.9499999999998017, -1.0331643750395578 
1.9599999999998006, -1.033444621936853 
1.9699999999997995, -1.033372965083707 
1.9799999999997984, -1.0330431981068084 
1.9899999999997973, -1.0325149525327286 
1.9999999999997962, -1.0318540353300236 
2.0099999999998173, -1.0311900878883022 
2.0199999999998384, -1.0307944799513407 
2.0299999999998595, -1.0311449489362619 
2.0399999999998806, -1.0328878368790364 
2.0499999999999017, -1.036615017033476 
2.059999999999923, -1.0425275951881676 
2.069999999999944, -1.0502327475262736 
2.079999999999965, -1.05884715101647 
2.089999999999986, -1.0673211044095352 
2.100000000000007, -1.074772751912915 
2.1100000000000283, -1.0806917070607767 
2.1200000000000494, -1.0849722093670195 
2.1300000000000705, -1.087805949300377 
2.1400000000000916, -1.0895171862414248 
2.1500000000001127, -1.0904279306273459 
2.160000000000134, -1.090791533659236 
2.170000000000155, -1.0907823999591044 
2.180000000000176, -1.0905145813609463 
2.190000000000197, -1.090072125247056 
2.2000000000002182, -1.0895469610162682 
2.2100000000002393, -1.0890829221137632 
2.2200000000002604, -1.088910667719242 
2.2300000000002815, -1.0893340976063037 
2.2400000000003026, -1.0906338137391445 
2.2500000000003237, -1.0929262057082973 
2.260000000000345, -1.0960895562656012 
2.270000000000366, -1.0998176932119528 
2.280000000000387, -1.1037406344242908 
2.290000000000408, -1.10752144351439 
2.3000000000004293, -1.11090020217716 
2.3100000000004504, -1.1137057578439409 
2.3200000000004715, -1.115857327255038 
2.3300000000004926, -1.1173589667640933 
2.3400000000005137, -1.118280590917508 
2.3500000000005348, -1.1187271386338344 
2.360000000000556, -1.118808437787107 
2.370000000000577, -1.11862205040611 
2.380000000000598, -1.1182527732558496 
2.390000000000619, -1.1177851307601023 
2.4000000000006403, -1.1173206019999282 
2.4100000000006614, -1.1169858429977713 
2.4200000000006825, -1.1169158820420262 
2.4300000000007036, -1.1172109277996674 
2.4400000000007247, -1.1178943353229456 
2.450000000000746, -1.118905953960747 
2.460000000000767, -1.1201327288646776 
2.470000000000788, -1.121448893718509 
2.480000000000809, -1.12274300363377 
2.49000000000083, -1.123928076965965 
2.5000000000008513, -1.1249409737051201 
2.5100000000008724, -1.1257379080133383 
2.5200000000008935, -1.1262908939772769 
2.5300000000009146, -1.1265870440135701 
2.5400000000009357, -1.126629571673392 
2.550000000000957, -1.1264378601865195 
2.560000000000978, -1.126045529419353 
2.570000000000999, -1.1254983447514437 
2.58000000000102, -1.124854272856908 
2.5900000000010412, -1.1241846177638848 
2.6000000000010624, -1.1235709163665322 
2.6100000000010835, -1.1230926468719027 
2.6200000000011046, -1.1228082922464484 
2.6300000000011257, -1.1227397659787832 
2.6400000000011468, -1.1228680615100355 
2.650000000001168, -1.1231401144773427 
2.660000000001189, -1.1234828989155625 
2.67000000000121, -1.1238196668692864 
2.680000000001231, -1.1240824788765225 
2.6900000000012523, -1.124217874797157 
2.7000000000012734, -1.124187368886409 
2.7100000000012945, -1.1239662055098256 
2.7200000000013156, -1.1235420505617078 
2.7300000000013367, -1.122913598064232 
2.740000000001358, -1.122089312348887 
2.750000000001379, -1.1210873485422908 
2.7600000000014, -1.1199374073584856 
2.770000000001421, -1.1186840273264917 
2.780000000001442, -1.1173894595129834 
2.7900000000014633, -1.1161332311057874 
2.8000000000014844, -1.1150052951193103 
2.8100000000015055, -1.1140907195372962 
2.8200000000015266, -1.1134468237550936 
2.8300000000015477, -1.1130804870512656 
2.840000000001569, -1.112940626469771 
2.85000000000159, -1.1129349436712856 
2.860000000001611, -1.1129598775691278 
2.870000000001632, -1.1129225357442893 
2.8800000000016532, -1.1127452570222105 
2.8900000000016743, -1.1123593788781974 
2.9000000000016954, -1.1116994478403384 
2.9100000000017165, -1.110705034385373 
2.9200000000017377, -1.1093306863056447 
2.9300000000017588, -1.107558513857935 
2.94000000000178, -1.1054061214592492 
2.950000000001801, -1.1029274516594796 
2.960000000001822, -1.1002109032525147 
2.970000000001843, -1.0973800524686406 
2.9800000000018643, -1.0945959196015236 
2.9900000000018854, -1.0920507070290257 
3.0000000000019065, -1.0899382479977315 
3.0100000000019276, -1.0883966553569424 
3.0200000000019487, -1.087449025425857 
3.03000000000197, -1.0869904556990222 
3.040000000001991, -1.0868394391446459 
3.050000000002012, -1.086811991133533 
3.060000000002033, -1.0867650955666828 
3.070000000002054, -1.0865969771062929 
3.0800000000020753, -1.086223896411628 
3.0900000000020964, -1.0855538855571314 
3.1000000000021175, -1.0844681560824039 
3.1100000000021386, -1.0828171899597565 
3.1200000000021597, -1.08043931538 
3.130000000002181, -1.0772050180948205 
3.140000000002202, -1.0730749922324525 
3.150000000002223, -1.0681458232834395 
3.160000000002244, -1.0626635154630553 
3.1700000000022652, -1.0570054356641885 
3.1800000000022863, -1.0516360007517804 
3.1900000000023074, -1.0470264435346937 
3.2000000000023285, -1.043531763031483 
3.2100000000023496, -1.0412671808989151 
3.2200000000023707, -1.0400741610609168 
3.230000000002392, -1.0396188717279677 
3.240000000002413, -1.0395489976810535 
3.250000000002434, -1.039597994375268 
3.260000000002455, -1.0396017638247226 
3.2700000000024763, -1.0394639203841618 
3.2800000000024974, -1.0391112321620732 
3.2900000000025185, -1.038456603263006 
3.3000000000025396, -1.0373711135231252 
3.3100000000025607, -1.0356661179394742 
3.3200000000025818, -1.0330954969807529 
3.330000000002603, -1.0293972636608997 
3.340000000002624, -1.02438614702757 
3.350000000002645, -1.0180724830552408 
3.360000000002666, -1.010743224095086 
3.3700000000026873, -1.0029498188175958 
3.3800000000027084, -0.9954019867696513 
3.3900000000027295, -0.9888033474128151 
3.4000000000027506, -0.9836700874569905 
3.4100000000027717, -0.98019030522959 
3.420000000002793, -0.9781995074104429 
3.430000000002814, -0.9772989327101133 
3.440000000002835, -0.977040743843357 
3.450000000002856, -0.9770652368856231 
3.460000000002877, -0.9771412763476374 
3.4700000000028983, -0.9771390920479511 
3.4800000000029194, -0.9769829816117008 
3.4900000000029405, -0.9766101277983763 
3.5000000000029616, -0.9759407791557251 
3.5100000000029827, -0.9748580755521221 
3.520000000003004, -0.973199491193111 
3.530000000003025, -0.9707699064680702 
3.540000000003046, -0.9673892562529096 
3.550000000003067, -0.9629721883290833 
3.5600000000030882, -0.9576040362288808 
3.5700000000031094, -0.9515620322313959 
3.5800000000031305, -0.9452649562958284 
3.5900000000031516, -0.9391839094167785 
3.6000000000031727, -0.9337544254720038 
3.6100000000031938, -0.9293040339089049 
3.620000000003215, -0.9259969040969673 
3.630000000003236, -0.9238094139462059 
3.640000000003257, -0.9225567996709592 
3.650000000003278, -0.9219675907214597 
3.6600000000032993, -0.9217692644364627 
3.6700000000033204, -0.9217444580641038 
3.6800000000033415, -0.9217446087154647 
3.6900000000033626, -0.9216745801617938 
3.7000000000033837, -0.9214678878437429 
3.710000000003405, -0.9210649016830512 
3.720000000003426, -0.9203991839938128 
3.730000000003447, -0.9193947834498404 
3.740000000003468, -0.9179772194132418 
3.750000000003489, -0.9160974832895878 
3.7600000000035103, -0.9137590913099574 
3.7700000000035314, -0.911030737079065 
3.7800000000035525, -0.9080343369865975 
3.7900000000035736, -0.9049171687667859 
3.8000000000035947, -0.9018265209905184 
3.810000000003616, -0.8988968495155504 
3.820000000003637, -0.896246026047225 
3.830000000003658, -0.8939718978078343 
3.840000000003679, -0.8921436396536052 
3.8500000000037002, -0.8907892913298173 
3.8600000000037213, -0.8898868250028226 
3.8700000000037424, -0.8893669054539235 
3.8800000000037635, -0.8891292498157813 
3.8900000000037847, -0.889065500125346 
3.9000000000038058, -0.8890779225224497 
3.910000000003827, -0.8890877821305923 
3.920000000003848, -0.889034584321361 
3.930000000003869, -0.8888715407941188 
3.94000000000389, -0.8885624950923727 
3.9500000000039113, -0.8880828904585046 
3.9600000000039324, -0.8874236931154563 
3.9700000000039535, -0.8865941136768294 
3.9800000000039746, -0.8856191449639212 
3.9900000000039957, -0.8845321996436974 
4.000000000004016, -0.8833675288350855 
4.010000000003993, -0.8821569493970072 
4.02000000000397, -0.8809314771671147 
4.030000000003946, -0.8797251735933662 
4.040000000003923, -0.8785780161108956 
4.0500000000039, -0.8775357518206933 
4.0600000000038765, -0.8766460011030889 
4.070000000003853, -0.8759511256085102 
4.08000000000383, -0.8754797389777063 
4.090000000003807, -0.8752397654814809 
4.100000000003783, -0.8752158502865537 
4.11000000000376, -0.8753723943934556 
4.120000000003737, -0.8756611204501634 
4.130000000003713, -0.8760302204471794 
4.14000000000369, -0.8764320086325201 
4.150000000003667, -0.8768274565550727 
4.1600000000036434, -0.8771875714415627 
4.17000000000362, -0.8774921729473851 
4.180000000003597, -0.8777266350645366 
4.1900000000035735, -0.8778777501834073 
4.20000000000355, -0.8779310181452503 
4.210000000003527, -0.8778716348599215 
4.220000000003504, -0.8776891083869864 
4.23000000000348, -0.8773825874309009 
4.240000000003457, -0.8769638078877564 
4.250000000003434, -0.8764572835094844 
4.26000000000341, -0.8758997893877083 
4.270000000003387, -0.8753408578789077 
4.280000000003364, -0.874843615160177 
4.2900000000033405, -0.8744830617333402 
4.300000000003317, -0.8743387936652154 
4.310000000003294, -0.8744820115339698 
4.320000000003271, -0.8749610217992536 
4.330000000003247, -0.875791629429864 
4.340000000003224, -0.876956377337951 
4.350000000003201, -0.8784114000233109 
4.360000000003177, -0.8800959232051454 
4.370000000003154, -0.8819392517205051 
4.380000000003131, -0.8838626565164447 
4.390000000003107, -0.8857774442024844 
4.400000000003084, -0.8875844199889873 
4.410000000003061, -0.8891815044710416 
4.4200000000030375, -0.8904818038859765 
4.430000000003014, -0.8914344425804035 
4.440000000002991, -0.8920344684974694 
4.450000000002968, -0.8923152350334087 
4.460000000002944, -0.8923302375820427 
4.470000000002921, -0.892136901623456 
4.480000000002898, -0.8917900164274984 
4.490000000002874, -0.8913460017693067 
4.500000000002851, -0.8908761589477887 
4.510000000002828, -0.89048567138837 
4.520000000002804, -0.8903317953513469 
4.530000000002781, -0.8906291014657859 
4.540000000002758, -0.8916275464862604 
4.5500000000027345, -0.8935591040663573 
4.560000000002711, -0.8965693095557692 
4.570000000002688, -0.9006632355356773 
4.580000000002665, -0.9056856500115286 
4.590000000002641, -0.911333768951031 
4.600000000002618, -0.9171933217219953 
4.610000000002595, -0.9227991338568188 
4.620000000002571, -0.9277256914986518 
4.630000000002548, -0.9316880644771528 
4.640000000002525, -0.9346005237374545 
4.6500000000025015, -0.936554059233656 
4.660000000002478, -0.9377347299002501 
4.670000000002455, -0.9383406727067053 
4.6800000000024315, -0.9385343615713435 
4.690000000002408, -0.9384302615070468 
4.700000000002385, -0.9381031286356686 
4.710000000002362, -0.9376064288175476 
4.720000000002338, -0.9369994568219788 
4.730000000002315, -0.9363878496127374 
4.740000000002292, -0.9359806122703033 
4.750000000002268, -0.9361508142751802 
4.760000000002245, -0.9374550497455105 
4.770000000002222, -0.9405433561809942 
4.7800000000021985, -0.9459294269238285 
4.790000000002175, -0.9537026415091677 
4.800000000002152, -0.9633534855301278 
4.810000000002129, -0.9738461989826146 
4.820000000002105, -0.9839337346060469 
4.830000000002082, -0.9925714489479998 
4.840000000002059, -0.999216449829777 
4.850000000002035, -1.0038626417325847 
4.860000000002012, -1.0068491348928306 
4.870000000001989, -1.0086174212511796 
4.880000000001965, -1.0095537635435545 
4.890000000001942, -1.0099358486523353 
4.900000000001919, -1.0099402256490544 
4.9100000000018955, -1.00967010784404 
4.920000000001872, -1.009186265429145 
4.930000000001849, -1.0085417075378604 
