t, s[1].omega / s[0].omega 
0, -0.7599976680864083 
0.009999999999999995, -0.7597408993355539 
0.019999999999999934, -0.7594353263154314 
0.029999999999999874, -0.7590764219257669 
0.04000000000000012, -0.7586614570007171 
0.050000000000000405, -0.7581934757955727 
0.06000000000000069, -0.7576834319185977 
0.07000000000000098, -0.7571508513410288 
0.08000000000000126, -0.7566243235981912 
0.09000000000000155, -0.7561425882072466 
0.10000000000000184, -0.7557558244088776 
0.11000000000000212, -0.7555258718887085 
0.12000000000000241, -0.7555239837543704 
0.130000000000002, -0.7558254590476523 
0.1400000000000009, -0.7565018003146379 
0.1499999999999998, -0.7576120558546029 
0.1599999999999987, -0.7591948373570405 
0.1699999999999976, -0.7612610294857132 
0.1799999999999965, -0.7637855171861931 
0.1899999999999954, -0.7666963122665257 
0.1999999999999943, -0.7698632041831398 
0.2099999999999932, -0.7730954040278597 
0.2199999999999921, -0.7761627348601899 
0.229999999999991, -0.778846038523234 
0.2399999999999899, -0.7809971131652369 
0.2499999999999888, -0.7825712556170007 
0.2599999999999877, -0.7836136086971395 
0.2699999999999866, -0.7842165329526 
0.2799999999999855, -0.784478369332928 
0.2899999999999844, -0.7844795920833547 
0.2999999999999833, -0.7842752633601419 
0.3099999999999822, -0.7838966980024005 
0.3199999999999811, -0.783357197323165 
0.32999999999998, -0.782660662401828 
0.3399999999999789, -0.781815424275732 
0.3499999999999778, -0.7808583392400329 
0.35999999999997667, -0.7798948357738265 
0.36999999999997557, -0.7791546077608269 
0.37999999999997447, -0.7790418311266099 
0.38999999999997337, -0.7801202901715497 
0.39999999999997227, -0.7829480791287886 
0.40999999999997117, -0.7877489891719351 
0.41999999999997006, -0.7941212000374122 
0.42999999999996896, -0.8011095251492367 
0.43999999999996786, -0.8076692997403869 
0.44999999999996676, -0.8131174816667587 
0.45999999999996566, -0.8172449549270947 
0.46999999999996456, -0.8201658867937928 
0.47999999999996346, -0.822124480255068 
0.48999999999996235, -0.8233701936037155 
0.49999999999996125, -0.8241047721968666 
0.5099999999999602, -0.8244711800270823 
0.519999999999959, -0.8245591826017045 
0.529999999999958, -0.8244136135499216 
0.5399999999999568, -0.8240391033278346 
0.5499999999999557, -0.8233987346967317 
0.5599999999999546, -0.8224055932114137 
0.5699999999999535, -0.8209078074484373 
0.5799999999999524, -0.8186724965048727 
0.5899999999999513, -0.8153858568175206 
0.5999999999999502, -0.810704577816327 
0.6099999999999491, -0.8043967043452831 
0.619999999999948, -0.7965514094629188 
0.6299999999999469, -0.7877170027757219 
0.6399999999999458, -0.7787952470798275 
0.6499999999999447, -0.7707121836501922 
0.6599999999999436, -0.7640998865115176 
0.6699999999999425, -0.7591790056921957 
0.6799999999999414, -0.7558322849776291 
0.6899999999999403, -0.7537549248447625 
0.6999999999999392, -0.7525905808373803 
0.7099999999999381, -0.7520176520055819 
0.719999999999937, -0.7517866793073792 
0.7299999999999359, -0.7517237915730789 
0.7399999999999348, -0.7517166595954616 
0.7499999999999337, -0.7516952851706697 
0.7599999999999326, -0.7516145408070678 
0.7699999999999315, -0.7514412332176804 
0.7799999999999304, -0.7511463893276578 
0.7899999999999293, -0.7507029579706367 
0.7999999999999282, -0.75008894595236 
0.8099999999999271, -0.7492947393646159 
0.819999999999926, -0.7483306433685708 
0.8299999999999249, -0.7472288353826759 
0.8399999999999238, -0.74603657471432 
0.8499999999999227, -0.7448039716060121 
0.8599999999999216, -0.7435736012813188 
0.8699999999999205, -0.7423768030231643 
0.8799999999999194, -0.7412361163562561 
0.8899999999999183, -0.7401702460940321 
0.8999999999999172, -0.7391983186672437 
0.9099999999999161, -0.7383419570930264 
0.919999999999915, -0.7376250613517387 
0.9299999999999139, -0.7370717852858911 
0.9399999999999128, -0.7367034613388085 
0.9499999999999117, -0.73653542686299 
0.9599999999999106, -0.7365747670293693 
0.9699999999999095, -0.7368197143574241 
0.9799999999999084, -0.7372608301819683 
0.9899999999999073, -0.7378833777916503 
0.9999999999999062, -0.7386697689016141 
1.0099999999999052, -0.7396007654455037 
1.019999999999904, -0.7406542737561143 
1.029999999999903, -0.7418012376213801 
1.039999999999902, -0.7429997002884178 
1.0499999999999008, -0.744190561270086 
1.0599999999998997, -0.7453003036257837 
1.0699999999998986, -0.7462537765333225 
1.0799999999998975, -0.7469928735058269 
1.0899999999998964, -0.7474904381964256 
1.0999999999998953, -0.7477511794872679 
1.1099999999998942, -0.7478012435648308 
1.119999999999893, -0.7476748334577578 
1.129999999999892, -0.7474049557899461 
1.1399999999998909, -0.747020693055288 
1.1499999999998898, -0.7465506391791482 
1.1599999999998887, -0.7460321357564437 
1.1699999999998876, -0.7455270911763885 
1.1799999999998865, -0.7451456884422957 
1.1899999999998854, -0.7450774814268646 
1.1999999999998843, -0.7456232277436408 
1.2099999999998832, -0.7472087374489896 
1.219999999999882, -0.7503460153765749 
1.229999999999881, -0.7554990266593611 
1.2399999999998799, -0.7628407947658431 
1.2499999999998788, -0.771989214188621 
1.2599999999998777, -0.7819421489534322 
1.2699999999998766, -0.7913997338152418 
1.2799999999998755, -0.79932276830735 
1.2899999999998744, -0.8052880310874931 
1.2999999999998733, -0.8094225853008853 
1.3099999999998722, -0.8121162799488959 
1.319999999999871, -0.8137817971140144 
1.32999999999987, -0.8147470070580851 
1.3399999999998689, -0.8152374230827213 
1.3499999999998678, -0.8153931982220808 
1.3599999999998666, -0.815290289988094 
1.3699999999998655, -0.8149550254290187 
1.3799999999998644, -0.8143697132266885 
1.3899999999998633, -0.8134691519668887 
1.3999999999998622, -0.8121281529171489 
1.4099999999998611, -0.8101415819500961 
1.41999999999986, -0.8072047290119084 
1.429999999999859, -0.8029183335075618 
1.4399999999998578, -0.7968690119939237 
1.4499999999998567, -0.7888409212302042 
1.4599999999998556, -0.7791198121048605 
1.4699999999998545, -0.7686484371116037 
1.4799999999998534, -0.7587575518245232 
1.4899999999998523, -0.7505819589063023 
1.4999999999998512, -0.744633893213458 
1.5099999999998501, -0.7408020664169461 
1.519999999999849, -0.7386220915257137 
1.529999999999848, -0.7375539690751677 
1.5399999999998468, -0.7371421871988026 
1.5499999999998457, -0.7370646589302232 
1.5599999999998446, -0.7371195018668688 
1.5699999999998435, -0.737190699723735 
1.5799999999998424, -0.7372144553294893 
1.5899999999998413, -0.7371537330187451 
1.5999999999998402, -0.7369813876620267 
1.6099999999998391, -0.7366702070150378 
1.619999999999838, -0.7361887151263204 
1.629999999999837, -0.7355029015073596 
1.6399999999998358, -0.7345844843461025 
1.6499999999998347, -0.7334241492352798 
1.6599999999998336, -0.7320435018710522 
1.6699999999998325, -0.7304968145838723 
1.6799999999998314, -0.7288588686798736 
1.6899999999998303, -0.7272056328449957 
1.6999999999998292, -0.7255992219315713 
1.709999999999828, -0.7240831931730565 
1.719999999999827, -0.7226861492266194 
1.729999999999826, -0.7214282065880198 
1.7399999999998248, -0.7203261799242657 
1.7499999999998237, -0.7193959291324057 
1.7599999999998226, -0.7186521035822543 
1.7699999999998215, -0.718106278315168 
1.7799999999998204, -0.717764661628179 
1.7899999999998193, -0.7176264481151092 
1.7999999999998182, -0.7176835402718882 
1.809999999999817, -0.7179218072114366 
1.819999999999816, -0.7183234620960047 
1.8299999999998149, -0.7188697311105725 
1.8399999999998138, -0.7195428369729006 
1.8499999999998127, -0.7203263490307616 
1.8599999999998116, -0.7212031180595205 
1.8699999999998105, -0.7221505764630389 
1.8799999999998094, -0.7231346215460562 
1.8899999999998083, -0.7241055283462488 
1.8999999999998072, -0.7250006468692212 
1.909999999999806, -0.7257561300870745 
1.919999999999805, -0.726323282787724 
1.9299999999998039, -0.7266800360881844 
1.9399999999998028, -0.7268310818493126 
1.9499999999998017, -0.7267987907129798 
1.9599999999998006, -0.7266121934242089 
1.9699999999997995, -0.7262998075296812 
1.9799999999997984, -0.7258882421885366 
1.9899999999997973, -0.7254064374733138 
1.9999999999997962, -0.7248955287176106 
2.0099999999998173, -0.7244252561731651 
2.0199999999998384, -0.7241180220487606 
2.0299999999998595, -0.7241795209310935 
2.0399999999998806, -0.7249283493114852 
2.0499999999999017, -0.7268045001177265 
2.059999999999923, -0.7303201605811546 
2.069999999999944, -0.7359091954014758 
2.079999999999965, -0.7436684068284629 
2.089999999999986, -0.7531006687212225 
2.100000000000007, -0.7631053440451256 
2.1100000000000283, -0.7723762988805843 
2.1200000000000494, -0.7799716140900552 
2.1300000000000705, -0.78559393195498 
2.1400000000000916, -0.7894498829855223 
2.1500000000001127, -0.7919497624339344 
2.160000000000134, -0.7934932718797054 
2.170000000000155, -0.7943866393720267 
2.180000000000176, -0.7948366467786445 
2.190000000000197, -0.794970141496176 
2.2000000000002182, -0.7948541672208579 
2.2100000000002393, -0.7945087441880845 
2.2200000000002604, -0.7939108065968042 
2.2300000000002815, -0.7929892455533267 
2.2400000000003026, -0.7916112829492082 
2.2500000000003237, -0.7895625575683891 
2.260000000000345, -0.7865314777821589 
2.270000000000366, -0.7821270365035822 
2.280000000000387, -0.7759816983371791 
2.290000000000408, -0.7679740169264707 
2.3000000000004293, -0.7584850477018505 
2.3100000000004504, -0.7484466229434248 
2.3200000000004715, -0.7390249462908043 
2.3300000000004926, -0.7311435677047433 
2.3400000000005137, -0.7252082247620008 
2.3500000000005348, -0.7211460540344677 
2.360000000000556, -0.7186087661694894 
2.370000000000577, -0.7171696069253491 
2.380000000000598, -0.7164438059679407 
2.390000000000619, -0.7161362179104189 
2.4000000000006403, -0.716043518555653 
2.4100000000006614, -0.7160359272832354 
2.4200000000006825, -0.7160342113536515 
2.4300000000007036, -0.7159895577850034 
2.4400000000007247, -0.7158687848659354 
2.450000000000746, -0.7156450680824933 
2.460000000000767, -0.7152938909432107 
2.470000000000788, -0.7147940908171779 
2.480000000000809, -0.7141333522876294 
2.49000000000083, -0.7133154901757184 
2.5000000000008513, -0.7123644892542585 
2.5100000000008724, -0.7113208579788503 
2.5200000000008935, -0.7102309881047058 
2.5300000000009146, -0.7091356698827788 
2.5400000000009357, -0.7080640112387027 
2.550000000000957, -0.70703427224026 
2.560000000000978, -0.7060588155107838 
2.570000000000999, -0.7051495108816854 
2.58000000000102, -0.7043214616761846 
2.5900000000010412, -0.7035946168847395 
2.6000000000010624, -0.7029936243798255 
2.6100000000010835, -0.7025463656567505 
2.6200000000011046, -0.7022815718126414 
2.6300000000011257, -0.7022260375600642 
2.6400000000011468, -0.7024021185874056 
2.650000000001168, -0.7028261603358692 
2.660000000001189, -0.7035081172083091 
2.67000000000121, -0.7044519509166803 
2.680000000001231, -0.7056556642533134 
2.6900000000012523, -0.707109307580039 
2.7000000000012734, -0.7087893914823228 
2.7100000000012945, -0.7106495556124897 
2.7200000000013156, -0.7126108155179411 
2.7300000000013367, -0.7145593972192149 
2.740000000001358, -0.716361347981282 
2.750000000001379, -0.717894336437851 
2.7600000000014, -0.7190812138602486 
2.770000000001421, -0.719904256145799 
2.780000000001442, -0.7203936454333497 
2.7900000000014633, -0.7206026066545406 
2.8000000000014844, -0.7205852256535344 
2.8100000000015055, -0.7203840969262235 
2.8200000000015266, -0.7200267294450293 
2.8300000000015477, -0.7195273385666237 
2.840000000001569, -0.7188921051079283 
2.85000000000159, -0.7181283834380514 
2.860000000001611, -0.7172604273344122 
2.870000000001632, -0.7163550476657357 
2.8800000000016532, -0.7155577765514787 
2.8900000000016743, -0.7151285816686339 
2.9000000000016954, -0.7154419715938649 
2.9100000000017165, -0.7168931591694019 
2.9200000000017377, -0.7196853907652537 
2.9300000000017588, -0.723617319902158 
2.94000000000178, -0.7281088491204282 
2.950000000001801, -0.7325067714467797 
2.960000000001822, -0.7363715728092293 
2.970000000001843, -0.7395255822369612 
2.9800000000018643, -0.7419613523605979 
2.9900000000018854, -0.7437550640589726 
3.0000000000019065, -0.7450151341448356 
3.0100000000019276, -0.7458517721354133 
3.0200000000019487, -0.7463594613735187 
3.03000000000197, -0.7466090255109926 
3.040000000001991, -0.7466454970169839 
3.050000000002012, -0.7464880067348354 
3.060000000002033, -0.7461290148909252 
3.070000000002054, -0.7455316347509152 
3.0800000000020753, -0.7446256121532372 
3.0900000000020964, -0.7433055599056106 
3.1000000000021175, -0.7414397648771639 
3.1100000000021386, -0.7389013858946679 
3.1200000000021597, -0.7356267653497314 
3.130000000002181, -0.7316796886117317 
3.140000000002202, -0.7272737904498562 
3.150000000002223, -0.7227217778582493 
3.160000000002244, -0.7183401333577624 
3.1700000000022652, -0.7143714374807465 
3.1800000000022863, -0.7109572593159148 
3.1900000000023074, -0.70815041620893 
3.2000000000023285, -0.7059409771073109 
3.2100000000023496, -0.7042797824178478 
3.2200000000023707, -0.703095268091262 
3.230000000002392, -0.7023051497790095 
3.240000000002413, -0.7018251835727205 
3.250000000002434, -0.7015759762702594 
3.260000000002455, -0.7014877552213327 
3.2700000000024763, -0.7015028206387303 
3.2800000000024974, -0.7015758694452708 
3.2900000000025185, -0.7016729465725604 
3.3000000000025396, -0.701770010121124 
3.3100000000025607, -0.701851810928017 
3.3200000000025818, -0.7019110367048069 
3.330000000002603, -0.7019468244438581 
3.340000000002624, -0.7019615677280097 
3.350000000002645, -0.7019560854739237 
3.360000000002666, -0.7019251446603876 
3.3700000000026873, -0.7018562166758879 
3.3800000000027084, -0.701732803741184 
3.3900000000027295, -0.7015405914323031 
3.4000000000027506, -0.7012728246477099 
3.4100000000027717, -0.7009324679885529 
3.420000000002793, -0.7005315940955005 
3.430000000002814, -0.7000903030534806 
3.440000000002835, -0.6996373066290251 
3.450000000002856, -0.6992131174235765 
3.460000000002877, -0.6988756598586204 
3.4700000000028983, -0.6987072872759152 
3.4800000000029194, -0.6988214214869272 
3.4900000000029405, -0.6993662352287856 
3.5000000000029616, -0.7005220957194488 
3.5100000000029827, -0.7024889018103313 
3.520000000003004, -0.7054587301006126 
3.530000000003025, -0.7095686805104264 
3.540000000003046, -0.7148317451026038 
3.550000000003067, -0.72105786984065 
3.5600000000030882, -0.7278084376881107 
3.5700000000031094, -0.7344527956511413 
3.5800000000031305, -0.7403544616579352 
3.5900000000031516, -0.7450938067005609 
3.6000000000031727, -0.7485692583128655 
3.6100000000031938, -0.7509273855827665 
3.620000000003215, -0.7524183778435574 
3.630000000003236, -0.7532844955865939 
3.640000000003257, -0.753711758705077 
3.650000000003278, -0.7538236179079102 
3.6600000000032993, -0.753690214722139 
3.6700000000033204, -0.7533383156730948 
3.6800000000033415, -0.7527562021287121 
3.6900000000033626, -0.7518918190072744 
3.7000000000033837, -0.7506436174518087 
3.710000000003405, -0.7488443027433198 
3.720000000003426, -0.7462409810511977 
3.730000000003447, -0.7424856955520305 
3.740000000003468, -0.7371732202904264 
3.750000000003489, -0.7299877228285545 
3.7600000000035103, -0.7209837679617465 
3.7700000000035314, -0.7108476314492973 
3.7800000000035525, -0.7008094547351048 
3.7900000000035736, -0.6921159519708999 
3.8000000000035947, -0.6854863953854088 
3.810000000003616, -0.6809806924414094 
3.820000000003637, -0.6782278764625284 
3.830000000003658, -0.6767202455403334 
3.840000000003679, -0.6759995289259215 
3.8500000000037002, -0.6757245529685327 
3.8600000000037213, -0.6756696525593575 
3.8700000000037424, -0.6756971415178851 
3.8800000000037635, -0.6757270970275797 
3.8900000000037847, -0.6757131414904036 
3.9000000000038058, -0.6756256738304229 
3.910000000003827, -0.6754415274496729 
3.920000000003848, -0.6751389210718444 
3.930000000003869, -0.6746972378836051 
3.94000000000389, -0.674101391689139 
3.9500000000039113, -0.6733492790960276 
3.9600000000039324, -0.672458208227748 
3.9700000000039535, -0.6714648794909273 
3.9800000000039746, -0.6704167711594611 
3.9900000000039957, -0.6693592221050735 
4.000000000004016, -0.66832569663628 
4.010000000003993, -0.6673355290461124 
4.02000000000397, -0.6663979483940475 
4.030000000003946, -0.6655184207151086 
4.040000000003923, -0.6647040652722782 
4.0500000000039, -0.6639669506411011 
4.0600000000038765, -0.6633255324276189 
4.070000000003853, -0.6628048681308453 
4.08000000000383, -0.6624360167413048 
4.090000000003807, -0.6622547899870168 
4.100000000003783, -0.6623000140023041 
4.11000000000376, -0.6626115965630484 
4.120000000003737, -0.6632287375775897 
4.130000000003713, -0.6641883509798523 
4.14000000000369, -0.6655230958923016 
4.150000000003667, -0.6672574479468848 
4.1600000000036434, -0.6693993902487311 
4.17000000000362, -0.6719255860201926 
4.180000000003597, -0.6747611796827477 
4.1900000000035735, -0.6777631972880528 
4.20000000000355, -0.6807254316316074 
4.210000000003527, -0.6834197005042459 
4.220000000003504, -0.6856624726829239 
4.23000000000348, -0.687366513072663 
4.240000000003457, -0.6885444074061574 
4.250000000003434, -0.6892715320730594 
4.26000000000341, -0.6896411823852129 
4.270000000003387, -0.6897346040586756 
4.280000000003364, -0.6896084658267423 
4.2900000000033405, -0.6892925982695035 
4.300000000003317, -0.688790969112635 
4.310000000003294, -0.6880818566916416 
4.320000000003271, -0.6871154266454826 
4.330000000003247, -0.6858079597434527 
4.340000000003224, -0.6840324020176933 
4.350000000003201, -0.6816058249462169 
4.360000000003177, -0.6782790493358564 
4.370000000003154, -0.6737502860063554 
4.380000000003131, -0.6677579705835606 
4.390000000003107, -0.6603103335490996 
4.400000000003084, -0.6519544055664592 
4.410000000003061, -0.6437466832820724 
4.4200000000030375, -0.6367664571003627 
4.430000000003014, -0.6315926790554389 
4.440000000002991, -0.6282039523446428 
4.450000000002968, -0.626225060104036 
4.460000000002944, -0.6252030050569106 
4.470000000002921, -0.6247577785533392 
4.480000000002898, -0.6246219931805703 
4.490000000002874, -0.6246264814157427 
4.500000000002851, -0.6246713297677551 
4.510000000002828, -0.6246995045654725 
4.520000000002804, -0.6246776198112893 
4.530000000002781, -0.6245834908489092 
4.540000000002758, -0.624399075979133 
4.5500000000027345, -0.6241078350541545 
4.560000000002711, -0.6236961078354268 
4.570000000002688, -0.6231578855871277 
4.580000000002665, -0.622500787106256 
4.590000000002641, -0.6217490762611091 
4.600000000002618, -0.620939904357918 
4.610000000002595, -0.6201132202113209 
4.620000000002571, -0.6193007706901356 
4.630000000002548, -0.6185202091996602 
4.640000000002525, -0.617776253468737 
4.6500000000025015, -0.6170664621099984 
4.660000000002478, -0.6163877909316309 
4.670000000002455, -0.6157414146670152 
4.6800000000024315, -0.6151354092393153 
4.690000000002408, -0.6145861996660245 
4.700000000002385, -0.614119826836845 
4.710000000002362, -0.6137735926909109 
4.720000000002338, -0.6135981073532049 
4.730000000002315, -0.6136594417365115 
4.740000000002292, -0.6140409499946128 
4.750000000002268, -0.6148441794538251 
4.760000000002245, -0.6161878256940156 
4.770000000002222, -0.6182025086357801 
4.7800000000021985, -0.6210169439750357 
4.790000000002175, -0.6247284805956699 
4.800000000002152, -0.6293513698773143 
4.810000000002129, -0.6347475878606613 
4.820000000002105, -0.6405748564589511 
4.830000000002082, -0.646317224338146 
4.840000000002059, -0.6514355262850178 
4.850000000002035, -0.6555636309644752 
4.860000000002012, -0.6586055209738915 
4.870000000001989, -0.6606804899930654 
4.880000000001965, -0.6619993631331099 
4.890000000001942, -0.6627677755513514 
4.900000000001919, -0.6631438644431313 
4.9100000000018955, -0.6632320240703581 
4.920000000001872, -0.6630898855289056 
