t, s[1].omega / s[0].omega 
0, -1.3399973406514651 
0.009999999999999995, -1.339587483500404 
0.019999999999999934, -1.338897146069275 
0.029999999999999874, -1.3379410545091366 
0.04000000000000012, -1.3367486632685162 
0.050000000000000405, -1.3353721312878166 
0.06000000000000069, -1.3338963436102822 
0.07000000000000098, -1.3324466603544751 
0.08000000000000126, -1.3311825865549072 
0.09000000000000155, -1.3302551006067902 
0.10000000000000184, -1.3297268004314957 
0.11000000000000212, -1.3295216377369616 
0.12000000000000241, -1.3294697700598155 
0.130000000000002, -1.3293969346198276 
0.1400000000000009, -1.3291653277787825 
0.1499999999999998, -1.3286514953540844 
0.1599999999999987, -1.32769576354794 
0.1699999999999976, -1.3260454678920657 
0.1799999999999965, -1.323301687998548 
0.1899999999999954, -1.3188952811017718 
0.1999999999999943, -1.3121608701267098 
0.2099999999999932, -1.3026225906922724 
0.2199999999999921, -1.2905667025344196 
0.229999999999991, -1.2776608813718942 
0.2399999999999899, -1.266759091075023 
0.2499999999999888, -1.2601900243114126 
0.2599999999999877, -1.2579777126765603 
0.2699999999999866, -1.258319129081395 
0.2799999999999855, -1.2594232888655268 
0.2899999999999844, -1.2603809852541328 
0.2999999999999833, -1.2609420540652834 
0.3099999999999822, -1.2611116951166115 
0.3199999999999811, -1.2609297968988393 
0.32999999999998, -1.260388938413449 
0.3399999999999789, -1.2594043174538339 
0.3499999999999778, -1.257802923018097 
0.35999999999997667, -1.255365820504878 
0.36999999999997557, -1.2520613434818582 
0.37999999999997447, -1.2486879449932933 
0.38999999999997337, -1.2477216946626652 
0.39999999999997227, -1.2527630393193792 
0.40999999999997117, -1.2652000106442234 
0.41999999999997006, -1.2817408784315696 
0.42999999999996896, -1.2972068125127072 
0.43999999999996786, -1.308645536124029 
0.44999999999996676, -1.31590438832646 
0.45999999999996566, -1.3200696883738172 
0.46999999999996456, -1.3222732604089158 
0.47999999999996346, -1.3233107372884079 
0.48999999999996235, -1.3236576809180831 
0.49999999999996125, -1.3235778095838935 
0.5099999999999602, -1.3232215332957762 
0.519999999999959, -1.3227074800725167 
0.529999999999958, -1.3221978566575028 
0.5399999999999568, -1.3219461392989826 
0.5499999999999557, -1.3222447144931897 
0.5599999999999546, -1.3232520619693062 
0.5699999999999535, -1.3248641647836035 
0.5799999999999524, -1.3267904639197752 
0.5899999999999513, -1.328730092980142 
0.5999999999999502, -1.3304725470317165 
0.6099999999999491, -1.3319028253711642 
0.619999999999948, -1.3329716079097156 
0.6299999999999469, -1.3336682678388705 
0.6399999999999458, -1.3340047184489179 
0.6499999999999447, -1.3340071612712732 
0.6599999999999436, -1.333711750061657 
0.6699999999999425, -1.3331626582194245 
0.6799999999999414, -1.3324134226651179 
0.6899999999999403, -1.3315314098591773 
0.6999999999999392, -1.3306009057772612 
0.7099999999999381, -1.329718694712413 
0.719999999999937, -1.3289809979864375 
0.7299999999999359, -1.3284625949377395 
0.7399999999999348, -1.3281870340872566 
0.7499999999999337, -1.3281041301655274 
0.7599999999999326, -1.3281044433823082 
0.7699999999999315, -1.328062359332781 
0.7799999999999304, -1.3278641546456131 
0.7899999999999293, -1.3274021787163608 
0.7999999999999282, -1.3265506881450353 
0.8099999999999271, -1.3251437471159964 
0.819999999999926, -1.3229689282822237 
0.8299999999999249, -1.3197874520284671 
0.8399999999999238, -1.3153900132709109 
0.8499999999999227, -1.3096973214351135 
0.8599999999999216, -1.3029133152615961 
0.8699999999999205, -1.295698828592589 
0.8799999999999194, -1.289188136783483 
0.8899999999999183, -1.2845530489069485 
0.8999999999999172, -1.2822329476949847 
0.9099999999999161, -1.281675599280717 
0.919999999999915, -1.281940067816704 
0.9299999999999139, -1.2823410319664512 
0.9399999999999128, -1.2825697710448383 
0.9499999999999117, -1.2825283721035399 
0.9599999999999106, -1.282170789091133 
0.9699999999999095, -1.2814101269229359 
0.9799999999999084, -1.2800551068105 
0.9899999999999073, -1.2777462497361864 
0.9999999999999062, -1.2739172580514149 
1.0099999999999052, -1.2679483337413493 
1.019999999999904, -1.2599087208076223 
1.029999999999903, -1.2520398836094793 
1.039999999999902, -1.2491539948573573 
1.0499999999999008, -1.2548581976717743 
1.0599999999998997, -1.2669671936985156 
1.0699999999998986, -1.2797461255205402 
1.0799999999998975, -1.2894414756839194 
1.0899999999998964, -1.2955337332580343 
1.0999999999998953, -1.2989547503531842 
1.1099999999998942, -1.300711749027345 
1.119999999999893, -1.3014894704129658 
1.129999999999892, -1.3016789047251351 
1.1399999999998909, -1.301483713570768 
1.1499999999998898, -1.301010593267267 
1.1599999999998887, -1.3003504076561276 
1.1699999999998876, -1.299678165050637 
1.1799999999998865, -1.299360737422803 
1.1899999999998854, -1.2999449977344097 
1.1999999999998843, -1.30186763756788 
1.2099999999998832, -1.3050735849639867 
1.219999999999882, -1.309014571381826 
1.229999999999881, -1.3130232192319853 
1.2399999999998799, -1.3166169611922753 
1.2499999999998788, -1.3195540016875706 
1.2599999999998777, -1.3217659209092225 
1.2699999999998766, -1.3232849786462004 
1.2799999999998755, -1.3241960713662762 
1.2899999999998744, -1.3246058278085908 
1.2999999999998733, -1.3246216293946977 
1.3099999999998722, -1.324340880308078 
1.319999999999871, -1.323852396160699 
1.32999999999987, -1.3232468151194 
1.3399999999998689, -1.3226249371681325 
1.3499999999998678, -1.3220896513728446 
1.3599999999998666, -1.3217207391385615 
1.3699999999998655, -1.3215527232447881 
1.3799999999998644, -1.3215703397926852 
1.3899999999998633, -1.3217150700719054 
1.3999999999998622, -1.3218985584189789 
1.4099999999998611, -1.3220235400889995 
1.41999999999986, -1.3220009555153136 
1.429999999999859, -1.3217527662121247 
1.4399999999998578, -1.321205463881514 
1.4499999999998567, -1.3202854421508237 
1.4599999999998556, -1.3189218816482255 
1.4699999999998545, -1.3170561670168675 
1.4799999999998534, -1.3146554289154562 
1.4899999999998523, -1.3117322484095442 
1.4999999999998512, -1.3083779435332896 
1.5099999999998501, -1.304811912375269 
1.519999999999849, -1.301416885786848 
1.529999999999848, -1.2986730162988909 
1.5399999999998468, -1.296927229343403 
1.5499999999998457, -1.2961568253434994 
1.5599999999998446, -1.2960127472130165 
1.5699999999998435, -1.2960921720217942 
1.5799999999998424, -1.2961231389731858 
1.5899999999998413, -1.295960592136833 
1.5999999999998402, -1.295502954281202 
1.6099999999998391, -1.2946082568465764 
1.619999999999838, -1.2930124355804202 
1.629999999999837, -1.2902285490633163 
1.6399999999998358, -1.28543346254986 
1.6499999999998347, -1.2774604389133393 
1.6599999999998336, -1.2652585452180778 
1.6699999999998325, -1.249272495149492 
1.6799999999998314, -1.233037979444792 
1.6899999999998303, -1.2220162944687663 
1.6999999999998292, -1.218903369750345 
1.709999999999828, -1.2214405812860176 
1.719999999999827, -1.2256900035017766 
1.729999999999826, -1.2292959190649033 
1.7399999999998248, -1.2316755108763888 
1.7499999999998237, -1.2330196562478506 
1.7599999999998226, -1.233642960911086 
1.7699999999998215, -1.2337744084385254 
1.7799999999998204, -1.2335348466584974 
1.7899999999998193, -1.2329595360798198 
1.7999999999998182, -1.2320302785125352 
1.809999999999817, -1.230739305034764 
1.819999999999816, -1.2292505964469915 
1.8299999999998149, -1.2282166844223226 
1.8399999999998138, -1.2290650910462673 
1.8499999999998127, -1.2335792519548254 
1.8599999999998116, -1.2424373759259466 
1.8699999999998105, -1.2541777985670883 
1.8799999999998094, -1.2661417333598428 
1.8899999999998083, -1.2762261047058456 
1.8999999999998072, -1.283621445817709 
1.909999999999806, -1.2884995449402723 
1.919999999999805, -1.2914427840564746 
1.9299999999998039, -1.2930557888265015 
1.9399999999998028, -1.2938063650893776 
1.9499999999998017, -1.2940069075121967 
1.9599999999998006, -1.2938527854968063 
1.9699999999997995, -1.2934748277820576 
1.9799999999997984, -1.2929924428432193 
1.9899999999997973, -1.2925574721152548 
1.9999999999997962, -1.2923598857948373 
2.0099999999998173, -1.2925647828384126 
2.0199999999998384, -1.2932178865275636 
2.0299999999998595, -1.2942197985484913 
2.0399999999998806, -1.2953942933581686 
2.0499999999999017, -1.2965707095630987 
2.059999999999923, -1.2976222636862071 
2.069999999999944, -1.2984680113043863 
2.079999999999965, -1.2990620077891502 
2.089999999999986, -1.299381918003199 
2.100000000000007, -1.2994209838310136 
2.1100000000000283, -1.299183789192875 
2.1200000000000494, -1.298684878725222 
2.1300000000000705, -1.2979494279372994 
2.1400000000000916, -1.2970160113400764 
2.1500000000001127, -1.2959412350976627 
2.160000000000134, -1.2948037545513371 
2.170000000000155, -1.293703410953238 
2.180000000000176, -1.2927513913799167 
2.190000000000197, -1.2920456626236354 
2.2000000000002182, -1.2916300479913572 
2.2100000000002393, -1.2914618619829195 
2.2200000000002604, -1.2914260628957566 
2.2300000000002815, -1.29138641483503 
2.2400000000003026, -1.2912221183558765 
2.2500000000003237, -1.2908254908620436 
2.260000000000345, -1.2900761312850866 
2.270000000000366, -1.288813408410846 
2.280000000000387, -1.2868218550170294 
2.290000000000408, -1.2838422218301273 
2.3000000000004293, -1.2796210967625068 
2.3100000000004504, -1.274007612840567 
2.3200000000004715, -1.2670981120175548 
2.3300000000004926, -1.2594061004595907 
2.3400000000005137, -1.2519447665329273 
2.3500000000005348, -1.2459758867101698 
2.360000000000556, -1.2423346859196667 
2.370000000000577, -1.2408847152110978 
2.380000000000598, -1.2407745344088028 
2.390000000000619, -1.2411443810837288 
2.4000000000006403, -1.241495579690576 
2.4100000000006614, -1.2416331538925536 
2.4200000000006825, -1.2414946581546362 
2.4300000000007036, -1.2410290255306275 
2.4400000000007247, -1.24012484924063 
2.450000000000746, -1.2385495531593276 
2.460000000000767, -1.2358778332851788 
2.470000000000788, -1.2314385488017026 
2.480000000000809, -1.224441247915052 
2.49000000000083, -1.2146537218037277 
2.5000000000008513, -1.2038023701916016 
2.5100000000008724, -1.1962284488031953 
2.5200000000008935, -1.1960591705302352 
2.5300000000009146, -1.2028619522424842 
2.5400000000009357, -1.2122412694238545 
2.550000000000957, -1.2203351727156622 
2.560000000000978, -1.2258613031395014 
2.570000000000999, -1.2291575895538425 
2.58000000000102, -1.2309407608224492 
2.5900000000010412, -1.2317838490519608 
2.6000000000010624, -1.2320402492403706 
2.6100000000010835, -1.2318975482998604 
2.6200000000011046, -1.231439826230451 
2.6300000000011257, -1.230703127063996 
2.6400000000011468, -1.2297509286851163 
2.650000000001168, -1.2288117255063304 
2.660000000001189, -1.2284722045025336 
2.67000000000121, -1.2297246471554704 
2.680000000001231, -1.2335127321146173 
2.6900000000012523, -1.2399202205393949 
2.7000000000012734, -1.2479208967121327 
2.7100000000012945, -1.2560415007582786 
2.7200000000013156, -1.2631392617668555 
2.7300000000013367, -1.2686761552920185 
2.740000000001358, -1.272605032853321 
2.750000000001379, -1.275153427993483 
2.7600000000014, -1.2766429907438033 
2.770000000001421, -1.2773773556557295 
2.780000000001442, -1.2775940067474247 
2.7900000000014633, -1.2774616270980563 
2.8000000000014844, -1.277102790239455 
2.8100000000015055, -1.2766273686230891 
2.8200000000015266, -1.276162628191591 
2.8300000000015477, -1.2758571924809161 
2.840000000001569, -1.275840001533404 
2.85000000000159, -1.2761590524236512 
2.860000000001611, -1.2767612210083805 
2.870000000001632, -1.2775304284245386 
2.8800000000016532, -1.2783395221328084 
2.8900000000016743, -1.2790804434641445 
2.9000000000016954, -1.279673230028073 
2.9100000000017165, -1.2800642993924738 
2.9200000000017377, -1.2802206985807794 
2.9300000000017588, -1.2801243634613522 
2.94000000000178, -1.2797683913069264 
2.950000000001801, -1.2791556134221245 
2.960000000001822, -1.2782992990312003 
2.970000000001843, -1.277226129093626 
2.9800000000018643, -1.2759814836577703 
2.9900000000018854, -1.2746357803489592 
3.0000000000019065, -1.2732885248027281 
3.0100000000019276, -1.2720643025038885 
3.0200000000019487, -1.271090773485207 
3.03000000000197, -1.2704514508059939 
3.040000000001991, -1.270135673951793 
3.050000000002012, -1.2700361868237215 
3.060000000002033, -1.2700033143832736 
3.070000000002054, -1.269899837114356 
3.0800000000020753, -1.2696127290980614 
3.0900000000020964, -1.2690296683287186 
3.1000000000021175, -1.2680053472542592 
3.1100000000021386, -1.2663341538059258 
3.1200000000021597, -1.2637422201979578 
3.130000000002181, -1.2599164683527524 
3.140000000002202, -1.2545891249636552 
3.150000000002223, -1.247685187454811 
3.160000000002244, -1.2395159058994214 
3.1700000000022652, -1.2309399195611854 
3.1800000000022863, -1.2232869374240427 
3.1900000000023074, -1.2178181972823918 
3.2000000000023285, -1.2149633808239884 
3.2100000000023496, -1.214129585892387 
3.2200000000023707, -1.2143140841150768 
3.230000000002392, -1.214752257725695 
3.240000000002413, -1.215072258964034 
3.250000000002434, -1.2151480700956765 
3.260000000002455, -1.214937434476226 
3.2700000000024763, -1.2143843405879973 
3.2800000000024974, -1.2133587578189486 
3.2900000000025185, -1.211597368452737 
3.3000000000025396, -1.2086309544525837 
3.3100000000025607, -1.2037376631035162 
3.3200000000025818, -1.1960952472882203 
3.330000000002603, -1.1854880114554147 
3.340000000002624, -1.1736471501920018 
3.350000000002645, -1.1647466131205724 
3.360000000002666, -1.1627194340509523 
3.3700000000026873, -1.1674083638859487 
3.3800000000027084, -1.1750326449069561 
3.3900000000027295, -1.182034240065892 
3.4000000000027506, -1.1870156086811594 
3.4100000000027717, -1.1900833688205719 
3.420000000002793, -1.1917876913663807 
3.430000000002814, -1.1926146897829466 
3.440000000002835, -1.1928783789266375 
3.450000000002856, -1.1927479500590403 
3.460000000002877, -1.1922932397941388 
3.4700000000028983, -1.1915250162531539 
3.4800000000029194, -1.190448753455501 
3.4900000000029405, -1.1891786402787408 
3.5000000000029616, -1.1881614557380797 
3.5100000000029827, -1.1884329878178337 
3.520000000003004, -1.1915002275783735 
3.530000000003025, -1.1984172281954104 
3.540000000003046, -1.2086698182209803 
3.550000000003067, -1.220265505113691 
3.5600000000030882, -1.2310126294132102 
3.5700000000031094, -1.239581566116718 
3.5800000000031305, -1.2456623492383359 
3.5900000000031516, -1.2495867918326744 
3.6000000000031727, -1.2519067933811268 
3.6100000000031938, -1.2531361811106958 
3.620000000003215, -1.25365644185043 
3.630000000003236, -1.2537182196905368 
3.640000000003257, -1.2534800879331418 
3.650000000003278, -1.2530566623919333 
3.6600000000032993, -1.2525677958546237 
3.6700000000033204, -1.2521773235961629 
3.6800000000033415, -1.2520890019070676 
3.6900000000033626, -1.2524720517463996 
3.7000000000033837, -1.2533625960790018 
3.710000000003405, -1.254642587229537 
3.720000000003426, -1.2561147313325256 
3.730000000003447, -1.2575902038376563 
3.740000000003468, -1.2589299039365718 
3.750000000003489, -1.2600462194657136 
3.7600000000035103, -1.2608904864351091 
3.7700000000035314, -1.2614404646288604 
3.7800000000035525, -1.2616922036477238 
3.7900000000035736, -1.261655986615252 
3.8000000000035947, -1.26135439941581 
3.810000000003616, -1.2608213096188439 
3.820000000003637, -1.2601023371018862 
3.830000000003658, -1.2592573917065444 
3.840000000003679, -1.2583626749229917 
3.8500000000037002, -1.2575067217095608 
3.8600000000037213, -1.2567779130901733 
3.8700000000037424, -1.2562462675412855 
3.8800000000037635, -1.2559425984216723 
3.8900000000037847, -1.2558414073735213 
3.9000000000038058, -1.2558633077009778 
3.910000000003827, -1.2559019613973628 
3.920000000003848, -1.2558535602515177 
3.930000000003869, -1.2556266482626528 
3.94000000000389, -1.255133936124334 
3.9500000000039113, -1.254281085322618 
3.9600000000039324, -1.2529644323850653 
3.9700000000039535, -1.2510818876507341 
3.9800000000039746, -1.2485543607136609 
3.9900000000039957, -1.2453520948444337 
4.000000000004016, -1.241524456048906 
4.010000000003993, -1.2372378269449107 
4.02000000000397, -1.2328173632711557 
4.030000000003946, -1.228749535479392 
4.040000000003923, -1.2255621001375412 
4.0500000000039, -1.2235687906031845 
4.0600000000038765, -1.2226779315300618 
4.070000000003853, -1.222490803354106 
4.08000000000383, -1.2225789937649227 
4.090000000003807, -1.2226554488024757 
4.100000000003783, -1.2225697058479728 
4.11000000000376, -1.222230525813517 
4.120000000003737, -1.2215305249010975 
4.130000000003713, -1.2202801482388597 
4.14000000000369, -1.2181335408386742 
4.150000000003667, -1.2144994873673876 
4.1600000000036434, -1.2084808312622592 
4.17000000000362, -1.1990020760909317 
4.180000000003597, -1.1854142025215526 
4.1900000000035735, -1.1686481747852029 
4.20000000000355, -1.151955889154229 
4.210000000003527, -1.1395185035281903 
4.220000000003504, -1.133417681148411 
4.23000000000348, -1.1324510486216017 
4.240000000003457, -1.1339679154249367 
4.250000000003434, -1.1359542536648513 
4.26000000000341, -1.1375344167353643 
4.270000000003387, -1.1385350099835168 
4.280000000003364, -1.1390333810756437 
4.2900000000033405, -1.139134791376484 
4.300000000003317, -1.1388977379541227 
4.310000000003294, -1.1383136934862734 
4.320000000003271, -1.1372959452973104 
4.330000000003247, -1.1356668511190207 
4.340000000003224, -1.133164180388606 
4.350000000003201, -1.129543013036282 
4.360000000003177, -1.1249276949282916 
4.370000000003154, -1.1205002147336471 
4.380000000003131, -1.1189845562844556 
4.390000000003107, -1.1235009822092186 
4.400000000003084, -1.1346394890238798 
4.410000000003061, -1.1491660363387368 
4.4200000000030375, -1.1626716180307413 
4.430000000003014, -1.172714094246511 
4.440000000002991, -1.1791663157935903 
4.450000000002968, -1.182936874404997 
4.460000000002944, -1.1849822966885344 
4.470000000002921, -1.1859811836162548 
4.480000000002898, -1.1863408004663913 
4.490000000002874, -1.1862814406931659 
4.500000000002851, -1.185910702529983 
4.510000000002828, -1.1852811004523287 
4.520000000002804, -1.184453828290097 
4.530000000002781, -1.183601152315697 
4.540000000002758, -1.1831533155768752 
4.5500000000027345, -1.1838794092839104 
4.560000000002711, -1.1866530323961904 
4.570000000002688, -1.191859472157296 
4.580000000002665, -1.198978135513722 
4.590000000002641, -1.206843969698821 
4.600000000002618, -1.2142797425953713 
4.610000000002595, -1.2205142980752177 
4.620000000002571, -1.2252486178167965 
4.630000000002548, -1.2285351574785366 
4.640000000002525, -1.2306163243652888 
4.6500000000025015, -1.2317885294441722 
4.660000000002478, -1.2323173865633208 
4.670000000002455, -1.2324050556123742 
4.6800000000024315, -1.2321947985559678 
4.690000000002408, -1.2317958056166671 
4.700000000002385, -1.2313161862991246 
4.710000000002362, -1.2308903911422413 
4.720000000002338, -1.2306773475742303 
4.730000000002315, -1.2308119195043938 
4.740000000002292, -1.231338630313307 
4.750000000002268, -1.232191343680784 
4.760000000002245, -1.2332359080140212 
4.770000000002222, -1.2343287799661358 
4.7800000000021985, -1.2353516079508158 
4.790000000002175, -1.2362202124686008 
4.800000000002152, -1.236880729777195 
4.810000000002129, -1.2373021349128743 
4.820000000002105, -1.2374697295412653 
4.830000000002082, -1.2373812963678397 
4.840000000002059, -1.2370457096240748 
4.850000000002035, -1.236483052457523 
4.860000000002012, -1.2357258166127694 
4.870000000001989, -1.2348213728962691 
4.880000000001965, -1.2338347224964443 
4.890000000001942, -1.2328479832583945 
4.900000000001919, -1.231952811765328 
4.9100000000018955, -1.231234985380633 
4.920000000001872, -1.2307522007994387 
4.930000000001849, -1.2305098386874247 
4.940000000001826, -1.2304508673426309 
