t, s[1].omega / s[0].omega 
0, -0.5999977279454949 
0.009999999999999995, -0.5997817740109561 
0.019999999999999934, -0.5995800541504523 
0.029999999999999874, -0.599372177169658 
0.04000000000000012, -0.5991341439661515 
0.050000000000000405, -0.5988473143773505 
0.06000000000000069, -0.5985035577901585 
0.07000000000000098, -0.5981059888339648 
0.08000000000000126, -0.5976677121137828 
0.09000000000000155, -0.597211642620027 
0.10000000000000184, -0.5967735222079329 
0.11000000000000212, -0.5964093205623872 
0.12000000000000241, -0.5962079227530266 
0.130000000000002, -0.5963100375692539 
0.1400000000000009, -0.5969338497406719 
0.1499999999999998, -0.5984058479640895 
0.1599999999999987, -0.601189063251893 
0.1699999999999976, -0.6058862431067747 
0.1799999999999965, -0.613168138693736 
0.1899999999999954, -0.6235487617181777 
0.1999999999999943, -0.6369669577804967 
0.2099999999999932, -0.652358630506628 
0.2199999999999921, -0.6677288142125255 
0.229999999999991, -0.6810239365637745 
0.2399999999999899, -0.691140678771282 
0.2499999999999888, -0.6981266114390248 
0.2599999999999877, -0.7026548925158308 
0.2699999999999866, -0.7054783596617804 
0.2799999999999855, -0.7071849963149172 
0.2899999999999844, -0.7081683225748266 
0.2999999999999833, -0.7086710113099592 
0.3099999999999822, -0.7088322246715663 
0.3199999999999811, -0.7087200117141709 
0.32999999999998, -0.7083481978768855 
0.3399999999999789, -0.7076805700384324 
0.3499999999999778, -0.7066248896590628 
0.35999999999997667, -0.7050204353824864 
0.36999999999997557, -0.7026292066859836 
0.37999999999997447, -0.6991551139767349 
0.38999999999997337, -0.694328409670337 
0.39999999999997227, -0.6880680264487479 
0.40999999999997117, -0.680640171969899 
0.41999999999997006, -0.6726537776740438 
0.42999999999996896, -0.6648429022877931 
0.43999999999996786, -0.6578010047549323 
0.44999999999996676, -0.6518524183332093 
0.45999999999996566, -0.6470780267814629 
0.46999999999996456, -0.6434047936861398 
0.47999999999996346, -0.6406868528351802 
0.48999999999996235, -0.6387565437091764 
0.49999999999996125, -0.6374507950323134 
0.5099999999999602, -0.6366231877767972 
0.519999999999959, -0.6361488546005314 
0.529999999999958, -0.6359257427170858 
0.5399999999999568, -0.6358737189345052 
0.5499999999999557, -0.63593230550335 
0.5599999999999546, -0.6360577936171206 
0.5699999999999535, -0.6362205165119859 
0.5799999999999524, -0.6364028438242297 
0.5899999999999513, -0.6365978332467024 
0.5999999999999502, -0.6368075510183521 
0.6099999999999491, -0.6370394450070467 
0.619999999999948, -0.6372997795442954 
0.6299999999999469, -0.6375853652649199 
0.6399999999999458, -0.6378774086681867 
0.6499999999999447, -0.6381419366357302 
0.6599999999999436, -0.6383382701498883 
0.6699999999999425, -0.6384315975321211 
0.6799999999999414, -0.6384024622861116 
0.6899999999999403, -0.6382486775035346 
0.6999999999999392, -0.6379811739365808 
0.7099999999999381, -0.6376187035209784 
0.719999999999937, -0.6371855420875235 
0.7299999999999359, -0.6367141954956097 
0.7399999999999348, -0.6362540805553202 
0.7499999999999337, -0.6358874456304459 
0.7599999999999326, -0.6357544501753506 
0.7699999999999315, -0.6360889977563462 
0.7799999999999304, -0.6372635078232626 
0.7899999999999293, -0.6398303509062312 
0.7999999999999282, -0.6445239274868186 
0.8099999999999271, -0.6521480242425659 
0.819999999999926, -0.6632481194268189 
0.8299999999999249, -0.6775699037442209 
0.8399999999999238, -0.693653326300729 
0.8499999999999227, -0.7091896565291707 
0.8599999999999216, -0.7221688106405574 
0.8699999999999205, -0.7317798138311999 
0.8799999999999194, -0.7383118171404974 
0.8899999999999183, -0.7425182282906614 
0.8999999999999172, -0.7451355411105807 
0.9099999999999161, -0.7467126937883374 
0.919999999999915, -0.7476113984663727 
0.9299999999999139, -0.7480535321643327 
0.9399999999999128, -0.7481648197262177 
0.9499999999999117, -0.74800317817935 
0.9599999999999106, -0.7475722526339961 
0.9699999999999095, -0.7468223261095883 
0.9799999999999084, -0.7456402284640207 
0.9899999999999073, -0.7438313073865581 
0.9999999999999062, -0.7411043400960983 
1.0099999999999052, -0.737088508337433 
1.019999999999904, -0.731431244401309 
1.029999999999903, -0.7240016348761407 
1.039999999999902, -0.7151055697945445 
1.0499999999999008, -0.7055026702053555 
1.0599999999998997, -0.6961371457761782 
1.0699999999998986, -0.6877841206510366 
1.0799999999998975, -0.6808654845467872 
1.0899999999998964, -0.6754734392070068 
1.0999999999998953, -0.6714872017947288 
1.1099999999998942, -0.668684544431916 
1.119999999999893, -0.6668158377549327 
1.129999999999892, -0.6656449334535566 
1.1399999999998909, -0.6649686781481339 
1.1499999999998898, -0.6646237267194521 
1.1599999999998887, -0.6644857293167299 
1.1699999999998876, -0.6644641321916742 
1.1799999999998865, -0.6644950985208105 
1.1899999999998854, -0.6645345850658055 
1.1999999999998843, -0.664553061860168 
1.2099999999998832, -0.6645326394617352 
1.219999999999882, -0.66446633520535 
1.229999999999881, -0.6643578815024557 
1.2399999999998799, -0.6642195898062255 
1.2499999999998788, -0.6640666582018626 
1.2599999999998777, -0.6639091927866269 
1.2699999999998766, -0.6637459618892586 
1.2799999999998755, -0.6635637844333319 
1.2899999999998744, -0.6633431519330225 
1.2999999999998733, -0.6630667311501449 
1.3099999999998722, -0.6627260622738482 
1.319999999999871, -0.6623240920151054 
1.32999999999987, -0.6618747465101763 
1.3399999999998689, -0.6614024884077064 
1.3499999999998678, -0.6609442361853408 
1.3599999999998666, -0.6605546330258409 
1.3699999999998655, -0.6603145449110082 
1.3799999999998644, -0.6603418851261152 
1.3899999999998633, -0.6608030354872338 
1.3999999999998622, -0.6619219956026231 
1.4099999999998611, -0.6639826770688038 
1.41999999999986, -0.6673167977259531 
1.429999999999859, -0.6722646738944984 
1.4399999999998578, -0.6790901428953322 
1.4499999999998567, -0.6878344374517298 
1.4599999999998556, -0.6981336736494843 
1.4699999999998545, -0.7091187939905634 
1.4799999999998534, -0.7195827305249181 
1.4899999999998523, -0.7284387666014199 
1.4999999999998512, -0.7351522405782673 
1.5099999999998501, -0.7397976543115126 
1.519999999999849, -0.7427939214815528 
1.529999999999848, -0.7446163955334311 
1.5399999999998468, -0.7456484324958661 
1.5499999999998457, -0.7461510660022723 
1.5599999999998446, -0.7462821726654203 
1.5699999999998435, -0.7461224649673905 
1.5799999999998424, -0.7456926761681911 
1.5899999999998413, -0.7449583294955217 
1.5999999999998402, -0.743821103234275 
1.6099999999998391, -0.742095165477145 
1.619999999999838, -0.7394676068223551 
1.629999999999837, -0.7354516387390365 
1.6399999999998358, -0.7293736938631512 
1.6499999999998347, -0.7204985591270568 
1.6599999999998336, -0.7084218692249753 
1.6699999999998325, -0.6936424151459649 
1.6799999999998314, -0.6777721581684214 
1.6899999999998303, -0.6629042915298531 
1.6999999999998292, -0.6506047268208996 
1.709999999999828, -0.6414298331244476 
1.719999999999827, -0.6351321935778204 
1.729999999999826, -0.6310989896087594 
1.7399999999998248, -0.6286758978966174 
1.7499999999998237, -0.6273161123173473 
1.7599999999998226, -0.6266158122463364 
1.7699999999998215, -0.6262986282666477 
1.7799999999998204, -0.6261849653493442 
1.7899999999998193, -0.6261619876702225 
1.7999999999998182, -0.6261596372555477 
1.809999999999817, -0.6261335678303228 
1.819999999999816, -0.6260543686875353 
1.8299999999998149, -0.6259022305740185 
1.8399999999998138, -0.6256661630433905 
1.8499999999998127, -0.6253461900375451 
1.8599999999998116, -0.624955529858193 
1.8699999999998105, -0.6245189961128883 
1.8799999999998094, -0.6240658090034854 
1.8899999999998083, -0.6236193541385107 
1.8999999999998072, -0.6231894138378731 
1.909999999999806, -0.6227710729472651 
1.919999999999805, -0.6223502354924748 
1.9299999999998039, -0.6219120471629218 
1.9399999999998028, -0.6214478813080604 
1.9499999999998017, -0.6209588176209182 
1.9599999999998006, -0.6204565074197379 
1.9699999999997995, -0.6199637578935151 
1.9799999999997984, -0.61951681088055 
1.9899999999997973, -0.6191702589658762 
1.9999999999997962, -0.6190047090340067 
2.0099999999998173, -0.6191367733829579 
2.0199999999998384, -0.6197304511994152 
2.0299999999998595, -0.6210080582123082 
2.0399999999998806, -0.6232569073172145 
2.0499999999999017, -0.6268236848853084 
2.059999999999923, -0.6320803923298617 
2.069999999999944, -0.6393352550505167 
2.079999999999965, -0.6486631243101543 
2.089999999999986, -0.6596800735484234 
2.100000000000007, -0.6714139736680645 
2.1100000000000283, -0.6825106551966649 
2.1200000000000494, -0.6917901755302497 
2.1300000000000705, -0.6987304233798871 
2.1400000000000916, -0.703479544584347 
2.1500000000001127, -0.7065245018847363 
2.160000000000134, -0.708378356221818 
2.170000000000155, -0.7094390961833327 
2.180000000000176, -0.7099716957856372 
2.190000000000197, -0.7101346428516407 
2.2000000000002182, -0.7100088920697748 
2.2100000000002393, -0.7096159652212681 
2.2200000000002604, -0.7089231019110857 
2.2300000000002815, -0.7078354884666541 
2.2400000000003026, -0.7061756050827163 
2.2500000000003237, -0.7036530143483252 
2.260000000000345, -0.69984210040382 
2.270000000000366, -0.6942179680912592 
2.280000000000387, -0.6863330283052966 
2.290000000000408, -0.6761568977092262 
2.3000000000004293, -0.6643689710426277 
2.3100000000004504, -0.6522390235505218 
2.3200000000004715, -0.6410794521005774 
2.3300000000004926, -0.631737924955008 
2.3400000000005137, -0.6244789182987251 
2.3500000000005348, -0.6191565097293803 
2.360000000000556, -0.615437048484126 
2.370000000000577, -0.6129506595828456 
2.380000000000598, -0.6113649632309018 
2.390000000000619, -0.6104100707275244 
2.4000000000006403, -0.6098798236821987 
2.4100000000006614, -0.609623420438578 
2.4200000000006825, -0.6095342114022111 
2.4300000000007036, -0.6095387531550778 
2.4400000000007247, -0.6095875683872042 
2.450000000000746, -0.6096483122602802 
2.460000000000767, -0.6097015875734623 
2.470000000000788, -0.6097390995443535 
2.480000000000809, -0.609762976938186 
2.49000000000083, -0.6097841742581813 
2.5000000000008513, -0.6098178823113427 
2.5100000000008724, -0.6098756988948397 
2.5200000000008935, -0.6099572647378 
2.5300000000009146, -0.6100458935952852 
2.5400000000009357, -0.6101115323440823 
2.550000000000957, -0.6101202919377897 
2.560000000000978, -0.6100454280443072 
2.570000000000999, -0.6098739235618631 
2.58000000000102, -0.6096067005123136 
2.5900000000010412, -0.609255109541486 
2.6000000000010624, -0.6088378656362963 
2.6100000000010835, -0.6083813798884712 
2.6200000000011046, -0.6079249789499479 
2.6300000000011257, -0.6075321419432542 
2.6400000000011468, -0.6073093790057661 
2.650000000001168, -0.6074348029829896 
2.660000000001189, -0.6081973667599696 
2.67000000000121, -0.6100423140207479 
2.680000000001231, -0.6136029505962864 
2.6900000000012523, -0.6196657185268337 
2.7000000000012734, -0.628969819466691 
2.7100000000012945, -0.6417513960826194 
2.7200000000013156, -0.6571703237004749 
2.7300000000013367, -0.6732007181247327 
2.740000000001358, -0.6874989282718957 
2.750000000001379, -0.6986329941049014 
2.7600000000014, -0.7064685064447493 
2.770000000001421, -0.7116415944728489 
2.780000000001442, -0.7149344348591522 
2.7900000000014633, -0.7169786413463135 
2.8000000000014844, -0.7182072094027937 
2.8100000000015055, -0.7188945975026566 
2.8200000000015266, -0.7192051928487375 
2.8300000000015477, -0.7192282513121449 
2.840000000001569, -0.7189979434310563 
2.85000000000159, -0.7185012510223742 
2.860000000001611, -0.7176762697266421 
2.870000000001632, -0.7164038579973877 
2.8800000000016532, -0.714499511366444 
2.8900000000016743, -0.7117221442955306 
2.9000000000016954, -0.7078280236863327 
2.9100000000017165, -0.7026887671311397 
2.9200000000017377, -0.6964315679149158 
2.9300000000017588, -0.6894842722637805 
2.94000000000178, -0.6824469862579953 
2.950000000001801, -0.6758749442340318 
2.960000000001822, -0.6701316119594982 
2.970000000001843, -0.6653699588799273 
2.9800000000018643, -0.6615895522730383 
2.9900000000018854, -0.6587038830523028 
3.0000000000019065, -0.6565885796432946 
3.0100000000019276, -0.6551090464382138 
3.0200000000019487, -0.6541348955343382 
3.03000000000197, -0.6535475715957294 
3.040000000001991, -0.6532445039722643 
3.050000000002012, -0.6531409787777465 
3.060000000002033, -0.6531701372910212 
3.070000000002054, -0.6532815716353275 
3.0800000000020753, -0.6534392688848605 
3.0900000000020964, -0.6536197001128721 
3.1000000000021175, -0.653810435663773 
3.1100000000021386, -0.6540088029789703 
3.1200000000021597, -0.6542192202357424 
3.130000000002181, -0.654447866494779 
3.140000000002202, -0.6546950193880641 
3.150000000002223, -0.6549480400608688 
3.160000000002244, -0.6551794389496377 
3.1700000000022652, -0.6553526404438379 
3.1800000000022863, -0.6554332225649349 
3.1900000000023074, -0.6553992685051901 
3.2000000000023285, -0.6552453968060602 
3.2100000000023496, -0.6549803398866473 
3.2200000000023707, -0.6546222347773414 
3.230000000002392, -0.6541960477817762 
3.240000000002413, -0.6537356156730665 
3.250000000002434, -0.6532913536129519 
3.260000000002455, -0.6529444479772426 
3.2700000000024763, -0.6528285221772718 
3.2800000000024974, -0.6531591290592262 
3.2900000000025185, -0.6542685214366268 
3.3000000000025396, -0.6566357781817831 
3.3100000000025607, -0.6608872782932127 
3.3200000000025818, -0.6677180680755769 
3.330000000002603, -0.6776643813590918 
3.340000000002624, -0.6907004961659677 
3.350000000002645, -0.705835261038228 
3.360000000002666, -0.7211608166235468 
3.3700000000026873, -0.7346355001425692 
3.3800000000027084, -0.7450547575253882 
3.3900000000027295, -0.7523349664650778 
3.4000000000027506, -0.7570760461050311 
3.4100000000027717, -0.760022245393746 
3.420000000002793, -0.7617829250315282 
3.430000000002814, -0.7627761198633464 
3.440000000002835, -0.7632621374268832 
3.450000000002856, -0.7633898644588765 
3.460000000002877, -0.7632304828617238 
3.4700000000028983, -0.7627950039016824 
3.4800000000029194, -0.7620370024791068 
3.4900000000029405, -0.7608414095467235 
3.5000000000029616, -0.7589998557049173 
3.5100000000029827, -0.7561779169691683 
3.520000000003004, -0.7518978329081462 
3.530000000003025, -0.7455971928696555 
3.540000000003046, -0.736848676740628 
3.550000000003067, -0.7257326374811811 
3.5600000000030882, -0.7130980233241452 
3.5700000000031094, -0.7003555246727342 
3.5800000000031305, -0.6888738355899532 
3.5900000000031516, -0.6794845188462283 
3.6000000000031727, -0.6723979354662004 
3.6100000000031938, -0.6673984945399086 
3.620000000003215, -0.6640802135272238 
3.630000000003236, -0.6620084564239115 
3.640000000003257, -0.6608012952544895 
3.650000000003278, -0.6601576786225358 
3.6600000000032993, -0.6598571799937447 
3.6700000000033204, -0.6597470406637216 
3.6800000000033415, -0.6597254193557738 
3.6900000000033626, -0.6597256037499315 
3.7000000000033837, -0.6597034798571358 
3.710000000003405, -0.6596291862554693 
3.720000000003426, -0.6594831351270452 
3.730000000003447, -0.659255846411874 
3.740000000003468, -0.6589497762638354 
3.750000000003489, -0.6585798906800986 
3.7600000000035103, -0.6581698531294384 
3.7700000000035314, -0.6577436836441459 
3.7800000000035525, -0.6573167859421831 
3.7900000000035736, -0.6568914652028379 
3.8000000000035947, -0.6564592077198783 
3.810000000003616, -0.6560077206173502 
3.820000000003637, -0.6555284660193342 
3.830000000003658, -0.6550214829800541 
3.840000000003679, -0.6544971971059189 
3.8500000000037002, -0.6539770574133785 
3.8600000000037213, -0.653495027130336 
3.8700000000037424, -0.6531009250812362 
3.8800000000037635, -0.6528654834933472 
3.8900000000037847, -0.6528862137695196 
3.9000000000038058, -0.6532927196505619 
3.910000000003827, -0.6542498262286125 
3.920000000003848, -0.6559565399445727 
3.930000000003869, -0.6586377833037689 
3.94000000000389, -0.6625231121028695 
3.9500000000039113, -0.6678021206164967 
3.9600000000039324, -0.6745439983379579 
3.9700000000039535, -0.6825818422321892 
3.9800000000039746, -0.6914093369754905 
3.9900000000039957, -0.7002028427828713 
4.000000000004016, -0.7080607601903858 
4.010000000003993, -0.7143559775985909 
4.02000000000397, -0.7189279836700518 
4.030000000003946, -0.7219907152107141 
4.040000000003923, -0.7239076646435896 
4.0500000000039, -0.7250214298108351 
4.0600000000038765, -0.7255867050643525 
4.070000000003853, -0.7257671347167876 
4.08000000000383, -0.7256524999036639 
4.090000000003807, -0.7252741483734246 
4.100000000003783, -0.724611152604762 
4.11000000000376, -0.7235847924190802 
4.120000000003737, -0.7220392888477477 
4.130000000003713, -0.7197065661507164 
4.14000000000369, -0.7161580516208961 
4.150000000003667, -0.7107696040000946 
4.1600000000036434, -0.7027826299406665 
4.17000000000362, -0.6916056871313087 
4.180000000003597, -0.6773884573910282 
4.1900000000035735, -0.6614490973207677 
4.20000000000355, -0.6458960680625189 
4.210000000003527, -0.6325820136909724 
4.220000000003504, -0.6223711062708505 
4.23000000000348, -0.6151908888874956 
4.240000000003457, -0.6104778392841433 
4.250000000003434, -0.6075619343191583 
4.26000000000341, -0.6058601858526702 
4.270000000003387, -0.6049323096720833 
4.280000000003364, -0.6044716378954672 
4.2900000000033405, -0.6042754664966423 
4.300000000003317, -0.6042144035274541 
4.310000000003294, -0.6042073599356417 
4.320000000003271, -0.6042033906834222 
4.330000000003247, -0.6041697778750125 
4.340000000003224, -0.6040854259902547 
4.350000000003201, -0.6039386530280125 
4.360000000003177, -0.6037280460501253 
4.370000000003154, -0.6034639619624436 
4.380000000003131, -0.6031673812090437 
4.390000000003107, -0.60286392964963 
4.400000000003084, -0.6025743883148837 
4.410000000003061, -0.6023063267815579 
4.4200000000030375, -0.6020515234492938 
4.430000000003014, -0.6017905010618032 
4.440000000002991, -0.6015013852031705 
4.450000000002968, -0.6011682521730853 
4.460000000002944, -0.6007855446158852 
4.470000000002921, -0.6003585888701058 
4.480000000002898, -0.5999027690424432 
4.490000000002874, -0.5994441633221922 
4.500000000002851, -0.5990234608521637 
4.510000000002828, -0.5987041424376857 
4.520000000002804, -0.5985856214037831 
4.530000000002781, -0.5988219068957447 
4.540000000002758, -0.5996456345033457 
4.5500000000027345, -0.6013948140736165 
4.560000000002711, -0.6045330560902372 
4.570000000002688, -0.6096394652702302 
4.580000000002665, -0.6173195575188802 
4.590000000002641, -0.6279692001370637 
4.600000000002618, -0.641377594241986 
4.610000000002595, -0.6563807652562097 
4.620000000002571, -0.6710351280178722 
4.630000000002548, -0.6834861004395533 
4.640000000002525, -0.6928376279783091 
4.6500000000025015, -0.6992368470050453 
4.660000000002478, -0.7033554534779559 
4.670000000002455, -0.7059036574743786 
4.6800000000024315, -0.7074253866559291 
4.690000000002408, -0.7082808079441636 
4.700000000002385, -0.7086895084124534 
4.710000000002362, -0.7087744264731572 
4.720000000002338, -0.7085909363292863 
4.730000000002315, -0.7081408731150413 
4.740000000002292, -0.7073739551636293 
4.750000000002268, -0.706178831716752 
4.760000000002245, -0.7043678165985019 
4.770000000002222, -0.7016676222232363 
4.7800000000021985, -0.6977456964311646 
4.790000000002175, -0.6923154016463193 
4.800000000002152, -0.6853274800152671 
4.810000000002129, -0.6771385311429624 
4.820000000002105, -0.668471906803868 
4.830000000002082, -0.6601443117610843 
4.840000000002059, -0.6527730680739016 
4.850000000002035, -0.6466604196848633 
4.860000000002012, -0.6418453201783982 
4.870000000001989, -0.6382114791984288 
4.880000000001965, -0.6355765949050454 
4.890000000001942, -0.6337455250431704 
4.900000000001919, -0.6325363857500261 
4.9100000000018955, -0.6317914608201642 
4.920000000001872, -0.6313805534905603 
