t, s[1].omega / s[0].omega 
0, -0.9499963597281312 
0.009999999999999995, -0.9495697393116567 
0.019999999999999934, -0.9490168671111929 
0.029999999999999874, -0.9483316308045618 
0.04000000000000012, -0.9475067144430934 
0.050000000000000405, -0.9465371621102558 
0.06000000000000069, -0.945423890711498 
0.07000000000000098, -0.9441764362407374 
0.08000000000000126, -0.9428146398405588 
0.09000000000000155, -0.9413693264966839 
0.10000000000000184, -0.9398821115509207 
0.11000000000000212, -0.9384043093867923 
0.12000000000000241, -0.936994717573162 
0.130000000000002, -0.9357160500097526 
0.1400000000000009, -0.9346301090084483 
0.1499999999999998, -0.9337923044575162 
0.1599999999999987, -0.9332465408862227 
0.1699999999999976, -0.9330214988329206 
0.1799999999999965, -0.9331288853754661 
0.1899999999999954, -0.9335635922178166 
0.1999999999999943, -0.9343052655246544 
0.2099999999999932, -0.9353207504612854 
0.2199999999999921, -0.9365670952542114 
0.229999999999991, -0.9379949960086732 
0.2399999999999899, -0.9395525540367196 
0.2499999999999888, -0.9411890504515468 
0.2599999999999877, -0.9428582953987708 
0.2699999999999866, -0.9445211044544615 
0.2799999999999855, -0.9461465780319227 
0.2899999999999844, -0.9477120242093161 
0.2999999999999833, -0.9492015236724309 
0.3099999999999822, -0.9506033173162546 
0.3199999999999811, -0.9519064487326895 
0.32999999999998, -0.9530973901373199 
0.3399999999999789, -0.954157595874734 
0.3499999999999778, -0.9550628911373977 
0.35999999999997667, -0.9557851988629157 
0.36999999999997557, -0.9562963793240833 
0.37999999999997447, -0.9565731702235049 
0.38999999999997337, -0.9566017830962348 
0.39999999999997227, -0.95638093792686 
0.40999999999997117, -0.95592291852783 
0.41999999999997006, -0.9552531360236338 
0.42999999999996896, -0.954409175573328 
0.43999999999996786, -0.9534401549110028 
0.44999999999996676, -0.9524065929635611 
0.45999999999996566, -0.95138021318618 
0.46999999999996456, -0.9504425465828489 
0.47999999999996346, -0.9496811580519021 
0.48999999999996235, -0.9491829742388153 
0.49999999999996125, -0.9490254243885359 
0.5099999999999602, -0.9492673789224458 
0.519999999999959, -0.9499424121102248 
0.529999999999958, -0.9510562633577603 
0.5399999999999568, -0.9525888284761678 
0.5499999999999557, -0.9544994849004829 
0.5599999999999546, -0.9567338532812458 
0.5699999999999535, -0.9592303619460263 
0.5799999999999524, -0.9619257347143185 
0.5899999999999513, -0.9647591773823447 
0.5999999999999502, -0.9676753122044718 
0.6099999999999491, -0.9706258799556652 
0.619999999999948, -0.9735701247524795 
0.6299999999999469, -0.9764737744304545 
0.6399999999999458, -0.9793066892780905 
0.6499999999999447, -0.9820395539675039 
0.6599999999999436, -0.9846403644112591 
0.6699999999999425, -0.9870717907016646 
0.6799999999999414, -0.9892905893375709 
0.6899999999999403, -0.9912498836075915 
0.6999999999999392, -0.9929042506339926 
0.7099999999999381, -0.9942163901002163 
0.719999999999937, -0.9951633019093923 
0.7299999999999359, -0.9957399888854332 
0.7399999999999348, -0.9959598225291915 
0.7499999999999337, -0.9958522359491421 
0.7599999999999326, -0.9954594457045406 
0.7699999999999315, -0.9948339739863544 
0.7799999999999304, -0.9940379900541497 
0.7899999999999293, -0.9931443668336231 
0.7999999999999282, -0.9922382518205428 
0.8099999999999271, -0.9914171715000929 
0.819999999999926, -0.9907875582510648 
0.8299999999999249, -0.9904564815632804 
0.8399999999999238, -0.9905193355674119 
0.8499999999999227, -0.991046551038907 
0.8599999999999216, -0.9920736418112529 
0.8699999999999205, -0.9935979619922141 
0.8799999999999194, -0.9955827942464239 
0.8899999999999183, -0.9979665372125521 
0.8999999999999172, -1.000673486850446 
0.9099999999999161, -1.00362333403448 
0.919999999999915, -1.006738066841946 
0.9299999999999139, -1.0099462885345925 
0.9399999999999128, -1.0131854993821865 
0.9499999999999117, -1.0164028089503498 
0.9599999999999106, -1.0195542892394454 
0.9699999999999095, -1.0226030735371903 
0.9799999999999084, -1.0255164417301414 
0.9899999999999073, -1.0282624410763896 
0.9999999999999062, -1.0308069304227736 
1.0099999999999052, -1.0331121207931375 
1.019999999999904, -1.0351375134147605 
1.029999999999903, -1.0368434840583365 
1.039999999999902, -1.0381967516411028 
1.0499999999999008, -1.039176056421624 
1.0599999999998997, -1.0397761573416517 
1.0699999999998986, -1.0400090125484076 
1.0799999999998975, -1.0399023519245043 
1.0899999999998964, -1.0394969819068205 
1.0999999999998953, -1.0388444656252087 
1.1099999999998942, -1.0380062418544267 
1.119999999999893, -1.0370541509140094 
1.129999999999892, -1.036071183326987 
1.1399999999998909, -1.035150486600564 
1.1499999999998898, -1.0343907081857726 
1.1599999999998887, -1.0338869749279946 
1.1699999999998876, -1.0337190156573453 
1.1799999999998865, -1.0339400066635922 
1.1899999999998854, -1.0345701118346888 
1.1999999999998843, -1.0355967797503716 
1.2099999999998832, -1.0369808172357873 
1.219999999999882, -1.038665159828654 
1.229999999999881, -1.0405832548508005 
1.2399999999998799, -1.0426654829735644 
1.2499999999998788, -1.0448436276482291 
1.2599999999998777, -1.0470540879993009 
1.2699999999998766, -1.0492403375257833 
1.2799999999998755, -1.0513546459748115 
1.2899999999998744, -1.0533588032872658 
1.2999999999998733, -1.0552236289067942 
1.3099999999998722, -1.0569272851750158 
1.319999999999871, -1.0584526998102937 
1.32999999999987, -1.0597846737966363 
1.3399999999998689, -1.0609074504026128 
1.3499999999998678, -1.0618035422163816 
1.3599999999998666, -1.0624543455200837 
1.3699999999998655, -1.0628425164341482 
1.3799999999998644, -1.062955437226297 
1.3899999999998633, -1.0627887010933856 
1.3999999999998622, -1.0623486535885955 
1.4099999999998611, -1.0616536043468632 
1.41999999999986, -1.0607339886356257 
1.429999999999859, -1.0596320670152293 
1.4399999999998578, -1.0584015033111904 
1.4499999999998567, -1.057106527224751 
1.4599999999998556, -1.0558198082817574 
1.4699999999998545, -1.0546181376647639 
1.4799999999998534, -1.0535757975322535 
1.4899999999998523, -1.0527568151434044 
1.4999999999998512, -1.0522082886276192 
1.5099999999998501, -1.0519567468658264 
1.519999999999849, -1.0520080372332345 
1.529999999999848, -1.0523495795922753 
1.5399999999998468, -1.0529532353450675 
1.5499999999998457, -1.0537778006647371 
1.5599999999998446, -1.0547713673824068 
1.5699999999998435, -1.0558743781405453 
1.5799999999998424, -1.0570237726533926 
1.5899999999998413, -1.0581577479091255 
1.5999999999998402, -1.0592201478983927 
1.6099999999998391, -1.0601636633651363 
1.619999999999838, -1.0609515492647779 
1.629999999999837, -1.061557983768597 
1.6399999999998358, -1.0619672998084615 
1.6499999999998347, -1.0621722584712718 
1.6599999999998336, -1.0621715511643162 
1.6699999999998325, -1.0619669171641897 
1.6799999999998314, -1.0615605210019259 
1.6899999999998303, -1.0609533195784073 
1.6999999999998292, -1.060144924118251 
1.709999999999828, -1.0591349947236572 
1.719999999999827, -1.0579257225904153 
1.729999999999826, -1.056524690503163 
1.7399999999998248, -1.0549474422051552 
1.7499999999998237, -1.053219322025413 
1.7599999999998226, -1.0513763526370128 
1.7699999999998215, -1.049464971112543 
1.7799999999998204, -1.0475404176868444 
1.7899999999998193, -1.0456636837926856 
1.7999999999998182, -1.043897302262427 
1.809999999999817, -1.0423007306855923 
1.819999999999816, -1.0409262245699917 
1.8299999999998149, -1.0398156527792433 
1.8399999999998138, -1.03899794640172 
1.8499999999998127, -1.0384865046552196 
1.8599999999998116, -1.038276400562777 
1.8699999999998105, -1.0383423108462813 
1.8799999999998094, -1.0386387477663999 
1.8899999999998083, -1.039103625585203 
1.8999999999998072, -1.0396646989919598 
1.909999999999806, -1.0402470701108406 
1.919999999999805, -1.040779725648695 
1.9299999999998039, -1.0411999370314617 
1.9399999999998028, -1.0414555583172913 
1.9499999999998017, -1.0415060003534284 
1.9599999999998006, -1.0413226648464062 
1.9699999999997995, -1.0408891118540367 
1.9799999999997984, -1.0402006649238094 
1.9899999999997973, -1.0392629449235529 
1.9999999999997962, -1.0380891278551332 
2.0099999999998173, -1.0366963525656943 
2.0199999999998384, -1.0351022379255814 
2.0299999999998595, -1.0333225535159725 
2.0399999999998806, -1.0313706840369596 
2.0499999999999017, -1.0292588886713134 
2.059999999999923, -1.0270008094639986 
2.069999999999944, -1.0246144239422021 
2.079999999999965, -1.022124669067549 
2.089999999999986, -1.0195651617660655 
2.100000000000007, -1.016978678328136 
2.1100000000000283, -1.0144162855405048 
2.1200000000000494, -1.0119352535995823 
2.1300000000000705, -1.0095960921229379 
2.1400000000000916, -1.0074591072599353 
2.1500000000001127, -1.0055806718295264 
2.160000000000134, -1.0040090510931687 
2.170000000000155, -1.002779519458746 
2.180000000000176, -1.0019089877203846 
2.190000000000197, -1.0013913074624758 
2.2000000000002182, -1.001195115010727 
2.2100000000002393, -1.0012657338868844 
2.2200000000002604, -1.001531189300123 
2.2300000000002815, -1.0019106676101912 
2.2400000000003026, -1.002322919329292 
2.2500000000003237, -1.0026926083096057 
2.260000000000345, -1.0029539409960002 
2.270000000000366, -1.0030521605420486 
2.280000000000387, -1.0029440524977864 
2.290000000000408, -1.0025984042380267 
2.3000000000004293, -1.001996677929249 
2.3100000000004504, -1.0011334263657161 
2.3200000000004715, -1.0000156183448738 
2.3300000000004926, -0.9986602845071273 
2.3400000000005137, -0.9970906389940548 
2.3500000000005348, -0.995331631943462 
2.360000000000556, -0.993406248511765 
2.370000000000577, -0.9913336026877987 
2.380000000000598, -0.9891291861416748 
2.390000000000619, -0.9868069134993503 
2.4000000000006403, -0.984382154872367 
2.4100000000006614, -0.9818748494744979 
2.4200000000006825, -0.9793119584576586 
2.4300000000007036, -0.9767287827907914 
2.4400000000007247, -0.9741689291538491 
2.450000000000746, -0.9716829280384036 
2.460000000000767, -0.9693257102420124 
2.470000000000788, -0.9671533052327355 
2.480000000000809, -0.9652191532947065 
2.49000000000083, -0.9635702790770908 
2.5000000000008513, -0.9622433732793111 
2.5100000000008724, -0.9612608192821221 
2.5200000000008935, -0.9606270374513239 
2.5300000000009146, -0.9603260313238922 
2.5400000000009357, -0.9603212477086892 
2.550000000000957, -0.9605584264358272 
2.560000000000978, -0.9609711123935338 
2.570000000000999, -0.9614875166196575 
2.58000000000102, -0.9620370621380399 
2.5900000000010412, -0.9625553924820542 
2.6000000000010624, -0.9629874864089849 
2.6100000000010835, -0.963289260364297 
2.6200000000011046, -0.9634283019353379 
2.6300000000011257, -0.9633841536679129 
2.6400000000011468, -0.9631481062380814 
2.650000000001168, -0.9627221096410628 
2.660000000001189, -0.9621164395467376 
2.67000000000121, -0.9613461949618569 
2.680000000001231, -0.9604273019044611 
2.6900000000012523, -0.9593730777384333 
2.7000000000012734, -0.9581923310574431 
2.7100000000012945, -0.9568894772864519 
2.7200000000013156, -0.9554664996799493 
2.7300000000013367, -0.9539260708231234 
2.740000000001358, -0.9522749505777669 
2.750000000001379, -0.9505268994387298 
2.7600000000014, -0.9487046450651461 
2.770000000001421, -0.9468407132867247 
2.780000000001442, -0.9449770624353058 
2.7900000000014633, -0.9431634761841182 
2.8000000000014844, -0.9414547168183538 
2.8100000000015055, -0.9399066293227232 
2.8200000000015266, -0.9385716794642829 
2.8300000000015477, -0.9374946237659497 
2.840000000001569, -0.9367089645654203 
2.85000000000159, -0.9362345376217326 
2.860000000001611, -0.9360762259536821 
2.870000000001632, -0.9362236448169099 
2.8800000000016532, -0.9366517582568177 
2.8900000000016743, -0.93732257330109 
2.9000000000016954, -0.9381880497815661 
2.9100000000017165, -0.9391940811523989 
2.9200000000017377, -0.9402850228030821 
2.9300000000017588, -0.9414080392496247 
2.94000000000178, -0.9425166341704115 
2.950000000001801, -0.9435730126312294 
2.960000000001822, -0.9445491915518278 
2.970000000001843, -0.9454268911365511 
2.9800000000018643, -0.9461962440180811 
2.9900000000018854, -0.946853397715362 
3.0000000000019065, -0.9473972757598215 
3.0100000000019276, -0.9478260763441071 
3.0200000000019487, -0.9481343566917465 
3.03000000000197, -0.9483115780796598 
3.040000000001991, -0.9483426700845945 
3.050000000002012, -0.948210578356441 
3.060000000002033, -0.9479001121699605 
3.070000000002054, -0.9474020085671357 
3.0800000000020753, -0.9467161973141858 
3.0900000000020964, -0.9458537481921941 
3.1000000000021175, -0.944837601872374 
3.1100000000021386, -0.9437025530873843 
3.1200000000021597, -0.9424948840631434 
3.130000000002181, -0.941271635015854 
3.140000000002202, -0.9400990354729301 
3.150000000002223, -0.9390494253010101 
3.160000000002244, -0.9381962752496176 
3.1700000000022652, -0.9376076437420744 
3.1800000000022863, -0.93733925117724 
3.1900000000023074, -0.9374288109747054 
3.2000000000023285, -0.9378929788171126 
3.2100000000023496, -0.9387273796184499 
3.2200000000023707, -0.9399091772159346 
3.230000000002392, -0.9414011099819299 
3.240000000002413, -0.9431559844769777 
3.250000000002434, -0.9451210331056766 
3.260000000002455, -0.947241910091731 
3.2700000000024763, -0.949466218873481 
3.2800000000024974, -0.9517463879935019 
3.2900000000025185, -0.9540416123700074 
3.3000000000025396, -0.9563185725867933 
3.3100000000025607, -0.9585507576706637 
3.3200000000025818, -0.960716422751918 
3.330000000002603, -0.9627954946628939 
3.340000000002624, -0.96476607254316 
3.350000000002645, -0.9666014783787164 
3.360000000002666, -0.9682689400511029 
3.3700000000026873, -0.9697307551454444 
3.3800000000027084, -0.9709480979329098 
3.3900000000027295, -0.9718866492694717 
3.4000000000027506, -0.9725224021053733 
3.4100000000027717, -0.9728458614627848 
3.420000000002793, -0.9728636110808528 
3.430000000002814, -0.97259745963111 
3.440000000002835, -0.9720823765330563 
3.450000000002856, -0.971364669810126 
3.460000000002877, -0.9705013425702452 
3.4700000000028983, -0.9695606322626479 
3.4800000000029194, -0.9686227765343635 
3.4900000000029405, -0.9677793849333933 
3.5000000000029616, -0.9671297370611301 
3.5100000000029827, -0.9667731381503698 
3.520000000003004, -0.9667980948163398 
3.530000000003025, -0.9672708812407455 
3.540000000003046, -0.9682269601827764 
3.550000000003067, -0.9696679366781423 
3.5600000000030882, -0.9715645769761443 
3.5700000000031094, -0.9738642123881669 
3.5800000000031305, -0.976499801529963 
3.5900000000031516, -0.9793983070513932 
3.6000000000031727, -0.9824871785324315 
3.6100000000031938, -0.985698749497702 
3.620000000003215, -0.9889728180533319 
3.630000000003236, -0.9922576752737972 
3.640000000003257, -0.9955096928733661 
3.650000000003278, -0.9986915393340721 
3.6600000000032993, -1.0017692526003747 
3.6700000000033204, -1.0047087198943025 
3.6800000000033415, -1.0074724865988032 
3.6900000000033626, -1.010018058583276 
3.7000000000033837, -1.0122987522985596 
3.710000000003405, -1.014267511352832 
3.720000000003426, -1.015883013291302 
3.730000000003447, -1.0171162885758436 
3.740000000003468, -1.0179556564455439 
3.750000000003489, -1.0184084694239732 
3.7600000000035103, -1.0184996426999051 
3.7700000000035314, -1.0182683452933745 
3.7800000000035525, -1.01776477970794 
3.7900000000035736, -1.0170485332349033 
3.8000000000035947, -1.0161889205736534 
3.810000000003616, -1.0152665230948674 
3.820000000003637, -1.0143741185237152 
3.830000000003658, -1.0136147270765048 
3.840000000003679, -1.013095004529608 
3.8500000000037002, -1.0129139492265806 
3.8600000000037213, -1.0131493911247438 
3.8700000000037424, -1.0138465959970802 
3.8800000000037635, -1.0150130471435497 
3.8900000000037847, -1.0166208963294074 
3.9000000000038058, -1.018615325982887 
3.910000000003827, -1.0209252187175064 
3.920000000003848, -1.0234728759042953 
3.930000000003869, -1.026181197049172 
3.94000000000389, -1.0289783056128963 
3.9500000000039113, -1.0318002891285785 
3.9600000000039324, -1.0345926128912286 
3.9700000000039535, -1.0373103949166456 
3.9800000000039746, -1.0399175143927815 
3.9900000000039957, -1.0423845859658443 
4.000000000004016, -1.044686090613815 
4.010000000003993, -1.0467972815979154 
4.02000000000397, -1.048691745959655 
4.030000000003946, -1.0503405447576701 
4.040000000003923, -1.051713538353897 
4.0500000000039, -1.0527828104870407 
4.0600000000038765, -1.0535272637324191 
4.070000000003853, -1.0539369143676092 
4.08000000000383, -1.0540155628649748 
4.090000000003807, -1.0537813504907623 
4.100000000003783, -1.0532657432219583 
4.11000000000376, -1.0525120815328 
4.120000000003737, -1.0515746751454085 
4.130000000003713, -1.0505186333306227 
4.14000000000369, -1.049419618556813 
4.150000000003667, -1.0483620040345003 
4.1600000000036434, -1.0474339977016833 
4.17000000000362, -1.046719436787614 
4.180000000003597, -1.0462878226287866 
4.1900000000035735, -1.046185656443003 
4.20000000000355, -1.0464320253489496 
4.210000000003527, -1.0470194857878037 
4.220000000003504, -1.0479188824597414 
4.23000000000348, -1.0490855191064556 
4.240000000003457, -1.0504646520908993 
4.250000000003434, -1.0519957482245312 
4.26000000000341, -1.05361603159087 
4.270000000003387, -1.055263935808747 
4.280000000003364, -1.0568825196712934 
4.2900000000033405, -1.0584223920458624 
4.300000000003317, -1.059843606516171 
4.310000000003294, -1.0611162298519856 
4.320000000003271, -1.0622195841811626 
4.330000000003247, -1.063140371143128 
4.340000000003224, -1.063870049560416 
4.350000000003201, -1.0644020212199556 
4.360000000003177, -1.0647293339000619 
4.370000000003154, -1.064843594281459 
4.380000000003131, -1.064735492659598 
4.390000000003107, -1.0643968327742745 
4.400000000003084, -1.0638234572136276 
4.410000000003061, -1.063018228173875 
4.4200000000030375, -1.0619933839182532 
4.430000000003014, -1.060772001116429 
4.440000000002991, -1.0593886346251926 
4.450000000002968, -1.0578892276995004 
4.460000000002944, -1.0563301065311703 
4.470000000002921, -1.0547755927318276 
4.480000000002898, -1.0532938673038112 
4.490000000002874, -1.051951351673194 
4.500000000002851, -1.0508067188386259 
4.510000000002828, -1.0499060364045818 
4.520000000002804, -1.0492800016021733 
4.530000000002781, -1.048943056810414 
4.540000000002758, -1.0488933252073538 
4.5500000000027345, -1.049112519973799 
4.560000000002711, -1.0495660281670096 
4.570000000002688, -1.0502042326606924 
4.580000000002665, -1.0509659669581908 
4.590000000002641, -1.0517839186912958 
4.600000000002618, -1.0525907313135128 
4.610000000002595, -1.0533243155650087 
4.620000000002571, -1.0539314956189314 
4.630000000002548, -1.0543699648021947 
4.640000000002525, -1.0546090061140554 
4.6500000000025015, -1.0546293815453351 
4.660000000002478, -1.0544224678206977 
4.670000000002455, -1.0539885030605196 
4.6800000000024315, -1.053333939798155 
4.690000000002408, -1.0524683042515066 
4.700000000002385, -1.0514013395466284 
4.710000000002362, -1.050141268921354 
4.720000000002338, -1.0486946833177608 
4.730000000002315, -1.0470680141685331 
4.740000000002292, -1.04527007362481 
4.750000000002268, -1.043314923878428 
4.760000000002245, -1.0412243877891247 
4.770000000002222, -1.039029702533006 
4.7800000000021985, -1.0367720004186338 
4.790000000002175, -1.034501442536237 
4.800000000002152, -1.0322750131437182 
4.810000000002129, -1.0301532625382286 
4.820000000002105, -1.028196546042893 
4.830000000002082, -1.0264612946923373 
4.840000000002059, -1.0249964587597824 
4.850000000002035, -1.0238397758446078 
4.860000000002012, -1.023013488990805 
4.870000000001989, -1.0225198713237589 
4.880000000001965, -1.0223379748783858 
4.890000000001942, -1.0224234546562787 
4.900000000001919, -1.022712473885208 
4.9100000000018955, -1.02312895603999 
4.920000000001872, -1.0235930093833046 
4.930000000001849, -1.0240281741768 
