t, s[1].omega / s[0].omega 
0, -0.5699977374639176 
0.009999999999999995, -0.5697870331903364 
0.019999999999999934, -0.5695988293377026 
0.029999999999999874, -0.5694119332169092 
0.04000000000000012, -0.5692008704835676 
0.050000000000000405, -0.5689448723092144 
0.06000000000000069, -0.5686331588914768 
0.07000000000000098, -0.568265680595704 
0.08000000000000126, -0.5678515084649306 
0.09000000000000155, -0.5674078574510281 
0.10000000000000184, -0.5669618982433515 
0.11000000000000212, -0.5665566599303868 
0.12000000000000241, -0.5662621926175091 
0.130000000000002, -0.5661935278286656 
0.1400000000000009, -0.5665370953886595 
0.1499999999999998, -0.5675856671085409 
0.1599999999999987, -0.5697753749242606 
0.1699999999999976, -0.573700607127342 
0.1799999999999965, -0.5800470782552745 
0.1899999999999954, -0.58934547430292 
0.1999999999999943, -0.601501296794033 
0.2099999999999932, -0.6153564858697125 
0.2199999999999921, -0.6288960811905989 
0.229999999999991, -0.6402796389396722 
0.2399999999999899, -0.6487477021849576 
0.2499999999999888, -0.654558975167731 
0.2599999999999877, -0.6583800129287011 
0.2699999999999866, -0.6608413534015207 
0.2799999999999855, -0.6624014054533984 
0.2899999999999844, -0.663360788785484 
0.2999999999999833, -0.6639078955499763 
0.3099999999999822, -0.6641559323973165 
0.3199999999999811, -0.6641663396663086 
0.32999999999998, -0.6639615252344196 
0.3399999999999789, -0.663530159594177 
0.3499999999999778, -0.6628278929223106 
0.35999999999997667, -0.6617774034201654 
0.36999999999997557, -0.6602748115917779 
0.37999999999997447, -0.6582129363517422 
0.38999999999997337, -0.6555283145453091 
0.39999999999997227, -0.652258762951552 
0.40999999999997117, -0.6485708441600285 
0.41999999999997006, -0.644722041544764 
0.42999999999996896, -0.6409760190945624 
0.43999999999996786, -0.6375301935655406 
0.44999999999996676, -0.6344924807600945 
0.45999999999996566, -0.6318978302186831 
0.46999999999996456, -0.629737392415452 
0.47999999999996346, -0.6279824163220635 
0.48999999999996235, -0.6265981677622956 
0.49999999999996125, -0.625549941347499 
0.5099999999999602, -0.6248046739142316 
0.519999999999959, -0.624330905618791 
0.529999999999958, -0.6240986778796555 
0.5399999999999568, -0.6240800180503965 
0.5499999999999557, -0.6242500500090412 
0.5599999999999546, -0.6245884527309838 
0.5699999999999535, -0.6250808647144331 
0.5799999999999524, -0.6257197349135151 
0.5899999999999513, -0.6265038785519905 
0.5999999999999502, -0.6274356052051842 
0.6099999999999491, -0.6285141436280101 
0.619999999999948, -0.6297250486214242 
0.6299999999999469, -0.6310281730587236 
0.6399999999999458, -0.6323510576363244 
0.6499999999999447, -0.6335964085214603 
0.6599999999999436, -0.6346659080326483 
0.6699999999999425, -0.6354890537089075 
0.6799999999999414, -0.6360389413207771 
0.6899999999999403, -0.6363271906674133 
0.6999999999999392, -0.6363861458083433 
0.7099999999999381, -0.6362511872566643 
0.719999999999937, -0.6359498526103164 
0.7299999999999359, -0.6354977662887272 
0.7399999999999348, -0.6348990550366566 
0.7499999999999337, -0.6341497083825672 
0.7599999999999326, -0.6332439510492228 
0.7699999999999315, -0.6321847176898706 
0.7799999999999304, -0.630998144521936 
0.7899999999999293, -0.6297451154342225 
0.7999999999999282, -0.628505939610301 
0.8099999999999271, -0.6272960227938544 
0.819999999999926, -0.6259097109296999 
0.8299999999999249, -0.623871320460792 
0.8399999999999238, -0.6207979941312687 
0.8499999999999227, -0.6169716085309835 
0.8599999999999216, -0.6132877974585431 
0.8699999999999205, -0.610531889339676 
0.8799999999999194, -0.6089174120587699 
0.8899999999999183, -0.6082207124368957 
0.8999999999999172, -0.6080932944830351 
0.9099999999999161, -0.6082450634432408 
0.919999999999915, -0.6084882464956474 
0.9299999999999139, -0.6087184457408303 
0.9399999999999128, -0.6088834455689909 
0.9499999999999117, -0.6089580637159749 
0.9599999999999106, -0.6089277373330714 
0.9699999999999095, -0.6087790061307633 
0.9799999999999084, -0.608495039000563 
0.9899999999999073, -0.6080556120111293 
0.9999999999999062, -0.6074419441347138 
1.0099999999999052, -0.6066461992627018 
1.019999999999904, -0.6056823537484733 
1.029999999999903, -0.604591310111959 
1.039999999999902, -0.6034339680583912 
1.0499999999999008, -0.6022740451897817 
1.0599999999998997, -0.6011606999611461 
1.0699999999998986, -0.6001203693292081 
1.0799999999998975, -0.5991594374188798 
1.0899999999998964, -0.5982730307823845 
1.0999999999998953, -0.5974543106295707 
1.1099999999998942, -0.5967010988017661 
1.119999999999893, -0.5960194807087047 
1.129999999999892, -0.5954255560248713 
1.1399999999998909, -0.5949466439665193 
1.1499999999998898, -0.5946226897962315 
1.1599999999998887, -0.5945080492300086 
1.1699999999998876, -0.5946735299994527 
1.1799999999998865, -0.5952084868196086 
1.1899999999998854, -0.5962226551710732 
1.1999999999998843, -0.5978468894577212 
1.2099999999998832, -0.6002305095192572 
1.219999999999882, -0.6035300034531127 
1.229999999999881, -0.6078795750708046 
1.2399999999998799, -0.613331779061657 
1.2499999999998788, -0.6197667308749122 
1.2599999999998777, -0.6268061803478802 
1.2699999999998766, -0.6338223600007503 
1.2799999999998755, -0.6401173065961825 
1.2899999999998744, -0.6451953174651954 
1.2999999999998733, -0.6489169023632411 
1.3099999999998722, -0.6514347648015378 
1.319999999999871, -0.6530239852157863 
1.32999999999987, -0.6539494908508425 
1.3399999999998689, -0.6544110489627674 
1.3499999999998678, -0.6545377454927588 
1.3599999999998666, -0.6543990794911182 
1.3699999999998655, -0.654015205082662 
1.3799999999998644, -0.6533598806844141 
1.3899999999998633, -0.6523539404331891 
1.3999999999998622, -0.6508484276763619 
1.4099999999998611, -0.6485995707246284 
1.41999999999986, -0.6452491454752292 
1.429999999999859, -0.6403505114920949 
1.4399999999998578, -0.6335098809203197 
1.4499999999998567, -0.6246707017402456 
1.4599999999998556, -0.6143773754870601 
1.4699999999998545, -0.6037015466510696 
1.4799999999998534, -0.5937832434951688 
1.4899999999998523, -0.5853786224686659 
1.4999999999998512, -0.5787403251975722 
1.5099999999998501, -0.5737623160195302 
1.519999999999849, -0.5701745862753738 
1.529999999999848, -0.5676752880351146 
1.5399999999998468, -0.5659932449119649 
1.5499999999998457, -0.5649076441789352 
1.5599999999998446, -0.5642479779653484 
1.5699999999998435, -0.5638869608035473 
1.5799999999998424, -0.5637320499057903 
1.5899999999998413, -0.5637176882169819 
1.5999999999998402, -0.5637989723516401 
1.6099999999998391, -0.5639469507518686 
1.619999999999838, -0.5641455252445067 
1.629999999999837, -0.5643896040059562 
1.6399999999998358, -0.5646835865885625 
1.6499999999998347, -0.5650386355205791 
1.6599999999998336, -0.5654671297133402 
1.6699999999998325, -0.5659739220283001 
1.6799999999998314, -0.5665465712007087 
1.6899999999998303, -0.5671494261203311 
1.6999999999998292, -0.5677269633444804 
1.709999999999828, -0.5682176346486183 
1.719999999999827, -0.5685718168537303 
1.729999999999826, -0.5687634096279992 
1.7399999999998248, -0.5687896209510577 
1.7499999999998237, -0.5686622798091612 
1.7599999999998226, -0.56839769987996 
1.7699999999998215, -0.5680096901093578 
1.7799999999998204, -0.5675066701373074 
1.7899999999998193, -0.5668921460496441 
1.7999999999998182, -0.5661678547158996 
1.809999999999817, -0.5653393446303372 
1.819999999999816, -0.564423101976459 
1.8299999999998149, -0.5634500914021191 
1.8399999999998138, -0.5624487275997396 
1.8499999999998127, -0.5613709241151692 
1.8599999999998116, -0.5599299372008903 
1.8699999999998105, -0.5574496444698508 
1.8799999999998094, -0.5530965029678259 
1.8899999999998083, -0.5467052241038989 
1.8999999999998072, -0.5393383317756422 
1.909999999999806, -0.5325896647658154 
1.919999999999805, -0.5274631385317234 
1.9299999999998039, -0.5240856793755138 
1.9399999999998028, -0.5220936493221002 
1.9499999999998017, -0.5210299341904643 
1.9599999999998006, -0.5205242963678732 
1.9699999999997995, -0.5203253626140547 
1.9799999999997984, -0.5202773519187898 
1.9899999999997973, -0.5202883987037189 
1.9999999999997962, -0.5203053391578971 
2.0099999999998173, -0.5202968753714241 
2.0199999999998384, -0.5202435491443771 
2.0299999999998595, -0.5201328124700391 
2.0399999999998806, -0.5199580195734242 
2.0499999999999017, -0.5197202638301806 
2.059999999999923, -0.5194312146172275 
2.069999999999944, -0.5191139815873372 
2.079999999999965, -0.518799180091197 
2.089999999999986, -0.5185160323367574 
2.100000000000007, -0.5182820604344301 
2.1100000000000283, -0.5180965022840126 
2.1200000000000494, -0.5179407942448747 
2.1300000000000705, -0.5177858198750718 
2.1400000000000916, -0.5176021827303824 
2.1500000000001127, -0.5173684816955653 
2.160000000000134, -0.5170745577594886 
2.170000000000155, -0.5167203340128623 
2.180000000000176, -0.5163131403142043 
2.190000000000197, -0.5158663042173949 
2.2000000000002182, -0.5154006843196061 
2.2100000000002393, -0.5149501871955097 
2.2200000000002604, -0.5145724894337402 
2.2300000000002815, -0.5143666756946246 
2.2400000000003026, -0.5144990477756339 
2.2500000000003237, -0.5152339220096047 
2.260000000000345, -0.5169509718215005 
2.270000000000366, -0.5200951003802026 
2.280000000000387, -0.5249603402281944 
2.290000000000408, -0.5312634662072625 
2.3000000000004293, -0.5378195649311831 
2.3100000000004504, -0.54301758241658 
2.3200000000004715, -0.5460253529480684 
2.3300000000004926, -0.5472764529559446 
2.3400000000005137, -0.5477066159607654 
2.3500000000005348, -0.5479602667921284 
2.360000000000556, -0.5482633404399382 
2.370000000000577, -0.5486191079964182 
2.380000000000598, -0.5489720097704172 
2.390000000000619, -0.5492745066295411 
2.4000000000006403, -0.549499331856188 
2.4100000000006614, -0.5496337055219707 
2.4200000000006825, -0.5496712294117478 
2.4300000000007036, -0.5496059078739999 
2.4400000000007247, -0.5494289525874887 
2.450000000000746, -0.5491284931177837 
2.460000000000767, -0.5486926386777587 
2.470000000000788, -0.5481160725778591 
2.480000000000809, -0.5474084824522751 
2.49000000000083, -0.5466001139885737 
2.5000000000008513, -0.5457388605137675 
2.5100000000008724, -0.5448778795748898 
2.5200000000008935, -0.5440599938612833 
2.5300000000009146, -0.5433075708824016 
2.5400000000009357, -0.542621991777753 
2.550000000000957, -0.5419906456120116 
2.560000000000978, -0.541396497709375 
2.570000000000999, -0.5408259842900157 
2.58000000000102, -0.5402734965353534 
2.5900000000010412, -0.5397431791748362 
2.6000000000010624, -0.5392499674283521 
2.6100000000010835, -0.5388216942016902 
2.6200000000011046, -0.538503508063872 
2.6300000000011257, -0.5383654206223203 
2.6400000000011468, -0.5385136816395173 
2.650000000001168, -0.5391065794346662 
2.660000000001189, -0.5403745356979245 
2.67000000000121, -0.5426416253854522 
2.680000000001231, -0.5463380505005608 
2.6900000000012523, -0.5519763116490334 
2.7000000000012734, -0.560037791823484 
2.7100000000012945, -0.5707082354273249 
2.7200000000013156, -0.5834968174345266 
2.7300000000013367, -0.597038284636856 
2.740000000001358, -0.609510869911449 
2.750000000001379, -0.6195429186139026 
2.7600000000014, -0.6267641410566724 
2.770000000001421, -0.6315808092393341 
2.780000000001442, -0.6346511494531624 
2.7900000000014633, -0.6365529318169579 
2.8000000000014844, -0.6376934042683231 
2.8100000000015055, -0.6383314965363305 
2.8200000000015266, -0.6386216300533837 
2.8300000000015477, -0.6386480212795476 
2.840000000001569, -0.638445269679074 
2.85000000000159, -0.638007991522625 
2.860000000001611, -0.6372930139852738 
2.870000000001632, -0.636218305495537 
2.8800000000016532, -0.6346658230159632 
2.8900000000016743, -0.6325005905051192 
2.9000000000016954, -0.6296191142559265 
2.9100000000017165, -0.6260224378724049 
2.9200000000017377, -0.6218708075004031 
2.9300000000017588, -0.617461820052036 
2.94000000000178, -0.6131301581932888 
2.950000000001801, -0.6091409643008365 
2.960000000001822, -0.6056429760278969 
2.970000000001843, -0.602682636282067 
2.9800000000018643, -0.6002429055492418 
2.9900000000018854, -0.5982779884474843 
3.0000000000019065, -0.5967346826842415 
3.0100000000019276, -0.5955622913658656 
3.0200000000019487, -0.5947157797126087 
3.03000000000197, -0.594155955589671 
3.040000000001991, -0.59384890100589 
3.050000000002012, -0.5937656775190405 
3.060000000002033, -0.5938825942007797 
3.070000000002054, -0.5941819469099914 
3.0800000000020753, -0.5946529571914719 
3.0900000000020964, -0.5952924859328909 
3.1000000000021175, -0.5961048016153334 
3.1100000000021386, -0.5970991885462886 
3.1200000000021597, -0.598283753015224 
3.130000000002181, -0.5996542085636752 
3.140000000002202, -0.6011788768633457 
3.150000000002223, -0.6027861671308679 
3.160000000002244, -0.6043656702000966 
3.1700000000022652, -0.6057910706540856 
3.1800000000022863, -0.6069575540367205 
3.1900000000023074, -0.607810843621578 
3.2000000000023285, -0.6083501685878014 
3.2100000000023496, -0.6086092239804272 
3.2200000000023707, -0.6086320092148144 
3.230000000002392, -0.6084555123074774 
3.240000000002413, -0.6081010529353822 
3.250000000002434, -0.6075708461171987 
3.260000000002455, -0.6068459293179365 
3.2700000000024763, -0.605882607811492 
3.2800000000024974, -0.6046048491499343 
3.2900000000025185, -0.6028886177477812 
3.3000000000025396, -0.6005307139163797 
3.3100000000025607, -0.5971930468126981 
3.3200000000025818, -0.5923339595683315 
3.330000000002603, -0.5852282684387113 
3.340000000002624, -0.5753132199553851 
3.350000000002645, -0.56291675323791 
3.360000000002666, -0.5496432084234305 
3.3700000000026873, -0.5375917235838042 
3.3800000000027084, -0.52812152022982 
3.3900000000027295, -0.5214615774827975 
3.4000000000027506, -0.5171387226220376 
3.4100000000027717, -0.5144943733129428 
3.420000000002793, -0.5129554605880451 
3.430000000002814, -0.5121050770282747 
3.440000000002835, -0.511665755300553 
3.450000000002856, -0.5114615963302998 
3.460000000002877, -0.5113840809310669 
3.4700000000028983, -0.5113671599494938 
3.4800000000029194, -0.5113708422485947 
3.4900000000029405, -0.511371266193839 
3.5000000000029616, -0.5113555347394676 
3.5100000000029827, -0.5113199731830287 
3.520000000003004, -0.5112703581197303 
3.530000000003025, -0.51122205700644 
3.540000000003046, -0.511197633898892 
3.550000000003067, -0.511220437845052 
3.5600000000030882, -0.5113052024496141 
3.5700000000031094, -0.5114493090157266 
3.5800000000031305, -0.5116292962050549 
3.5900000000031516, -0.5118055556797494 
3.6000000000031727, -0.5119339935945184 
3.6100000000031938, -0.5119788328862771 
3.620000000003215, -0.5119198925079413 
3.630000000003236, -0.5117520311844903 
3.640000000003257, -0.5114796350365702 
3.650000000003278, -0.5111105569209149 
3.6600000000032993, -0.5106522095773123 
3.6700000000033204, -0.5101104539895072 
3.6800000000033415, -0.50949097764288 
3.6900000000033626, -0.5088026551187784 
3.7000000000033837, -0.5080616830695369 
3.710000000003405, -0.5072919777606574 
3.720000000003426, -0.5065077140375535 
3.730000000003447, -0.505645150757957 
3.740000000003468, -0.5044007623924202 
3.750000000003489, -0.5020198859448783 
3.7600000000035103, -0.497378387860977 
3.7700000000035314, -0.4898268691238945 
3.7800000000035525, -0.48023133610703567 
3.7900000000035736, -0.4706270870966554 
3.8000000000035947, -0.4627038072669549 
3.810000000003616, -0.45701213504987137 
3.820000000003637, -0.4532831940102583 
3.830000000003658, -0.45098516950833184 
3.840000000003679, -0.44963174751351104 
3.8500000000037002, -0.44886783340279557 
3.8600000000037213, -0.44845902272955185 
3.8700000000037424, -0.44825823007302884 
3.8800000000037635, -0.4481756571655374 
3.8900000000037847, -0.44815749809659317 
3.9000000000038058, -0.4481724105076528 
3.910000000003827, -0.44820372899859623 
3.920000000003848, -0.4482457266222628 
3.930000000003869, -0.44830252860796616 
3.94000000000389, -0.4483881225132794 
3.9500000000039113, -0.4485254462189367 
3.9600000000039324, -0.44874245063834256 
3.9700000000039535, -0.44906405763998736 
3.9800000000039746, -0.44950105675534857 
3.9900000000039957, -0.4500394958307356 
4.000000000004016, -0.4506361450588007 
4.010000000003993, -0.4512252614253012 
4.02000000000397, -0.4517364383496675 
4.030000000003946, -0.452114748672253 
4.040000000003923, -0.45233160421326407 
4.0500000000039, -0.4523821623247402 
4.0600000000038765, -0.4522744268095041 
4.070000000003853, -0.4520173801645503 
4.08000000000383, -0.45161168513874933 
4.090000000003807, -0.45104229196885637 
4.100000000003783, -0.45026999969488124 
4.11000000000376, -0.44921771906184105 
4.120000000003737, -0.4477456004042808 
4.130000000003713, -0.44560813621585893 
4.14000000000369, -0.44239330346851 
4.150000000003667, -0.43748139902790717 
4.1600000000036434, -0.4301543712197754 
4.17000000000362, -0.420040622746372 
4.180000000003597, -0.407751483572267 
4.1900000000035735, -0.394938138658402 
4.20000000000355, -0.3833834865468133 
4.210000000003527, -0.37407589489834253 
4.220000000003504, -0.36711140734583503 
4.23000000000348, -0.3621095553344017 
4.240000000003457, -0.35858578703167365 
4.250000000003434, -0.35612303434236386 
4.26000000000341, -0.35441152508804663 
4.270000000003387, -0.35323683146138707 
4.280000000003364, -0.35245670512362715 
4.2900000000033405, -0.35198083245980627 
4.300000000003317, -0.3517565424457297 
4.310000000003294, -0.35176004187073606 
4.320000000003271, -0.3519921438328842 
4.330000000003247, -0.3524776550590265 
4.340000000003224, -0.353267808583915 
4.350000000003201, -0.3544449438786089 
4.360000000003177, -0.3561275031791905 
4.370000000003154, -0.3584703598491208 
4.380000000003131, -0.36164929967829856 
4.390000000003107, -0.3658102260164928 
4.400000000003084, -0.370965178406321 
4.410000000003061, -0.3768588344757464 
4.4200000000030375, -0.38292059799221645 
4.430000000003014, -0.3884397897996307 
4.440000000002991, -0.39289313668680015 
4.450000000002968, -0.3961347707250133 
4.460000000002944, -0.3983170851304003 
4.470000000002921, -0.39970110149603827 
4.480000000002898, -0.40052580780369607 
4.490000000002874, -0.4009642717572527 
4.500000000002851, -0.4011260438061027 
4.510000000002828, -0.4010719292971399 
4.520000000002804, -0.40082727171408744 
4.530000000002781, -0.4003913951828003 
4.540000000002758, -0.39974544457665345 
4.5500000000027345, -0.398862605448169 
4.560000000002711, -0.3977243939614826 
4.570000000002688, -0.39634231593323543 
4.580000000002665, -0.39477508647853915 
4.590000000002641, -0.3931258134563229 
4.600000000002618, -0.39151385587909066 
4.610000000002595, -0.39003747325958954 
4.620000000002571, -0.3887506179383481 
4.630000000002548, -0.3876622838388698 
4.640000000002525, -0.3867503150592145 
4.6500000000025015, -0.3859782599110768 
4.660000000002478, -0.3853087048986047 
4.670000000002455, -0.38471128036348545 
4.6800000000024315, -0.3841660829481001 
4.690000000002408, -0.38366438344968884 
4.700000000002385, -0.3832087222145167 
4.710000000002362, -0.3828141827539432 
4.720000000002338, -0.3825122693740863 
4.730000000002315, -0.38235876082292847 
4.740000000002292, -0.3824471184385752 
4.750000000002268, -0.38292874274073335 
4.760000000002245, -0.3840381577151514 
4.770000000002222, -0.38610840816988434 
4.7800000000021985, -0.38952625503650523 
4.790000000002175, -0.3945131767916174 
4.800000000002152, -0.4006208533164065 
4.810000000002129, -0.40622487995967943 
4.820000000002105, -0.40906608421254964 
4.830000000002082, -0.4081617279183064 
4.840000000002059, -0.4047425423175797 
4.850000000002035, -0.400807560122848 
4.860000000002012, -0.39757654686405786 
4.870000000001989, -0.39533937559421073 
4.880000000001965, -0.39393511980194645 
4.890000000001942, -0.3931089583135047 
4.900000000001919, -0.39264875520878817 
4.9100000000018955, -0.39240835603571184 
