t, s[1].omega / s[0].omega 
0, -0.5799977368042707 
0.009999999999999995, -0.5798097837586623 
0.019999999999999934, -0.5796827516517444 
0.029999999999999874, -0.579577760717751 
0.04000000000000012, -0.5794472517982671 
0.050000000000000405, -0.5792516756272057 
0.06000000000000069, -0.5789699196766432 
0.07000000000000098, -0.5786010794332223 
0.08000000000000126, -0.5781616387060693 
0.09000000000000155, -0.5776842844651151 
0.10000000000000184, -0.5772230978925861 
0.11000000000000212, -0.5768684207505209 
0.12000000000000241, -0.5767752290382605 
0.130000000000002, -0.5772111916190097 
0.1400000000000009, -0.5786338356278649 
0.1499999999999998, -0.581808388850777 
0.1599999999999987, -0.5879720175929938 
0.1699999999999976, -0.5990137768643791 
0.1799999999999965, -0.6175160992156087 
0.1899999999999954, -0.6462234204521328 
0.1999999999999943, -0.6862654005570604 
0.2099999999999932, -0.7343920358192869 
0.2199999999999921, -0.7823831862405 
0.229999999999991, -0.8216870595173598 
0.2399999999999899, -0.8488523754550243 
0.2499999999999888, -0.8655219697360034 
0.2599999999999877, -0.8750746715351765 
0.2699999999999866, -0.8803638734168715 
0.2799999999999855, -0.8832219719859344 
0.2899999999999844, -0.8846917797805819 
0.2999999999999833, -0.8853300599403955 
0.3099999999999822, -0.8854119694943536 
0.3199999999999811, -0.8850400582913606 
0.32999999999998, -0.8841869692772664 
0.3399999999999789, -0.8826884187870025 
0.3499999999999778, -0.8801859819902906 
0.35999999999997667, -0.8760039059254673 
0.36999999999997557, -0.868937327858812 
0.37999999999997447, -0.8569614785664144 
0.38999999999997337, -0.8370351634844576 
0.39999999999997227, -0.8056171397169176 
0.40999999999997117, -0.7609984178135094 
0.41999999999997006, -0.7071546679190768 
0.42999999999996896, -0.6542279340445074 
0.43999999999996786, -0.6119232044706044 
0.44999999999996676, -0.5833771769877665 
0.45999999999996566, -0.5662776056268494 
0.46999999999996456, -0.556824781824502 
0.47999999999996346, -0.5519120561173302 
0.48999999999996235, -0.5495177699709022 
0.49999999999996125, -0.5484545878029696 
0.5099999999999602, -0.5480600398983221 
0.519999999999959, -0.5479745985512159 
0.529999999999958, -0.5480056448925323 
0.5399999999999568, -0.548049323396526 
0.5499999999999557, -0.5480473493573338 
0.5599999999999546, -0.5479645781645158 
0.5699999999999535, -0.5477796497982289 
0.5799999999999524, -0.5474845463174678 
0.5899999999999513, -0.5470893006808771 
0.5999999999999502, -0.5466260894590087 
0.6099999999999491, -0.5461458573904466 
0.619999999999948, -0.5457046969633581 
0.6299999999999469, -0.5453450931654464 
0.6399999999999458, -0.5450813756181581 
0.6499999999999447, -0.5448959354773034 
0.6599999999999436, -0.5447472219089659 
0.6699999999999425, -0.5445856741844994 
0.6799999999999414, -0.5443701765850029 
0.6899999999999403, -0.5440778669027126 
0.6999999999999392, -0.5437054850716174 
0.7099999999999381, -0.5432663964559193 
0.719999999999937, -0.5427892624141031 
0.7299999999999359, -0.5423229705495307 
0.7399999999999348, -0.5419514415825877 
0.7499999999999337, -0.5418232577351534 
0.7599999999999326, -0.5422049546591393 
0.7699999999999315, -0.5435730414642792 
0.7799999999999304, -0.5467667312738645 
0.7899999999999293, -0.5532215450270106 
0.7999999999999282, -0.5652559237559882 
0.8099999999999271, -0.586183447222633 
0.819999999999926, -0.6195358147294352 
0.8299999999999249, -0.6663405918537547 
0.8399999999999238, -0.7213816888904719 
0.8499999999999227, -0.7738733223286863 
0.8599999999999216, -0.8147869755180484 
0.8699999999999205, -0.8420623235467348 
0.8799999999999194, -0.858539705517502 
0.8899999999999183, -0.8679944888702955 
0.8999999999999172, -0.8732904673037261 
0.9099999999999161, -0.8762035928259735 
0.919999999999915, -0.8777409909111575 
0.9299999999999139, -0.8784459123629851 
0.9399999999999128, -0.8785913138639685 
0.9499999999999117, -0.8782817273414851 
0.9599999999999106, -0.8774919655287201 
0.9699999999999095, -0.8760559557908149 
0.9799999999999084, -0.8736007323278363 
0.9899999999999073, -0.8694026536136568 
0.9999999999999062, -0.8621358803598553 
1.0099999999999052, -0.8495415156758105 
1.019999999999904, -0.828322847426924 
1.029999999999903, -0.7951782090251356 
1.039999999999902, -0.749889329287211 
1.0499999999999008, -0.6983761257869778 
1.0599999999998997, -0.6504204100806839 
1.0699999999998986, -0.6130246692145291 
1.0799999999998975, -0.5874488425537328 
1.0899999999998964, -0.5714119191769923 
1.0999999999998953, -0.5619153721500052 
1.1099999999998942, -0.5565312692453875 
1.119999999999893, -0.5536076614403853 
1.129999999999892, -0.5521062848282254 
1.1399999999998909, -0.5514003974209476 
1.1499999999998898, -0.5511202137751158 
1.1599999999998887, -0.551050366666582 
1.1699999999998876, -0.551065832416289 
1.1799999999998865, -0.5510934304462818 
1.1899999999998854, -0.5510900546596678 
1.1999999999998843, -0.5510322350604451 
1.2099999999998832, -0.5509134572978323 
1.219999999999882, -0.5507455387869514 
1.229999999999881, -0.5505589832538148 
1.2399999999998799, -0.5503971836413968 
1.2499999999998788, -0.5503030626369679 
1.2599999999998777, -0.5503024824784338 
1.2699999999998766, -0.5503917620108696 
1.2799999999998755, -0.550535398971047 
1.2899999999998744, -0.5506762779252218 
1.2999999999998733, -0.550754656274034 
1.3099999999998722, -0.5507263246659997 
1.319999999999871, -0.5505709276932832 
1.32999999999987, -0.5502895029999753 
1.3399999999998689, -0.5498976202292511 
1.3499999999998678, -0.5494213422591294 
1.3599999999998666, -0.5489005410056499 
1.3699999999998655, -0.5484028531023746 
1.3799999999998644, -0.5480536558185543 
1.3899999999998633, -0.5480928613521536 
1.3999999999998622, -0.5489778340450487 
1.4099999999998611, -0.5515608979139771 
1.41999999999986, -0.5573644716311137 
1.429999999999859, -0.5688971046018557 
1.4399999999998578, -0.5896476235426946 
1.4499999999998567, -0.6227774706627256 
1.4599999999998556, -0.6676734418595457 
1.4699999999998545, -0.7171277484601343 
1.4799999999998534, -0.7610410970080281 
1.4899999999998523, -0.7937424437007958 
1.4999999999998512, -0.8154720337454144 
1.5099999999998501, -0.8290247216821104 
1.519999999999849, -0.8371928032253958 
1.529999999999848, -0.8420139481447834 
1.5399999999998468, -0.8448027721332391 
1.5499999999998457, -0.8463535707293197 
1.5599999999998446, -0.8471230167819211 
1.5699999999998435, -0.8473545441243138 
1.5799999999998424, -0.8471491223480496 
1.5899999999998413, -0.8464933102838298 
1.5999999999998402, -0.845249448546093 
1.6099999999998391, -0.8431035011314932 
1.619999999999838, -0.8394597399259901 
1.629999999999837, -0.8332865927132603 
1.6399999999998358, -0.8230052212613073 
1.6499999999998347, -0.8067269070970152 
1.6599999999998336, -0.783286443151667 
1.6699999999998325, -0.7538242890133342 
1.6799999999998314, -0.7221872421251938 
1.6899999999998303, -0.6929849317690755 
1.6999999999998292, -0.6691970728185191 
1.709999999999828, -0.6515532752876553 
1.719999999999827, -0.6393384350542759 
1.729999999999826, -0.6313303850989319 
1.7399999999998248, -0.6263341611588523 
1.7499999999998237, -0.623377691903136 
1.7599999999998226, -0.6217392125423582 
1.7699999999998215, -0.6209127488133196 
1.7799999999998204, -0.6205586595788037 
1.7899999999998193, -0.620456747937168 
1.7999999999998182, -0.620467704084885 
1.809999999999817, -0.6205042469937396 
1.819999999999816, -0.6205116971426052 
1.8299999999998149, -0.6204571466488258 
1.8399999999998138, -0.6203258725226664 
1.8499999999998127, -0.6201222272277971 
1.8599999999998116, -0.6198700673063119 
1.8699999999998105, -0.6196072423749055 
1.8799999999998094, -0.6193724857342522 
1.8899999999998083, -0.6191894653702249 
1.8999999999998072, -0.6190560590878369 
1.909999999999806, -0.6189445740851311 
1.919999999999805, -0.6188129894867725 
1.9299999999998039, -0.6186214044839312 
1.9399999999998028, -0.6183452261156249 
1.9499999999998017, -0.6179801542478893 
1.9599999999998006, -0.6175409078201178 
1.9699999999997995, -0.6170596068695455 
1.9799999999997984, -0.6165890523923384 
1.9899999999997973, -0.6162139433823921 
1.9999999999997962, -0.6160719264991938 
2.0099999999998173, -0.6163863701929675 
2.0199999999998384, -0.6175127995836334 
2.0299999999998595, -0.6199996893887101 
2.0399999999998806, -0.6246593636340434 
2.0499999999999017, -0.6326295846443127 
2.059999999999923, -0.645365943706141 
2.069999999999944, -0.6644198203814882 
2.079999999999965, -0.6907586709336361 
2.089999999999986, -0.7235296167037043 
2.100000000000007, -0.7590293100844137 
2.1100000000000283, -0.7916450635354046 
2.1200000000000494, -0.8169866396039795 
2.1300000000000705, -0.8340669046542963 
2.1400000000000916, -0.8444822403202412 
2.1500000000001127, -0.8504603945735102 
2.160000000000134, -0.8537619344692768 
2.170000000000155, -0.8555008872974674 
2.180000000000176, -0.8563085123236869 
2.190000000000197, -0.8565142580952669 
2.2000000000002182, -0.8562624354225263 
2.2100000000002393, -0.8555686195235218 
2.2200000000002604, -0.8543302159286907 
2.2300000000002815, -0.8522964082719788 
2.2400000000003026, -0.8489913556804135 
2.2500000000003237, -0.8435766031095694 
2.260000000000345, -0.8346446039823519 
2.270000000000366, -0.8199883466562701 
2.280000000000387, -0.796586125261694 
2.290000000000408, -0.7615244051094525 
2.3000000000004293, -0.7148740673587203 
2.3100000000004504, -0.6630198975440711 
2.3200000000004715, -0.616489544627384 
2.3300000000004926, -0.5823006920657077 
2.3400000000005137, -0.5607253259990659 
2.3500000000005348, -0.5484399638711148 
2.360000000000556, -0.5419268948881741 
2.370000000000577, -0.5386833978962063 
2.380000000000598, -0.5371895790282009 
2.390000000000619, -0.5365882861325575 
2.4000000000006403, -0.5364139131419574 
2.4100000000006614, -0.5364182972457558 
2.4200000000006825, -0.5364695317387242 
2.4300000000007036, -0.5364957988876735 
2.4400000000007247, -0.5364555033140324 
2.450000000000746, -0.536323173012154 
2.460000000000767, -0.5360856850512863 
2.470000000000788, -0.535745269797727 
2.480000000000809, -0.5353246790270627 
2.49000000000083, -0.5348678882635338 
2.5000000000008513, -0.5344310786719386 
2.5100000000008724, -0.5340653120592991 
2.5200000000008935, -0.5337989512488984 
2.5300000000009146, -0.5336281667954326 
2.5400000000009357, -0.5335192469115511 
2.550000000000957, -0.5334214457685145 
2.560000000000978, -0.5332846740186432 
2.570000000000999, -0.5330737921153725 
2.58000000000102, -0.5327740697460105 
2.5900000000010412, -0.5323891183700711 
2.6000000000010624, -0.5319371019843098 
2.6100000000010835, -0.5314508825470967 
2.6200000000011046, -0.5309860411402528 
2.6300000000011257, -0.5306407545214203 
2.6400000000011468, -0.5305944219598513 
2.650000000001168, -0.5311778512357913 
2.660000000001189, -0.5329964309246574 
2.67000000000121, -0.5371348537232141 
2.680000000001231, -0.545455238284706 
2.6900000000012523, -0.56088046925026 
2.7000000000012734, -0.5871581900174396 
2.7100000000012945, -0.6269690247892068 
2.7200000000013156, -0.6779860035082014 
2.7300000000013367, -0.7310260987232977 
2.740000000001358, -0.7756504807002795 
2.750000000001379, -0.8073452890649102 
2.7600000000014, -0.8275327277049115 
2.770000000001421, -0.839651954859035 
2.780000000001442, -0.8467183281359535 
2.7900000000014633, -0.850770317678702 
2.8000000000014844, -0.8530437449565105 
2.8100000000015055, -0.8542472659776441 
2.8200000000015266, -0.8547683500339524 
2.8300000000015477, -0.8547973815413288 
2.840000000001569, -0.8543897257933416 
2.85000000000159, -0.8534813761255391 
2.860000000001611, -0.8518615846597843 
2.870000000001632, -0.8490929402515193 
2.8800000000016532, -0.8443626996007234 
2.8900000000016743, -0.8362774264998485 
2.9000000000016954, -0.8227547516876854 
2.9100000000017165, -0.8014854822714362 
2.9200000000017377, -0.7715349506312076 
2.9300000000017588, -0.7353545766535989 
2.94000000000178, -0.6985288030184141 
2.950000000001801, -0.666530062077767 
2.960000000001822, -0.6419968954096142 
2.970000000001843, -0.6248069720295761 
2.9800000000018643, -0.613510712222344 
2.9900000000018854, -0.606450575001779 
3.0000000000019065, -0.6022387454720466 
3.0100000000019276, -0.5998539457957663 
3.0200000000019487, -0.5985941161575776 
3.03000000000197, -0.5979971508684153 
3.040000000001991, -0.5977684494073576 
3.050000000002012, -0.5977245507324291 
3.060000000002033, -0.5977526225264436 
3.070000000002054, -0.597783276869676 
3.0800000000020753, -0.5977741773709028 
3.0900000000020964, -0.5977023399628255 
3.1000000000021175, -0.5975628068727569 
3.1100000000021386, -0.5973699054286937 
3.1200000000021597, -0.597155654723624 
3.130000000002181, -0.5969609808604195 
3.140000000002202, -0.5968205765949695 
3.150000000002223, -0.5967478129094184 
3.160000000002244, -0.5967272880171691 
3.1700000000022652, -0.5967191828686034 
3.1800000000022863, -0.5966738635617567 
3.1900000000023074, -0.5965493889925472 
3.2000000000023285, -0.5963230611378537 
3.2100000000023496, -0.5959935254729153 
3.2200000000023707, -0.5955773040990168 
3.230000000002392, -0.5951065078270856 
3.240000000002413, -0.5946329093964705 
3.250000000002434, -0.5942416752701831 
3.260000000002455, -0.5940781786227081 
3.2700000000024763, -0.5943932322151544 
3.2800000000024974, -0.5956146324858119 
3.2900000000025185, -0.598454104787079 
3.3000000000025396, -0.6040528222251942 
3.3100000000025607, -0.6141378787904669 
3.3200000000025818, -0.6310627007534355 
3.330000000002603, -0.6573798940256954 
3.340000000002624, -0.694376050724968 
3.350000000002645, -0.7396255683802152 
3.360000000002666, -0.7859865423412663 
3.3700000000026873, -0.825154231476108 
3.3800000000027084, -0.852972788040977 
3.3900000000027295, -0.8703612623022445 
3.4000000000027506, -0.8804207382427787 
3.4100000000027717, -0.8860082708700052 
3.420000000002793, -0.8890289502305517 
3.430000000002814, -0.8905857271794378 
3.440000000002835, -0.8912724698575067 
3.450000000002856, -0.8913859336215391 
3.460000000002877, -0.8910428870937009 
3.4700000000028983, -0.8902293838344602 
3.4800000000029194, -0.8888008973069026 
3.4900000000029405, -0.8864370617787621 
3.5000000000029616, -0.8825429349631074 
3.5100000000029827, -0.8760870731552848 
3.520000000003004, -0.8653961323362009 
3.530000000003025, -0.8480334075065986 
3.540000000003046, -0.8211397309202484 
3.550000000003067, -0.7829500325281715 
3.5600000000030882, -0.7357453247970135 
3.5700000000031094, -0.687465545638114 
3.5800000000031305, -0.6474918890061161 
3.5900000000031516, -0.6201756576102888 
3.6000000000031727, -0.6041110852129539 
3.6100000000031938, -0.5956860421815816 
3.620000000003215, -0.5917026510369622 
3.630000000003236, -0.590055931869599 
3.640000000003257, -0.5895394957140608 
3.650000000003278, -0.5895130575073835 
3.6600000000032993, -0.5896530002097385 
3.6700000000033204, -0.5898004229502414 
3.6800000000033415, -0.5898763861446213 
3.6900000000033626, -0.5898369086180504 
3.7000000000033837, -0.5896506351712564 
3.710000000003405, -0.5892905495519069 
3.720000000003426, -0.5887362529754938 
3.730000000003447, -0.5879844049221046 
3.740000000003468, -0.5870613384987433 
3.750000000003489, -0.5860270083516744 
3.7600000000035103, -0.5849619407305587 
3.7700000000035314, -0.583941715264087 
3.7800000000035525, -0.5830142612346186 
3.7900000000035736, -0.5821918016159854 
3.8000000000035947, -0.5814578452440248 
3.810000000003616, -0.5807822972984464 
3.820000000003637, -0.5801368742243835 
3.830000000003658, -0.5795056905229112 
3.840000000003679, -0.5788900987478214 
3.8500000000037002, -0.5783104146230796 
3.8600000000037213, -0.5778082067414122 
3.8700000000037424, -0.5774518105236889 
3.8800000000037635, -0.577346332430169 
3.8900000000037847, -0.5776486390511657 
3.9000000000038058, -0.5785876880282306 
3.910000000003827, -0.5804906401597032 
3.920000000003848, -0.5838146726635773 
3.930000000003869, -0.5891811156218661 
3.94000000000389, -0.597397005215935 
3.9500000000039113, -0.6094188417454642 
3.9600000000039324, -0.6261550943874465 
3.9700000000039535, -0.6479546200803968 
3.9800000000039746, -0.6737788854949288 
3.9900000000039957, -0.7006761470198744 
4.000000000004016, -0.7246925541391279 
4.010000000003993, -0.7430489523992939 
4.02000000000397, -0.755370602989288 
4.030000000003946, -0.7629283013273385 
4.040000000003923, -0.7673134986804142 
4.0500000000039, -0.7697545851116274 
4.0600000000038765, -0.7710268969532963 
4.070000000003853, -0.771569693546442 
4.08000000000383, -0.771606309419865 
4.090000000003807, -0.7712178985631253 
4.100000000003783, -0.7703720031534312 
4.11000000000376, -0.7689104379157518 
4.120000000003737, -0.766489902568643 
4.130000000003713, -0.7624537295767377 
4.14000000000369, -0.7556061601456072 
4.150000000003667, -0.7439150276217601 
4.1600000000036434, -0.7244407539992613 
4.17000000000362, -0.6943798881826055 
4.180000000003597, -0.6539829066137892 
4.1900000000035735, -0.6089628306284174 
4.20000000000355, -0.5677104804494005 
4.210000000003527, -0.5355656486981799 
4.220000000003504, -0.5131186825946951 
4.23000000000348, -0.4984101447627249 
4.240000000003457, -0.4890962009701892 
4.250000000003434, -0.483314945767437 
4.26000000000341, -0.4797862294023476 
4.270000000003387, -0.4776797608044737 
4.280000000003364, -0.4764689737074189 
4.2900000000033405, -0.4758224802528546 
4.300000000003317, -0.4755324853634725 
4.310000000003294, -0.4754696514810255 
4.320000000003271, -0.475555347635388 
4.330000000003247, -0.47574524910043203 
4.340000000003224, -0.4760205228110732 
4.350000000003201, -0.47638394407570867 
4.360000000003177, -0.476858306304402 
4.370000000003154, -0.47748386987979974 
4.380000000003131, -0.47831128159848185 
4.390000000003107, -0.47938717544427306 
4.400000000003084, -0.48073177627711405 
4.410000000003061, -0.48231240516700213 
4.4200000000030375, -0.4840257104932846 
4.430000000003014, -0.4857089229115295 
4.440000000002991, -0.48718832123447814 
4.450000000002968, -0.48833897707143786 
4.460000000002944, -0.48911364903101306 
4.470000000002921, -0.4895277773527317 
4.480000000002898, -0.4896233163430305 
4.490000000002874, -0.489436727382901 
4.500000000002851, -0.48897853384068063 
4.510000000002828, -0.4882184150043344 
4.520000000002804, -0.48706498260219666 
4.530000000002781, -0.4853256450639927 
4.540000000002758, -0.4826224553424677 
4.5500000000027345, -0.47822355269850203 
4.560000000002711, -0.4707546930293548 
4.570000000002688, -0.4579234603769858 
4.580000000002665, -0.43700830490672954 
4.590000000002641, -0.40735426690488685 
4.600000000002618, -0.37332046117289813 
4.610000000002595, -0.3421590842832992 
4.620000000002571, -0.3182893257051282 
4.630000000002548, -0.3018366866361347 
4.640000000002525, -0.29099067580725335 
4.6500000000025015, -0.28389424057646095 
4.660000000002478, -0.27920554896098465 
4.670000000002455, -0.2760642645810321 
4.6800000000024315, -0.2739421413694644 
4.690000000002408, -0.27252085588095487 
4.700000000002385, -0.27161359120804274 
4.710000000002362, -0.2711194128672014 
4.720000000002338, -0.2709993056631467 
4.730000000002315, -0.27126714397829793 
4.740000000002292, -0.2719929729727037 
4.750000000002268, -0.273319591840003 
4.760000000002245, -0.27549727803934415 
4.770000000002222, -0.27894604486757696 
4.7800000000021985, -0.2843582691596107 
4.790000000002175, -0.2928450524755072 
4.800000000002152, -0.30606223554121914 
4.810000000002129, -0.3260168208441569 
4.820000000002105, -0.3538385622032106 
4.830000000002082, -0.3872339350214325 
4.840000000002059, -0.4195615290214153 
4.850000000002035, -0.4443626301401967 
4.860000000002012, -0.4601836902679112 
4.870000000001989, -0.469303799974958 
4.880000000001965, -0.4744134065920063 
4.890000000001942, -0.47730549178211995 
4.900000000001919, -0.4789655545115588 
4.9100000000018955, -0.47990421737402356 
