t, s[1].omega / s[0].omega 
0, -0.34001703789516236 
0.009999999999999995, -0.34187652055116186 
0.019999999999999934, -0.34396133678685425 
0.029999999999999874, -0.34608860249184736 
0.04000000000000012, -0.3480445204523226 
0.050000000000000405, -0.3496614296463743 
0.06000000000000069, -0.35086570001912165 
0.07000000000000098, -0.35166923120669885 
0.08000000000000126, -0.35212829398477385 
0.09000000000000155, -0.3523048126727182 
0.10000000000000184, -0.352244213927266 
0.11000000000000212, -0.3519663572970985 
0.12000000000000241, -0.35146212545281097 
0.130000000000002, -0.35069125433085835 
0.1400000000000009, -0.34958172585434477 
0.1499999999999998, -0.3480368256791587 
0.1599999999999987, -0.3459616732932841 
0.1699999999999976, -0.3433182046907858 
0.1799999999999965, -0.34019156651408433 
0.1899999999999954, -0.3368117309109512 
0.1999999999999943, -0.33348442110660476 
0.2099999999999932, -0.33047118986463514 
0.2199999999999921, -0.3279117860244003 
0.229999999999991, -0.3258262294930233 
0.2399999999999899, -0.324160979537003 
0.2499999999999888, -0.3228350607947208 
0.2599999999999877, -0.3217689099094414 
0.2699999999999866, -0.3208976502408446 
0.2799999999999855, -0.32017512841949175 
0.2899999999999844, -0.3195738197852927 
0.2999999999999833, -0.31908390636269457 
0.3099999999999822, -0.3187136678159002 
0.3199999999999811, -0.3184927969848925 
0.32999999999998, -0.3184803057478374 
0.3399999999999789, -0.3187792483708081 
0.3499999999999778, -0.3195611111568596 
0.35999999999997667, -0.32110153837630195 
0.36999999999997557, -0.3238196601563561 
0.37999999999997447, -0.3282778584487853 
0.38999999999997337, -0.3350075824826441 
0.39999999999997227, -0.3439170412291541 
0.40999999999997117, -0.3533121125356312 
0.41999999999997006, -0.3598437297157715 
0.42999999999996896, -0.3610288052966088 
0.43999999999996786, -0.3577757423685263 
0.44999999999996676, -0.3529671150988924 
0.45999999999996566, -0.3486956600896685 
0.46999999999996456, -0.34561738129401576 
0.47999999999996346, -0.3436183238170599 
0.48999999999996235, -0.3423915668748171 
0.49999999999996125, -0.341666650291585 
0.5099999999999602, -0.3412547726231985 
0.519999999999959, -0.3410360135615878 
0.529999999999958, -0.3409380800059411 
0.5399999999999568, -0.340919745976293 
0.5499999999999557, -0.3409604255857135 
0.5599999999999546, -0.3410546427628205 
0.5699999999999535, -0.34120995189850456 
0.5799999999999524, -0.34144692864763615 
0.5899999999999513, -0.3417996214609927 
0.5999999999999502, -0.3423144097628328 
0.6099999999999491, -0.34304486036301207 
0.619999999999948, -0.3440401291552114 
0.6299999999999469, -0.34532527142111324 
0.6399999999999458, -0.34687571339247625 
0.6499999999999447, -0.3485975928250452 
0.6599999999999436, -0.3503347808366428 
0.6699999999999425, -0.3519135011546289 
0.6799999999999414, -0.35320208238797146 
0.6899999999999403, -0.35414421354921427 
0.6999999999999392, -0.3547493385332279 
0.7099999999999381, -0.3550599241612173 
0.719999999999937, -0.35512115501673885 
0.7299999999999359, -0.3549628046779628 
0.7399999999999348, -0.3545904109991242 
0.7499999999999337, -0.35398004347470735 
0.7599999999999326, -0.35307334376244254 
0.7699999999999315, -0.3517740609165917 
0.7799999999999304, -0.3499542900493925 
0.7899999999999293, -0.34748683710958483 
0.7999999999999282, -0.34431744087577504 
0.8099999999999271, -0.34055423389984085 
0.819999999999926, -0.3364949904067786 
0.8299999999999249, -0.3325292162961182 
0.8399999999999238, -0.3289773767109674 
0.8499999999999227, -0.325997117099805 
0.8599999999999216, -0.32359715700006875 
0.8699999999999205, -0.32170210192640036 
0.8799999999999194, -0.3202102747942339 
0.8899999999999183, -0.31902659379885745 
0.8999999999999172, -0.3180758580160333 
0.9099999999999161, -0.31730562457385847 
0.919999999999915, -0.31668509394467487 
0.9299999999999139, -0.3162036700180153 
0.9399999999999128, -0.31587132569219095 
0.9499999999999117, -0.3157223354126002 
0.9599999999999106, -0.315824099387492 
0.9699999999999095, -0.3162935348116048 
0.9799999999999084, -0.31732445285080174 
0.9899999999999073, -0.3192288188677004 
0.9999999999999062, -0.3224868097576866 
1.0099999999999052, -0.32776774000268044 
1.019999999999904, -0.3357937725542167 
1.029999999999903, -0.3467886358111594 
1.039999999999902, -0.3594393112069735 
1.0499999999999008, -0.3704913920669948 
1.0599999999998997, -0.37682583066767045 
1.0699999999998986, -0.3782655419688477 
1.0799999999998975, -0.377014662000026 
1.0899999999998964, -0.3751510770944183 
1.0999999999998953, -0.37362308263403204 
1.1099999999998942, -0.3726111170937987 
1.119999999999893, -0.3720155242370776 
1.129999999999892, -0.3716954017104669 
1.1399999999998909, -0.37154007949693263 
1.1499999999998898, -0.3714763861419127 
1.1599999999998887, -0.371459704506126 
1.1699999999998876, -0.3714645163667821 
1.1799999999998865, -0.37147805706491166 
1.1899999999998854, -0.3714972147798642 
1.1999999999998843, -0.37152799854569396 
1.2099999999998832, -0.3715865213748638 
1.219999999999882, -0.37169987631336526 
1.229999999999881, -0.37190477975271546 
1.2399999999998799, -0.37224206993405634 
1.2499999999998788, -0.37274632456805923 
1.2599999999998777, -0.37343164449321586 
1.2699999999998766, -0.3742772188279989 
1.2799999999998755, -0.3752200705159683 
1.2899999999998744, -0.3761640575993721 
1.2999999999998733, -0.3770066347229343 
1.3099999999998722, -0.3776697797975945 
1.319999999999871, -0.3781158959721917 
1.32999999999987, -0.37834238569195106 
1.3399999999998689, -0.378364226308682 
1.3499999999998678, -0.37819635888901737 
1.3599999999998666, -0.3778406986512305 
1.3699999999998655, -0.377276202359636 
1.3799999999998644, -0.3764480374765605 
1.3899999999998633, -0.37525223108783046 
1.3999999999998622, -0.37351519054225246 
1.4099999999998611, -0.37097737108554935 
1.41999999999986, -0.3673138492167593 
1.429999999999859, -0.36225168705329874 
1.4399999999998578, -0.35580569440503107 
1.4499999999998567, -0.3484737559821861 
1.4599999999998556, -0.3411110199779552 
1.4699999999998545, -0.3345073200125541 
1.4799999999998534, -0.329070011529362 
1.4899999999998523, -0.32482943894238314 
1.4999999999998512, -0.3216127653209573 
1.5099999999998501, -0.3191955078836385 
1.519999999999849, -0.3173773374414016 
1.529999999999848, -0.31600496878535933 
1.5399999999998468, -0.314971513795347 
1.5499999999998457, -0.314209115061779 
1.5599999999998446, -0.3136820036913102 
1.5699999999998435, -0.3133825506136877 
1.5799999999998424, -0.3133313128038536 
1.5899999999998413, -0.31358194514185256 
1.5999999999998402, -0.31423242872867524 
1.6099999999998391, -0.3154449791955604 
1.619999999999838, -0.3174775628412957 
1.629999999999837, -0.3207278127418574 
1.6399999999998358, -0.325777959860779 
1.6499999999998347, -0.33338960080421015 
1.6599999999998336, -0.34430989775455845 
1.6699999999998325, -0.35868395210815046 
1.6799999999998314, -0.3751845759939739 
1.6899999999998303, -0.39093131244110985 
1.6999999999998292, -0.4031946078885813 
1.709999999999828, -0.41121338290162124 
1.719999999999827, -0.41592022421469776 
1.729999999999826, -0.4185959859273045 
1.7399999999998248, -0.4201520024361704 
1.7499999999998237, -0.42109479194096683 
1.7599999999998226, -0.4216810887400599 
1.7699999999998215, -0.4220398227505912 
1.7799999999998204, -0.42223734215375136 
1.7899999999998193, -0.42230804162508545 
1.7999999999998182, -0.42226851167385293 
1.809999999999817, -0.42212489476757514 
1.819999999999816, -0.42187829206815647 
1.8299999999998149, -0.4215306674143185 
1.8399999999998138, -0.42109182344162555 
1.8499999999998127, -0.4205856320827787 
1.8599999999998116, -0.4200515951030259 
1.8699999999998105, -0.4195385442335352 
1.8799999999998094, -0.4190918309031219 
1.8899999999998083, -0.4187399640246549 
1.8999999999998072, -0.4184868268344212 
1.909999999999806, -0.41831212447970223 
1.919999999999805, -0.41817920312653667 
1.9299999999998039, -0.4180468757832596 
1.9399999999998028, -0.4178802870831905 
1.9499999999998017, -0.41765659789758464 
1.9599999999998006, -0.4173646489036275 
1.9699999999997995, -0.417000978327586 
1.9799999999997984, -0.41656522471173113 
1.9899999999997973, -0.41605660291017565 
1.9999999999997962, -0.4154715018322187 
2.0099999999998173, -0.4148008960604682 
2.0199999999998384, -0.4140242711884502 
2.0299999999998595, -0.4130918447840809 
2.0399999999998806, -0.41187534224568295 
2.0499999999999017, -0.4100489390406195 
2.059999999999923, -0.4068669020181156 
2.069999999999944, -0.40096351699696237 
2.079999999999965, -0.3907452792747601 
2.089999999999986, -0.3759312862640209 
2.100000000000007, -0.35883100166047444 
2.1100000000000283, -0.34294484875176645 
2.1200000000000494, -0.3304324776979828 
2.1300000000000705, -0.3215429719329182 
2.1400000000000916, -0.31555590600427086 
2.1500000000001127, -0.31161182513589236 
2.160000000000134, -0.3090304985751449 
2.170000000000155, -0.30734614880064565 
2.180000000000176, -0.3062590055747495 
2.190000000000197, -0.3055821952796439 
2.2000000000002182, -0.3052028595965968 
2.2100000000002393, -0.3050574120152284 
2.2200000000002604, -0.30511723131262203 
2.2300000000002815, -0.3053816340208398 
2.2400000000003026, -0.3058760952739802 
2.2500000000003237, -0.30665445571863553 
2.260000000000345, -0.3078039333151901 
2.270000000000366, -0.3094506676775902 
2.280000000000387, -0.31176017435802095 
2.290000000000408, -0.31491994015115676 
2.3000000000004293, -0.31908177715274944 
2.3100000000004504, -0.32424464868506064 
2.3200000000004715, -0.3301117152584812 
2.3300000000004926, -0.3360610537071989 
2.3400000000005137, -0.34136820282409497 
2.3500000000005348, -0.34555409663281095 
2.360000000000556, -0.34853682417908455 
2.370000000000577, -0.3505079552315614 
2.380000000000598, -0.3517356099134849 
2.390000000000619, -0.3524486466838787 
2.4000000000006403, -0.35280600065914863 
2.4100000000006614, -0.35290485708053015 
2.4200000000006825, -0.352796801634788 
2.4300000000007036, -0.352501344988558 
2.4400000000007247, -0.352016277826385 
2.450000000000746, -0.35132788370916396 
2.460000000000767, -0.35042452535827473 
2.470000000000788, -0.3493144345572607 
2.480000000000809, -0.3480419025411155 
2.49000000000083, -0.34668986757205067 
2.5000000000008513, -0.3453612969617327 
2.5100000000008724, -0.34414801591678357 
2.5200000000008935, -0.3431062503327193 
2.5300000000009146, -0.3422502431727602 
2.5400000000009357, -0.3415607075280019 
2.550000000000957, -0.3409991559063184 
2.560000000000978, -0.3405216297279493 
2.570000000000999, -0.34008874537182693 
2.58000000000102, -0.3396709373472164 
2.5900000000010412, -0.3392493420609729 
2.6000000000010624, -0.33881402790011517 
2.6100000000010835, -0.3383615437624531 
2.6200000000011046, -0.33789307175577055 
2.6300000000011257, -0.3374134177229036 
2.6400000000011468, -0.33692974040721974 
2.650000000001168, -0.3364461935364299 
2.660000000001189, -0.33594349327590506 
2.67000000000121, -0.3353152666117071 
2.680000000001231, -0.33420478958147337 
2.6900000000012523, -0.3316956302106254 
2.7000000000012734, -0.3260652742871132 
2.7100000000012945, -0.31545430374547706 
2.7200000000013156, -0.29997312598660153 
2.7300000000013367, -0.28276790342196634 
2.740000000001358, -0.2675874834654969 
2.750000000001379, -0.2561516886078328 
2.7600000000014, -0.24825887942466035 
2.770000000001421, -0.24301167129056617 
2.780000000001442, -0.23955441728471483 
2.7900000000014633, -0.23726939818976184 
2.8000000000014844, -0.23575509854178317 
2.8100000000015055, -0.23476260655762698 
2.8200000000015266, -0.2341431069658734 
2.8300000000015477, -0.23381366692432515 
2.840000000001569, -0.23373764905501485 
2.85000000000159, -0.2339156307009779 
2.860000000001611, -0.2343843767352302 
2.870000000001632, -0.23522308703903638 
2.8800000000016532, -0.2365673271573611 
2.8900000000016743, -0.2386310700148262 
2.9000000000016954, -0.24173369872405978 
2.9100000000017165, -0.2463149409502992 
2.9200000000017377, -0.2528847327470207 
2.9300000000017588, -0.26180096596894137 
2.94000000000178, -0.27280181379199614 
2.950000000001801, -0.28458458914348406 
2.960000000001822, -0.29518557939755785 
2.970000000001843, -0.30320073314361723 
2.9800000000018643, -0.30848474130363834 
2.9900000000018854, -0.3116941623435955 
3.0000000000019065, -0.31358010693288196 
3.0100000000019276, -0.314681586710916 
3.0200000000019487, -0.3153202361099282 
3.03000000000197, -0.3156742083149905 
3.040000000001991, -0.3158397294943839 
3.050000000002012, -0.3158681399998672 
3.060000000002033, -0.31578639622770954 
3.070000000002054, -0.3156091297631447 
3.0800000000020753, -0.31534733914475893 
3.0900000000020964, -0.31501607741442494 
3.1000000000021175, -0.31464095533295294 
3.1100000000021386, -0.3142610867239895 
3.1200000000021597, -0.3139257642159072 
3.130000000002181, -0.3136847678586855 
3.140000000002202, -0.31357578327390934 
3.150000000002223, -0.3136134747712416 
3.160000000002244, -0.3137833619328034 
3.1700000000022652, -0.3140427185684445 
3.1800000000022863, -0.31433010434659747 
3.1900000000023074, -0.31458159985395384 
3.2000000000023285, -0.31474644919666017 
3.2100000000023496, -0.31479421080525083 
3.2200000000023707, -0.31471156227035496 
3.230000000002392, -0.3144929398650226 
3.240000000002413, -0.3141298317943783 
3.250000000002434, -0.31360039092996034 
3.260000000002455, -0.3128577777180711 
3.2700000000024763, -0.3118137742278127 
3.2800000000024974, -0.310314226623468 
3.2900000000025185, -0.30810805886641546 
3.3000000000025396, -0.304831659190586 
3.3100000000025607, -0.3000740815659403 
3.3200000000025818, -0.2936120226496734 
3.330000000002603, -0.28575468701187373 
3.340000000002624, -0.2774247134170406 
3.350000000002645, -0.2697096286223118 
3.360000000002666, -0.2632995668602594 
3.3700000000026873, -0.2583434620910511 
3.3800000000027084, -0.2546551532834357 
3.3900000000027295, -0.2519469211905733 
3.4000000000027506, -0.24995448726492014 
3.4100000000027717, -0.24847533822155424 
3.420000000002793, -0.24736813439127445 
3.430000000002814, -0.24654132506248447 
3.440000000002835, -0.24594221881005943 
3.450000000002856, -0.2455500015299493 
3.460000000002877, -0.24537371295449834 
3.4700000000028983, -0.2454559976823422 
3.4800000000029194, -0.2458842877426423 
3.4900000000029405, -0.24681249194036287 
3.5000000000029616, -0.2484975393201983 
3.5100000000029827, -0.25135310881922057 
3.520000000003004, -0.2560059923923644 
3.530000000003025, -0.2632766459245927 
3.540000000003046, -0.27385077001577324 
3.550000000003067, -0.2873010223412597 
3.5600000000030882, -0.3008714103802535 
3.5700000000031094, -0.31034630242364303 
3.5800000000031305, -0.31376545261509553 
3.5900000000031516, -0.3129012025836265 
3.6000000000031727, -0.31054524321986443 
3.6100000000031938, -0.30832013457778407 
3.620000000003215, -0.30669747176001183 
3.630000000003236, -0.3056401920138715 
3.640000000003257, -0.30499169438630014 
3.650000000003278, -0.3046117161644629 
3.6600000000032993, -0.3044024207925402 
3.6700000000033204, -0.3043025398172056 
3.6800000000033415, -0.30427699250002893 
3.6900000000033626, -0.3043091165678224 
3.7000000000033837, -0.30439641806994244 
3.710000000003405, -0.3045492320645882 
3.720000000003426, -0.30479130841978674 
3.730000000003447, -0.3051609827382228 
3.740000000003468, -0.3057110814361294 
3.750000000003489, -0.3065051382665662 
3.7600000000035103, -0.30760686293647405 
3.7700000000035314, -0.3090595295852337 
3.7800000000035525, -0.31085485897952386 
3.7900000000035736, -0.31290204446982595 
3.8000000000035947, -0.31502368310990436 
3.810000000003616, -0.31700222504207004 
3.820000000003637, -0.31865883866123285 
3.830000000003658, -0.31990792016750125 
3.840000000003679, -0.3207537661013214 
3.8500000000037002, -0.32125014333435925 
3.8600000000037213, -0.32145983000879735 
3.8700000000037424, -0.32143084460235016 
3.8800000000037635, -0.3211868587074454 
3.8900000000037847, -0.3207244015425666 
3.9000000000038058, -0.3200124049550279 
3.910000000003827, -0.31899441931412265 
3.920000000003848, -0.3175988382658022 
3.930000000003869, -0.31576566621054264 
3.94000000000389, -0.3134923433691438 
3.9500000000039113, -0.31087830260475113 
3.9600000000039324, -0.30812515893647124 
3.9700000000039535, -0.3054715711394326 
3.9800000000039746, -0.30310525467582505 
3.9900000000039957, -0.30111604276196297 
4.000000000004016, -0.2995053330817165 
4.010000000003993, -0.29822222398393416 
4.02000000000397, -0.29719709666270777 
4.030000000003946, -0.2963626131894815 
4.040000000003923, -0.295663759997682 
4.0500000000039, -0.29506103309119897 
4.0600000000038765, -0.2945301351669595 
4.070000000003853, -0.29406064999236337 
4.08000000000383, -0.29365547931475244 
4.090000000003807, -0.29333230700807666 
4.100000000003783, -0.2931280078787341 
4.11000000000376, -0.2931064590691747 
4.120000000003737, -0.29336831313306283 
4.130000000003713, -0.2940538240927358 
4.14000000000369, -0.29530623166454195 
4.150000000003667, -0.2971071568950602 
4.1600000000036434, -0.29883514535598593 
4.17000000000362, -0.29861511785090206 
4.180000000003597, -0.2935454783413515 
4.1900000000035735, -0.28229551984601337 
4.20000000000355, -0.2675185008353598 
4.210000000003527, -0.2535608108693038 
4.220000000003504, -0.24282215727336567 
4.23000000000348, -0.2354223386861769 
4.240000000003457, -0.23056262064582192 
4.250000000003434, -0.22741550464727686 
4.26000000000341, -0.22537704335555694 
4.270000000003387, -0.2240570444781563 
4.280000000003364, -0.22321637220508772 
4.2900000000033405, -0.222713972561009 
4.300000000003317, -0.2224724756487773 
4.310000000003294, -0.22245864187158743 
4.320000000003271, -0.22267427659343203 
4.330000000003247, -0.22315492058787084 
4.340000000003224, -0.22397523079897272 
4.350000000003201, -0.22526094373600572 
4.360000000003177, -0.22720695521590756 
4.370000000003154, -0.23009702720013842 
4.380000000003131, -0.23430712842834117 
4.390000000003107, -0.24024348969002746 
4.400000000003084, -0.24813108714939278 
4.410000000003061, -0.2576301329238012 
4.4200000000030375, -0.26757618331023364 
4.430000000003014, -0.2763961354264229 
4.440000000002991, -0.28305562531068296 
4.450000000002968, -0.2874945842731684 
4.460000000002944, -0.2902373489357476 
4.470000000002921, -0.29187278778962106 
4.480000000002898, -0.29283129116929024 
4.490000000002874, -0.29337717499499993 
4.500000000002851, -0.2936610166593293 
4.510000000002828, -0.29376577739453713 
4.520000000002804, -0.2937360824181362 
4.530000000002781, -0.29359557104174405 
4.540000000002758, -0.29335816432218487 
4.5500000000027345, -0.2930370285183051 
4.560000000002711, -0.29265254108358674 
4.570000000002688, -0.2922379806830839 
4.580000000002665, -0.29184000497061485 
4.590000000002641, -0.2915120779457441 
4.600000000002618, -0.2913026824970463 
4.610000000002595, -0.2912428887194182 
4.620000000002571, -0.2913371820248451 
4.630000000002548, -0.29155971908054 
4.640000000002525, -0.2918580464223604 
4.6500000000025015, -0.29216546735433513 
4.660000000002478, -0.292418493060799 
4.670000000002455, -0.2925708512398064 
4.6800000000024315, -0.2925972635271067 
4.690000000002408, -0.2924874303981569 
4.700000000002385, -0.29223542408258113 
4.710000000002362, -0.2918286821043256 
4.720000000002338, -0.2912372194955417 
4.730000000002315, -0.29040094536254635 
4.740000000002292, -0.28921220553978316 
4.750000000002268, -0.28749326371922446 
4.760000000002245, -0.28497946346574604 
4.770000000002222, -0.2813456055245472 
4.7800000000021985, -0.2763412088510254 
4.790000000002175, -0.27004484930254363 
4.800000000002152, -0.26303634406066057 
4.810000000002129, -0.2561972214140485 
4.820000000002105, -0.25025091677858086 
4.830000000002082, -0.24549620082444315 
4.840000000002059, -0.24187905444887453 
4.850000000002035, -0.239187284456843 
4.860000000002012, -0.23718955850300633 
