t, s[1].omega / s[0].omega 
0, -1.2400011571124143 
0.009999999999999995, -1.2399867498094195 
0.019999999999999934, -1.2397204336681658 
0.029999999999999874, -1.2392191305242433 
0.04000000000000012, -1.2385116785161459 
0.050000000000000405, -1.2376409723239057 
0.06000000000000069, -1.2366669428533266 
0.07000000000000098, -1.2356674872676205 
0.08000000000000126, -1.2347331801132688 
0.09000000000000155, -1.233954013080867 
0.10000000000000184, -1.2333987797533292 
0.11000000000000212, -1.2330898902442993 
0.12000000000000241, -1.232986832745239 
0.130000000000002, -1.2329968995589575 
0.1400000000000009, -1.233008591358577 
0.1499999999999998, -1.2329189919521766 
0.1599999999999987, -1.2326379210141911 
0.1699999999999976, -1.2320765585487194 
0.1799999999999965, -1.2311363414816998 
0.1899999999999954, -1.2297088272651606 
0.1999999999999943, -1.2276898005228298 
0.2099999999999932, -1.2250040027362077 
0.2199999999999921, -1.2216334994304905 
0.229999999999991, -1.2176469437639192 
0.2399999999999899, -1.2132332447130187 
0.2499999999999888, -1.208734101873402 
0.2599999999999877, -1.2046340406744824 
0.2699999999999866, -1.201436250256324 
0.2799999999999855, -1.1994255782887413 
0.2899999999999844, -1.198503258847075 
0.2999999999999833, -1.1982846722032277 
0.3099999999999822, -1.198355121656911 
0.3199999999999811, -1.1984307736639612 
0.32999999999998, -1.1983590866904468 
0.3399999999999789, -1.198048679921488 
0.3499999999999778, -1.197398634574337 
0.35999999999997667, -1.1962373483206619 
0.36999999999997557, -1.194256994362277 
0.37999999999997447, -1.190937522164272 
0.38999999999997337, -1.1854935865754384 
0.39999999999997227, -1.176963592443093 
0.40999999999997117, -1.1646531145358447 
0.41999999999997006, -1.1490168657275226 
0.42999999999996896, -1.1324038110704913 
0.43999999999996786, -1.1184194043529199 
0.44999999999996676, -1.1097015769627743 
0.45999999999996566, -1.106260531942405 
0.46999999999996456, -1.1061740974437477 
0.47999999999996346, -1.1073956479430573 
0.48999999999996235, -1.1087151736317622 
0.49999999999996125, -1.1096839735408135 
0.5099999999999602, -1.1102351006945423 
0.519999999999959, -1.1104170186793914 
0.529999999999958, -1.1102740171336754 
0.5399999999999568, -1.1098016427112534 
0.5499999999999557, -1.1089231087156293 
0.5599999999999546, -1.1074610448093556 
0.5699999999999535, -1.1050994622685146 
0.5799999999999524, -1.1013609053528068 
0.5899999999999513, -1.0956912320362955 
0.5999999999999502, -1.0878398532926365 
0.6099999999999491, -1.0786431616640966 
0.619999999999948, -1.070640732893928 
0.6299999999999469, -1.0671241932927917 
0.6399999999999458, -1.0695321965008995 
0.6499999999999447, -1.0761074330721925 
0.6599999999999436, -1.0836550944029015 
0.6699999999999425, -1.0899472488883177 
0.6799999999999414, -1.0943307227667398 
0.6899999999999403, -1.0970589220759002 
0.6999999999999392, -1.0986110530890938 
0.7099999999999381, -1.099387763832375 
0.719999999999937, -1.0996492743937973 
0.7299999999999359, -1.0995360631377746 
0.7399999999999348, -1.0990989189662974 
0.7499999999999337, -1.098319818141946 
0.7599999999999326, -1.097129996424366 
0.7699999999999315, -1.0954521549458025 
0.7799999999999304, -1.0933256084069998 
0.7899999999999293, -1.0911957562455856 
0.7999999999999282, -1.0903396934535448 
0.8099999999999271, -1.0929784879913595 
0.819999999999926, -1.1012497963643277 
0.8299999999999249, -1.1151907814681858 
0.8399999999999238, -1.1319192266709543 
0.8499999999999227, -1.147505779752347 
0.8599999999999216, -1.1594855552404508 
0.8699999999999205, -1.1674930553532712 
0.8799999999999194, -1.172348074953748 
0.8899999999999183, -1.1750827112912494 
0.8999999999999172, -1.1765022662101785 
0.9099999999999161, -1.1771236695421485 
0.919999999999915, -1.1772452662488326 
0.9299999999999139, -1.1770279015452352 
0.9399999999999128, -1.1765597455220955 
0.9499999999999117, -1.1759156626160658 
0.9599999999999106, -1.1752320592575105 
0.9699999999999095, -1.1748009596338835 
0.9799999999999084, -1.175120941243086 
0.9899999999999073, -1.1767685753211417 
0.9999999999999062, -1.180060383303717 
1.0099999999999052, -1.1847827200902983 
1.019999999999904, -1.190285831307091 
1.029999999999903, -1.1958220386837992 
1.039999999999902, -1.2008097504714357 
1.0499999999999008, -1.2049143955418846 
1.0599999999998997, -1.2080210829769806 
1.0699999999998986, -1.2101750863846195 
1.0799999999998975, -1.211517107708108 
1.0899999999998964, -1.2122227373539864 
1.0999999999998953, -1.2124577381922346 
1.1099999999998942, -1.2123573802329735 
1.119999999999893, -1.2120286156182 
1.129999999999892, -1.211567698801234 
1.1399999999998909, -1.21108248527708 
1.1499999999998898, -1.2107025557675004 
1.1599999999998887, -1.2105583739586374 
1.1699999999998876, -1.2107327593473072 
1.1799999999998865, -1.2112237766010607 
1.1899999999998854, -1.2119531558147638 
1.1999999999998843, -1.2128065072296064 
1.2099999999998832, -1.2136704476086098 
1.219999999999882, -1.2144519002965186 
1.229999999999881, -1.2150832556886897 
1.2399999999998799, -1.2155199713604727 
1.2499999999998788, -1.2157354992045912 
1.2599999999998777, -1.2157167382125942 
1.2699999999998766, -1.2154614227483778 
1.2799999999998755, -1.2149774970863327 
1.2899999999998744, -1.2142839931659801 
1.2999999999998733, -1.2134131118408067 
1.3099999999998722, -1.2124132632322921 
1.319999999999871, -1.2113515408826885 
1.32999999999987, -1.2103122079968291 
1.3399999999998689, -1.2093879888385346 
1.3499999999998678, -1.2086630901830038 
1.3599999999998666, -1.2081887983424284 
1.3699999999998655, -1.2079594694678328 
1.3799999999998644, -1.2079076556146853 
1.3899999999998633, -1.2079281928373198 
1.3999999999998622, -1.20791224866319 
1.4099999999998611, -1.2077648092535105 
1.41999999999986, -1.2074008817899413 
1.429999999999859, -1.2067335108339565 
1.4399999999998578, -1.2056672977461829 
1.4499999999998567, -1.2041044299005397 
1.4599999999998556, -1.2019628613526996 
1.4699999999998545, -1.1992001113425872 
1.4799999999998534, -1.1958356148725522 
1.4899999999998523, -1.1919713011844846 
1.4999999999998512, -1.187814574333687 
1.5099999999998501, -1.1836958072401527 
1.519999999999849, -1.1800423800628608 
1.529999999999848, -1.1772587562958898 
1.5399999999998468, -1.1755364599529468 
1.5499999999998457, -1.174748849867738 
1.5599999999998446, -1.1745534306232686 
1.5699999999998435, -1.1745968317472124 
1.5799999999998424, -1.1746351460135132 
1.5899999999998413, -1.1745300457546106 
1.5999999999998402, -1.1741902204402141 
1.6099999999998391, -1.1735108463801152 
1.619999999999838, -1.1723197332223916 
1.629999999999837, -1.1703221417194165 
1.6399999999998358, -1.1670463866876988 
1.6499999999998347, -1.1618272740794946 
1.6599999999998336, -1.1539209298250737 
1.6699999999998325, -1.1428705909154258 
1.6799999999998314, -1.1291041437977167 
1.6899999999998303, -1.1143666510204011 
1.6999999999998292, -1.1013181435335577 
1.709999999999828, -1.0921691608604016 
1.719999999999827, -1.0874302764218795 
1.729999999999826, -1.0859953696571054 
1.7399999999998248, -1.086262891510374 
1.7499999999998237, -1.087046558644206 
1.7599999999998226, -1.0877596577329878 
1.7699999999998215, -1.0882070064841403 
1.7799999999998204, -1.0883589862399492 
1.7899999999998193, -1.088220249060716 
1.7999999999998182, -1.087767772572461 
1.809999999999817, -1.0869148592349176 
1.819999999999816, -1.0854722532035703 
1.8299999999998149, -1.0830917410856427 
1.8399999999998138, -1.0791971005670862 
1.8499999999998127, -1.072957412986722 
1.8599999999998116, -1.0634617802642692 
1.8699999999998105, -1.0503310868619735 
1.8799999999998094, -1.034699773868117 
1.8899999999998083, -1.0195941653236125 
1.8999999999998072, -1.0085049551294751 
1.909999999999806, -1.0030345094202295 
1.919999999999805, -1.0021856245905836 
1.9299999999998039, -1.00376554358829 
1.9399999999998028, -1.0059651098007256 
1.9499999999998017, -1.007868653384457 
1.9599999999998006, -1.009212415757876 
1.9699999999997995, -1.0100260571833306 
1.9799999999997984, -1.0104126441590124 
1.9899999999997973, -1.0104564483442684 
1.9999999999997962, -1.0101931310787982 
2.0099999999998173, -1.0095977228554829 
2.0199999999998384, -1.0085682837928793 
2.0299999999998595, -1.0068945855684968 
2.0399999999998806, -1.0042088189506586 
2.0499999999999017, -0.9999330561139642 
2.059999999999923, -0.9932860098531908 
2.069999999999944, -0.983494367444567 
2.079999999999965, -0.9703710382537768 
2.089999999999986, -0.9550953151936316 
2.100000000000007, -0.9403520288633842 
2.1100000000000283, -0.9290705387438329 
2.1200000000000494, -0.9226447678193725 
2.1300000000000705, -0.9204375122747628 
2.1400000000000916, -0.9207767415944035 
2.1500000000001127, -0.9221258864070936 
2.160000000000134, -0.9235653421695268 
2.170000000000155, -0.9247119747212533 
2.180000000000176, -0.9254803873895808 
2.190000000000197, -0.9259001099097851 
2.2000000000002182, -0.926019604700128 
2.2100000000002393, -0.9258649578920709 
2.2200000000002604, -0.9254210219381104 
2.2300000000002815, -0.9246152832016618 
2.2400000000003026, -0.9232937564779091 
2.2500000000003237, -0.9211847202088028 
2.260000000000345, -0.9178578676346427 
2.270000000000366, -0.9127147644475853 
2.280000000000387, -0.9050921105335774 
2.290000000000408, -0.8945687015175421 
2.3000000000004293, -0.8814182184632505 
2.3100000000004504, -0.8668587053258004 
2.3200000000004715, -0.8527248468663915 
2.3300000000004926, -0.8407023455514684 
2.3400000000005137, -0.8317076403207053 
2.3500000000005348, -0.8257778248756565 
2.360000000000556, -0.8223565825226963 
2.370000000000577, -0.8206768155101953 
2.380000000000598, -0.8200375526377165 
2.390000000000619, -0.8199243059440733 
2.4000000000006403, -0.8200135817512463 
2.4100000000006614, -0.8201243479166076 
2.4200000000006825, -0.820161643114151 
2.4300000000007036, -0.8200720414881488 
2.4400000000007247, -0.819813970361999 
2.450000000000746, -0.8193398104845606 
2.460000000000767, -0.8185873534551756 
2.470000000000788, -0.8174815984666891 
2.480000000000809, -0.8159502876839377 
2.49000000000083, -0.8139530804162473 
2.5000000000008513, -0.8115125663658471 
2.5100000000008724, -0.8087253067163964 
2.5200000000008935, -0.8057404503733094 
2.5300000000009146, -0.802719097582064 
2.5400000000009357, -0.7998005977783617 
2.550000000000957, -0.7970896366257852 
2.560000000000978, -0.7946594824503352 
2.570000000000999, -0.7925599890372388 
2.58000000000102, -0.7908225998926376 
2.5900000000010412, -0.7894605549374292 
2.6000000000010624, -0.7884664888081339 
2.6100000000010835, -0.7878110117976301 
2.6200000000011046, -0.7874450646680342 
2.6300000000011257, -0.7873065326918746 
2.6400000000011468, -0.7873291414863739 
2.650000000001168, -0.7874506063616249 
2.660000000001189, -0.7876179150728979 
2.67000000000121, -0.7877895306886665 
2.680000000001231, -0.7879356860584568 
2.6900000000012523, -0.7880379415342543 
2.7000000000012734, -0.7880880467529218 
2.7100000000012945, -0.7880851103480764 
2.7200000000013156, -0.7880305890559648 
2.7300000000013367, -0.7879227491905638 
2.740000000001358, -0.7877539159761141 
2.750000000001379, -0.7875126911806326 
2.7600000000014, -0.7871898843255374 
2.770000000001421, -0.7867844343472912 
2.780000000001442, -0.7863065276521214 
2.7900000000014633, -0.7857781466850127 
2.8000000000014844, -0.7852331707541761 
2.8100000000015055, -0.7847185547755499 
2.8200000000015266, -0.7842961767432397 
2.8300000000015477, -0.7840432838532665 
2.840000000001569, -0.7840490786492837 
2.85000000000159, -0.7844063026333484 
2.860000000001611, -0.7851992571919653 
2.870000000001632, -0.7864918779121719 
2.8800000000016532, -0.7883193034707981 
2.8900000000016743, -0.7906835492332333 
2.9000000000016954, -0.7935503605194114 
2.9100000000017165, -0.7968429233508056 
2.9200000000017377, -0.8004311127802495 
2.9300000000017588, -0.8041230800373956 
2.94000000000178, -0.8076754267844931 
2.950000000001801, -0.810836766721874 
2.960000000001822, -0.813415412784652 
2.970000000001843, -0.8153313808030266 
2.9800000000018643, -0.8166171165945892 
2.9900000000018854, -0.8173736369406482 
3.0000000000019065, -0.8177184319814629 
3.0100000000019276, -0.8177518567404272 
3.0200000000019487, -0.8175455022480961 
3.03000000000197, -0.8171448394941907 
3.040000000001991, -0.8165798514054974 
3.050000000002012, -0.8158831898151737 
3.060000000002033, -0.8151210653045636 
3.070000000002054, -0.8144457262021529 
3.0800000000020753, -0.8141759663182088 
3.0900000000020964, -0.8148942269450545 
3.1000000000021175, -0.8175044478727239 
3.1100000000021386, -0.8231308909235248 
3.1200000000021597, -0.8327177043198739 
3.130000000002181, -0.846346070027465 
3.140000000002202, -0.8626847593028997 
3.150000000002223, -0.8792565052814423 
3.160000000002244, -0.893620808199952 
3.1700000000022652, -0.9044983581448678 
3.1800000000022863, -0.9119162486229261 
3.1900000000023074, -0.9166097614613984 
3.2000000000023285, -0.9194208413291847 
3.2100000000023496, -0.9210151297208797 
3.2200000000023707, -0.9218368461646989 
3.230000000002392, -0.9221535436307373 
3.240000000002413, -0.9221100389136897 
3.250000000002434, -0.9217663165187954 
3.260000000002455, -0.9211172724301772 
3.2700000000024763, -0.9200984088018211 
3.2800000000024974, -0.9185838499631332 
3.2900000000025185, -0.9163886504763266 
3.3000000000025396, -0.9133008630843106 
3.3100000000025607, -0.9091872308440809 
3.3200000000025818, -0.9042097992249245 
3.330000000002603, -0.8990895361515777 
3.340000000002624, -0.8951427994028702 
3.350000000002645, -0.8937689447766894 
3.360000000002666, -0.8955656148686607 
3.3700000000026873, -0.8998700591143713 
3.3800000000027084, -0.9052264660007647 
3.3900000000027295, -0.9102840913025949 
3.4000000000027506, -0.9143202075910442 
3.4100000000027717, -0.9171980800471362 
3.420000000002793, -0.9190867662470799 
3.430000000002814, -0.920231131978267 
3.440000000002835, -0.9208410888406158 
3.450000000002856, -0.9210600188266538 
3.460000000002877, -0.9209650119761141 
3.4700000000028983, -0.9205717244799111 
3.4800000000029194, -0.9198315580373917 
3.4900000000029405, -0.9186150159298897 
3.5000000000029616, -0.9166771076568452 
3.5100000000029827, -0.9136053318177844 
3.520000000003004, -0.9087696805772042 
3.530000000003025, -0.9013437172056152 
3.540000000003046, -0.8905376541529313 
3.550000000003067, -0.876158092333841 
3.5600000000030882, -0.8592612142578459 
3.5700000000031094, -0.8421764983659645 
3.5800000000031305, -0.827488225580594 
3.5900000000031516, -0.8167570993158979 
3.6000000000031727, -0.810087609264874 
3.6100000000031938, -0.8066088607921807 
3.620000000003215, -0.805185365446345 
3.630000000003236, -0.8048681839622587 
3.640000000003257, -0.805029493789865 
3.650000000003278, -0.8053175425863687 
3.6600000000032993, -0.8055604850691473 
3.6700000000033204, -0.805682664069978 
3.6800000000033415, -0.8056487900493241 
3.6900000000033626, -0.8054309013448295 
3.7000000000033837, -0.8049892485373921 
3.710000000003405, -0.8042613225270626 
3.720000000003426, -0.8031585070137368 
3.730000000003447, -0.8015753395868902 
3.740000000003468, -0.7994183231662475 
3.750000000003489, -0.7966523827634945 
3.7600000000035103, -0.7933425051588883 
3.7700000000035314, -0.7896569748039979 
3.7800000000035525, -0.7858224774539193 
3.7900000000035736, -0.7820612528561423 
3.8000000000035947, -0.7785486773692067 
3.810000000003616, -0.7754028864823419 
3.820000000003637, -0.7726937299022094 
3.830000000003658, -0.7704549943106304 
3.840000000003679, -0.7686920210449641 
3.8500000000037002, -0.7673846914660455 
3.8600000000037213, -0.7664893255675806 
3.8700000000037424, -0.7659428839772766 
3.8800000000037635, -0.765670541543656 
3.8900000000037847, -0.7655950568632665 
3.9000000000038058, -0.7656451049714944 
3.910000000003827, -0.7657604726578753 
3.920000000003848, -0.7658938719990798 
3.930000000003869, -0.7660106608681074 
3.94000000000389, -0.7660880534295565 
3.9500000000039113, -0.7661144284678235 
3.9600000000039324, -0.7660878669299624 
3.9700000000039535, -0.7660124791484745 
3.9800000000039746, -0.7658925165507184 
3.9900000000039957, -0.7657268341453879 
4.000000000004016, -0.7655072631077997 
4.010000000003993, -0.7652222488965357 
4.02000000000397, -0.7648634429311127 
4.030000000003946, -0.764431306097854 
4.040000000003923, -0.7639376048834448 
4.0500000000039, -0.7634057303549016 
4.0600000000038765, -0.7628710680597655 
4.070000000003853, -0.762382652804608 
4.08000000000383, -0.7620054642235441 
4.090000000003807, -0.7618213062119812 
4.100000000003783, -0.7619259653891907 
4.11000000000376, -0.7624215392269729 
4.120000000003737, -0.7634050474380363 
4.130000000003713, -0.7649562533448625 
4.14000000000369, -0.7671273553754152 
4.150000000003667, -0.7699345711251251 
4.1600000000036434, -0.7733484392882312 
4.17000000000362, -0.7772790602537076 
4.180000000003597, -0.7815577289000378 
4.1900000000035735, -0.785928363932858 
4.20000000000355, -0.7900728819276165 
4.210000000003527, -0.7936838977054297 
4.220000000003504, -0.7965565256702758 
4.23000000000348, -0.7986385484746366 
4.240000000003457, -0.8000071214315643 
4.250000000003434, -0.8008017352311038 
4.26000000000341, -0.8011632722818909 
4.270000000003387, -0.8012021854818467 
4.280000000003364, -0.8009911053972958 
4.2900000000033405, -0.8005697959396846 
4.300000000003317, -0.7999551633387945 
4.310000000003294, -0.799155916332593 
4.320000000003271, -0.7981975306682958 
4.330000000003247, -0.7971684064295189 
4.340000000003224, -0.7962999727987159 
4.350000000003201, -0.7960816715889384 
4.360000000003177, -0.7973662566432461 
4.370000000003154, -0.8013305420958101 
4.380000000003131, -0.8090864558524464 
4.390000000003107, -0.8209009297193944 
4.400000000003084, -0.8355318428917073 
4.410000000003061, -0.8505403273924161 
4.4200000000030375, -0.8635911448880167 
4.430000000003014, -0.8735265255804269 
4.440000000002991, -0.880387281520721 
4.450000000002968, -0.8848165147252844 
4.460000000002944, -0.8875400505151948 
4.470000000002921, -0.8891364614358123 
4.480000000002898, -0.8899996449928513 
4.490000000002874, -0.8903725703674195 
4.500000000002851, -0.8903892962851243 
4.510000000002828, -0.890104358986112 
4.520000000002804, -0.8895056602953568 
4.530000000002781, -0.8885108359143041 
4.540000000002758, -0.8869464122112166 
4.5500000000027345, -0.8845091137426573 
4.560000000002711, -0.8807159213241335 
4.570000000002688, -0.8748759648536018 
4.580000000002665, -0.8661754526575853 
4.590000000002641, -0.8540239174496891 
4.600000000002618, -0.8386977755525338 
4.610000000002595, -0.8218507823617747 
4.620000000002571, -0.8061068067408771 
4.630000000002548, -0.7937245096105238 
4.640000000002525, -0.7855367404520441 
4.6500000000025015, -0.7810179087823037 
4.660000000002478, -0.779033884400903 
4.670000000002455, -0.7784939196496081 
4.6800000000024315, -0.7786243079950017 
4.690000000002408, -0.778972337607894 
4.700000000002385, -0.7793106263660126 
4.710000000002362, -0.7795397674220758 
4.720000000002338, -0.7796199334194684 
4.730000000002315, -0.7795300209195821 
4.740000000002292, -0.779244649800083 
4.750000000002268, -0.7787210004304794 
4.760000000002245, -0.7778920506598666 
4.770000000002222, -0.7766680703077188 
4.7800000000021985, -0.774952586738506 
4.790000000002175, -0.7726775190702524 
4.800000000002152, -0.7698485252013251 
4.810000000002129, -0.7665721944477635 
4.820000000002105, -0.7630381406205085 
4.830000000002082, -0.7594633027148007 
4.840000000002059, -0.7560363368246708 
4.850000000002035, -0.7528910900094777 
4.860000000002012, -0.7501085303670051 
4.870000000001989, -0.7477307938530464 
4.880000000001965, -0.7457739790926604 
4.890000000001942, -0.7442350025835534 
4.900000000001919, -0.7430937695945062 
4.9100000000018955, -0.7423139781238236 
4.920000000001872, -0.7418453723695974 
