t, s[1].omega / s[0].omega 
0, -1.1999979724042815 
0.009999999999999995, -1.199645795822181 
0.019999999999999934, -1.199003305079254 
0.029999999999999874, -1.1981009708689139 
0.04000000000000012, -1.197019141509218 
0.050000000000000405, -1.195895976565947 
0.06000000000000069, -1.1949180452288188 
0.07000000000000098, -1.194287589357331 
0.08000000000000126, -1.1940668293504058 
0.09000000000000155, -1.1940509974739284 
0.10000000000000184, -1.1939311410852693 
0.11000000000000212, -1.1934350391377855 
0.12000000000000241, -1.1922782311077746 
0.130000000000002, -1.1901524433042923 
0.1400000000000009, -1.1868517326593697 
0.1499999999999998, -1.1823684094658347 
0.1599999999999987, -1.1768701079164845 
0.1699999999999976, -1.1708194763294324 
0.1799999999999965, -1.1653437168503964 
0.1899999999999954, -1.1619513364916563 
0.1999999999999943, -1.1608844256147328 
0.2099999999999932, -1.1608982820749725 
0.2199999999999921, -1.1609518552553915 
0.229999999999991, -1.160610884506767 
0.2399999999999899, -1.159466470349769 
0.2499999999999888, -1.1564692540018995 
0.2599999999999877, -1.1489782575991805 
0.2699999999999866, -1.1320309335621064 
0.2799999999999855, -1.1009712076715097 
0.2899999999999844, -1.0590376574308171 
0.2999999999999833, -1.0204143336306042 
0.3099999999999822, -0.9981995571964093 
0.3199999999999811, -0.9912055024940736 
0.32999999999998, -0.9907135699896225 
0.3399999999999789, -0.9914124012211644 
0.3499999999999778, -0.9918351971202011 
0.35999999999997667, -0.9917805349034243 
0.36999999999997557, -0.991116368566921 
0.37999999999997447, -0.9893126517751888 
0.38999999999997337, -0.9848509898472994 
0.39999999999997227, -0.97433986871344 
0.40999999999997117, -0.9531584103407853 
0.41999999999997006, -0.9209217066273533 
0.42999999999996896, -0.8856101892828402 
0.43999999999996786, -0.8570272219742754 
0.44999999999996676, -0.8394298790925699 
0.45999999999996566, -0.8312697872897807 
0.46999999999996456, -0.8286017839981051 
0.47999999999996346, -0.8281647629791927 
0.48999999999996235, -0.8282895833063736 
0.49999999999996125, -0.8283600028824407 
0.5099999999999602, -0.8281595274210016 
0.519999999999959, -0.827521999303969 
0.529999999999958, -0.8262090715481899 
0.5399999999999568, -0.8239851139974419 
0.5499999999999557, -0.8208790916329075 
0.5599999999999546, -0.8173017334467552 
0.5699999999999535, -0.8137512271562926 
0.5799999999999524, -0.8105264015237772 
0.5899999999999513, -0.8077461815512225 
0.5999999999999502, -0.805473189994789 
0.6099999999999491, -0.8037678150071064 
0.619999999999948, -0.8026629050229793 
0.6299999999999469, -0.8021112531076228 
0.6399999999999458, -0.8019708497111816 
0.6499999999999447, -0.8020539857473458 
0.6599999999999436, -0.8021947169064045 
0.6699999999999425, -0.802284467053209 
0.6799999999999414, -0.8022797023146182 
0.6899999999999403, -0.8021956859851914 
0.6999999999999392, -0.8020723632968284 
0.7099999999999381, -0.801921068371292 
0.719999999999937, -0.8017065715014146 
0.7299999999999359, -0.8013873510862379 
0.7399999999999348, -0.8009669043095816 
0.7499999999999337, -0.8005137805245167 
0.7599999999999326, -0.8001629044177058 
0.7699999999999315, -0.800105711244026 
0.7799999999999304, -0.8005442346487804 
0.7899999999999293, -0.801616250464095 
0.7999999999999282, -0.8033558216762023 
0.8099999999999271, -0.8057240171363312 
0.819999999999926, -0.8086620849722146 
0.8299999999999249, -0.8120906275225953 
0.8399999999999238, -0.8158080373896921 
0.8499999999999227, -0.8193589734055658 
0.8599999999999216, -0.8221487036352164 
0.8699999999999205, -0.8238672598804293 
0.8799999999999194, -0.8246528234585135 
0.8899999999999183, -0.8248088371715077 
0.8999999999999172, -0.824564049064565 
0.9099999999999161, -0.8240702004063181 
0.919999999999915, -0.8235911791730837 
0.9299999999999139, -0.8239904449491052 
0.9399999999999128, -0.8276596394728605 
0.9499999999999117, -0.8392566470804546 
0.9599999999999106, -0.864132721080892 
0.9699999999999095, -0.9030241838769123 
0.9799999999999084, -0.9468364906605904 
0.9899999999999073, -0.9811675738285133 
0.9999999999999062, -1.0000833079192875 
1.0099999999999052, -1.0081660919571707 
1.019999999999904, -1.0111720543954792 
1.029999999999903, -1.0121214385734871 
1.039999999999902, -1.0121695390450447 
1.0499999999999008, -1.0116680312174198 
1.0599999999998997, -1.010706315085177 
1.0699999999998986, -1.009764248474487 
1.0799999999998975, -1.0115473715855425 
1.0899999999998964, -1.023266531257523 
1.0999999999998953, -1.0515767658712305 
1.1099999999998942, -1.0906751007746818 
1.119999999999893, -1.125896957164586 
1.129999999999892, -1.1485004702540202 
1.1399999999998909, -1.1595757876260235 
1.1499999999998898, -1.1640494349814778 
1.1599999999998887, -1.1655835536483299 
1.1699999999998876, -1.1658890945185585 
1.1799999999998865, -1.1656230383790354 
1.1899999999998854, -1.1651352718509795 
1.1999999999998843, -1.1650774141748834 
1.2099999999998832, -1.1666407828935512 
1.219999999999882, -1.1703962974579825 
1.229999999999881, -1.1753584960126509 
1.2399999999998799, -1.1802471159265064 
1.2499999999998788, -1.1844079380992705 
1.2599999999998777, -1.187597266716743 
1.2699999999998766, -1.189727964848287 
1.2799999999998755, -1.1908655044556744 
1.2899999999998744, -1.1912326609192627 
1.2999999999998733, -1.1911009455342307 
1.3099999999998722, -1.1907243623333268 
1.319999999999871, -1.1903824763802233 
1.32999999999987, -1.1903487319428505 
1.3399999999998689, -1.1907019537719117 
1.3499999999998678, -1.191303976611693 
1.3599999999998666, -1.1919656504391334 
1.3699999999998655, -1.1925246230939757 
1.3799999999998644, -1.1928659574349854 
1.3899999999998633, -1.1929322012039263 
1.3999999999998622, -1.192707428664606 
1.4099999999998611, -1.1921925138260425 
1.41999999999986, -1.1914005245734642 
1.429999999999859, -1.1903781777686613 
1.4399999999998578, -1.1892279168002349 
1.4499999999998567, -1.1881089802762754 
1.4599999999998556, -1.1872263317318974 
1.4699999999998545, -1.186754708209989 
1.4799999999998534, -1.1866469364674423 
1.4899999999998523, -1.1866255608422485 
1.4999999999998512, -1.1863931042307378 
1.5099999999998501, -1.185684554807416 
1.519999999999849, -1.1842047386796284 
1.529999999999848, -1.1816765243752363 
1.5399999999998468, -1.1779816392064468 
1.5499999999998457, -1.173195543788783 
1.5599999999998446, -1.1675664340755136 
1.5699999999998435, -1.1617275604314132 
1.5799999999998424, -1.1569783310199888 
1.5899999999998413, -1.1545179384974027 
1.5999999999998402, -1.1539717458890861 
1.6099999999998391, -1.1540622913533258 
1.619999999999838, -1.1540129637273053 
1.629999999999837, -1.1534706061117486 
1.6399999999998358, -1.1519076325872315 
1.6499999999998347, -1.147949835591001 
1.6599999999998336, -1.1385156810548251 
1.6699999999998325, -1.1189915863407742 
1.6799999999998314, -1.0872004723345996 
1.6899999999998303, -1.049233429960949 
1.6999999999998292, -1.0182272096756502 
1.709999999999828, -1.0025742920564036 
1.719999999999827, -0.9985081885477282 
1.729999999999826, -0.9986167953755953 
1.7399999999998248, -0.9992333364461367 
1.7499999999998237, -0.9994867864058982 
1.7599999999998226, -0.9992463481003682 
1.7699999999998215, -0.9982809478776686 
1.7799999999998204, -0.9958025591141596 
1.7899999999998193, -0.9897391750047991 
1.7999999999998182, -0.9760282760830459 
1.809999999999817, -0.9507374584092644 
1.819999999999816, -0.9163937972066937 
1.8299999999998149, -0.8826209813742503 
1.8399999999998138, -0.8578104766089022 
1.8499999999998127, -0.8440344685198712 
1.8599999999998116, -0.8384288389268525 
1.8699999999998105, -0.8369513010916985 
1.8799999999998094, -0.8368850194386201 
1.8899999999998083, -0.8370409665437841 
1.8999999999998072, -0.8370219628107731 
1.909999999999806, -0.8366582346700215 
1.919999999999805, -0.8357492968163024 
1.9299999999998039, -0.8340074558820815 
1.9399999999998028, -0.8312256801211222 
1.9499999999998017, -0.827579902441052 
1.9599999999998006, -0.8236053188020704 
1.9699999999997995, -0.8197990820230731 
1.9799999999997984, -0.8164168326242741 
1.9899999999997973, -0.8135653014110491 
1.9999999999997962, -0.8113180946200329 
2.0099999999998173, -0.8097348022307821 
2.0199999999998384, -0.8088098427482033 
2.0299999999998595, -0.8084271001997027 
2.0399999999998806, -0.8083859958192554 
2.0499999999999017, -0.8084806013244287 
2.059999999999923, -0.8085576817894656 
2.069999999999944, -0.8085312308571447 
2.079999999999965, -0.8083824735577672 
2.089999999999986, -0.8081478955457508 
2.100000000000007, -0.8078740149750491 
2.1100000000000283, -0.8075674908231945 
2.1200000000000494, -0.8071969858629114 
2.1300000000000705, -0.8067419038687554 
2.1400000000000916, -0.8062336225098925 
2.1500000000001127, -0.805766739853641 
2.160000000000134, -0.8054915648299052 
2.170000000000155, -0.8055810747377603 
2.180000000000176, -0.8061687887006298 
2.190000000000197, -0.8073005588087001 
2.2000000000002182, -0.808944021103384 
2.2100000000002393, -0.8110376515497111 
2.2200000000002604, -0.8135242743760424 
2.2300000000002815, -0.8163209898389074 
2.2400000000003026, -0.8192161622776266 
2.2500000000003237, -0.8218058351645079 
2.260000000000345, -0.8236767060987034 
2.270000000000366, -0.824708199611847 
2.280000000000387, -0.8250670577871067 
2.290000000000408, -0.8249767541002269 
2.3000000000004293, -0.8246071975029035 
2.3100000000004504, -0.8241568058144766 
2.3200000000004715, -0.8241347414365454 
2.3300000000004926, -0.825890622533305 
2.3400000000005137, -0.8320862970664168 
2.3500000000005348, -0.8461100818864001 
2.360000000000556, -0.8698351561218565 
2.370000000000577, -0.9008697606021191 
2.380000000000598, -0.9316444393358773 
2.390000000000619, -0.953846216997711 
2.4000000000006403, -0.9656225777318992 
2.4100000000006614, -0.970643977192807 
2.4200000000006825, -0.9725014904785546 
2.4300000000007036, -0.9730001573197202 
2.4400000000007247, -0.9728184956973333 
2.450000000000746, -0.9721366466438356 
2.460000000000767, -0.9710364723286286 
2.470000000000788, -0.9703359642038498 
2.480000000000809, -0.9740076640221058 
2.49000000000083, -0.9916468469099399 
2.5000000000008513, -1.030976321980142 
2.5100000000008724, -1.0821184805102073 
2.5200000000008935, -1.1242324045975174 
2.5300000000009146, -1.1481346024327563 
2.5400000000009357, -1.1585174188671716 
2.550000000000957, -1.162355291624794 
2.560000000000978, -1.163568161361581 
2.570000000000999, -1.163715136701758 
2.58000000000102, -1.1633455940598063 
2.5900000000010412, -1.1628064838155823 
2.6000000000010624, -1.162942322413742 
2.6100000000010835, -1.1652931549141 
2.6200000000011046, -1.1704120874178778 
2.6300000000011257, -1.176844862063176 
2.6400000000011468, -1.1829634595432637 
2.650000000001168, -1.1879946973968394 
2.660000000001189, -1.191670230501981 
2.67000000000121, -1.1939628494474985 
2.680000000001231, -1.19508340571651 
2.6900000000012523, -1.1953890949536616 
2.7000000000012734, -1.1952132729565206 
2.7100000000012945, -1.194837744008039 
2.7200000000013156, -1.194577918938431 
2.7300000000013367, -1.1947188840638687 
2.740000000001358, -1.1952857868175715 
2.750000000001379, -1.1960761656664103 
2.7600000000014, -1.1968744672459495 
2.770000000001421, -1.1975243400235513 
2.780000000001442, -1.1979311489664517 
2.7900000000014633, -1.1980541561502824 
2.8000000000014844, -1.197881984383775 
2.8100000000015055, -1.1974143707289637 
2.8200000000015266, -1.196671538439644 
2.8300000000015477, -1.1957192651087667 
2.840000000001569, -1.194680751144506 
2.85000000000159, -1.19372186874935 
2.860000000001611, -1.1930277705027714 
2.870000000001632, -1.1927164009447782 
2.8800000000016532, -1.1926815074954962 
2.8900000000016743, -1.192644441700828 
2.9000000000016954, -1.192333231730666 
2.9100000000017165, -1.191496311825623 
2.9200000000017377, -1.1898697352030194 
2.9300000000017588, -1.1872560099177971 
2.94000000000178, -1.183618088440381 
2.950000000001801, -1.1790591162513866 
2.960000000001822, -1.1738460952687566 
2.970000000001843, -1.1686836542538124 
2.9800000000018643, -1.1648515231372931 
2.9900000000018854, -1.1631671911048935 
3.0000000000019065, -1.162929709809023 
3.0100000000019276, -1.1630114306964445 
3.0200000000019487, -1.1628310338345886 
3.03000000000197, -1.162035351796 
3.040000000001991, -1.1599018708557367 
3.050000000002012, -1.1546043772201695 
3.060000000002033, -1.1424872724270587 
3.070000000002054, -1.1192390813343756 
3.0800000000020753, -1.0849228792519565 
3.0900000000020964, -1.0484651035148347 
3.1000000000021175, -1.022933455365586 
3.1100000000021386, -1.0125674542686975 
3.1200000000021597, -1.0108707093857217 
3.130000000002181, -1.011441783684736 
3.140000000002202, -1.0119650971029115 
3.150000000002223, -1.0120344542084092 
3.160000000002244, -1.0115417610158606 
3.1700000000022652, -1.0100785704053892 
3.1800000000022863, -1.00636977620448 
3.1900000000023074, -0.9972300767317194 
3.2000000000023285, -0.9771293605053087 
3.2100000000023496, -0.9428446441121582 
3.2200000000023707, -0.901356482866914 
3.230000000002392, -0.8657243005490155 
3.240000000002413, -0.8432785178126389 
3.250000000002434, -0.8328414362979869 
3.260000000002455, -0.8294375307561228 
3.2700000000024763, -0.8288698382357231 
3.2800000000024974, -0.8290238358531017 
3.2900000000025185, -0.8291474932481059 
3.3000000000025396, -0.829004367340224 
3.3100000000025607, -0.8284365525017522 
3.3200000000025818, -0.8271992313304083 
3.330000000002603, -0.8249902730880595 
3.340000000002624, -0.8217187248962792 
3.350000000002645, -0.8177537499436182 
3.360000000002666, -0.8136941323767377 
3.3700000000026873, -0.8099616417360639 
3.3800000000027084, -0.8067357413772456 
3.3900000000027295, -0.8040925785937383 
3.4000000000027506, -0.8020921992390466 
3.4100000000027717, -0.8007670979763151 
3.420000000002793, -0.8000670218574211 
3.430000000002814, -0.7998379616640091 
3.440000000002835, -0.7998725724976852 
3.450000000002856, -0.7999848906720678 
3.460000000002877, -0.8000494044463388 
3.4700000000028983, -0.8000075111128848 
3.4800000000029194, -0.7998648400860758 
3.4900000000029405, -0.7996665348939159 
3.5000000000029616, -0.7994433871087964 
3.5100000000029827, -0.7991778191348364 
3.520000000003004, -0.7988298241963847 
3.530000000003025, -0.798390486080904 
3.540000000003046, -0.7979115838785252 
3.550000000003067, -0.7975097126220514 
3.5600000000030882, -0.7973571211144532 
3.5700000000031094, -0.7976427406103931 
3.5800000000031305, -0.7985042738529446 
3.5900000000031516, -0.7999847444206909 
3.6000000000031727, -0.8020529729894977 
3.6100000000031938, -0.8046553300347676 
3.620000000003215, -0.807731739154223 
3.630000000003236, -0.8111440285815558 
3.640000000003257, -0.8145413316429451 
3.650000000003278, -0.8173752285290222 
3.6600000000032993, -0.8192466314552067 
3.6700000000033204, -0.8201794377174523 
3.6800000000033415, -0.8204403713765728 
3.6900000000033626, -0.8202697116990721 
3.7000000000033837, -0.8198254662871659 
3.710000000003405, -0.8193215478382387 
3.720000000003426, -0.8194160029217971 
3.730000000003447, -0.8220033014119269 
3.740000000003468, -0.8310555758831779 
3.750000000003489, -0.8518334058412587 
3.7600000000035103, -0.8867137795872542 
3.7700000000035314, -0.9295834796304036 
3.7800000000035525, -0.9667505764939511 
3.7900000000035736, -0.9892052909629108 
3.8000000000035947, -0.999388555168321 
3.810000000003616, -1.0033060131939588 
3.820000000003637, -1.0046301864337464 
3.830000000003658, -1.0048622803300717 
3.840000000003679, -1.0044939676852698 
3.8500000000037002, -1.003632453621769 
3.8600000000037213, -1.0025112404173344 
3.8700000000037424, -1.0028957774366851 
3.8800000000037635, -1.0109203875525308 
3.8900000000037847, -1.0355934327940433 
3.9000000000038058, -1.0760195597150441 
3.910000000003827, -1.117097920652039 
3.920000000003848, -1.1456342898551144 
3.930000000003869, -1.1603142902020571 
3.94000000000389, -1.1664095028576833 
3.9500000000039113, -1.1685841943977477 
3.9600000000039324, -1.1691535802830875 
3.9700000000039535, -1.169012417099848 
3.9800000000039746, -1.1685369462982813 
3.9900000000039957, -1.1682373784267222 
4.000000000004016, -1.1692371863664983 
4.010000000003993, -1.1725249831718656 
4.02000000000397, -1.1774846471380294 
4.030000000003946, -1.182681035220551 
4.040000000003923, -1.1872320200392283 
4.0500000000039, -1.190805476260467 
4.0600000000038765, -1.1932836452837445 
4.070000000003853, -1.1946988450333158 
4.08000000000383, -1.1952551944050243 
4.090000000003807, -1.195234143379273 
4.100000000003783, -1.1948983801697364 
4.11000000000376, -1.1945191620840183 
4.120000000003737, -1.19438915996879 
4.130000000003713, -1.1946527925193124 
4.14000000000369, -1.195210881599521 
4.150000000003667, -1.1958730218936877 
4.1600000000036434, -1.1964673599682443 
4.17000000000362, -1.19686490745939 
4.180000000003597, -1.196993933558653 
4.1900000000035735, -1.1968303950312587 
4.20000000000355, -1.1963727386556353 
4.210000000003527, -1.1956300731705884 
4.220000000003504, -1.1946383183837124 
4.23000000000348, -1.193485198367827 
4.240000000003457, -1.1923179176559666 
4.250000000003434, -1.1913378038393168 
4.26000000000341, -1.190749570522123 
4.270000000003387, -1.1905716880449608 
4.280000000003364, -1.1905547044194875 
4.2900000000033405, -1.1903856410145666 
4.300000000003317, -1.1897915524066467 
4.310000000003294, -1.1884709140030265 
4.320000000003271, -1.1861027117274225 
4.330000000003247, -1.1824934497818353 
4.340000000003224, -1.1776647914941394 
4.350000000003201, -1.1718306879066271 
4.360000000003177, -1.1655634415218092 
4.370000000003154, -1.1601538706451082 
4.380000000003131, -1.1570689551201987 
4.390000000003107, -1.1562384018731473 
4.400000000003084, -1.1563082806522684 
4.410000000003061, -1.1563303154528612 
4.4200000000030375, -1.1559152413981204 
4.430000000003014, -1.1546146466460205 
4.440000000002991, -1.151242615813975 
4.450000000002968, -1.1428977858503695 
4.460000000002944, -1.1244630852376754 
4.470000000002921, -1.091938596771505 
4.480000000002898, -1.0500246768934294 
4.490000000002874, -1.0133514247435522 
4.500000000002851, -0.9933869096859674 
4.510000000002828, -0.9875107769787755 
4.520000000002804, -0.9872622042408662 
4.530000000002781, -0.9879375209289696 
4.540000000002758, -0.9883052547959698 
4.5500000000027345, -0.9881962247049745 
4.560000000002711, -0.9874537599004073 
4.570000000002688, -0.9854889610068314 
4.580000000002665, -0.9806799506088424 
4.590000000002641, -0.9696048739144404 
4.600000000002618, -0.9481657251759018 
4.610000000002595, -0.9170234852554977 
4.620000000002571, -0.8841320889349156 
4.630000000002548, -0.8580592335272672 
4.640000000002525, -0.8421952613066658 
4.6500000000025015, -0.8349231359674272 
4.660000000002478, -0.8325964746108707 
4.670000000002455, -0.8322484387154749 
4.6800000000024315, -0.8323746309357738 
4.690000000002408, -0.8324207179178061 
4.700000000002385, -0.832182310106896 
4.710000000002362, -0.8314863875147883 
4.720000000002338, -0.8300873307036469 
4.730000000002315, -0.8277645955385506 
4.740000000002292, -0.8245893101991665 
4.750000000002268, -0.8209969164286441 
4.760000000002245, -0.8174683946934636 
4.770000000002222, -0.8142777049886902 
4.7800000000021985, -0.8115355726637913 
4.790000000002175, -0.8093082954431697 
4.800000000002152, -0.8076598816726207 
4.810000000002129, -0.8066184755878631 
4.820000000002105, -0.8061233806109923 
4.830000000002082, -0.8060189082719897 
4.840000000002059, -0.8061123028131821 
4.850000000002035, -0.8062408729142981 
4.860000000002012, -0.8063025064130898 
4.870000000001989, -0.8062608315706914 
4.880000000001965, -0.8061371637229936 
4.890000000001942, -0.8059729685414605 
4.900000000001919, -0.805777277543466 
4.9100000000018955, -0.8055152343052014 
4.920000000001872, -0.8051519180864413 
4.930000000001849, -0.8047003998497118 
