t, s[1].omega / s[0].omega 
0, -0.7799865735170936 
0.009999999999999995, -0.7786209238710501 
0.019999999999999934, -0.7772414694988379 
0.029999999999999874, -0.7758854613173892 
0.04000000000000012, -0.7745797973857608 
0.050000000000000405, -0.7733473289240526 
0.06000000000000069, -0.7722123733914039 
0.07000000000000098, -0.7712032266267335 
0.08000000000000126, -0.7703513666361181 
0.09000000000000155, -0.7696879944187452 
0.10000000000000184, -0.7692390743491203 
0.11000000000000212, -0.7690204479736256 
0.12000000000000241, -0.7690346873252508 
0.130000000000002, -0.7692708249727183 
0.1400000000000009, -0.7697070373880696 
0.1499999999999998, -0.7703152543002603 
0.1599999999999987, -0.7710660243267713 
0.1699999999999976, -0.7719319305621571 
0.1799999999999965, -0.7728882017215217 
0.1899999999999954, -0.7739097646539144 
0.1999999999999943, -0.7749651777509072 
0.2099999999999932, -0.7760101065976582 
0.2199999999999921, -0.7769854234879752 
0.229999999999991, -0.7778247018140515 
0.2399999999999899, -0.7784702353235395 
0.2499999999999888, -0.7788888984964688 
0.2599999999999877, -0.7790778632885942 
0.2699999999999866, -0.7790582831506121 
0.2799999999999855, -0.7788638296307149 
0.2899999999999844, -0.7785322920813529 
0.2999999999999833, -0.7781044382736665 
0.3099999999999822, -0.7776308295950415 
0.3199999999999811, -0.7771861484374111 
0.32999999999998, -0.7768900838415785 
0.3399999999999789, -0.7769316692964487 
0.3499999999999778, -0.7775892175254195 
0.35999999999997667, -0.7792321174640875 
0.36999999999997557, -0.7822877261337058 
0.37999999999997447, -0.7871603330806664 
0.38999999999997337, -0.7941005704368588 
0.39999999999997227, -0.8030438917349544 
0.40999999999997117, -0.8134739384485355 
0.41999999999997006, -0.8244179915439644 
0.42999999999996896, -0.8346810900559507 
0.43999999999996786, -0.8432694898656934 
0.44999999999996676, -0.849730648291335 
0.45999999999996566, -0.8541674117646243 
0.46999999999996456, -0.8569929758673617 
0.47999999999996346, -0.8586705275857673 
0.48999999999996235, -0.8595747422232455 
0.49999999999996125, -0.8599610610396973 
0.5099999999999602, -0.8599832204357902 
0.519999999999959, -0.859719268434713 
0.529999999999958, -0.8591912012360474 
0.5399999999999568, -0.8583765952082866 
0.5499999999999557, -0.8572165000646222 
0.5599999999999546, -0.8556287810708605 
0.5699999999999535, -0.8535436053280157 
0.5799999999999524, -0.8509854065934646 
0.5899999999999513, -0.8482161788524252 
0.5999999999999502, -0.8458909238931644 
0.6099999999999491, -0.8450468908557507 
0.619999999999948, -0.8467060038116478 
0.6299999999999469, -0.8511957482376171 
0.6399999999999458, -0.8577891613536803 
0.6499999999999447, -0.8650901371323098 
0.6599999999999436, -0.871792550590332 
0.6699999999999425, -0.8771664558495897 
0.6799999999999414, -0.8810696121839202 
0.6899999999999403, -0.883703426943323 
0.6999999999999392, -0.8853733598656047 
0.7099999999999381, -0.8863555257682896 
0.719999999999937, -0.8868519974471829 
0.7299999999999359, -0.8869892888614024 
0.7399999999999348, -0.8868282649690838 
0.7499999999999337, -0.8863701584302864 
0.7599999999999326, -0.8855520143763858 
0.7699999999999315, -0.8842276256897975 
0.7799999999999304, -0.8821313695093677 
0.7899999999999293, -0.8788290255897533 
0.7999999999999282, -0.8736835590732458 
0.8099999999999271, -0.8659164387292494 
0.819999999999926, -0.8548947652753393 
0.8299999999999249, -0.8406761269645511 
0.8399999999999238, -0.8244691538544189 
0.8499999999999227, -0.8084099719106627 
0.8599999999999216, -0.7946059748125126 
0.8699999999999205, -0.7842381143509535 
0.8799999999999194, -0.7773762353142367 
0.8899999999999183, -0.7733691877830926 
0.8999999999999172, -0.7713385933231797 
0.9099999999999161, -0.7705006421105828 
0.919999999999915, -0.7702871640989414 
0.9299999999999139, -0.7703403607866144 
0.9399999999999128, -0.7704575294759136 
0.9499999999999117, -0.7705315305492045 
0.9599999999999106, -0.7705047876520659 
0.9699999999999095, -0.7703388790893372 
0.9799999999999084, -0.7699963436748719 
0.9899999999999073, -0.7694316881259037 
0.9999999999999062, -0.768591227637951 
1.0099999999999052, -0.7674234589553949 
1.019999999999904, -0.7658997181671754 
1.029999999999903, -0.7640369918167057 
1.039999999999902, -0.7619070171422074 
1.0499999999999008, -0.7596210947162712 
1.0599999999998997, -0.7572987812453221 
1.0699999999998986, -0.7550406845183055 
1.0799999999998975, -0.7529180742362521 
1.0899999999998964, -0.7509770791818912 
1.0999999999998953, -0.7492482640831397 
1.1099999999998942, -0.7477543391981671 
1.119999999999893, -0.7465133171537703 
1.129999999999892, -0.7455376522800786 
1.1399999999998909, -0.7448313061355436 
1.1499999999998898, -0.744386940559223 
1.1599999999998887, -0.7441849870632612 
1.1699999999998876, -0.7441953723692436 
1.1799999999998865, -0.7443815098458919 
1.1899999999998854, -0.7447053061413569 
1.1999999999998843, -0.7451317595335883 
1.2099999999998832, -0.7456321365718674 
1.219999999999882, -0.746185187656654 
1.229999999999881, -0.7467759904439968 
1.2399999999998799, -0.7473920343964491 
1.2499999999998788, -0.748016920579383 
1.2599999999998777, -0.748624000545987 
1.2699999999998766, -0.7491742263296277 
1.2799999999998755, -0.7496217538341008 
1.2899999999998744, -0.7499260334286972 
1.2999999999998733, -0.7500635577892445 
1.3099999999998722, -0.7500322860881776 
1.319999999999871, -0.7498479053680688 
1.32999999999987, -0.7495370107681498 
1.3399999999998689, -0.7491329980613314 
1.3499999999998678, -0.7486777325257987 
1.3599999999998666, -0.7482295827032408 
1.3699999999998655, -0.7478771679218255 
1.3799999999998644, -0.7477569833626141 
1.3899999999998633, -0.7480707584653771 
1.3999999999998622, -0.7490950701989298 
1.4099999999998611, -0.7511729288606959 
1.41999999999986, -0.7546766526945666 
1.429999999999859, -0.7599337717622118 
1.4399999999998578, -0.7671130964860918 
1.4499999999998567, -0.7760828581672654 
1.4599999999998556, -0.786291728191284 
1.4699999999998545, -0.7967809145660596 
1.4799999999998534, -0.8064296798535766 
1.4899999999998523, -0.8143638571395083 
1.4999999999998512, -0.8202455832516353 
1.5099999999998501, -0.8242393772949372 
1.519999999999849, -0.8267612423759625 
1.529999999999848, -0.8282447031866148 
1.5399999999998468, -0.8290287143543035 
1.5499999999998457, -0.8293394024004955 
1.5599999999998446, -0.8293094382597319 
1.5699999999998435, -0.8290014424324028 
1.5799999999998424, -0.8284236701784934 
1.5899999999998413, -0.8275365845596638 
1.5999999999998402, -0.8262527914052423 
1.6099999999998391, -0.8244356277851163 
1.619999999999838, -0.821906618631677 
1.629999999999837, -0.8184788987159376 
1.6399999999998358, -0.8140349775180076 
1.6499999999998347, -0.8086461356271286 
1.6599999999998336, -0.8026834559248579 
1.6699999999998325, -0.796842353188244 
1.6799999999998314, -0.7920198720171512 
1.6899999999998303, -0.7889935000761277 
1.6999999999998292, -0.7880024712126338 
1.709999999999828, -0.7886231050482724 
1.719999999999827, -0.7901003918291235 
1.729999999999826, -0.7917704866253902 
1.7399999999998248, -0.7932447527087589 
1.7499999999998237, -0.7943752325491386 
1.7599999999998226, -0.7951509120875254 
1.7699999999998215, -0.7956132785379346 
1.7799999999998204, -0.7958084504474112 
1.7899999999998193, -0.7957647388601787 
1.7999999999998182, -0.7954819690828053 
1.809999999999817, -0.7949235507867051 
1.819999999999816, -0.7940071604203746 
1.8299999999998149, -0.792595015102014 
1.8399999999998138, -0.7904924477077842 
1.8499999999998127, -0.7874738667657664 
1.8599999999998116, -0.783357459246578 
1.8699999999998105, -0.7781207130297366 
1.8799999999998094, -0.7719881621997207 
1.8899999999998083, -0.7654037775015609 
1.8999999999998072, -0.7588882945016724 
1.909999999999806, -0.7528841582115071 
1.919999999999805, -0.7476770453661841 
1.9299999999998039, -0.7433968179306141 
1.9399999999998028, -0.7400545427967181 
1.9499999999998017, -0.7375817123848565 
1.9599999999998006, -0.7358609192111126 
1.9699999999997995, -0.7347495523955028 
1.9799999999997984, -0.7340994371207581 
1.9899999999997973, -0.7337726240462601 
1.9999999999997962, -0.7336517809484466 
2.0099999999998173, -0.7336442667981853 
2.0199999999998384, -0.7336808423467376 
2.0299999999998595, -0.7337114329550705 
2.0399999999998806, -0.7337006588687124 
2.0499999999999017, -0.7336251185691205 
2.059999999999923, -0.7334729463428106 
2.069999999999944, -0.7332442717391785 
2.079999999999965, -0.7329498552229735 
2.089999999999986, -0.7326059736213864 
2.100000000000007, -0.7322268215780066 
2.1100000000000283, -0.7318185828620736 
2.1200000000000494, -0.7313788001009629 
2.1300000000000705, -0.7309010595187548 
2.1400000000000916, -0.7303816971778968 
2.1500000000001127, -0.7298249779316781 
2.160000000000134, -0.7292455710183281 
2.170000000000155, -0.728669476923028 
2.180000000000176, -0.7281349919002074 
2.190000000000197, -0.7276941800014515 
2.2000000000002182, -0.7274139746490764 
2.2100000000002393, -0.7273753768197166 
2.2200000000002604, -0.7276695775010401 
2.2300000000002815, -0.7283910376924239 
2.2400000000003026, -0.7296288698763571 
2.2500000000003237, -0.7314581811679048 
2.260000000000345, -0.7339316707904053 
2.270000000000366, -0.7370692070873355 
2.280000000000387, -0.7408412115968979 
2.290000000000408, -0.7451436258064092 
2.3000000000004293, -0.7497717219431224 
2.3100000000004504, -0.7544162430267861 
2.3200000000004715, -0.7587123663026862 
2.3300000000004926, -0.7623424479014862 
2.3400000000005137, -0.7651359163017115 
2.3500000000005348, -0.7670955458278665 
2.360000000000556, -0.7683429656831273 
2.370000000000577, -0.7690386031000748 
2.380000000000598, -0.7693253840332801 
2.390000000000619, -0.7693060743472608 
2.4000000000006403, -0.7690415932370657 
2.4100000000006614, -0.768557054596743 
2.4200000000006825, -0.7678491356646957 
2.4300000000007036, -0.766894476411762 
2.4400000000007247, -0.765663457361653 
2.450000000000746, -0.7641479241828281 
2.460000000000767, -0.7624136580884577 
2.470000000000788, -0.7606800330448767 
2.480000000000809, -0.7593931419177098 
2.49000000000083, -0.7591912870068063 
2.5000000000008513, -0.7606450544379307 
2.5100000000008724, -0.7638599782091735 
2.5200000000008935, -0.7683431066786742 
2.5300000000009146, -0.7733291558811449 
2.5400000000009357, -0.778160025118042 
2.550000000000957, -0.7824010189762454 
2.560000000000978, -0.7858303988044342 
2.570000000000999, -0.788412451319792 
2.58000000000102, -0.7902388698223638 
2.5900000000010412, -0.7914543294088718 
2.6000000000010624, -0.7922006300571709 
2.6100000000010835, -0.7925890478825242 
2.6200000000011046, -0.7926918255032303 
2.6300000000011257, -0.792541208129772 
2.6400000000011468, -0.792128191117397 
2.650000000001168, -0.7913968641291597 
2.660000000001189, -0.7902332762370954 
2.67000000000121, -0.7884524725488554 
2.680000000001231, -0.785797203154977 
2.6900000000012523, -0.7819762052019986 
2.7000000000012734, -0.7767716940984808 
2.7100000000012945, -0.7701990868363632 
2.7200000000013156, -0.7626129788219701 
2.7300000000013367, -0.754639812827732 
2.740000000001358, -0.7469613421720023 
2.750000000001379, -0.7401084665514119 
2.7600000000014, -0.7343776170351707 
2.770000000001421, -0.7298542220395952 
2.780000000001442, -0.7264767206375528 
2.7900000000014633, -0.7240974532090351 
2.8000000000014844, -0.7225285185265771 
2.8100000000015055, -0.7215745278492879 
2.8200000000015266, -0.7210552025133826 
2.8300000000015477, -0.7208187716911333 
2.840000000001569, -0.7207467453930454 
2.85000000000159, -0.7207518339279384 
2.860000000001611, -0.7207719524973906 
2.870000000001632, -0.7207634457681203 
2.8800000000016532, -0.7206959926851956 
2.8900000000016743, -0.7205504726211186 
2.9000000000016954, -0.7203194508329029 
2.9100000000017165, -0.7200080532991588 
2.9200000000017377, -0.7196320481081863 
2.9300000000017588, -0.7192116097697752 
2.94000000000178, -0.7187630421915763 
2.950000000001801, -0.7182932080141773 
2.960000000001822, -0.7177998842675846 
2.970000000001843, -0.7172772030455354 
2.9800000000018643, -0.7167224733476362 
2.9900000000018854, -0.7161410999281425 
3.0000000000019065, -0.7155488769797426 
3.0100000000019276, -0.7149729666682773 
3.0200000000019487, -0.7144529958013999 
3.03000000000197, -0.714042553449349 
3.040000000001991, -0.7138101897486646 
3.050000000002012, -0.7138385462455464 
3.060000000002033, -0.7142206781846354 
3.070000000002054, -0.7150537043231009 
3.0800000000020753, -0.716430912016339 
3.0900000000020964, -0.7184333987203376 
3.1000000000021175, -0.7211207370320698 
3.1100000000021386, -0.7245176047693327 
3.1200000000021597, -0.7285918861233381 
3.130000000002181, -0.7332231890951103 
3.140000000002202, -0.738173285535953 
3.150000000002223, -0.7430888718036022 
3.160000000002244, -0.7475695852921203 
3.1700000000022652, -0.7512903720436749 
3.1800000000022863, -0.754102758544479 
3.1900000000023074, -0.7560431508183661 
3.2000000000023285, -0.7572597962004461 
3.2100000000023496, -0.7579265775419037 
3.2200000000023707, -0.7581898171268017 
3.230000000002392, -0.7581503385965755 
3.240000000002413, -0.7578644798784187 
3.250000000002434, -0.7573504951198037 
3.260000000002455, -0.7565943006412665 
3.2700000000024763, -0.7555540005918571 
3.2800000000024974, -0.7541662579421279 
3.2900000000025185, -0.7523606419822635 
3.3000000000025396, -0.7500895187381829 
3.3100000000025607, -0.7473745721128434 
3.3200000000025818, -0.7443468513120934 
3.330000000002603, -0.7412265163082337 
3.340000000002624, -0.7382268199047376 
3.350000000002645, -0.7355182964333415 
3.360000000002666, -0.7333627896649986 
3.3700000000026873, -0.7321341340986589 
3.3800000000027084, -0.7320156827649698 
3.3900000000027295, -0.7327940254015495 
3.4000000000027506, -0.7340288387764196 
3.4100000000027717, -0.7353233667887042 
3.420000000002793, -0.7364435261992885 
3.430000000002814, -0.7372993649864902 
3.440000000002835, -0.7378837920373285 
3.450000000002856, -0.7382216135034949 
3.460000000002877, -0.738339264946766 
3.4700000000028983, -0.7382492605950961 
3.4800000000029194, -0.7379418051034927 
3.4900000000029405, -0.7373788832651625 
3.5000000000029616, -0.7364899109577459 
3.5100000000029827, -0.7351726404162566 
3.520000000003004, -0.7333081308076255 
3.530000000003025, -0.7307993881475099 
3.540000000003046, -0.7276297285493103 
3.550000000003067, -0.723908920225519 
3.5600000000030882, -0.7198640698628145 
3.5700000000031094, -0.7157705558414176 
3.5800000000031305, -0.7118708492872112 
3.5900000000031516, -0.7083301759107813 
3.6000000000031727, -0.7052361020176068 
3.6100000000031938, -0.7026200482826148 
3.620000000003215, -0.7004796396073834 
3.630000000003236, -0.6987932161521743 
3.640000000003257, -0.6975267975346497 
3.650000000003278, -0.6966369534529445 
3.6600000000032993, -0.6960728012029879 
3.6700000000033204, -0.6957788684594585 
3.6800000000033415, -0.6956990060687512 
3.6900000000033626, -0.6957805469372749 
3.7000000000033837, -0.6959777312448999 
3.710000000003405, -0.6962538691300603 
3.720000000003426, -0.6965822804222681 
3.730000000003447, -0.696946216614948 
3.740000000003468, -0.6973375504154855 
3.750000000003489, -0.6977534304210464 
3.7600000000035103, -0.6981902971264369 
3.7700000000035314, -0.6986363500662507 
3.7800000000035525, -0.6990660242011794 
3.7900000000035736, -0.6994409254054842 
3.8000000000035947, -0.6997187641710882 
3.810000000003616, -0.699866097732293 
3.820000000003637, -0.6998673474148907 
3.830000000003658, -0.6997257149829035 
3.840000000003679, -0.6994581337246684 
3.8500000000037002, -0.6990897920823056 
3.8600000000037213, -0.6986525972857196 
3.8700000000037424, -0.6981894488921918 
3.8800000000037635, -0.6977648441509684 
3.8900000000037847, -0.6974820017765005 
3.9000000000038058, -0.6975060518422838 
3.910000000003827, -0.6980906529308725 
3.920000000003848, -0.6996008315799369 
3.930000000003869, -0.7025174477375866 
3.94000000000389, -0.7073985235614085 
3.9500000000039113, -0.714762543200712 
3.9600000000039324, -0.724863498402795 
3.9700000000039535, -0.737386590879845 
3.9800000000039746, -0.7512418251668554 
3.9900000000039957, -0.7647553968026559 
4.000000000004016, -0.7763354504141966 
4.010000000003993, -0.7851456712045143 
4.02000000000397, -0.7912300613922343 
4.030000000003946, -0.7951412534028247 
4.040000000003923, -0.7975223273950052 
4.0500000000039, -0.7988921091564657 
4.0600000000038765, -0.7996029945763351 
4.070000000003853, -0.7998698879843062 
4.08000000000383, -0.7998087881124805 
4.090000000003807, -0.7994637624679017 
4.100000000003783, -0.7988186190435103 
4.11000000000376, -0.797793554341556 
4.120000000003737, -0.7962261839363929 
4.130000000003713, -0.7938355385934321 
4.14000000000369, -0.7901721546189799 
4.150000000003667, -0.7845784827070035 
4.1600000000036434, -0.7762380484235536 
4.17000000000362, -0.764462921041969 
4.180000000003597, -0.749301547189794 
4.1900000000035735, -0.7321087128622767 
4.20000000000355, -0.7152930919603075 
4.210000000003527, -0.7011273693238392 
4.220000000003504, -0.6907091609571022 
4.23000000000348, -0.6839005973932126 
4.240000000003457, -0.6799004470571463 
4.250000000003434, -0.6777937137796551 
4.26000000000341, -0.6768296690625866 
4.270000000003387, -0.6764868208513617 
4.280000000003364, -0.6764392661234874 
4.2900000000033405, -0.6764979061631575 
4.300000000003317, -0.6765579823708976 
4.310000000003294, -0.6765611586799758 
4.320000000003271, -0.676471058683109 
4.330000000003247, -0.6762590193992664 
4.340000000003224, -0.6758976559620918 
4.350000000003201, -0.6753613217588019 
4.360000000003177, -0.6746329600162223 
4.370000000003154, -0.6737147271227275 
4.380000000003131, -0.6726357998820595 
4.390000000003107, -0.6714497086654335 
4.400000000003084, -0.6702199100791135 
4.410000000003061, -0.6690017814536016 
4.4200000000030375, -0.6678315798622225 
4.430000000003014, -0.6667263359419094 
4.440000000002991, -0.6656911994230358 
4.450000000002968, -0.6647284317051743 
4.460000000002944, -0.663844214306412 
4.470000000002921, -0.6630523259436802 
4.480000000002898, -0.662375402315769 
4.490000000002874, -0.6618447102652898 
4.500000000002851, -0.6614989465847606 
4.510000000002828, -0.6613822757801338 
4.520000000002804, -0.6615418897328669 
4.530000000002781, -0.6620256072320927 
4.540000000002758, -0.6628800769647065 
4.5500000000027345, -0.664149725033986 
4.560000000002711, -0.6658756105162786 
4.570000000002688, -0.6680919405332353 
4.580000000002665, -0.6708165811055062 
4.590000000002641, -0.6740317087368959 
4.600000000002618, -0.67765454449456 
4.610000000002595, -0.6815092716991629 
4.620000000002571, -0.6853267822716997 
4.630000000002548, -0.6887989509294542 
4.640000000002525, -0.6916757476400047 
4.6500000000025015, -0.6938430451195932 
4.660000000002478, -0.6953270863564024 
4.670000000002455, -0.6962380649982736 
4.6800000000024315, -0.6967050897739069 
4.690000000002408, -0.6968359048771762 
4.700000000002385, -0.6967023236998059 
4.710000000002362, -0.6963391786445872 
4.720000000002338, -0.6957464637039361 
4.730000000002315, -0.6948893039136128 
4.740000000002292, -0.6936934741493376 
4.750000000002268, -0.6920351689633437 
4.760000000002245, -0.6897232154556168 
4.770000000002222, -0.6864706216713483 
4.7800000000021985, -0.6818551134753723 
4.790000000002175, -0.675297165711848 
4.800000000002152, -0.6661782602729076 
4.810000000002129, -0.6543050675699992 
4.820000000002105, -0.6405903072675572 
4.830000000002082, -0.6270742984492486 
4.840000000002059, -0.6158069215387564 
4.850000000002035, -0.6077293392344499 
4.860000000002012, -0.6026253244248955 
4.870000000001989, -0.5997337314425603 
4.880000000001965, -0.5982678703954243 
4.890000000001942, -0.5976285956988301 
4.900000000001919, -0.5974232015294741 
4.9100000000018955, -0.5974161666891855 
4.920000000001872, -0.5974739159367213 
