t, s[1].omega / s[0].omega 
0, -0.9999841015535831 
0.009999999999999995, -0.9982885141268995 
0.019999999999999934, -0.9964234567328903 
0.029999999999999874, -0.9944549706702818 
0.04000000000000012, -0.9924567939330512 
0.050000000000000405, -0.9905114005946046 
0.06000000000000069, -0.9887093005814457 
0.07000000000000098, -0.9871419930666973 
0.08000000000000126, -0.9858866174164864 
0.09000000000000155, -0.9849854791002779 
0.10000000000000184, -0.9844299404850851 
0.11000000000000212, -0.98415992439268 
0.12000000000000241, -0.9840817911700809 
0.130000000000002, -0.9840941368425508 
0.1400000000000009, -0.9841068988295518 
0.1499999999999998, -0.9840473983966896 
0.1599999999999987, -0.9838572040757626 
0.1699999999999976, -0.9834875452180268 
0.1799999999999965, -0.9828989547664037 
0.1899999999999954, -0.9820662299707179 
0.1999999999999943, -0.9809850149928284 
0.2099999999999932, -0.9796742497880248 
0.2199999999999921, -0.9781719085229085 
0.229999999999991, -0.9765273143594658 
0.2399999999999899, -0.9747956316197056 
0.2499999999999888, -0.973037016596814 
0.2599999999999877, -0.9713184227186116 
0.2699999999999866, -0.9697139526243929 
0.2799999999999855, -0.9683001922735774 
0.2899999999999844, -0.9671451020248447 
0.2999999999999833, -0.9662923747332778 
0.3099999999999822, -0.9657472268548147 
0.3199999999999811, -0.9654717676035147 
0.32999999999998, -0.9653943871104758 
0.3399999999999789, -0.9654287213059802 
0.3499999999999778, -0.9654917443477036 
0.35999999999997667, -0.9655133958376997 
0.36999999999997557, -0.9654378465090007 
0.37999999999997447, -0.9652214788851751 
0.38999999999997337, -0.9648323965667698 
0.39999999999997227, -0.9642527543012326 
0.40999999999997117, -0.9634814066933689 
0.41999999999997006, -0.9625332756483621 
0.42999999999996896, -0.9614346729988139 
0.43999999999996786, -0.9602177168405737 
0.44999999999996676, -0.9589176304364189 
0.45999999999996566, -0.9575738466428207 
0.46999999999996456, -0.9562328328116607 
0.47999999999996346, -0.9549495701858106 
0.48999999999996235, -0.953785247132271 
0.49999999999996125, -0.9528001088382476 
0.5099999999999602, -0.9520423473605316 
0.519999999999959, -0.9515361499678165 
0.529999999999958, -0.9512736844004033 
0.5399999999999568, -0.9512154064432548 
0.5499999999999557, -0.9512994698344656 
0.5599999999999546, -0.9514558807210914 
0.5699999999999535, -0.951618837575861 
0.5799999999999524, -0.9517334791146057 
0.5899999999999513, -0.9517578266453736 
0.5999999999999502, -0.9516628295549395 
0.6099999999999491, -0.9514322416644448 
0.619999999999948, -0.9510617935338926 
0.6299999999999469, -0.9505565322492755 
0.6399999999999458, -0.9499269392952799 
0.6499999999999447, -0.9491862147508521 
0.6599999999999436, -0.948350512198453 
0.6699999999999425, -0.947441634277229 
0.6799999999999414, -0.9464902564076632 
0.6899999999999403, -0.9455378770119622 
0.6999999999999392, -0.9446361672364991 
0.7099999999999381, -0.9438425927070089 
0.719999999999937, -0.9432119821972267 
0.7299999999999359, -0.9427856761372497 
0.7399999999999348, -0.9425818256478458 
0.7499999999999337, -0.9425906563358406 
0.7599999999999326, -0.9427767412300284 
0.7699999999999315, -0.9430874470032414 
0.7799999999999304, -0.9434641114126764 
0.7899999999999293, -0.9438518034373724 
0.7999999999999282, -0.9442052125938837 
0.8099999999999271, -0.9444906376448052 
0.819999999999926, -0.9446851917705853 
0.8299999999999249, -0.9447742066660304 
0.8399999999999238, -0.9447478680667272 
0.8499999999999227, -0.9445988204130235 
0.8599999999999216, -0.9443224490412234 
0.8699999999999205, -0.9439197989274183 
0.8799999999999194, -0.9434011510469013 
0.8899999999999183, -0.9427883715054788 
0.8999999999999172, -0.9421158621302295 
0.9099999999999161, -0.9414307548801701 
0.919999999999915, -0.9407917943787643 
0.9299999999999139, -0.9402647779358843 
0.9399999999999128, -0.9399129706207464 
0.9499999999999117, -0.9397842036844732 
0.9599999999999106, -0.9398997773487541 
0.9699999999999095, -0.9402502597335953 
0.9799999999999084, -0.9407996010599339 
0.9899999999999073, -0.9414949610491877 
0.9999999999999062, -0.9422779030285909 
1.0099999999999052, -0.9430931916353126 
1.019999999999904, -0.9438932375475275 
1.029999999999903, -0.9446382005740579 
1.039999999999902, -0.9452933269855043 
1.0499999999999008, -0.945826213982303 
1.0599999999998997, -0.9462069370273166 
1.0699999999998986, -0.9464122514407911 
1.0799999999998975, -0.946431665146094 
1.0899999999998964, -0.9462711976160202 
1.0999999999998953, -0.9459527574761811 
1.1099999999998942, -0.9455112032560468 
1.119999999999893, -0.9449928033552988 
1.129999999999892, -0.9444566323565361 
1.1399999999998909, -0.9439765715290512 
1.1499999999998898, -0.9436387993337563 
1.1599999999998887, -0.943530487146371 
1.1699999999998876, -0.94372103623089 
1.1799999999998865, -0.9442441828032262 
1.1899999999998854, -0.9450905786303027 
1.1999999999998843, -0.9462137768045691 
1.2099999999998832, -0.9475444098314483 
1.219999999999882, -0.9490045850076878 
1.229999999999881, -0.9505170992430395 
1.2399999999998799, -0.9520082977813106 
1.2499999999998788, -0.9534070042146959 
1.2599999999998777, -0.9546442101595956 
1.2699999999998766, -0.9556579377228711 
1.2799999999998755, -0.9564035316059712 
1.2899999999998744, -0.9568636121168806 
1.2999999999998733, -0.9570502936671531 
1.3099999999998722, -0.9569981546029516 
1.319999999999871, -0.9567538531097182 
1.32999999999987, -0.9563698495205555 
1.3399999999998689, -0.9559057645368062 
1.3499999999998678, -0.9554359139023649 
1.3599999999998666, -0.9550573668515003 
1.3699999999998655, -0.9548897815916881 
1.3799999999998644, -0.9550593007862043 
1.3899999999998633, -0.9556679170727641 
1.3999999999998622, -0.9567627876369865 
1.4099999999998611, -0.958323275672736 
1.41999999999986, -0.96027095582495 
1.429999999999859, -0.9624921896324299 
1.4399999999998578, -0.9648588647774741 
1.4499999999998567, -0.9672400698454873 
1.4599999999998556, -0.9695068483703324 
1.4699999999998545, -0.9715375942201125 
1.4799999999998534, -0.9732304713809465 
1.4899999999998523, -0.974521123513387 
1.4999999999998512, -0.9753948315749259 
1.5099999999998501, -0.9758829559182367 
1.519999999999849, -0.9760453592422786 
1.529999999999848, -0.9759506035238644 
1.5399999999998468, -0.9756646568630565 
1.5499999999998457, -0.9752516425718707 
1.5599999999998446, -0.9747846700070779 
1.5699999999998435, -0.974361617843878 
1.5799999999998424, -0.974116679993616 
1.5899999999998413, -0.9742144025882435 
1.5999999999998402, -0.9748170499771476 
1.6099999999998391, -0.9760344420222712 
1.619999999999838, -0.9778845509200422 
1.629999999999837, -0.9802886549597096 
1.6399999999998358, -0.9830979543337722 
1.6499999999998347, -0.9861290583578539 
1.6599999999998336, -0.9891901483095573 
1.6699999999998325, -0.9920959096122658 
1.6799999999998314, -0.9946804217637505 
1.6899999999998303, -0.99681590661102 
1.6999999999998292, -0.998433658372392 
1.709999999999828, -0.9995331073978049 
1.719999999999827, -1.0001694328700053 
1.729999999999826, -1.0004264297710102 
1.7399999999998248, -1.0003909192344973 
1.7499999999998237, -1.0001400702019212 
1.7599999999998226, -0.9997434565258928 
1.7699999999998215, -0.9992765039662004 
1.7799999999998204, -0.9988398502567606 
1.7899999999998193, -0.9985749113656546 
1.7999999999998182, -0.9986599919500436 
1.809999999999817, -0.9992741387095698 
1.819999999999816, -1.0005377834810498 
1.8299999999998149, -1.0024651792121566 
1.8399999999998138, -1.0049597863223796 
1.8499999999998127, -1.007848891965117 
1.8599999999998116, -1.010928194220461 
1.8699999999998105, -1.0139934813563967 
1.8799999999998094, -1.0168573500132283 
1.8899999999998083, -1.019361491168271 
1.8999999999998072, -1.0213927882557106 
1.909999999999806, -1.022899506271984 
1.919999999999805, -1.0238950017229806 
1.9299999999998039, -1.0244421439505165 
1.9399999999998028, -1.0246265706836812 
1.9499999999998017, -1.024533931187416 
1.9599999999998006, -1.0242405297888841 
1.9699999999997995, -1.0238180623591187 
1.9799999999997984, -1.0233483698541623 
1.9899999999997973, -1.0229409996742127 
1.9999999999997962, -1.0227411699620317 
2.0099999999998173, -1.0229127892616108 
2.0199999999998384, -1.0235927269670166 
2.0299999999998595, -1.0248389207722264 
2.0399999999998806, -1.0266080103156483 
2.0499999999999017, -1.0287754370789302 
2.059999999999923, -1.0311774166863488 
2.069999999999944, -1.033646862849203 
2.079999999999965, -1.0360318268252686 
2.089999999999986, -1.0382015340305573 
2.100000000000007, -1.0400504597771252 
2.1100000000000283, -1.0415065567945803 
2.1200000000000494, -1.0425406910477122 
2.1300000000000705, -1.0431684533512864 
2.1400000000000916, -1.0434396083612623 
2.1500000000001127, -1.0434205964175134 
2.160000000000134, -1.043180507935656 
2.170000000000155, -1.0427872848368949 
2.180000000000176, -1.0423142924011048 
2.190000000000197, -1.0418519521618435 
2.2000000000002182, -1.041514343386973 
2.2100000000002393, -1.0414285528748752 
2.2200000000002604, -1.0417027537140844 
2.2300000000002815, -1.042388262309149 
2.2400000000003026, -1.0434616872426843 
2.2500000000003237, -1.0448382488025865 
2.260000000000345, -1.0464027716746278 
2.270000000000366, -1.0480379470396508 
2.280000000000387, -1.0496398473554616 
2.290000000000408, -1.0511219255608188 
2.3000000000004293, -1.0524135805833021 
2.3100000000004504, -1.053459411764798 
2.3200000000004715, -1.054222276339885 
2.3300000000004926, -1.0546883791471615 
2.3400000000005137, -1.0548693003415417 
2.3500000000005348, -1.0547978782883591 
2.360000000000556, -1.054520557405123 
2.370000000000577, -1.0540920176605453 
2.380000000000598, -1.053575662272529 
2.390000000000619, -1.0530481236514446 
2.4000000000006403, -1.0526007399731827 
2.4100000000006614, -1.0523296763490142 
2.4200000000006825, -1.0523132779280848 
2.4300000000007036, -1.052587818329171 
2.4400000000007247, -1.0531375053969538 
2.450000000000746, -1.0539038408508312 
2.460000000000767, -1.0548057382045377 
2.470000000000788, -1.0557589775102598 
2.480000000000809, -1.0566888987681549 
2.49000000000083, -1.057535515266856 
2.5000000000008513, -1.0582530570219908 
2.5100000000008724, -1.0588071014557845 
2.5200000000008935, -1.0591724059652223 
2.5300000000009146, -1.0593332994477431 
2.5400000000009357, -1.0592861613770062 
2.550000000000957, -1.05904161271157 
2.560000000000978, -1.0586246336450786 
2.570000000000999, -1.0580734079451235 
2.58000000000102, -1.0574389740568455 
2.5900000000010412, -1.0567857056900147 
2.6000000000010624, -1.0561890344634182 
2.6100000000010835, -1.0557259205965595 
2.6200000000011046, -1.0554583112195144 
2.6300000000011257, -1.0554168927736385 
2.6400000000011468, -1.0555938041279673 
2.650000000001168, -1.055946940044802 
2.660000000001189, -1.0564122811785601 
2.67000000000121, -1.0569187315737651 
2.680000000001231, -1.0574005274662142 
2.6900000000012523, -1.0578043302387572 
2.7000000000012734, -1.058091105037486 
2.7100000000012945, -1.0582347698772583 
2.7200000000013156, -1.058219582250221 
2.7300000000013367, -1.0580376880002629 
2.740000000001358, -1.057688011335978 
2.750000000001379, -1.0571770319715428 
2.7600000000014, -1.0565208523640335 
2.770000000001421, -1.055747456051768 
2.780000000001442, -1.054898458033327 
2.7900000000014633, -1.0540295460451088 
2.8000000000014844, -1.0532076692100456 
2.8100000000015055, -1.0525028033263355 
2.8200000000015266, -1.0519747085922349 
2.8300000000015477, -1.051658792233833 
2.840000000001569, -1.0515564786588683 
2.85000000000159, -1.0516340435814393 
2.860000000001611, -1.0518310657096852 
2.870000000001632, -1.0520752921352512 
2.8800000000016532, -1.052297061941959 
2.8900000000016743, -1.052437885973744 
2.9000000000016954, -1.0524530733250983 
2.9100000000017165, -1.0523116221086941 
2.9200000000017377, -1.051995706362338 
2.9300000000017588, -1.0514997326549795 
2.94000000000178, -1.0508283574491448 
2.950000000001801, -1.0499942392742405 
2.960000000001822, -1.0490172502564759 
2.970000000001843, -1.0479259476937541 
2.9800000000018643, -1.04676040890936 
2.9900000000018854, -1.0455744355950445 
3.0000000000019065, -1.0444347164295018 
3.0100000000019276, -1.0434148128543266 
3.0200000000019487, -1.0425833158013416 
3.03000000000197, -1.0419880810389046 
3.040000000001991, -1.0416414459652938 
3.050000000002012, -1.04151368797153 
3.060000000002033, -1.0415401544984033 
3.070000000002054, -1.041639264251578 
3.0800000000020753, -1.0417309089891766 
3.0900000000020964, -1.0417465948984772 
3.1000000000021175, -1.041631130339192 
3.1100000000021386, -1.0413413140605816 
3.1200000000021597, -1.0408463384760192 
3.130000000002181, -1.04013040532595 
3.140000000002202, -1.039194658683534 
3.150000000002223, -1.0380558797908876 
3.160000000002244, -1.036742791387431 
3.1700000000022652, -1.0352932598527032 
3.1800000000022863, -1.033754562665749 
3.1900000000023074, -1.0321858412036122 
3.2000000000023285, -1.0306596468745899 
3.2100000000023496, -1.0292589894206297 
3.2200000000023707, -1.0280672263524235 
3.230000000002392, -1.0271506249771267 
3.240000000002413, -1.026538144930082 
3.250000000002434, -1.0262085183981395 
3.260000000002455, -1.0260945345427597 
3.2700000000024763, -1.0261037500725239 
3.2800000000024974, -1.0261425361320644 
3.2900000000025185, -1.026130312778228 
3.3000000000025396, -1.0260015206028053 
3.3100000000025607, -1.025701731976521 
3.3200000000025818, -1.0251854294610243 
3.330000000002603, -1.0244189997731494 
3.340000000002624, -1.0233871609522007 
3.350000000002645, -1.0220975521571374 
3.360000000002666, -1.0205795390420422 
3.3700000000026873, -1.0188785712840196 
3.3800000000027084, -1.0170510675925162 
3.3900000000027295, -1.0151631710090936 
3.4000000000027506, -1.0132923123965463 
3.4100000000027717, -1.0115274208811071 
3.420000000002793, -1.009963128465039 
3.430000000002814, -1.0086851422581138 
3.440000000002835, -1.0077485268788653 
3.450000000002856, -1.0071577199961248 
3.460000000002877, -1.006861319312118 
3.4700000000028983, -1.006767763330008 
3.4800000000029194, -1.0067727257148573 
3.4900000000029405, -1.0067814330310252 
3.5000000000029616, -1.0067167759178577 
3.5100000000029827, -1.0065162930756295 
3.520000000003004, -1.0061265599892477 
3.530000000003025, -1.0055018563771252 
3.540000000003046, -1.0046092423196145 
3.550000000003067, -1.0034368405176892 
3.5600000000030882, -1.0019989236042837 
3.5700000000031094, -1.0003336425125375 
3.5800000000031305, -0.9984955983618633 
3.5900000000031516, -0.996549287721716 
3.6000000000031727, -0.994567080590657 
3.6100000000031938, -0.9926302929335933 
3.620000000003215, -0.990828756657773 
3.630000000003236, -0.9892542417697424 
3.640000000003257, -0.9879855481780782 
3.650000000003278, -0.9870680368846736 
3.6600000000032993, -0.9864967564613811 
3.6700000000033204, -0.9862146547385537 
3.6800000000033415, -0.986129502420001 
3.6900000000033626, -0.9861397247549688 
3.7000000000033837, -0.9861542709141974 
3.710000000003405, -0.9860994133444582 
3.720000000003426, -0.985915917227041 
3.730000000003447, -0.9855543299148234 
3.740000000003468, -0.9849743186376309 
3.750000000003489, -0.9841494403840783 
3.7600000000035103, -0.9830738623205232 
3.7700000000035314, -0.9817652335309448 
3.7800000000035525, -0.9802608095216059 
3.7900000000035736, -0.9786098296011841 
3.8000000000035947, -0.9768677886250087 
3.810000000003616, -0.9750953443192545 
3.820000000003637, -0.9733600446152227 
3.830000000003658, -0.9717367702490481 
3.840000000003679, -0.9703032053306119 
3.8500000000037002, -0.9691287480090844 
3.8600000000037213, -0.9682586455114635 
3.8700000000037424, -0.9676993398681244 
3.8800000000037635, -0.9674134073477548 
3.8900000000037847, -0.967328844950034 
3.9000000000038058, -0.9673583349014988 
3.910000000003827, -0.9674177776076605 
3.920000000003848, -0.9674361828714012 
3.930000000003869, -0.9673569221138166 
3.94000000000389, -0.9671355327015949 
3.9500000000039113, -0.9667390880419864 
3.9600000000039324, -0.9661486045357786 
3.9700000000039535, -0.9653620231874738 
3.9800000000039746, -0.964393972464821 
3.9900000000039957, -0.9632712440490309 
4.000000000004016, -0.9620270079040122 
4.010000000003993, -0.9606977435092376 
4.02000000000397, -0.9593240730104517 
4.030000000003946, -0.9579535112711227 
4.040000000003923, -0.9566419952211709 
4.0500000000039, -0.9554516299719215 
4.0600000000038765, -0.9544435029453713 
4.070000000003853, -0.9536664074078856 
4.08000000000383, -0.9531446323888094 
4.090000000003807, -0.9528697600173016 
4.100000000003783, -0.9528010556937234 
4.11000000000376, -0.9528752456716809 
4.120000000003737, -0.9530210790749065 
4.130000000003713, -0.9531718467136002 
4.14000000000369, -0.953272039054994 
4.150000000003667, -0.9532791005281093 
4.1600000000036434, -0.9531633962834233 
4.17000000000362, -0.952908226137904 
4.180000000003597, -0.9525092845719035 
4.1900000000035735, -0.9519722156900263 
4.20000000000355, -0.9513086670022874 
4.210000000003527, -0.9505332462374824 
4.220000000003504, -0.9496633940604173 
4.23000000000348, -0.9487218961860482 
4.240000000003457, -0.947740123035028 
4.250000000003434, -0.9467600590558419 
4.26000000000341, -0.9458336624964454 
4.270000000003387, -0.9450184118747218 
4.280000000003364, -0.9443687947142678 
4.2900000000033405, -0.9439254414380919 
4.300000000003317, -0.9437054713470412 
4.310000000003294, -0.9436978511862042 
4.320000000003271, -0.9438658436821106 
4.330000000003247, -0.9441556995685738 
4.340000000003224, -0.9445080248858609 
4.350000000003201, -0.9448675605364485 
4.360000000003177, -0.9451889679195322 
4.370000000003154, -0.9454387519196967 
4.380000000003131, -0.9455945402087309 
4.390000000003107, -0.945642633648001 
4.400000000003084, -0.945574667174227 
4.410000000003061, -0.9453849781769261 
4.4200000000030375, -0.945070467158058 
4.430000000003014, -0.9446331710600117 
4.440000000002991, -0.9440837861715105 
4.450000000002968, -0.9434442275043461 
4.460000000002944, -0.9427488202252448 
4.470000000002921, -0.942044533703784 
4.480000000002898, -0.9413896373151825 
4.490000000002874, -0.9408488006288355 
4.500000000002851, -0.940483360973284 
4.510000000002828, -0.940338695808725 
4.520000000002804, -0.9404337205982648 
4.530000000002781, -0.9407572377139972 
4.540000000002758, -0.9412722912620405 
4.5500000000027345, -0.9419259546106401 
4.560000000002711, -0.9426603668756794 
4.570000000002688, -0.9434213791292073 
4.580000000002665, -0.9441629256510382 
4.590000000002641, -0.9448471467598827 
4.600000000002618, -0.9454417418734478 
4.610000000002595, -0.9459170548940612 
4.620000000002571, -0.9462457133829172 
4.630000000002548, -0.9464061925610027 
4.640000000002525, -0.9463885009362244 
4.6500000000025015, -0.9461980954509965 
4.660000000002478, -0.9458558371716366 
4.670000000002455, -0.9453956386128637 
4.6800000000024315, -0.9448631707277974 
4.690000000002408, -0.9443170391350781 
4.700000000002385, -0.9438301526861459 
4.710000000002362, -0.9434864442751282 
4.720000000002338, -0.9433692099332355 
4.730000000002315, -0.9435429376000612 
4.740000000002292, -0.9440368533895181 
4.750000000002268, -0.9448389279686777 
4.760000000002245, -0.9459024355897835 
4.770000000002222, -0.9471598047785186 
4.7800000000021985, -0.9485363387888617 
4.790000000002175, -0.9499589045018377 
4.800000000002152, -0.9513585239407287 
4.810000000002129, -0.9526690766631697 
4.820000000002105, -0.9538264700765875 
4.830000000002082, -0.954772567541178 
4.840000000002059, -0.9554645020735617 
4.850000000002035, -0.9558843086471756 
4.860000000002012, -0.9560418152153035 
4.870000000001989, -0.9559688279085481 
4.880000000001965, -0.9557097478058711 
4.890000000001942, -0.9553156932483562 
4.900000000001919, -0.9548456880174377 
4.9100000000018955, -0.9543735632386673 
4.920000000001872, -0.9539949893395681 
4.930000000001849, -0.9538261906820402 
