t, s[1].omega / s[0].omega 
0, -0.38001875584320094 
0.009999999999999995, -0.38203985636596743 
0.019999999999999934, -0.3842530056004899 
0.029999999999999874, -0.3864609471403949 
0.04000000000000012, -0.3884486141951459 
0.050000000000000405, -0.39006014516564363 
0.06000000000000069, -0.3912384755301668 
0.07000000000000098, -0.3920085661172007 
0.08000000000000126, -0.39243349122123333 
0.09000000000000155, -0.3925769943691588 
0.10000000000000184, -0.39248328101318625 
0.11000000000000212, -0.39216887344344603 
0.12000000000000241, -0.39161873710939876 
0.130000000000002, -0.39078207979712715 
0.1400000000000009, -0.38956778789523233 
0.1499999999999998, -0.3878458726207909 
0.1599999999999987, -0.38547026725389494 
0.1699999999999976, -0.38234190997877976 
0.1799999999999965, -0.3785059092628561 
0.1899999999999954, -0.3742150534968641 
0.1999999999999943, -0.3698705471239739 
0.2099999999999932, -0.36585733487552485 
0.2199999999999921, -0.3624084458603941 
0.229999999999991, -0.3595845505913267 
0.2399999999999899, -0.3573325893501017 
0.2499999999999888, -0.3555533602198426 
0.2599999999999877, -0.3541452235354325 
0.2699999999999866, -0.35302404833907375 
0.2799999999999855, -0.3521290849960887 
0.2899999999999844, -0.35142277721012627 
0.2999999999999833, -0.3508892424266679 
0.3099999999999822, -0.35053398161102395 
0.3199999999999811, -0.3503863766317688 
0.32999999999998, -0.35050637334793433 
0.3399999999999789, -0.3509972060379245 
0.3499999999999778, -0.352026857804704 
0.35999999999997667, -0.35386148831516856 
0.36999999999997557, -0.3569118576587373 
0.37999999999997447, -0.36178128131117576 
0.38999999999997337, -0.36926284798569703 
0.39999999999997227, -0.3801438970070551 
0.40999999999997117, -0.39460404653867676 
0.41999999999997006, -0.41130766317835665 
0.42999999999996896, -0.4272845544359016 
0.43999999999996786, -0.4396814479602704 
0.44999999999996676, -0.44770340693734445 
0.45999999999996566, -0.45235216975338577 
0.46999999999996456, -0.45498138598239646 
0.47999999999996346, -0.45652786055395983 
0.48999999999996235, -0.4574917272503292 
0.49999999999996125, -0.4581155747442895 
0.5099999999999602, -0.45851730553711434 
0.519999999999959, -0.4587570703571031 
0.529999999999958, -0.4588664957802548 
0.5399999999999568, -0.45886101900340137 
0.5499999999999557, -0.4587456411497478 
0.5599999999999546, -0.4585189094898892 
0.5699999999999535, -0.45817764453995 
0.5799999999999524, -0.45772355000850656 
0.5899999999999513, -0.457170829582629 
0.5999999999999502, -0.45655120213189565 
0.6099999999999491, -0.4559115880228739 
0.619999999999948, -0.4553030823963449 
0.6299999999999469, -0.45476599451947647 
0.6399999999999458, -0.45431863912222087 
0.6499999999999447, -0.4539546494942054 
0.6599999999999436, -0.45364864955153716 
0.6699999999999425, -0.4533668288118795 
0.6799999999999414, -0.45307768730663217 
0.6899999999999403, -0.45275895043472225 
0.6999999999999392, -0.4523993694878589 
0.7099999999999381, -0.451997064339391 
0.719999999999937, -0.45155722406308263 
0.7299999999999359, -0.4510913917574516 
0.7399999999999348, -0.45061960328375117 
0.7499999999999337, -0.4501762334206509 
0.7599999999999326, -0.4498203802063786 
0.7699999999999315, -0.4496508126924885 
0.7799999999999304, -0.4498208183553444 
0.7899999999999293, -0.45053233654969416 
0.7999999999999282, -0.4519502482242121 
0.8099999999999271, -0.4539295306856984 
0.819999999999926, -0.4555373102592741 
0.8299999999999249, -0.45489007777841 
0.8399999999999238, -0.4503355959952554 
0.8499999999999227, -0.4423746670979295 
0.8599999999999216, -0.43348981997474817 
0.8699999999999205, -0.42592496539561486 
0.8799999999999194, -0.4204849544296871 
0.8899999999999183, -0.41695331420429244 
0.8999999999999172, -0.41479979302196107 
0.9099999999999161, -0.41354240213216914 
0.919999999999915, -0.41283698072342656 
0.9299999999999139, -0.412461429747106 
0.9399999999999128, -0.4122791929699021 
0.9499999999999117, -0.41220852738218683 
0.9599999999999106, -0.4122017152493288 
0.9699999999999095, -0.41223244432471884 
0.9799999999999084, -0.4122889825064343 
0.9899999999999073, -0.4123712828490338 
0.9999999999999062, -0.4124904389684113 
1.0099999999999052, -0.412668688690237 
1.019999999999904, -0.4129377510684559 
1.029999999999903, -0.41333337778464385 
1.039999999999902, -0.41388510316831234 
1.0499999999999008, -0.4146022255874775 
1.0599999999998997, -0.41546004479582044 
1.0699999999998986, -0.4163940293962825 
1.0799999999998975, -0.4173102404387479 
1.0899999999998964, -0.41811196795179406 
1.0999999999998953, -0.41872848282600905 
1.1099999999998942, -0.419128261272003 
1.119999999999893, -0.4193122356597322 
1.129999999999892, -0.41929666888956385 
1.1399999999998909, -0.41909655051379524 
1.1499999999998898, -0.41871350022239007 
1.1599999999998887, -0.41812624986199126 
1.1699999999998876, -0.41727939461986335 
1.1799999999998865, -0.4160656224114196 
1.1899999999998854, -0.4142975263911711 
1.1999999999998843, -0.4116715445522625 
1.2099999999998832, -0.4077504147222794 
1.219999999999882, -0.40204179348270497 
1.229999999999881, -0.39427663107595845 
1.2399999999998799, -0.3848142629290263 
1.2499999999998788, -0.3747388625047686 
1.2599999999998777, -0.36534235598708376 
1.2699999999998766, -0.3574686104563362 
1.2799999999998755, -0.3513307395803161 
1.2899999999998744, -0.34673684705752217 
1.2999999999998733, -0.343360322487012 
1.3099999999998722, -0.3408912760228996 
1.319999999999871, -0.33908698833688633 
1.32999999999987, -0.3377743837327344 
1.3399999999998689, -0.3368377077444699 
1.3499999999998678, -0.33620535273439045 
1.3599999999998666, -0.3358402005493826 
1.3699999999998655, -0.3357343286128093 
1.3799999999998644, -0.3359080650816058 
1.3899999999998633, -0.33641351548580223 
1.3999999999998622, -0.3373431092135157 
1.4099999999998611, -0.33884395974769244 
1.41999999999986, -0.3411380117020845 
1.429999999999859, -0.3445437215381926 
1.4399999999998578, -0.3494820298918639 
1.4499999999998567, -0.3564200679139612 
1.4599999999998556, -0.36566845329074776 
1.4699999999998545, -0.3769847970670651 
1.4799999999998534, -0.38921444683226525 
1.4899999999998523, -0.40055268765710556 
1.4999999999998512, -0.4095434699058429 
1.5099999999998501, -0.415812039693758 
1.519999999999849, -0.41983194399175805 
1.529999999999848, -0.4223043403749722 
1.5399999999998468, -0.42379804049906084 
1.5499999999998457, -0.4246835456080853 
1.5599999999998446, -0.42518008087324316 
1.5699999999998435, -0.425411239283697 
1.5799999999998424, -0.4254429335704127 
1.5899999999998413, -0.42530552056072723 
1.5999999999998402, -0.42500668001934383 
1.6099999999998391, -0.42454069840290815 
1.619999999999838, -0.4238983927690869 
1.629999999999837, -0.42307983613406963 
1.6399999999998358, -0.4221078904363318 
1.6499999999998347, -0.4210353056348658 
1.6599999999998336, -0.4199375638239823 
1.6699999999998325, -0.41889228536400236 
1.6799999999998314, -0.41795682422146074 
1.6899999999998303, -0.4171562605810971 
1.6999999999998292, -0.41648484676362285 
1.709999999999828, -0.4159161661337734 
1.719999999999827, -0.4154157423814551 
1.729999999999826, -0.4149515618921419 
1.7399999999998248, -0.414500244578924 
1.7499999999998237, -0.41404892281074523 
1.7599999999998226, -0.4135946522128878 
1.7699999999998215, -0.41314368538958607 
1.7799999999998204, -0.4127124878277465 
1.7899999999998193, -0.41233184849525034 
1.7999999999998182, -0.41205533439686415 
1.809999999999817, -0.4119733888858006 
1.819999999999816, -0.4122331850107887 
1.8299999999998149, -0.4130578553272855 
1.8399999999998138, -0.4147369304578438 
1.8499999999998127, -0.4175079989215414 
1.8599999999998116, -0.42119117762791636 
1.8699999999998105, -0.42458885034106875 
1.8799999999998094, -0.4254011028683906 
1.8899999999998083, -0.42184061778659265 
1.8999999999998072, -0.41470958854845386 
1.909999999999806, -0.4067153130524658 
1.919999999999805, -0.40000745123223436 
1.9299999999998039, -0.39524213896249505 
1.9399999999998028, -0.39216504172160616 
1.9499999999998017, -0.3902863269916743 
1.9599999999998006, -0.38918201413626774 
1.9699999999997995, -0.38855581996980487 
1.9799999999997984, -0.3882185088153936 
1.9899999999997973, -0.3880543977113324 
1.9999999999997962, -0.3879947653585487 
2.0099999999998173, -0.38800039715243745 
2.0199999999998384, -0.38805132020195887 
2.0299999999998595, -0.3881415713926065 
2.0399999999998806, -0.38827728904503495 
2.0499999999999017, -0.38847654483304733 
2.059999999999923, -0.3887690295834564 
2.069999999999944, -0.3891933567918068 
2.079999999999965, -0.3897899138837453 
2.089999999999986, -0.3905881890933776 
2.100000000000007, -0.3915896521114956 
2.1100000000000283, -0.3927515191792608 
2.1200000000000494, -0.39398237765213695 
2.1300000000000705, -0.395160466845763 
2.1400000000000916, -0.396171050291095 
2.1500000000001127, -0.3969405311991096 
2.160000000000134, -0.39744607733710613 
2.170000000000155, -0.3977011029188942 
2.180000000000176, -0.39773231294754335 
2.190000000000197, -0.3975608799259889 
2.2000000000002182, -0.3971902722110698 
2.2100000000002393, -0.39659725820885333 
2.2200000000002604, -0.3957214876530733 
2.2300000000002815, -0.3944504116387205 
2.2400000000003026, -0.39260050344478187 
2.2500000000003237, -0.38990747649163093 
2.260000000000345, -0.3860622028509471 
2.270000000000366, -0.38084692388882707 
2.280000000000387, -0.37436419542195504 
2.290000000000408, -0.3671725528401016 
2.3000000000004293, -0.3600987739323902 
2.3100000000004504, -0.3538372371543681 
2.3200000000004715, -0.348708898482032 
2.3300000000004926, -0.3447060284979422 
2.3400000000005137, -0.3416559305535033 
2.3500000000005348, -0.3393501586913287 
2.360000000000556, -0.33760638937199694 
2.370000000000577, -0.33628620784301544 
2.380000000000598, -0.335293756440806 
2.390000000000619, -0.3345691175970624 
2.4000000000006403, -0.33408234014608457 
2.4100000000006614, -0.33383028096085016 
2.4200000000006825, -0.33383714978921775 
2.4300000000007036, -0.3341595463526022 
2.4400000000007247, -0.3348972478452585 
2.450000000000746, -0.336211649817974 
2.460000000000767, -0.3383538299963072 
2.470000000000788, -0.3417013582929992 
2.480000000000809, -0.34679064299875423 
2.49000000000083, -0.35429590504309494 
2.5000000000008513, -0.3648368318975476 
2.5100000000008724, -0.37846547555551546 
2.5200000000008935, -0.3939739584817279 
2.5300000000009146, -0.4088887349720494 
2.5400000000009357, -0.420848552800097 
2.550000000000957, -0.42905947883822143 
2.560000000000978, -0.43416444859820585 
2.570000000000999, -0.4372151235012482 
2.58000000000102, -0.43903944139618883 
2.5900000000010412, -0.44014478542695235 
2.6000000000010624, -0.4408134154511347 
2.6100000000010835, -0.44119840870628435 
2.6200000000011046, -0.44138232008953765 
2.6300000000011257, -0.44140805177537307 
2.6400000000011468, -0.44129466767492465 
2.650000000001168, -0.44104639850820904 
2.660000000001189, -0.44065977076937984 
2.67000000000121, -0.44013181690357595 
2.680000000001231, -0.43947010020957133 
2.6900000000012523, -0.438701789438113 
2.7000000000012734, -0.4378758835127673 
2.7100000000012945, -0.4370542227294935 
2.7200000000013156, -0.4362942671565486 
2.7300000000013367, -0.43563297836533127 
2.740000000001358, -0.43507964409339095 
2.750000000001379, -0.43461891309094397 
2.7600000000014, -0.43422048831383203 
2.770000000001421, -0.4338506158351388 
2.780000000001442, -0.4334811568821843 
2.7900000000014633, -0.43309401349955046 
2.8000000000014844, -0.43268137176255034 
2.8100000000015055, -0.43224404859831383 
2.8200000000015266, -0.4317903754325883 
2.8300000000015477, -0.43133728996799264 
2.840000000001569, -0.4309147122994067 
2.85000000000159, -0.43057416519812797 
2.860000000001611, -0.43040232657882393 
2.870000000001632, -0.43053772968402787 
2.8800000000016532, -0.4311787933228918 
2.8900000000016743, -0.4325426630849428 
2.9000000000016954, -0.43468016676852556 
2.9100000000017165, -0.4370426326730807 
2.9200000000017377, -0.4380222633873159 
2.9300000000017588, -0.43546345321196844 
2.94000000000178, -0.42868201649051096 
2.950000000001801, -0.4196023281511292 
2.960000000001822, -0.4109840522182184 
2.970000000001843, -0.40435325995811544 
2.9800000000018643, -0.3998535083059766 
2.9900000000018854, -0.3970148514515447 
3.0000000000019065, -0.39530175020335917 
3.0100000000019276, -0.39430154076032375 
3.0200000000019487, -0.3937384122049923 
3.03000000000197, -0.393439478139251 
3.040000000001991, -0.3932999022851482 
3.050000000002012, -0.3932577580218261 
3.060000000002033, -0.39327817308377155 
3.070000000002054, -0.39334427700475294 
3.0800000000020753, -0.39345279580574377 
3.0900000000020964, -0.3936126115749596 
3.1000000000021175, -0.3938446293280027 
3.1100000000021386, -0.3941809362960565 
3.1200000000021597, -0.3946609769364148 
3.130000000002181, -0.3953228412983568 
3.140000000002202, -0.3961890545295751 
3.150000000002223, -0.3972489592185391 
3.160000000002244, -0.3984447497327264 
3.1700000000022652, -0.3996731433851431 
3.1800000000022863, -0.4008106529411665 
3.1900000000023074, -0.4017526446970911 
3.2000000000023285, -0.4024414110611964 
3.2100000000023496, -0.402867446705235 
3.2200000000023707, -0.4030506494358363 
3.230000000002392, -0.40301781391894353 
3.240000000002413, -0.4027859679382038 
3.250000000002434, -0.4023516524190941 
3.260000000002455, -0.40168191938704095 
3.2700000000024763, -0.40070255686934225 
3.2800000000024974, -0.399280844391951 
3.2900000000025185, -0.3972055987901181 
3.3000000000025396, -0.3941823650063164 
3.3100000000025607, -0.3898893936513391 
3.3200000000025818, -0.38414957024211077 
3.330000000002603, -0.3771757288315556 
3.340000000002624, -0.3696510514493542 
3.350000000002645, -0.36244937590331905 
3.360000000002666, -0.35621674777008827 
3.3700000000026873, -0.3511929949271347 
3.3800000000027084, -0.3473106871915974 
3.3900000000027295, -0.34436926579759586 
3.4000000000027506, -0.3421532236431165 
3.4100000000027717, -0.34048251545256053 
3.420000000002793, -0.3392238890186968 
3.430000000002814, -0.3382868595406586 
3.440000000002835, -0.3376163502547414 
3.450000000002856, -0.3371868038874252 
3.460000000002877, -0.33699943206401356 
3.4700000000028983, -0.33708330334150904 
3.4800000000029194, -0.33750101265650034 
3.4900000000029405, -0.3383601679726835 
3.5000000000029616, -0.33983245273066903 
3.5100000000029827, -0.3421816474964271 
3.520000000003004, -0.34579794450409057 
3.530000000003025, -0.3512208907190457 
3.540000000003046, -0.3590940253830807 
3.550000000003067, -0.3699297820086691 
3.5600000000030882, -0.3835723520249778 
3.5700000000031094, -0.3986102672098771 
3.5800000000031305, -0.41261807279711765 
3.5900000000031516, -0.4235810976668525 
3.6000000000031727, -0.43102355434829587 
3.6100000000031938, -0.43565540572435746 
3.620000000003215, -0.4384429352715123 
3.630000000003236, -0.4401190485700638 
3.640000000003257, -0.44113219458461217 
3.650000000003278, -0.4417348652308132 
3.6600000000032993, -0.44206569029208004 
3.6700000000033204, -0.44219947852225727 
3.6800000000033415, -0.44217400011591435 
3.6900000000033626, -0.4420041652644683 
3.7000000000033837, -0.4416907079043802 
3.710000000003405, -0.44122790359166164 
3.720000000003426, -0.4406130144565534 
3.730000000003447, -0.43985746701790884 
3.740000000003468, -0.4389956638426014 
3.750000000003489, -0.43808464719912993 
3.7600000000035103, -0.4371914096126829 
3.7700000000035314, -0.4363735512370382 
3.7800000000035525, -0.43566407455466305 
3.7900000000035736, -0.435067024839266 
3.8000000000035947, -0.43456320235790385 
3.810000000003616, -0.43412117189163 
3.820000000003637, -0.43370853877743487 
3.830000000003658, -0.43329987081623145 
3.840000000003679, -0.43287998319949594 
3.8500000000037002, -0.43244374788746376 
3.8600000000037213, -0.4319948377684869 
3.8700000000037424, -0.43154562985769546 
3.8800000000037635, -0.43111980509093595 
3.8900000000037847, -0.4307588558251754 
3.9000000000038058, -0.4305338324672274 
3.910000000003827, -0.4305634147909885 
3.920000000003848, -0.43103628746540934 
3.930000000003869, -0.4322231914875799 
3.94000000000389, -0.43442860583947435 
3.9500000000039113, -0.4377689526452377 
3.9600000000039324, -0.44167023037701725 
3.9700000000039535, -0.4443932268122559 
3.9800000000039746, -0.44370121058267753 
3.9900000000039957, -0.438966657031952 
4.000000000004016, -0.4320438473617146 
4.010000000003993, -0.42540276732913435 
4.02000000000397, -0.4203397998729721 
4.030000000003946, -0.4169662329254532 
4.040000000003923, -0.4148944153043341 
4.0500000000039, -0.41369048822010945 
4.0600000000038765, -0.4130238246044227 
4.070000000003853, -0.4126757462731824 
4.08000000000383, -0.4125107597842 
4.090000000003807, -0.41244771656001833 
4.100000000003783, -0.4124392320585688 
4.11000000000376, -0.41245890250469824 
4.120000000003737, -0.41249429944449006 
4.130000000003713, -0.41254398608889015 
4.14000000000369, -0.41261706171196755 
4.150000000003667, -0.41273352267583796 
4.1600000000036434, -0.4129232582205341 
4.17000000000362, -0.4132214988824914 
4.180000000003597, -0.4136596050004046 
4.1900000000035735, -0.4142520848183193 
4.20000000000355, -0.41498332935931276 
4.210000000003527, -0.415800588047214 
4.220000000003504, -0.4166208241355558 
4.23000000000348, -0.41735306646487735 
4.240000000003457, -0.4179255179978714 
4.250000000003434, -0.4183010175449082 
4.26000000000341, -0.4184740761512976 
4.270000000003387, -0.418456331626864 
4.280000000003364, -0.4182607262878517 
4.2900000000033405, -0.41788929392941637 
4.300000000003317, -0.4173235492932421 
4.310000000003294, -0.41651359214985834 
4.320000000003271, -0.4153610519211843 
4.330000000003247, -0.41369100287491883 
4.340000000003224, -0.4112120739600945 
4.350000000003201, -0.4074834999214188 
4.360000000003177, -0.40195944611732476 
4.370000000003154, -0.39423540682207603 
4.380000000003131, -0.3845007884413883 
4.390000000003107, -0.3737886755290771 
4.400000000003084, -0.36353898207181345 
4.410000000003061, -0.3548178512197492 
4.4200000000030375, -0.3479804625146884 
4.430000000003014, -0.34286924781202865 
4.440000000002991, -0.3391325052871461 
4.450000000002968, -0.336419704501608 
4.460000000002944, -0.3344517443957679 
4.470000000002921, -0.3330281574973323 
4.480000000002898, -0.33201377706944385 
4.490000000002874, -0.3313232612691386 
4.500000000002851, -0.330909296910831 
4.510000000002828, -0.3307555816013611 
4.520000000002804, -0.33087445026328466 
4.530000000002781, -0.33130906855715214 
4.540000000002758, -0.3321405586152245 
4.5500000000027345, -0.3335007740614678 
4.560000000002711, -0.3355909748703988 
4.570000000002688, -0.3387034693470448 
4.580000000002665, -0.34323282589446885 
4.590000000002641, -0.34963802526200755 
4.600000000002618, -0.35827873626505063 
4.610000000002595, -0.3690586550681909 
4.620000000002571, -0.38102730522747363 
4.630000000002548, -0.39247643811672756 
4.640000000002525, -0.4018276550510181 
4.6500000000025015, -0.40849444474809704 
4.660000000002478, -0.41282564517296044 
4.670000000002455, -0.4155043604184837 
4.6800000000024315, -0.41712618966121173 
4.690000000002408, -0.4180912886589391 
4.700000000002385, -0.41863972862271626 
4.710000000002362, -0.4189079596227776 
4.720000000002338, -0.4189697469140324 
4.730000000002315, -0.41886054221854635 
4.740000000002292, -0.41859158611266495 
4.750000000002268, -0.41815957743988086 
4.760000000002245, -0.4175563292355367 
4.770000000002222, -0.41678090649035565 
4.7800000000021985, -0.4158529703523435 
4.790000000002175, -0.4148209022835127 
4.800000000002152, -0.4137567816128203 
4.810000000002129, -0.41273756671131034 
4.820000000002105, -0.4118227120380227 
4.830000000002082, -0.411040659743108 
4.840000000002059, -0.4103885428549465 
4.850000000002035, -0.40984127650492325 
4.860000000002012, -0.4093639787324249 
