t, s[1].omega / s[0].omega 
0, -0.5899977312055997 
0.009999999999999995, -0.5897838852756008 
0.019999999999999934, -0.5895876188311203 
0.029999999999999874, -0.5893880095526429 
0.04000000000000012, -0.589160240355022 
0.050000000000000405, -0.5888846816093316 
0.06000000000000069, -0.5885521507089273 
0.07000000000000098, -0.5881646551523125 
0.08000000000000126, -0.5877339957937636 
0.09000000000000155, -0.5872813162684455 
0.10000000000000184, -0.5868397744199834 
0.11000000000000212, -0.5864616096838604 
0.12000000000000241, -0.5862306709073689 
0.130000000000002, -0.586281657102185 
0.1400000000000009, -0.5868271336621422 
0.1499999999999998, -0.5881914650059022 
0.1599999999999987, -0.5908443590400227 
0.1699999999999976, -0.5954104801905447 
0.1799999999999965, -0.6026001336140422 
0.1899999999999954, -0.6129717251721315 
0.1999999999999943, -0.6264768911503614 
0.2099999999999932, -0.641996406951284 
0.2199999999999921, -0.6574388692000284 
0.229999999999991, -0.6707039824926391 
0.2399999999999899, -0.6807286226806818 
0.2499999999999888, -0.68762607199314 
0.2599999999999877, -0.6921028062525998 
0.2699999999999866, -0.6949116342863941 
0.2799999999999855, -0.6966282472047094 
0.2899999999999844, -0.6976349982741226 
0.2999999999999833, -0.6981681358977136 
0.3099999999999822, -0.6983646810628665 
0.3199999999999811, -0.6982938610711148 
0.32999999999998, -0.6979737960484097 
0.3399999999999789, -0.6973766685673021 
0.3499999999999778, -0.6964253094954864 
0.35999999999997667, -0.6949853712095219 
0.36999999999997557, -0.6928628476994219 
0.37999999999997447, -0.6898272812369852 
0.38999999999997337, -0.6856867371659027 
0.39999999999997227, -0.6804137979765237 
0.40999999999997117, -0.6742503406080684 
0.41999999999997006, -0.6676806026370825 
0.42999999999996896, -0.6612601726368339 
0.43999999999996786, -0.655429525326316 
0.44999999999996676, -0.6504320573670032 
0.45999999999996566, -0.6463372859847015 
0.46999999999996456, -0.6431046823518434 
0.47999999999996346, -0.6406399497331742 
0.48999999999996235, -0.6388299798074777 
0.49999999999996125, -0.6375606967180416 
0.5099999999999602, -0.6367253004460645 
0.519999999999959, -0.6362281531565323 
0.529999999999958, -0.6359867956218043 
0.5399999999999568, -0.635932879004135 
0.5499999999999557, -0.636012175444238 
0.5599999999999546, -0.6361838546107372 
0.5699999999999535, -0.6364194019975937 
0.5799999999999524, -0.6367015357918193 
0.5899999999999513, -0.6370230530130254 
0.5999999999999502, -0.6373847923815015 
0.6099999999999491, -0.6377913963966828 
0.619999999999948, -0.6382441723468277 
0.6299999999999469, -0.6387324929171407 
0.6399999999999458, -0.6392278349548499 
0.6499999999999447, -0.6396853513485513 
0.6599999999999436, -0.6400545598749381 
0.6699999999999425, -0.6402942770286615 
0.6799999999999414, -0.640383089054725 
0.6899999999999403, -0.6403202393566435 
0.6999999999999392, -0.6401192428267255 
0.7099999999999381, -0.6398003347153453 
0.719999999999937, -0.6393864232192998 
0.7299999999999359, -0.638904406488368 
0.7399999999999348, -0.6383925366217756 
0.7499999999999337, -0.6379151066506279 
0.7599999999999326, -0.6375869794561201 
0.7699999999999315, -0.6376109393829297 
0.7799999999999304, -0.6383281129010361 
0.7899999999999293, -0.6402707604433643 
0.7999999999999282, -0.6441791711062994 
0.8099999999999271, -0.6508960567060067 
0.819999999999926, -0.6610194002778432 
0.8299999999999249, -0.6743172758002324 
0.8399999999999238, -0.6893170385940375 
0.8499999999999227, -0.7037468864967582 
0.8599999999999216, -0.7157364444521881 
0.8699999999999205, -0.7246167323834366 
0.8799999999999194, -0.7307084954714218 
0.8899999999999183, -0.7347008478126711 
0.8999999999999172, -0.7372430764367243 
0.9099999999999161, -0.7388175374735483 
0.919999999999915, -0.7397470077384816 
0.9299999999999139, -0.7402346806414524 
0.9399999999999128, -0.7403997780186032 
0.9499999999999117, -0.7403009785853254 
0.9599999999999106, -0.7399481829133021 
0.9699999999999095, -0.739304318106299 
0.9799999999999084, -0.7382788851177381 
0.9899999999999073, -0.7367168256592557 
0.9999999999999062, -0.7343930301326884 
1.0099999999999052, -0.7310356409958327 
1.019999999999904, -0.7264096540927258 
1.029999999999903, -0.7204637125401345 
1.039999999999902, -0.7134596923997618 
1.0499999999999008, -0.7059534439999309 
1.0599999999998997, -0.6986021757365151 
1.0699999999998986, -0.6919421254120772 
1.0799999999998975, -0.6862810236072818 
1.0899999999998964, -0.6817147037832587 
1.0999999999998953, -0.6781968209869005 
1.1099999999998942, -0.6756050709266088 
1.119999999999893, -0.673785929373613 
1.129999999999892, -0.672580968384941 
1.1399999999998909, -0.6718418777237407 
1.1499999999998898, -0.6714389296681301 
1.1599999999998887, -0.6712649794790011 
1.1699999999998876, -0.6712359443500725 
1.1799999999998865, -0.6712887059112418 
1.1899999999998854, -0.6713777100573404 
1.1999999999998843, -0.6714716258044703 
1.2099999999998832, -0.6715510519061934 
1.219999999999882, -0.671607382980669 
1.229999999999881, -0.6716417462603768 
1.2399999999998799, -0.6716621268586505 
1.2499999999998788, -0.6716775353987032 
1.2599999999998777, -0.6716905446862085 
1.2699999999998766, -0.6716919599683762 
1.2799999999998755, -0.6716613035630499 
1.2899999999998744, -0.6715735347162497 
1.2999999999998733, -0.6714082581946038 
1.3099999999998722, -0.6711562876283617 
1.319999999999871, -0.6708212062773288 
1.32999999999987, -0.6704176540003834 
1.3399999999998689, -0.6699698752439663 
1.3499999999998678, -0.6695132426068244 
1.3599999999998666, -0.6690999103291975 
1.3699999999998655, -0.6688086785915096 
1.3799999999998644, -0.6687584342697281 
1.3899999999998633, -0.6691235600739709 
1.3999999999998622, -0.6701480175113217 
1.4099999999998611, -0.6721520999280223 
1.41999999999986, -0.6755215599491697 
1.429999999999859, -0.680662247290473 
1.4399999999998578, -0.6878966717882361 
1.4499999999998567, -0.6972856488279101 
1.4599999999998556, -0.7084109333832516 
1.4699999999998545, -0.7202700637566823 
1.4799999999998534, -0.7314984028871664 
1.4899999999998523, -0.7409127109070389 
1.4999999999998512, -0.7479774606374271 
1.5099999999998501, -0.7528233439266376 
1.519999999999849, -0.7559297592603429 
1.529999999999848, -0.7578137159324236 
1.5399999999998468, -0.7588820711118094 
1.5499999999998457, -0.7594081363565953 
1.5599999999998446, -0.7595562282136079 
1.5699999999998435, -0.7594106702207599 
1.5799999999998424, -0.75899451384248 
1.5899999999998413, -0.7582751445899455 
1.5999999999998402, -0.7571562491192948 
1.6099999999998391, -0.7554548317748376 
1.619999999999838, -0.752862666153966 
1.629999999999837, -0.7489008326640856 
1.6399999999998358, -0.7429072295517432 
1.6499999999998347, -0.7341573158700476 
1.6599999999998336, -0.7222437511003796 
1.6699999999998325, -0.7076371421354478 
1.6799999999998314, -0.6919106184801451 
1.6899999999998303, -0.6771438357087408 
1.6999999999998292, -0.6649241905365391 
1.709999999999828, -0.6558370146784984 
1.719999999999827, -0.64964654486847 
1.729999999999826, -0.6457331046052499 
1.7399999999998248, -0.6434278853259916 
1.7499999999998237, -0.6421713025260715 
1.7599999999998226, -0.6415522625988207 
1.7699999999998215, -0.6412923950904205 
1.7799999999998204, -0.6412134818862703 
1.7899999999998193, -0.6412054389885518 
1.7999999999998182, -0.6412008577805763 
1.809999999999817, -0.64115706502427 
1.819999999999816, -0.6410449565281826 
1.8299999999998149, -0.6408436712783085 
1.8399999999998138, -0.6405402490138983 
1.8499999999998127, -0.640132760456822 
1.8599999999998116, -0.6396337604418927 
1.8699999999998105, -0.6390697630872785 
1.8799999999998094, -0.6384743067343737 
1.8899999999998083, -0.637877041804531 
1.8999999999998072, -0.6372948725013463 
1.909999999999806, -0.6367298701424913 
1.919999999999805, -0.6361740355459542 
1.9299999999998039, -0.6356172365048013 
1.9399999999998028, -0.6350541423401521 
1.9499999999998017, -0.6344881674571189 
1.9599999999998006, -0.6339330750229708 
1.9699999999997995, -0.6334141003424388 
1.9799999999997984, -0.6329700798262721 
1.9899999999997973, -0.6326570804556421 
1.9999999999997962, -0.6325531960467721 
2.0099999999998173, -0.6327636999367467 
2.0199999999998384, -0.6334254976902642 
2.0299999999998595, -0.6347095585047999 
2.0399999999998806, -0.6368192329297566 
2.0499999999999017, -0.6399802469214712 
2.059999999999923, -0.6444139150334192 
2.069999999999944, -0.6502799046680318 
2.079999999999965, -0.6575764184278632 
2.089999999999986, -0.6660125827059019 
2.100000000000007, -0.6749338057418138 
2.1100000000000283, -0.6834323073896644 
2.1200000000000494, -0.6906727208899005 
2.1300000000000705, -0.696218813244881 
2.1400000000000916, -0.7000992064161848 
2.1500000000001127, -0.7026237612150957 
2.160000000000134, -0.7041629910441187 
2.170000000000155, -0.7050244228104258 
2.180000000000176, -0.7054209649773664 
2.190000000000197, -0.7054814634218302 
2.2000000000002182, -0.7052689469203767 
2.2100000000002393, -0.7047924711711213 
2.2200000000002604, -0.7040083765305237 
2.2300000000002815, -0.7028092179807501 
2.2400000000003026, -0.7009986139497612 
2.2500000000003237, -0.6982527992806844 
2.260000000000345, -0.6940835081323345 
2.270000000000366, -0.6878552325395381 
2.280000000000387, -0.6789650307028635 
2.290000000000408, -0.6672611103313045 
2.3000000000004293, -0.653489693060681 
2.3100000000004504, -0.6392423359554099 
2.3200000000004715, -0.6262400147251677 
2.3300000000004926, -0.6155827233504266 
2.3400000000005137, -0.607556352769708 
2.3500000000005348, -0.6018919964675037 
2.360000000000556, -0.5980980440669963 
2.370000000000577, -0.5956731531709554 
2.380000000000598, -0.5941969980672616 
2.390000000000619, -0.5933501842360158 
2.4000000000006403, -0.5929039294949285 
2.4100000000006614, -0.5927007874741793 
2.4200000000006825, -0.5926354411107948 
2.4300000000007036, -0.5926387483871353 
2.4400000000007247, -0.5926658306564858 
2.450000000000746, -0.5926881416894588 
2.460000000000767, -0.5926891431317812 
2.470000000000788, -0.5926628390028887 
2.480000000000809, -0.592613660840377 
2.49000000000083, -0.5925553249034314 
2.5000000000008513, -0.5925063902539879 
2.5100000000008724, -0.5924822698151122 
2.5200000000008935, -0.5924865435851088 
2.5300000000009146, -0.5925061770713109 
2.5400000000009357, -0.5925139474281842 
2.550000000000957, -0.5924774235044129 
2.560000000000978, -0.5923697142806374 
2.570000000000999, -0.592176360911516 
2.58000000000102, -0.5918962021211784 
2.5900000000010412, -0.5915384326465264 
2.6000000000010624, -0.591119740190724 
2.6100000000010835, -0.5906644288986767 
2.6200000000011046, -0.5902090808182391 
2.6300000000011257, -0.5898129348418844 
2.6400000000011468, -0.5895756703687283 
2.650000000001168, -0.5896648585761779 
2.660000000001189, -0.5903546019246542 
2.67000000000121, -0.592071887599206 
2.680000000001231, -0.5954317383930792 
2.6900000000012523, -0.6012073847396878 
2.7000000000012734, -0.6101313810563103 
2.7100000000012945, -0.6224301556463094 
2.7200000000013156, -0.6372402883322754 
2.7300000000013367, -0.6525282351171672 
2.740000000001358, -0.6660217192792579 
2.750000000001379, -0.6764295046871494 
2.7600000000014, -0.683725713949837 
2.770000000001421, -0.6885634887157522 
2.780000000001442, -0.69168013023464 
2.7900000000014633, -0.6936502476537338 
2.8000000000014844, -0.6948629571278693 
2.8100000000015055, -0.6955658980129679 
2.8200000000015266, -0.6959098016973638 
2.8300000000015477, -0.695979128088013 
2.840000000001569, -0.695809658512474 
2.85000000000159, -0.69539613714398 
2.860000000001611, -0.6946926519076835 
2.870000000001632, -0.6936090138376356 
2.8800000000016532, -0.6920097416899409 
2.8900000000016743, -0.6897288271357576 
2.9000000000016954, -0.6866177311800844 
2.9100000000017165, -0.6826296602843281 
2.9200000000017377, -0.6778994940278342 
2.9300000000017588, -0.6727458911174008 
2.94000000000178, -0.6675702348753558 
2.950000000001801, -0.6627231772079478 
2.960000000001822, -0.6584280893129384 
2.970000000001843, -0.6547806264591227 
2.9800000000018643, -0.6517874286189487 
2.9900000000018854, -0.6494066481700251 
3.0000000000019065, -0.647575187085841 
3.0100000000019276, -0.6462229573762887 
3.0200000000019487, -0.645279252953808 
3.03000000000197, -0.6446756951438617 
3.040000000001991, -0.6443482412937827 
3.050000000002012, -0.6442390942158409 
3.060000000002033, -0.6442984435780935 
3.070000000002054, -0.6444857402278849 
3.0800000000020753, -0.6447703673264167 
3.0900000000020964, -0.6451317624124524 
3.1000000000021175, -0.6455589468450751 
3.1100000000021386, -0.646048939649557 
3.1200000000021597, -0.6466030044281053 
3.130000000002181, -0.647219890836535 
3.140000000002202, -0.6478869129253471 
3.150000000002223, -0.6485725241658773 
3.160000000002244, -0.6492259366365594 
3.1700000000022652, -0.6497871951593697 
3.1800000000022863, -0.6502041872494574 
3.1900000000023074, -0.650446781959892 
3.2000000000023285, -0.6505101466014431 
3.2100000000023496, -0.6504079671058316 
3.2200000000023707, -0.6501624800426609 
3.230000000002392, -0.64979753384042 
3.240000000002413, -0.6493372493203938 
3.250000000002434, -0.6488107335149211 
3.260000000002455, -0.6482635701581864 
3.2700000000024763, -0.6477783092554026 
3.2800000000024974, -0.6475074779060654 
3.2900000000025185, -0.6477217087551291 
3.3000000000025396, -0.648868137083992 
3.3100000000025607, -0.6516120486541943 
3.3200000000025818, -0.6567895367166228 
3.330000000002603, -0.6651491370891318 
3.340000000002624, -0.6768161032489675 
3.350000000002645, -0.6907518271649846 
3.360000000002666, -0.7048901791188085 
3.3700000000026873, -0.7171892142930276 
3.3800000000027084, -0.7266376529982612 
3.3900000000027295, -0.7333024969425089 
3.4000000000027506, -0.7377669088198485 
3.4100000000027717, -0.7406641807122699 
3.420000000002793, -0.7424952635490154 
3.430000000002814, -0.7436090167107251 
3.440000000002835, -0.7442325718157218 
3.450000000002856, -0.7445049571713274 
3.460000000002877, -0.7445015218024348 
3.4700000000028983, -0.7442478162784979 
3.4800000000029194, -0.7437239546098252 
3.4900000000029405, -0.7428607094514617 
3.5000000000029616, -0.7415297277028601 
3.5100000000029827, -0.7395350337907882 
3.520000000003004, -0.7366236531275241 
3.530000000003025, -0.7325446737009812 
3.540000000003046, -0.7271738839735781 
3.550000000003067, -0.7206561066821681 
3.5600000000030882, -0.7134440437911845 
3.5700000000031094, -0.7061612557828079 
3.5800000000031305, -0.6993816267621863 
3.5900000000031516, -0.6934827480600669 
3.6000000000031727, -0.6886264489223508 
3.6100000000031938, -0.6848139410456991 
3.620000000003215, -0.6819521676226872 
3.630000000003236, -0.6799031078701596 
3.640000000003257, -0.6785142513614478 
3.650000000003278, -0.6776366026259778 
3.6600000000032993, -0.677135466044563 
3.6700000000033204, -0.676896473877078 
3.6800000000033415, -0.6768277665530743 
3.6900000000033626, -0.6768590627015999 
3.7000000000033837, -0.6769387692074836 
3.710000000003405, -0.6770305613607 
3.720000000003426, -0.6771106815852637 
3.730000000003447, -0.6771664856989595 
3.740000000003468, -0.6771955972274244 
3.750000000003489, -0.6772039395117924 
3.7600000000035103, -0.6772010027054629 
3.7700000000035314, -0.6771926879581263 
3.7800000000035525, -0.6771748260535942 
3.7900000000035736, -0.6771314256022174 
3.8000000000035947, -0.6770393841963641 
3.810000000003616, -0.6768771929621082 
3.820000000003637, -0.6766326151306737 
3.830000000003658, -0.6763058588791897 
3.840000000003679, -0.6759087677195825 
3.8500000000037002, -0.6754632095840132 
3.8600000000037213, -0.6750016923993509 
3.8700000000037424, -0.6745717168462615 
3.8800000000037635, -0.6742440645601343 
3.8900000000037847, -0.6741243550953679 
3.9000000000038058, -0.6743663031253907 
3.910000000003827, -0.6751837733369562 
3.920000000003848, -0.6768568136940618 
3.930000000003869, -0.6797240616961578 
3.94000000000389, -0.6841495720931605 
3.9500000000039113, -0.6904465958120425 
3.9600000000039324, -0.6987413540397209 
3.9700000000039535, -0.708788628812951 
3.9800000000039746, -0.7198331144172834 
3.9900000000039957, -0.7306981101332182 
4.000000000004016, -0.7401926388445784 
4.010000000003993, -0.7475980433657987 
4.02000000000397, -0.7528397936319825 
4.030000000003946, -0.7562795189195957 
4.040000000003923, -0.7584044243893895 
4.0500000000039, -0.7596353802697532 
4.0600000000038765, -0.7602704002085205 
4.070000000003853, -0.7604959231181457 
4.08000000000383, -0.7604137329311571 
4.090000000003807, -0.7600617013433041 
4.100000000003783, -0.759422652089334 
4.11000000000376, -0.7584202823039198 
4.120000000003737, -0.7569009121024408 
4.130000000003713, -0.7545994501677239 
4.14000000000369, -0.7510928289825214 
4.150000000003667, -0.7457655772538793 
4.1600000000036434, -0.7378650655405126 
4.17000000000362, -0.7267844355214145 
4.180000000003597, -0.7126206825236813 
4.1900000000035735, -0.696636379585841 
4.20000000000355, -0.680958952874643 
4.210000000003527, -0.6675438370174337 
4.220000000003504, -0.657353562866666 
4.23000000000348, -0.6503392740414442 
4.240000000003457, -0.6458946375479125 
4.250000000003434, -0.6432843418759024 
4.26000000000341, -0.6418706750610252 
4.270000000003387, -0.6411808280927639 
4.280000000003364, -0.6408956589455512 
4.2900000000033405, -0.6408129317743618 
4.300000000003317, -0.6408096867603971 
4.310000000003294, -0.6408122240342764 
4.320000000003271, -0.6407749957472387 
4.330000000003247, -0.6406673001119696 
4.340000000003224, -0.6404664430110858 
4.350000000003201, -0.6401563991607352 
4.360000000003177, -0.6397307873173277 
4.370000000003154, -0.6391975097343467 
4.380000000003131, -0.6385806008177699 
4.390000000003107, -0.6379154398662761 
4.400000000003084, -0.6372379971915929 
4.410000000003061, -0.6365738123151318 
4.4200000000030375, -0.6359328367700747 
4.430000000003014, -0.6353119625507593 
4.440000000002991, -0.6347023928863572 
4.450000000002968, -0.6340973953377472 
4.460000000002944, -0.633497523447886 
4.470000000002921, -0.6329130970327549 
4.480000000002898, -0.6323654596054784 
4.490000000002874, -0.6318886090650973 
4.500000000002851, -0.6315319462801999 
4.510000000002828, -0.6313640091027392 
4.520000000002804, -0.6314765343438693 
4.530000000002781, -0.6319879845793559 
4.540000000002758, -0.6330455804632245 
4.5500000000027345, -0.6348244900308025 
4.560000000002711, -0.637521445866944 
4.570000000002688, -0.6413368848508364 
4.580000000002665, -0.6464349299698283 
4.590000000002641, -0.6528684314261178 
4.600000000002618, -0.6604698845774842 
4.610000000002595, -0.6687557640208399 
4.620000000002571, -0.6769536308224879 
4.630000000002548, -0.684233948586054 
4.640000000002525, -0.6900368109173906 
4.6500000000025015, -0.6942364685022046 
4.660000000002478, -0.6970437327276855 
4.670000000002455, -0.698796986481663 
4.6800000000024315, -0.699809859557419 
4.690000000002408, -0.700313517171783 
4.700000000002385, -0.7004551696483706 
4.710000000002362, -0.7003136415970372 
4.720000000002338, -0.6999125551825985 
4.730000000002315, -0.6992244413418721 
4.740000000002292, -0.6981633960579846 
4.750000000002268, -0.6965642636218113 
4.760000000002245, -0.6941473207258452 
4.770000000002222, -0.6904761403959567 
4.7800000000021985, -0.6849457437935372 
4.790000000002175, -0.676894605667833 
4.800000000002152, -0.6659539755627668 
4.810000000002129, -0.6525500670445035 
4.820000000002105, -0.6380797613872431 
4.830000000002082, -0.6243596149758013 
4.840000000002059, -0.6127680582443142 
4.850000000002035, -0.6038401032925559 
4.860000000002012, -0.5974328568401626 
4.870000000001989, -0.5930808518946414 
4.880000000001965, -0.5902602806780574 
4.890000000001942, -0.5885146211232777 
4.900000000001919, -0.587490304648979 
4.9100000000018955, -0.5869312500093791 
4.920000000001872, -0.5866598807968793 
