t, s[1].omega / s[0].omega 
0, -0.9799964772536851 
0.009999999999999995, -0.979571161765061 
0.019999999999999934, -0.9789992514170128 
0.029999999999999874, -0.9782757670144139 
0.04000000000000012, -0.9773955447153971 
0.050000000000000405, -0.9763570217286108 
0.06000000000000069, -0.9751658484864888 
0.07000000000000098, -0.9738375873026486 
0.08000000000000126, -0.9723992335012352 
0.09000000000000155, -0.9708895908570744 
0.10000000000000184, -0.9693585011368969 
0.11000000000000212, -0.9678647238623395 
0.12000000000000241, -0.9664722161553624 
0.130000000000002, -0.9652449040087667 
0.1400000000000009, -0.9642406682185967 
0.1499999999999998, -0.9635057674210412 
0.1599999999999987, -0.9630708529490895 
0.1699999999999976, -0.9629490696512679 
0.1799999999999965, -0.9631359597215438 
0.1899999999999954, -0.9636105598702346 
0.1999999999999943, -0.9643373316272571 
0.2099999999999932, -0.9652689846883946 
0.2199999999999921, -0.9663503428906608 
0.229999999999991, -0.9675230523384475 
0.2399999999999899, -0.9687304742541217 
0.2499999999999888, -0.9699219365782318 
0.2599999999999877, -0.9710557257129468 
0.2699999999999866, -0.9721005576257119 
0.2799999999999855, -0.9730355198345553 
0.2899999999999844, -0.9738485744387783 
0.2999999999999833, -0.9745338066287969 
0.3099999999999822, -0.9750878424023454 
0.3199999999999811, -0.9755062125906364 
0.32999999999998, -0.9757806904461285 
0.3399999999999789, -0.9758985336091615 
0.3499999999999778, -0.9758440352507214 
0.35999999999997667, -0.9756019998016089 
0.36999999999997557, -0.9751620737576243 
0.37999999999997447, -0.9745226612945115 
0.38999999999997337, -0.9736935584686983 
0.39999999999997227, -0.9726971687826824 
0.40999999999997117, -0.971568714985984 
0.41999999999997006, -0.9703558899575295 
0.42999999999996896, -0.9691179376580934 
0.43999999999996786, -0.9679235988536626 
0.44999999999996676, -0.9668471652743136 
0.45999999999996566, -0.9659623561994304 
0.46999999999996456, -0.9653347512773871 
0.47999999999996346, -0.9650145018410498 
0.48999999999996235, -0.9650312689216355 
0.49999999999996125, -0.9653925234980464 
0.5099999999999602, -0.9660850050006987 
0.519999999999959, -0.9670781736878239 
0.529999999999958, -0.9683284222647044 
0.5399999999999568, -0.9697833766890832 
0.5499999999999557, -0.9713861635407777 
0.5599999999999546, -0.9730796370981254 
0.5699999999999535, -0.9748103285301297 
0.5799999999999524, -0.9765316452550308 
0.5899999999999513, -0.9782058333585113 
0.5999999999999502, -0.9798043942594477 
0.6099999999999491, -0.9813068923719448 
0.619999999999948, -0.9826983516295443 
0.6299999999999469, -0.9839657457876068 
0.6399999999999458, -0.9850944308399494 
0.6499999999999447, -0.9860656113131407 
0.6599999999999436, -0.9868558604710844 
0.6699999999999425, -0.987439185239559 
0.6799999999999414, -0.9877912323089932 
0.6899999999999403, -0.9878943608981927 
0.6999999999999392, -0.9877419809069232 
0.7099999999999381, -0.9873410418383876 
0.719999999999937, -0.9867125797361184 
0.7299999999999359, -0.9858911170851127 
0.7399999999999348, -0.9849239154235778 
0.7499999999999337, -0.9838705381941638 
0.7599999999999326, -0.9828022606918773 
0.7699999999999315, -0.9818001087796355 
0.7799999999999304, -0.9809502287660398 
0.7899999999999293, -0.9803361655096088 
0.7999999999999282, -0.9800292175098322 
0.8099999999999271, -0.9800794681138835 
0.819999999999926, -0.980510295689827 
0.8299999999999249, -0.9813178084251102 
0.8399999999999238, -0.9824745913866854 
0.8499999999999227, -0.9839357713411013 
0.8599999999999216, -0.9856453952940635 
0.8699999999999205, -0.9875420446231614 
0.8799999999999194, -0.9895635214619023 
0.8899999999999183, -0.9916507712753672 
0.8999999999999172, -0.9937510315021035 
0.9099999999999161, -0.9958199311740661 
0.919999999999915, -0.9978221988949314 
0.9299999999999139, -0.9997307939874285 
0.9399999999999128, -1.0015245657247314 
0.9499999999999117, -1.0031849015312047 
0.9599999999999106, -1.004692198057722 
0.9699999999999095, -1.0060232629447226 
0.9799999999999084, -1.0071507311542205 
0.9899999999999073, -1.008045088051404 
0.9999999999999062, -1.0086789738443667 
1.0099999999999052, -1.0090324739954315 
1.019999999999904, -1.0090976572544794 
1.029999999999903, -1.0088810755882558 
1.039999999999902, -1.0084040590057848 
1.0499999999999008, -1.0077016965873427 
1.0599999999998997, -1.0068217305387508 
1.0699999999998986, -1.0058240604152968 
1.0799999999998975, -1.0047805168632196 
1.0899999999998964, -1.0037735934723044 
1.0999999999998953, -1.0028925047707906 
1.1099999999998942, -1.0022256870897086 
1.119999999999893, -1.0018506014417092 
1.129999999999892, -1.001823561134451 
1.1399999999998909, -1.0021729487137478 
1.1499999999998898, -1.0028978950516163 
1.1599999999998887, -1.0039720467398787 
1.1699999999998876, -1.005350162865506 
1.1799999999998865, -1.0069750671602242 
1.1899999999998854, -1.0087835835040881 
1.1999999999998843, -1.0107113087348634 
1.2099999999998832, -1.0126965775064454 
1.219999999999882, -1.0146837690125687 
1.229999999999881, -1.0166257195536086 
1.2399999999998799, -1.018484853008737 
1.2499999999998788, -1.0202327787910397 
1.2599999999998777, -1.0218483950392774 
1.2699999999998766, -1.0233148689554215 
1.2799999999998755, -1.0246162097237048 
1.2899999999998744, -1.0257344272850617 
1.2999999999998733, -1.026648314293331 
1.3099999999998722, -1.0273345273781547 
1.319999999999871, -1.027770876573496 
1.32999999999987, -1.027940848517574 
1.3399999999998689, -1.027837886246944 
1.3499999999998678, -1.0274681936548975 
1.3599999999998666, -1.0268517094026495 
1.3699999999998655, -1.0260218153181335 
1.3799999999998644, -1.0250246903570672 
1.3899999999998633, -1.0239187953115299 
1.3999999999998622, -1.0227740780405143 
1.4099999999998611, -1.0216697126457996 
1.41999999999986, -1.0206891355541543 
1.429999999999859, -1.0199121356830176 
1.4399999999998578, -1.0194054556715582 
1.4499999999998567, -1.0192146866550873 
1.4599999999998556, -1.0193600511970646 
1.4699999999998545, -1.019836885790507 
1.4799999999998534, -1.0206195333277848 
1.4899999999998523, -1.0216664545497642 
1.4999999999998512, -1.0229250246717676 
1.5099999999998501, -1.0243357482945092 
1.519999999999849, -1.025836337729097 
1.529999999999848, -1.027365910689316 
1.5399999999998468, -1.028868981041324 
1.5499999999998457, -1.0302985876079518 
1.5599999999998446, -1.031618024169199 
1.5699999999998435, -1.0328009679173957 
1.5799999999998424, -1.0338300955644237 
1.5899999999998413, -1.034694488992608 
1.5999999999998402, -1.0353863639720857 
1.6099999999998391, -1.0358979208793395 
1.619999999999838, -1.036219261765081 
1.629999999999837, -1.0363381404794103 
1.6399999999998358, -1.0362417565454356 
1.6499999999998347, -1.035920068874406 
1.6599999999998336, -1.0353695731729753 
1.6699999999998325, -1.034596474326344 
1.6799999999998314, -1.0336186800921991 
1.6899999999998303, -1.0324666647204905 
1.6999999999998292, -1.031183533005446 
1.709999999999828, -1.0298243728476708 
1.719999999999827, -1.0284544639348439 
1.729999999999826, -1.0271456294626744 
1.7399999999998248, -1.025970415959957 
1.7499999999998237, -1.0249948342845756 
1.7599999999998226, -1.0242714312520254 
1.7699999999998215, -1.0238345886277282 
1.7799999999998204, -1.0236988775700102 
1.7899999999998193, -1.0238598087678474 
1.7999999999998182, -1.0242956136569072 
1.809999999999817, -1.0249692232968093 
1.819999999999816, -1.0258306659984617 
1.8299999999998149, -1.02682058374704 
1.8399999999998138, -1.027875072591411 
1.8499999999998127, -1.0289311559907661 
1.8599999999998116, -1.0299317413940916 
1.8699999999998105, -1.0308291734967474 
1.8799999999998094, -1.03158710305321 
1.8899999999998083, -1.0321808178719236 
1.8999999999998072, -1.0325962589948618 
1.909999999999806, -1.032827879315911 
1.919999999999805, -1.0328755868498616 
1.9299999999998039, -1.032741323842368 
1.9399999999998028, -1.0324261547540399 
1.9499999999998017, -1.0319287683176663 
1.9599999999998006, -1.0312459097886673 
1.9699999999997995, -1.0303746012001662 
1.9799999999997984, -1.0293154162452274 
1.9899999999997973, -1.0280758509913226 
1.9999999999997962, -1.0266730286462704 
2.0099999999998173, -1.0251353685836675 
2.0199999999998384, -1.0235031089234936 
2.0299999999998595, -1.0218275511555317 
2.0399999999998806, -1.0201687633987284 
2.0499999999999017, -1.018591576188737 
2.059999999999923, -1.0171602079923348 
2.069999999999944, -1.015932517240275 
2.079999999999965, -1.014955128219152 
2.089999999999986, -1.0142601683041337 
2.100000000000007, -1.0138634242336944 
2.1100000000000283, -1.0137632094741007 
2.1200000000000494, -1.0139396371897098 
2.1300000000000705, -1.0143548984837198 
2.1400000000000916, -1.0149555724767545 
2.1500000000001127, -1.0156773845602125 
2.160000000000134, -1.0164516270071955 
2.170000000000155, -1.017211656505081 
2.180000000000176, -1.0178980548708354 
2.190000000000197, -1.0184618857630645 
2.2000000000002182, -1.0188662701653488 
2.2100000000002393, -1.0190867540444482 
2.2200000000002604, -1.0191107050341168 
2.2300000000002815, -1.018935658530126 
2.2400000000003026, -1.0185665315051102 
2.2500000000003237, -1.0180120196266798 
2.260000000000345, -1.0172810125489777 
2.270000000000366, -1.0163800935436795 
2.280000000000387, -1.0153129173145865 
2.290000000000408, -1.0140816096084406 
2.3000000000004293, -1.0126896516361081 
2.3100000000004504, -1.0111453278097842 
2.3200000000004715, -1.0094648398880572 
2.3300000000004926, -1.0076744810793348 
2.3400000000005137, -1.005811554844636 
2.3500000000005348, -1.0039238545119487 
2.360000000000556, -1.0020675664116436 
2.370000000000577, -1.0003036340785199 
2.380000000000598, -0.9986930150554075 
2.390000000000619, -0.9972916642701676 
2.4000000000006403, -0.9961461121231908 
2.4100000000006614, -0.9952900358436121 
2.4200000000006825, -0.9947416207991218 
2.4300000000007036, -0.9945013798352711 
2.4400000000007247, -0.994550645274756 
2.450000000000746, -0.9948516488814655 
2.460000000000767, -0.9953501542944261 
2.470000000000788, -0.9959807336163482 
2.480000000000809, -0.9966735827486688 
2.49000000000083, -0.9973611627078364 
2.5000000000008513, -0.9979833165560215 
2.5100000000008724, -0.9984904338506531 
2.5200000000008935, -0.9988449991674277 
2.5300000000009146, -0.9990220488824075 
2.5400000000009357, -0.9990087594288535 
2.550000000000957, -0.9988030142667638 
2.560000000000978, -0.9984107521237657 
2.570000000000999, -0.997842299684198 
2.58000000000102, -0.9971084774417337 
2.5900000000010412, -0.99621760327246 
2.6000000000010624, -0.9951743333766836 
2.6100000000010835, -0.9939806527876739 
2.6200000000011046, -0.9926385932716928 
2.6300000000011257, -0.9911537707368766 
2.6400000000011468, -0.9895387697528661 
2.650000000001168, -0.9878156726253131 
2.660000000001189, -0.9860173749022964 
2.67000000000121, -0.9841875249986055 
2.680000000001231, -0.9823789635405351 
2.6900000000012523, -0.980650607777229 
2.7000000000012734, -0.9790630067430718 
2.7100000000012945, -0.9776732235256141 
2.7200000000013156, -0.9765299679660961 
2.7300000000013367, -0.9756697194471312 
2.740000000001358, -0.9751140314171914 
2.750000000001379, -0.9748677663337583 
2.7600000000014, -0.9749180880735895 
2.770000000001421, -0.9752345385441322 
2.780000000001442, -0.97577087063352 
2.7900000000014633, -0.9764690119151328 
2.8000000000014844, -0.9772647053214362 
2.8100000000015055, -0.9780936403410597 
2.8200000000015266, -0.9788967907933082 
2.8300000000015477, -0.9796241970500094 
2.840000000001569, -0.9802371022085262 
2.85000000000159, -0.9807087150073067 
2.860000000001611, -0.9810238225561256 
2.870000000001632, -0.9811772578194285 
2.8800000000016532, -0.9811711855989202 
2.8900000000016743, -0.981011468164891 
2.9000000000016954, -0.9807038538052804 
2.9100000000017165, -0.9802510472031872 
2.9200000000017377, -0.9796515954217888 
2.9300000000017588, -0.97890095838232 
2.94000000000178, -0.977994391725495 
2.950000000001801, -0.9769307133462413 
2.960000000001822, -0.9757159055777401 
2.970000000001843, -0.9743658143846358 
2.9800000000018643, -0.9729076740362156 
2.9900000000018854, -0.9713804745555831 
3.0000000000019065, -0.9698341593026378 
3.0100000000019276, -0.9683274505464656 
3.0200000000019487, -0.966924075598051 
3.03000000000197, -0.9656875214294431 
3.040000000001991, -0.9646750685038596 
3.050000000002012, -0.9639323187227725 
3.060000000002033, -0.9634893245673523 
3.070000000002054, -0.9633587541390418 
3.0800000000020753, -0.9635357814026706 
3.0900000000020964, -0.9639991174844482 
3.1000000000021175, -0.9647128811597832 
3.1100000000021386, -0.9656294145754588 
3.1200000000021597, -0.9666931962802635 
3.130000000002181, -0.9678456156266477 
3.140000000002202, -0.969029910266711 
3.150000000002223, -0.9701954234142101 
3.160000000002244, -0.9713005728894222 
3.1700000000022652, -0.9723142938828884 
3.1800000000022863, -0.9732159634897819 
3.1900000000023074, -0.9739938999464861 
3.2000000000023285, -0.9746426138949794 
3.2100000000023496, -0.9751592266069756 
3.2200000000023707, -0.9755398269268346 
3.230000000002392, -0.9757767920441449 
3.240000000002413, -0.9758580016410046 
3.250000000002434, -0.9757683501667148 
3.260000000002455, -0.9754931776049145 
3.2700000000024763, -0.9750225615614602 
3.2800000000024974, -0.9743552157430788 
3.2900000000025185, -0.9735011365918218 
3.3000000000025396, -0.9724828528660137 
3.3100000000025607, -0.9713356695575226 
3.3200000000025818, -0.9701073202648215 
3.330000000002603, -0.96885700030713 
3.340000000002624, -0.9676532212635244 
3.350000000002645, -0.966569768626547 
3.360000000002666, -0.9656795370710172 
3.3700000000026873, -0.9650470282443949 
3.3800000000027084, -0.9647212344440412 
3.3900000000027295, -0.9647307918822752 
3.4000000000027506, -0.9650824424210224 
3.4100000000027717, -0.9657625343724789 
3.420000000002793, -0.9667404051006563 
3.430000000002814, -0.9679724761936513 
3.440000000002835, -0.9694064623218477 
3.450000000002856, -0.9709856035641701 
3.460000000002877, -0.9726529016756587 
3.4700000000028983, -0.974355090352682 
3.4800000000029194, -0.9760458442640678 
3.4900000000029405, -0.9776877362089341 
3.5000000000029616, -0.9792526423348618 
3.5100000000029827, -0.9807205409218229 
3.520000000003004, -0.9820769051802153 
3.530000000003025, -0.9833091923593376 
3.540000000003046, -0.9844032728763791 
3.550000000003067, -0.9853408862107768 
3.5600000000030882, -0.9860991388302073 
3.5700000000031094, -0.9866525328539861 
3.5800000000031305, -0.9869771268142671 
3.5900000000031516, -0.9870555679296747 
3.6000000000031727, -0.986881412538755 
3.6100000000031938, -0.9864616310467853 
3.620000000003215, -0.985817199759172 
3.630000000003236, -0.9849825541273454 
3.640000000003257, -0.9840048760107897 
3.650000000003278, -0.9829436500571808 
3.6600000000032993, -0.9818700184613973 
3.6700000000033204, -0.9808647310863635 
3.6800000000033415, -0.9800134341492418 
3.6900000000033626, -0.9793989290778738 
3.7000000000033837, -0.9790916080357795 
3.710000000003405, -0.979140652376914 
3.720000000003426, -0.9795687283796466 
3.730000000003447, -0.9803715412254708 
3.740000000003468, -0.9815215902809948 
3.750000000003489, -0.982974151592445 
3.7600000000035103, -0.9846735443951389 
3.7700000000035314, -0.9865586584612497 
3.7800000000035525, -0.9885675991782377 
3.7900000000035736, -0.9906416028846607 
3.8000000000035947, -0.9927281903152407 
3.810000000003616, -0.9947832680749072 
3.820000000003637, -0.996771831876765 
3.830000000003658, -0.9986670891176226 
3.840000000003679, -1.0004481092295499 
3.8500000000037002, -1.002096464851714 
3.8600000000037213, -1.0035926988447383 
3.8700000000037424, -1.0049137253985558 
3.8800000000037635, -1.0060322485982307 
3.8900000000037847, -1.006918789125242 
3.9000000000038058, -1.0075459921158285 
3.910000000003827, -1.0078939204267163 
3.920000000003848, -1.0079545962299583 
3.930000000003869, -1.007734506914044 
3.94000000000389, -1.00725490849204 
3.9500000000039113, -1.0065508156952143 
3.9600000000039324, -1.005669902334867 
3.9700000000039535, -1.004672007176568 
3.9800000000039746, -1.0036289061456685 
3.9900000000039957, -1.0026230444605746 
4.000000000004016, -1.0017436025146038 
4.010000000003993, -1.00107901342899 
4.02000000000397, -1.0007067835392522 
4.030000000003946, -1.000683324044749 
4.040000000003923, -1.0010371485347656 
4.0500000000039, -1.001767515161138 
4.0600000000038765, -1.002848159952767 
4.070000000003853, -1.0042338818615304 
4.08000000000383, -1.0058675092417717 
4.090000000003807, -1.0076858625171832 
4.100000000003783, -1.009624548721053 
4.11000000000376, -1.0116219321522304 
4.120000000003737, -1.013622431857086 
4.130000000003713, -1.0155789167865286 
4.14000000000369, -1.017453816472162 
4.150000000003667, -1.0192186989824168 
4.1600000000036434, -1.0208523547401696 
4.17000000000362, -1.0223377607820714 
4.180000000003597, -1.0236586463682484 
4.1900000000035735, -1.0247966597572458 
4.20000000000355, -1.0257301778717245 
4.210000000003527, -1.0264354337730832 
4.220000000003504, -1.02688986158926 
4.23000000000348, -1.0270766682377426 
4.240000000003457, -1.0269891375998588 
4.250000000003434, -1.0266334263259642 
4.26000000000341, -1.0260295014511356 
4.270000000003387, -1.0252108028608375 
4.280000000003364, -1.0242235647975142 
4.2900000000033405, -1.0231263014632892 
4.300000000003317, -1.0219890556832543 
4.310000000003294, -1.0208912146062465 
4.320000000003271, -1.0199166212474893 
4.330000000003247, -1.0191456867098716 
4.340000000003224, -1.0186459182055247 
4.350000000003201, -1.01846365291332 
4.360000000003177, -1.0186196620428842 
4.370000000003154, -1.0191095295954145 
4.380000000003131, -1.0199075668030477 
4.390000000003107, -1.0209720443744552 
4.400000000003084, -1.0222501298653845 
4.410000000003061, -1.0236821914067644 
4.4200000000030375, -1.0252058900843506 
4.430000000003014, -1.0267603415339708 
4.440000000002991, -1.0282900601608036 
4.450000000002968, -1.0297480551769895 
4.460000000002944, -1.0310975424808047 
4.470000000002921, -1.0323120589608212 
4.480000000002898, -1.0333740612331288 
4.490000000002874, -1.0342723135449952 
4.500000000002851, -1.0349986083288611 
4.510000000002828, -1.0355446285123677 
4.520000000002804, -1.0358999006633105 
4.530000000002781, -1.0360516022648185 
4.540000000002758, -1.0359864218150916 
4.5500000000027345, -1.0356939293425622 
4.560000000002711, -1.0351703824129994 
4.570000000002688, -1.0344218894280364 
4.580000000002665, -1.0334663636637986 
4.590000000002641, -1.0323343393891748 
4.600000000002618, -1.0310690090956578 
4.610000000002595, -1.0297255901777538 
4.620000000002571, -1.028369587360518 
4.630000000002548, -1.0270732075922913 
4.640000000002525, -1.0259095608238762 
4.6500000000025015, -1.0249453360273237 
4.660000000002478, -1.0242337261421541 
4.670000000002455, -1.02380956642042 
4.6800000000024315, -1.0236876084545088 
4.690000000002408, -1.0238633211886858 
4.700000000002385, -1.024314820133613 
4.710000000002362, -1.0250049969190485 
4.720000000002338, -1.0258839856398858 
4.730000000002315, -1.0268926468986306 
4.740000000002292, -1.027967320772438 
4.750000000002268, -1.029045222305655 
4.760000000002245, -1.0300693653846669 
4.770000000002222, -1.030992122117544 
4.7800000000021985, -1.0317771081846363 
4.790000000002175, -1.0323995170987266 
4.800000000002152, -1.0328451212668133 
4.810000000002129, -1.0331081085685048 
4.820000000002105, -1.0331880140497274 
4.830000000002082, -1.0330863104079253 
4.840000000002059, -1.0328035323706295 
4.850000000002035, -1.0323378325011008 
4.860000000002012, -1.0316854711319419 
4.870000000001989, -1.0308430833764157 
4.880000000001965, -1.029810977872947 
4.890000000001942, -1.0285965042396779 
4.900000000001919, -1.0272167343113212 
4.9100000000018955, -1.0257001034983895 
4.920000000001872, -1.024086918915171 
4.930000000001849, -1.0224286103679288 
