t, s[1].omega / s[0].omega 
0, -1.0799902324652877 
0.009999999999999995, -1.078905787931968 
0.019999999999999934, -1.0776085285899795 
0.029999999999999874, -1.076099084527575 
0.04000000000000012, -1.074378089140032 
0.050000000000000405, -1.0724462339259575 
0.06000000000000069, -1.0703043441178801 
0.07000000000000098, -1.0679534716764068 
0.08000000000000126, -1.0653950015619615 
0.09000000000000155, -1.062630766850156 
0.10000000000000184, -1.0596631681814506 
0.11000000000000212, -1.0564952932124694 
0.12000000000000241, -1.0531310321225975 
0.130000000000002, -1.0495751857653082 
0.1400000000000009, -1.0458335636695248 
0.1499999999999998, -1.0419130697214414 
0.1599999999999987, -1.0378217739280573 
0.1699999999999976, -1.0335689691316008 
0.1799999999999965, -1.0291652118802774 
0.1899999999999954, -1.0246223468593898 
0.1999999999999943, -1.0199535143637402 
0.2099999999999932, -1.0151731402821136 
0.2199999999999921, -1.0102969080152202 
0.229999999999991, -1.0053417117132653 
0.2399999999999899, -1.000325590249895 
0.2499999999999888, -0.9952676414877758 
0.2599999999999877, -0.9901879166643757 
0.2699999999999866, -0.9851072951417977 
0.2799999999999855, -0.980047340307884 
0.2899999999999844, -0.9750301380534481 
0.2999999999999833, -0.9700781199319679 
0.3099999999999822, -0.9652138737727876 
0.3199999999999811, -0.9604599451029109 
0.32999999999998, -0.9558386331767432 
0.3399999999999789, -0.9513717856707622 
0.3499999999999778, -0.9470805961422284 
0.35999999999997667, -0.942985408170703 
0.36999999999997557, -0.9391055297138523 
0.37999999999997447, -0.9354590606512194 
0.38999999999997337, -0.9320627358140116 
0.39999999999997227, -0.9289317850683183 
0.40999999999997117, -0.9260798112992418 
0.41999999999997006, -0.923518686495647 
0.42999999999996896, -0.9212584656103431 
0.43999999999996786, -0.919307317503896 
0.44999999999996676, -0.9176714720888336 
0.45999999999996566, -0.9163551827727071 
0.46999999999996456, -0.9153607034331444 
0.47999999999996346, -0.9146882794107205 
0.48999999999996235, -0.9143361523300817 
0.49999999999996125, -0.9143005789042609 
0.5099999999999602, -0.9145758641890271 
0.519999999999959, -0.9151544099847876 
0.529999999999958, -0.9160267791938479 
0.5399999999999568, -0.9171817769038996 
0.5499999999999557, -0.9186065487728153 
0.5599999999999546, -0.9202866969400296 
0.5699999999999535, -0.9222064132066623 
0.5799999999999524, -0.9243486286449412 
0.5899999999999513, -0.9266951781632871 
0.5999999999999502, -0.9292269779187678 
0.6099999999999491, -0.9319242128870163 
0.619999999999948, -0.9347665314205921 
0.6299999999999469, -0.9377332432900296 
0.6399999999999458, -0.9408035175341575 
0.6499999999999447, -0.9439565764578622 
0.6599999999999436, -0.9471718822995021 
0.6699999999999425, -0.9504293134233548 
0.6799999999999414, -0.9537093273384717 
0.6899999999999403, -0.9569931083585134 
0.6999999999999392, -0.9602626982487609 
0.7099999999999381, -0.9635011087099004 
0.719999999999937, -0.9666924149846271 
0.7299999999999359, -0.9698218302163222 
0.7399999999999348, -0.9728757604279998 
0.7499999999999337, -0.9758418401303809 
0.7599999999999326, -0.9787089486315028 
0.7699999999999315, -0.9814672071414958 
0.7799999999999304, -0.9841079567877428 
0.7899999999999293, -0.9866237177230232 
0.7999999999999282, -0.9890081296641553 
0.8099999999999271, -0.9912558744725151 
0.819999999999926, -0.9933625817967457 
0.8299999999999249, -0.9953247193391884 
0.8399999999999238, -0.9971394699576478 
0.8499999999999227, -0.998804598530816 
0.8599999999999216, -1.0003183122410777 
0.8699999999999205, -1.001679118594988 
0.8799999999999194, -1.002885686039123 
0.8899999999999183, -1.0039367123717735 
0.8999999999999172, -1.0048308062450482 
0.9099999999999161, -1.0055663868608085 
0.919999999999915, -1.0061416064720408 
0.9299999999999139, -1.006554299516524 
0.9399999999999128, -1.0068019611632228 
0.9499999999999117, -1.0068817567966004 
0.9599999999999106, -1.0067905625718059 
0.9699999999999095, -1.0065250357305568 
0.9799999999999084, -1.0060817119682495 
0.9899999999999073, -1.0054571258840919 
0.9999999999999062, -1.0046479495182474 
1.0099999999999052, -1.003651143259215 
1.019999999999904, -1.0024641130443757 
1.029999999999903, -1.0010848678010127 
1.039999999999902, -0.9995121714748532 
1.0499999999999008, -0.9977456847250452 
1.0599999999998997, -0.9957860923543519 
1.0699999999998986, -0.9936352136939305 
1.0799999999998975, -0.991296094363194 
1.0899999999998964, -0.9887730789660538 
1.0999999999998953, -0.9860718652659146 
1.1099999999998942, -0.983199541125432 
1.119999999999893, -0.9801646059546086 
1.129999999999892, -0.9769769785661181 
1.1399999999998909, -0.9736479932051173 
1.1499999999998898, -0.9701903851458032 
1.1599999999998887, -0.9666182666931034 
1.1699999999998876, -0.9629470937733385 
1.1799999999998865, -0.9591936226257614 
1.1899999999998854, -0.9553758554983006 
1.1999999999998843, -0.9515129737769674 
1.2099999999998832, -0.9476252566959703 
1.219999999999882, -0.943733983722708 
1.229999999999881, -0.9398613189056747 
1.2399999999998799, -0.9360301759093568 
1.2499999999998788, -0.9322640631129216 
1.2599999999998777, -0.9285869089745371 
1.2699999999998766, -0.9250228688010645 
1.2799999999998755, -0.9215961150439524 
1.2899999999998744, -0.9183306141922409 
1.2999999999998733, -0.9152498941804404 
1.3099999999998722, -0.9123768069083735 
1.319999999999871, -0.9097332909311314 
1.32999999999987, -0.9073401395869537 
1.3399999999998689, -0.9052167797761747 
1.3499999999998678, -0.9033810662928676 
1.3599999999998666, -0.9018490960692984 
1.3699999999998655, -0.9006350459644222 
1.3799999999998644, -0.899751036865881 
1.3899999999998633, -0.8992070259409033 
1.3999999999998622, -0.8990107279272661 
1.4099999999998611, -0.8991675654590262 
1.41999999999986, -0.8996806476231475 
1.429999999999859, -0.9005507752812247 
1.4399999999998578, -0.9017764711904742 
1.4499999999998567, -0.9033540326312087 
1.4599999999998556, -0.9052776040910108 
1.4699999999998545, -0.9075392675528655 
1.4799999999998534, -0.9101291480587054 
1.4899999999998523, -0.9130355324363628 
1.4999999999998512, -0.9162449993469433 
1.5099999999998501, -0.9197425590901991 
1.519999999999849, -0.9235118018589801 
1.529999999999848, -0.9275350533275005 
1.5399999999998468, -0.9317935365680502 
1.5499999999998457, -0.9362675393038451 
1.5599999999998446, -0.9409365854208974 
1.5699999999998435, -0.9457796094899571 
1.5799999999998424, -0.9507751328118965 
1.5899999999998413, -0.9559014392255243 
1.5999999999998402, -0.9611367486391633 
1.6099999999998391, -0.9664593860002851 
1.619999999999838, -0.9718479432318075 
1.629999999999837, -0.97728143156317 
1.6399999999998358, -0.9827394216846057 
1.6499999999998347, -0.9882021692596581 
1.6599999999998336, -0.9936507235411016 
1.6699999999998325, -0.9990670171387745 
1.6799999999998314, -1.0044339353697762 
1.6899999999998303, -1.009735364066116 
1.6999999999998292, -1.0149562152070968 
1.709999999999828, -1.0200824302716696 
1.719999999999827, -1.0251009617610605 
1.729999999999826, -1.029999733918659 
1.7399999999998248, -1.0347675842678603 
1.7499999999998237, -1.0393941881931605 
1.7599999999998226, -1.0438699693950158 
1.7699999999998215, -1.048185999637552 
1.7799999999998204, -1.0523338917551885 
1.7899999999998193, -1.0563056903559682 
1.7999999999998182, -1.060093765016026 
1.809999999999817, -1.0636907109574254 
1.819999999999816, -1.0670892621976562 
1.8299999999998149, -1.070282221916631 
1.8399999999998138, -1.0732624142808271 
1.8499999999998127, -1.0760226611862127 
1.8599999999998116, -1.078555786345139 
1.8699999999998105, -1.0808546478853915 
1.8799999999998094, -1.0829121992149584 
1.8899999999998083, -1.0847215764200278 
1.8999999999998072, -1.086276209010356 
1.909999999999806, -1.0875699495192643 
1.919999999999805, -1.0885972164178261 
1.9299999999998039, -1.0893531441128945 
1.9399999999998028, -1.0898337335385913 
1.9499999999998017, -1.0900359970549736 
1.9599999999998006, -1.0899580920249958 
1.9699999999997995, -1.0895994384940861 
1.9799999999997984, -1.0889608177450625 
1.9899999999997973, -1.0880444500120987 
1.9999999999997962, -1.0868540511602687 
2.0099999999998173, -1.0853948695212123 
2.0199999999998384, -1.0836737051864374 
2.0299999999998595, -1.0816989147952494 
2.0399999999998806, -1.0794804051529072 
2.0499999999999017, -1.0770296188614685 
2.059999999999923, -1.0743595145713039 
2.069999999999944, -1.071484543536213 
2.079999999999965, -1.0684206229823323 
2.089999999999986, -1.0651851055051793 
2.100000000000007, -1.0617967424261006 
2.1100000000000283, -1.05827563790537 
2.1200000000000494, -1.0546431897509119 
2.1300000000000705, -1.0509220123864425 
2.1400000000000916, -1.0471358374298143 
2.1500000000001127, -1.043309387824292 
2.160000000000134, -1.0394682224618053 
2.170000000000155, -1.0356385496906406 
2.180000000000176, -1.0318470099152628 
2.190000000000197, -1.0281204295347157 
2.2000000000002182, -1.0244855505564474 
2.2100000000002393, -1.0209687421742855 
2.2200000000002604, -1.017595702222974 
2.2300000000002815, -1.0143911575497522 
2.2400000000003026, -1.0113785728506197 
2.2500000000003237, -1.0085798773387236 
2.260000000000345, -1.0060152177471566 
2.270000000000366, -1.0037027446910103 
2.280000000000387, -1.0016584374596702 
2.290000000000408, -0.9998959700637733 
2.3000000000004293, -0.9984266190329039 
2.3100000000004504, -0.997259211263879 
2.3200000000004715, -0.9964001083492021 
2.3300000000004926, -0.9958532224241501 
2.3400000000005137, -0.995620057757211 
2.3500000000005348, -0.9956997721070285 
2.360000000000556, -0.9960892522510396 
2.370000000000577, -0.9967831989698863 
2.380000000000598, -0.997774218014723 
2.390000000000619, -0.9990529150284089 
2.4000000000006403, -1.000607993860437 
2.4100000000006614, -1.0024263590394564 
2.4200000000006825, -1.0044932241999822 
2.4300000000007036, -1.0067922288930737 
2.4400000000007247, -1.0093055663843358 
2.450000000000746, -1.0120141247505061 
2.460000000000767, -1.0148976428749064 
2.470000000000788, -1.0179348819053404 
2.480000000000809, -1.0211038115033966 
2.49000000000083, -1.0243818089275765 
2.5000000000008513, -1.027745867800957 
2.5100000000008724, -1.0311728124464412 
2.5200000000008935, -1.0346395130259836 
2.5300000000009146, -1.0381230964488268 
2.5400000000009357, -1.0416011481248684 
2.550000000000957, -1.0450519000952876 
2.560000000000978, -1.0484544017991708 
2.570000000000999, -1.0517886706335122 
2.58000000000102, -1.0550358204264692 
2.5900000000010412, -1.058178166867441 
2.6000000000010624, -1.0611993097377355 
2.6100000000010835, -1.0640841924053084 
2.6200000000011046, -1.0668191394614768 
2.6300000000011257, -1.0693918735943646 
2.6400000000011468, -1.0717915128491695 
2.650000000001168, -1.0740085493761096 
2.660000000001189, -1.0760348106810491 
2.67000000000121, -1.0778634043397721 
2.680000000001231, -1.0794886471733787 
2.6900000000012523, -1.0809059800495129 
2.7000000000012734, -1.0821118697883172 
2.7100000000012945, -1.0831037001023445 
2.7200000000013156, -1.0838796540498463 
2.7300000000013367, -1.084438591073636 
2.740000000001358, -1.0847799222620835 
2.750000000001379, -1.0849034879295028 
2.7600000000014, -1.084809441900304 
2.770000000001421, -1.0844981469389674 
2.780000000001442, -1.0839700855618348 
2.7900000000014633, -1.0832257899876898 
2.8000000000014844, -1.0822657942499747 
2.8100000000015055, -1.0810906105468414 
2.8200000000015266, -1.0797007308092608 
2.8300000000015477, -1.0780966532997933 
2.840000000001569, -1.0762789328994706 
2.85000000000159, -1.074248252680491 
2.860000000001611, -1.0720055134718818 
2.870000000001632, -1.069551937461083 
2.8800000000016532, -1.0668891814725985 
2.8900000000016743, -1.064019455435898 
2.9000000000016954, -1.0609456416839016 
2.9100000000017165, -1.0576714110720873 
2.9200000000017377, -1.0542013324193849 
2.9300000000017588, -1.0505409723768482 
2.94000000000178, -1.0466969834567916 
2.950000000001801, -1.0426771785375313 
2.960000000001822, -1.0384905906442328 
2.970000000001843, -1.0341475171617474 
2.9800000000018643, -1.0296595478499213 
2.9900000000018854, -1.025039576118233 
3.0000000000019065, -1.0203017930068914 
3.0100000000019276, -1.0154616632628772 
3.0200000000019487, -1.010535882846168 
3.03000000000197, -1.0055423172077762 
3.040000000001991, -1.000499919793246 
3.050000000002012, -0.9954286304740965 
3.060000000002033, -0.9903492540071603 
3.070000000002054, -0.9852833191577679 
3.0800000000020753, -0.9802529197659654 
3.0900000000020964, -0.9752805397361404 
3.1000000000021175, -0.9703888646277427 
3.1100000000021386, -0.9656005831517116 
3.1200000000021597, -0.9609381823702896 
3.130000000002181, -0.9564237407049022 
3.140000000002202, -0.9520787229436691 
3.150000000002223, -0.9479237812946162 
3.160000000002244, -0.9439785661649494 
3.1700000000022652, -0.9402615497950979 
3.1800000000022863, -0.9367898651914088 
3.1900000000023074, -0.9335791620480448 
3.2000000000023285, -0.9306434805961332 
3.2100000000023496, -0.9279951436325421 
3.2200000000023707, -0.925644666417625 
3.230000000002392, -0.9236006837311916 
3.240000000002413, -0.9218698931597322 
3.250000000002434, -0.9204570136564174 
3.260000000002455, -0.9193647585498103 
3.2700000000024763, -0.9185938224423036 
3.2800000000024974, -0.918142881787315 
3.2900000000025185, -0.9180086093104176 
3.3000000000025396, -0.9181857027873224 
3.3100000000025607, -0.9186669289585436 
3.3200000000025818, -0.9194431835030394 
3.330000000002603, -0.9205035679807128 
3.340000000002624, -0.9218354844717821 
3.350000000002645, -0.9234247482926725 
3.360000000002666, -0.9252557186732321 
3.3700000000026873, -0.9273114466744692 
3.3800000000027084, -0.9295738389572501 
3.3900000000027295, -0.9320238353357456 
3.4000000000027506, -0.9346415974222347 
3.4100000000027717, -0.9374067051455646 
3.420000000002793, -0.94029835754838 
3.430000000002814, -0.9432955740683986 
3.440000000002835, -0.9463773924996693 
3.450000000002856, -0.9495230600056662 
3.460000000002877, -0.9527122138945402 
3.4700000000028983, -0.9559250493303778 
3.4800000000029194, -0.9591424716952326 
3.4900000000029405, -0.9623462318828838 
3.5000000000029616, -0.9655190433460186 
3.5100000000029827, -0.9686446801908226 
3.520000000003004, -0.9717080559861466 
3.530000000003025, -0.9746952832136822 
3.540000000003046, -0.9775937134337362 
3.550000000003067, -0.9803919582980325 
3.5600000000030882, -0.9830798915404557 
3.5700000000031094, -0.9856486320629689 
3.5800000000031305, -0.9880905082552859 
3.5900000000031516, -0.9903990037890272 
3.6000000000031727, -0.9925686853468437 
3.6100000000031938, -0.9945951131062117 
3.620000000003215, -0.9964747352992939 
3.630000000003236, -0.9982047687961833 
3.640000000003257, -0.9997830683706117 
3.650000000003278, -1.001207988049007 
3.6600000000032993, -1.0024782386483255 
3.6700000000033204, -1.003592746203289 
3.6800000000033415, -1.0045505164005062 
3.6900000000033626, -1.0053505103167077 
3.7000000000033837, -1.0059915366588033 
3.710000000003405, -1.006472165303353 
3.720000000003426, -1.00679066623441 
3.730000000003447, -1.0069449770072447 
3.740000000003468, -1.0069327006693953 
3.750000000003489, -1.0067511347173095 
3.7600000000035103, -1.0063973302392921 
3.7700000000035314, -1.0058681789860036 
3.7800000000035525, -1.0051605248139102 
3.7900000000035736, -1.0042712948561099 
3.8000000000035947, -1.0031976449676405 
3.810000000003616, -1.0019371135271975 
3.820000000003637, -1.0004877775855625 
3.830000000003658, -0.9988484056323779 
3.840000000003679, -0.9970186018735819 
3.8500000000037002, -0.9949989378070799 
3.8600000000037213, -0.9927910679645797 
3.8700000000037424, -0.9903978278483441 
3.8800000000037635, -0.9878233132242679 
3.8900000000037847, -0.985072940936884 
3.9000000000038058, -0.9821534922058128 
3.910000000003827, -0.9790731398918935 
3.920000000003848, -0.9758414614603953 
3.930000000003869, -0.9724694393257995 
3.94000000000389, -0.968969449972894 
3.9500000000039113, -0.9653552427706599 
3.9600000000039324, -0.9616419088015861 
3.9700000000039535, -0.9578458393997966 
3.9800000000039746, -0.9539846735060782 
3.9900000000039957, -0.9500772324778877 
4.000000000004016, -0.946143440695843 
4.010000000003993, -0.9422042302254877 
4.02000000000397, -0.938281427944461 
4.030000000003946, -0.9343976239296633 
4.040000000003923, -0.9305760204949143 
4.0500000000039, -0.9268402620366041 
4.0600000000038765, -0.9232142467274643 
4.070000000003853, -0.919721922030792 
4.08000000000383, -0.9163870669184377 
4.090000000003807, -0.9132330644957318 
4.100000000003783, -0.9102826694028691 
4.11000000000376, -0.9075577748249584 
4.120000000003737, -0.9050791841685668 
4.130000000003713, -0.9028663924367503 
4.14000000000369, -0.9009373820626697 
4.150000000003667, -0.8993084374678162 
4.1600000000036434, -0.8979939819338225 
4.17000000000362, -0.8970064395679272 
4.180000000003597, -0.8963561242584603 
4.1900000000035735, -0.8960511566173809 
4.20000000000355, -0.8960974090473783 
4.210000000003527, -0.896498478299587 
4.220000000003504, -0.8972556842424004 
4.23000000000348, -0.8983680930672162 
4.240000000003457, -0.8998325628250341 
4.250000000003434, -0.9016438090167738 
4.26000000000341, -0.9037944879361189 
4.270000000003387, -0.9062752955620534 
4.280000000003364, -0.9090750799867333 
4.2900000000033405, -0.9121809656058216 
4.300000000003317, -0.9155784875541959 
4.310000000003294, -0.9192517351033115 
4.320000000003271, -0.9231835029159663 
4.330000000003247, -0.9273554491562861 
4.340000000003224, -0.9317482594639448 
4.350000000003201, -0.9363418157198667 
4.360000000003177, -0.9411153683650721 
4.370000000003154, -0.9460477108039199 
4.380000000003131, -0.9511173541549661 
4.390000000003107, -0.9563027003382252 
4.400000000003084, -0.9615822112396061 
4.410000000003061, -0.9669345715012585 
4.4200000000030375, -0.9723388423747209 
4.430000000003014, -0.9777746040579187 
4.440000000002991, -0.9832220840243038 
4.450000000002968, -0.9886622690410749 
4.460000000002944, -0.9940769988548906 
4.470000000002921, -0.9994490398844127 
4.480000000002898, -1.0047621376844948 
4.490000000002874, -1.0100010474224705 
4.500000000002851, -1.0151515421211732 
4.510000000002828, -1.0202003989677453 
4.520000000002804, -1.0251353645565953 
4.530000000002781, -1.0299451005247915 
4.540000000002758, -1.0346191116435155 
4.5500000000027345, -1.0391476590405109 
4.560000000002711, -1.0435216618301502 
4.570000000002688, -1.0477325909958963 
4.580000000002665, -1.0517723598725401 
4.590000000002641, -1.0556332159731225 
4.600000000002618, -1.0593076391541214 
4.610000000002595, -1.0627882511681022 
4.620000000002571, -1.0660677414759943 
4.630000000002548, -1.0691388137524727 
4.640000000002525, -1.0719941568041398 
4.6500000000025015, -1.074626442638778 
4.660000000002478, -1.0770283532061522 
4.670000000002455, -1.0791926359336748 
4.6800000000024315, -1.0811121866847737 
4.690000000002408, -1.0827801572751428 
4.700000000002385, -1.084190083306002 
4.710000000002362, -1.0853360269297176 
4.720000000002338, -1.0862127283572052 
4.730000000002315, -1.0868157595303742 
4.740000000002292, -1.0871416734630421 
4.750000000002268, -1.0871881433027044 
4.760000000002245, -1.086954086138034 
4.770000000002222, -1.0864397678825353 
4.7800000000021985, -1.0856468870764706 
4.790000000002175, -1.0845786370175103 
4.800000000002152, -1.0832397471007371 
4.810000000002129, -1.0816365054780583 
4.820000000002105, -1.0797767660212656 
4.830000000002082, -1.0776699430169954 
4.840000000002059, -1.0753269970066786 
4.850000000002035, -1.072760414727609 
4.860000000002012, -1.0699841852725998 
4.870000000001989, -1.0670137734597276 
4.880000000001965, -1.0638660901100465 
4.890000000001942, -1.0605594576035262 
4.900000000001919, -1.0571135678590755 
4.9100000000018955, -1.0535494288943068 
4.920000000001872, -1.049889295479377 
