t, s[1].omega / s[0].omega 
0, -1.0699973005733572 
0.009999999999999995, -1.0696229430075996 
0.019999999999999934, -1.0690408371465414 
0.029999999999999874, -1.0682509506577489 
0.04000000000000012, -1.0672615094397166 
0.050000000000000405, -1.0660967315753271 
0.06000000000000069, -1.0648018581867165 
0.07000000000000098, -1.063443837090602 
0.08000000000000126, -1.0621064144373213 
0.09000000000000155, -1.0608795619914957 
0.10000000000000184, -1.0598464672322012 
0.11000000000000212, -1.059072691480241 
0.12000000000000241, -1.058597751102446 
0.130000000000002, -1.058425623715746 
0.1400000000000009, -1.0585160838046086 
0.1499999999999998, -1.0587863745332537 
0.1599999999999987, -1.059127963222546 
0.1699999999999976, -1.0594297879711607 
0.1799999999999965, -1.0595954418613232 
0.1899999999999954, -1.0595505269551984 
0.1999999999999943, -1.059244803627827 
0.2099999999999932, -1.058653458146303 
0.2199999999999921, -1.05777660746294 
0.229999999999991, -1.056633809502981 
0.2399999999999899, -1.0552538942422889 
0.2499999999999888, -1.0536654209186875 
0.2599999999999877, -1.0518933842082427 
0.2699999999999866, -1.0499633090574154 
0.2799999999999855, -1.047909344307162 
0.2899999999999844, -1.0457816323428497 
0.2999999999999833, -1.0436496656928935 
0.3099999999999822, -1.0416007692528 
0.3199999999999811, -1.0397345444830948 
0.32999999999998, -1.0381531088413167 
0.3399999999999789, -1.0369439405291299 
0.3499999999999778, -1.036153973397771 
0.35999999999997667, -1.035764961823442 
0.36999999999997557, -1.0356890447121794 
0.37999999999997447, -1.0357921647765278 
0.38999999999997337, -1.0359298682813138 
0.39999999999997227, -1.0359730229123603 
0.40999999999997117, -1.0358156688177018 
0.41999999999997006, -1.035373177592977 
0.42999999999996896, -1.0345821896451664 
0.43999999999996786, -1.0334068048221288 
0.44999999999996676, -1.0318459976713932 
0.45999999999996566, -1.029933015930417 
0.46999999999996456, -1.027723183941041 
0.47999999999996346, -1.0252768840978013 
0.48999999999996235, -1.0226483746468606 
0.49999999999996125, -1.0198855080380447 
0.5099999999999602, -1.0170376487393125 
0.519999999999959, -1.0141657282767629 
0.529999999999958, -1.0113495746413173 
0.5399999999999568, -1.00869016246369 
0.5499999999999557, -1.006305171257982 
0.5599999999999546, -1.0043145816253076 
0.5699999999999535, -1.0028132823025777 
0.5799999999999524, -1.0018363638785992 
0.5899999999999513, -1.0013363054617728 
0.5999999999999502, -1.0011912270332142 
0.6099999999999491, -1.0012412839114164 
0.619999999999948, -1.0013286003630104 
0.6299999999999469, -1.0013192484993896 
0.6399999999999458, -1.0011055092689927 
0.6499999999999447, -1.0006003849345901 
0.6599999999999436, -0.9997365689686892 
0.6699999999999425, -0.998474109431726 
0.6799999999999414, -0.9968110049887482 
0.6899999999999403, -0.9947854794236723 
0.6999999999999392, -0.9924638112729645 
0.7099999999999381, -0.9899199156065394 
0.719999999999937, -0.9872194789177612 
0.7299999999999359, -0.984416326456434 
0.7399999999999348, -0.981559299678697 
0.7499999999999337, -0.9787029410323195 
0.7599999999999326, -0.9759159318391316 
0.7699999999999315, -0.9732841741340018 
0.7799999999999304, -0.970907489275536 
0.7899999999999293, -0.9688889077268364 
0.7999999999999282, -0.967315196907846 
0.8099999999999271, -0.9662309022488417 
0.819999999999926, -0.9656165823885231 
0.8299999999999249, -0.9653861545938975 
0.8399999999999238, -0.9654082809382801 
0.8499999999999227, -0.9655393124759792 
0.8599999999999216, -0.9656492272274857 
0.8699999999999205, -0.9656321722393392 
0.8799999999999194, -0.9654064136678642 
0.8899999999999183, -0.9649131917120132 
0.8999999999999172, -0.964119874103325 
0.9099999999999161, -0.9630250855642364 
0.919999999999915, -0.9616584158666441 
0.9299999999999139, -0.9600700006709241 
0.9399999999999128, -0.9583139782332043 
0.9499999999999117, -0.9564354338815472 
0.9599999999999106, -0.954467393703108 
0.9699999999999095, -0.9524370851944567 
0.9799999999999084, -0.950375956335519 
0.9899999999999073, -0.9483278139882327 
0.9999999999999062, -0.9463518269989637 
1.0099999999999052, -0.9445197180669731 
1.019999999999904, -0.9429082538854635 
1.029999999999903, -0.9415887535286858 
1.039999999999902, -0.9406148187032771 
1.0499999999999008, -0.9400094504764309 
1.0599999999998997, -0.9397549729892837 
1.0699999999998986, -0.939791634287309 
1.0799999999998975, -0.9400283161681424 
1.0899999999998964, -0.9403614567835596 
1.0999999999998953, -0.9406934277549923 
1.1099999999998942, -0.9409442370356422 
1.119999999999893, -0.9410566436651254 
1.129999999999892, -0.9409978449079711 
1.1399999999998909, -0.9407591078540991 
1.1499999999998898, -0.9403517081921442 
1.1599999999998887, -0.9397977935187747 
1.1699999999998876, -0.9391187335556188 
1.1799999999998865, -0.9383267739338912 
1.1899999999998854, -0.9374244783368001 
1.1999999999998843, -0.9364116657984413 
1.2099999999998832, -0.9352955402611776 
1.219999999999882, -0.9340992105168573 
1.229999999999881, -0.9328659763451852 
1.2399999999998799, -0.9316587276008624 
1.2499999999998788, -0.9305542286241213 
1.2599999999998777, -0.9296324760337801 
1.2699999999998766, -0.9289632611541143 
1.2799999999998755, -0.9285940861376418 
1.2899999999998744, -0.9285429442934972 
1.2999999999998733, -0.928796621202542 
1.3099999999998722, -0.9293134933324344 
1.319999999999871, -0.9300303448963041 
1.32999999999987, -0.9308728660884454 
1.3399999999998689, -0.9317678355640489 
1.3499999999998678, -0.9326536212093868 
1.3599999999998666, -0.9334863220907716 
1.3699999999998655, -0.9342404961810818 
1.3799999999998644, -0.9349044963999587 
1.3899999999998633, -0.9354715311749572 
1.3999999999998622, -0.9359296370628708 
1.4099999999998611, -0.936255655686091 
1.41999999999986, -0.9364174838692898 
1.429999999999859, -0.9363844060335319 
1.4399999999998578, -0.9361400418749923 
1.4499999999998567, -0.9356912653098415 
1.4599999999998556, -0.9350708154322339 
1.4699999999998545, -0.9343364199935146 
1.4799999999998534, -0.9335696507762403 
1.4899999999998523, -0.9328736161195569 
1.4999999999998512, -0.9323647558466656 
1.5099999999998501, -0.9321552852346664 
1.519999999999849, -0.9323299513619013 
1.529999999999848, -0.9329276935884356 
1.5399999999998468, -0.9339374482616299 
1.5499999999998457, -0.935308137844221 
1.5599999999998446, -0.9369653613560833 
1.5699999999998435, -0.9388274234198997 
1.5799999999998424, -0.9408174201873943 
1.5899999999998413, -0.9428705548676918 
1.5999999999998402, -0.9449359697754325 
1.6099999999998391, -0.94697243583775 
1.619999999999838, -0.9489387665117293 
1.629999999999837, -0.9507828029912648 
1.6399999999998358, -0.9524357985375954 
1.6499999999998347, -0.9538188693041975 
1.6599999999998336, -0.9548618655664196 
1.6699999999998325, -0.955525069172422 
1.6799999999998314, -0.9558104135602549 
1.6899999999998303, -0.9557575442055862 
1.6999999999998292, -0.9554324966771665 
1.709999999999828, -0.9549205002431117 
1.719999999999827, -0.9543282620481103 
1.729999999999826, -0.9537917732168467 
1.7399999999998248, -0.9534782079285444 
1.7499999999998237, -0.9535689944116519 
1.7599999999998226, -0.9542211346537142 
1.7699999999998215, -0.9555231180744479 
1.7799999999998204, -0.9574723052066637 
1.7899999999998193, -0.9599870268122657 
1.7999999999998182, -0.9629415922388382 
1.809999999999817, -0.9662018243263107 
1.819999999999816, -0.9696471237945433 
1.8299999999998149, -0.973177124630452 
1.8399999999998138, -0.976706445212458 
1.8499999999998127, -0.9801519163745271 
1.8599999999998116, -0.9834181856956735 
1.8699999999998105, -0.9863907616301155 
1.8799999999998094, -0.988946015019532 
1.8899999999998083, -0.9909792748363537 
1.8999999999998072, -0.9924366888282137 
1.909999999999806, -0.9933294301432392 
1.919999999999805, -0.9937221471474535 
1.9299999999998039, -0.9937083729245422 
1.9399999999998028, -0.9933922534125634 
1.9499999999998017, -0.9928869870216283 
1.9599999999998006, -0.9923281612004315 
1.9699999999997995, -0.9918904703025654 
1.9799999999997984, -0.9917888297030822 
1.9899999999997973, -0.9922460166341425 
1.9999999999997962, -0.993429954460619 
2.0099999999998173, -0.9953957857574748 
2.0199999999998384, -0.998073823270232 
2.0299999999998595, -1.0013086345396922 
2.0399999999998806, -1.0049167264177397 
2.0499999999999017, -1.0087291666104923 
2.059999999999923, -1.0126083490598097 
2.069999999999944, -1.0164448999352091 
2.079999999999965, -1.0201440219849514 
2.089999999999986, -1.0236094337406454 
2.100000000000007, -1.0267337227201478 
2.1100000000000283, -1.0294040398805435 
2.1200000000000494, -1.0315253132678157 
2.1300000000000705, -1.0330492723982727 
2.1400000000000916, -1.033989307038324 
2.1500000000001127, -1.0344113956304604 
2.160000000000134, -1.0344111916700796 
2.170000000000155, -1.0340958366886404 
2.180000000000176, -1.0335815086166962 
2.190000000000197, -1.0330049029687707 
2.2000000000002182, -1.0325358534673963 
2.2100000000002393, -1.032371399882545 
2.2200000000002604, -1.0326973135761834 
2.2300000000002815, -1.0336292819717252 
2.2400000000003026, -1.0351731596331373 
2.2500000000003237, -1.0372341734166914 
2.260000000000345, -1.0396633128330302 
2.270000000000366, -1.042305385969379 
2.280000000000387, -1.0450268650439496 
2.290000000000408, -1.0477240058817134 
2.3000000000004293, -1.0503195949841158 
2.3100000000004504, -1.0527540056796592 
2.3200000000004715, -1.0549738848646126 
2.3300000000004926, -1.0569228719697599 
2.3400000000005137, -1.0585401667083938 
2.3500000000005348, -1.0597702274772522 
2.360000000000556, -1.0605794268753292 
2.370000000000577, -1.060968989306855 
2.380000000000598, -1.0609762063630577 
2.390000000000619, -1.0606664575841998 
2.4000000000006403, -1.0601256507308299 
2.4100000000006614, -1.059459441757892 
2.4200000000006825, -1.0587957825641832 
2.4300000000007036, -1.0582790773837076 
2.4400000000007247, -1.0580460918442527 
2.450000000000746, -1.0581897776585583 
2.460000000000767, -1.058734042659133 
2.470000000000788, -1.0596369386194244 
2.480000000000809, -1.060815071674828 
2.49000000000083, -1.062169175659519 
2.5000000000008513, -1.0636005572139313 
2.5100000000008724, -1.0650207095802762 
2.5200000000008935, -1.0663578242494587 
2.5300000000009146, -1.0675599650808525 
2.5400000000009357, -1.068593427676483 
2.550000000000957, -1.0694365751399486 
2.560000000000978, -1.0700717657436487 
2.570000000000999, -1.0704795895062713 
2.58000000000102, -1.07063919236576 
2.5900000000010412, -1.070535072788052 
2.6000000000010624, -1.0701664146925358 
2.6100000000010835, -1.0695539505073532 
2.6200000000011046, -1.0687426135065987 
2.6300000000011257, -1.0678014390637731 
2.6400000000011468, -1.0668209857894109 
2.650000000001168, -1.0659050019164247 
2.660000000001189, -1.0651538386568822 
2.67000000000121, -1.0646445326286935 
2.680000000001231, -1.0644179293623248 
2.6900000000012523, -1.0644772331614667 
2.7000000000012734, -1.0647920729985363 
2.7100000000012945, -1.0653024253123498 
2.7200000000013156, -1.0659249686516707 
2.7300000000013367, -1.0665657251063183 
2.740000000001358, -1.067135772116662 
2.750000000001379, -1.067563286976685 
2.7600000000014, -1.0677990792660081 
2.770000000001421, -1.0678168849264882 
2.780000000001442, -1.0676097739429826 
2.7900000000014633, -1.0671831802449163 
2.8000000000014844, -1.0665465352881862 
2.8100000000015055, -1.0657075708333217 
2.8200000000015266, -1.0646725668052328 
2.8300000000015477, -1.0634522003991391 
2.840000000001569, -1.062069551033133 
2.85000000000159, -1.0605664222923388 
2.860000000001611, -1.0590053949314338 
2.870000000001632, -1.0574663061789602 
2.8800000000016532, -1.0560376543642163 
2.8900000000016743, -1.0548058222957428 
2.9000000000016954, -1.0538446769943266 
2.9100000000017165, -1.0532039339024224 
2.9200000000017377, -1.0528940726608216 
2.9300000000017588, -1.0528739406721657 
2.94000000000178, -1.0530534734897832 
2.950000000001801, -1.053314608989578 
2.960000000001822, -1.05353777281239 
2.970000000001843, -1.053619468027916 
2.9800000000018643, -1.0534783476553844 
2.9900000000018854, -1.0530565316790124 
3.0000000000019065, -1.0523218769870317 
3.0100000000019276, -1.0512701466824101 
3.0200000000019487, -1.0499220064447397 
3.03000000000197, -1.0483130011899102 
3.040000000001991, -1.0464814287705977 
3.050000000002012, -1.0444614616389982 
3.060000000002033, -1.042284744288682 
3.070000000002054, -1.0399879672724106 
3.0800000000020753, -1.0376213584511929 
3.0900000000020964, -1.0352540397461676 
3.1000000000021175, -1.0329746906433388 
3.1100000000021386, -1.0308875805870876 
3.1200000000021597, -1.0291028690535657 
3.130000000002181, -1.0277174824380757 
3.140000000002202, -1.026785894400191 
3.150000000002223, -1.0262926118836695 
3.160000000002244, -1.0261470332961309 
3.1700000000022652, -1.0262086261554897 
3.1800000000022863, -1.0263255219136584 
3.1900000000023074, -1.026362195432772 
3.2000000000023285, -1.0262075416387537 
3.2100000000023496, -1.0257718619309952 
3.2200000000023707, -1.0249853835420462 
3.230000000002392, -1.0238042971679462 
3.240000000002413, -1.0222202366969062 
3.250000000002434, -1.020262992706649 
3.260000000002455, -1.01799017795669 
3.2700000000024763, -1.0154688361922548 
3.2800000000024974, -1.0127607072044573 
3.2900000000025185, -1.0099187019511402 
3.3000000000025396, -1.0069934171279733 
3.3100000000025607, -1.0040435631042939 
3.3200000000025818, -1.0011445727365522 
3.330000000002603, -0.9983922818266908 
3.340000000002624, -0.9959000292017621 
3.350000000002645, -0.9937865637775527 
3.360000000002666, -0.9921517815804081 
3.3700000000026873, -0.9910436965586441 
3.3800000000027084, -0.9904325753285556 
3.3900000000027295, -0.9902119575563287 
3.4000000000027506, -0.9902292551028149 
3.4100000000027717, -0.9903257968339241 
3.420000000002793, -0.9903632646763787 
3.430000000002814, -0.9902301811075878 
3.440000000002835, -0.9898377021020788 
3.450000000002856, -0.9891171020076841 
3.460000000002877, -0.9880250628871531 
3.4700000000028983, -0.9865533201827742 
3.4800000000029194, -0.9847325232977726 
3.4900000000029405, -0.9826227962237153 
3.5000000000029616, -0.980294584330416 
3.5100000000029827, -0.9778116236240673 
3.520000000003004, -0.9752250258432618 
3.530000000003025, -0.9725784834034736 
3.540000000003046, -0.9699185520603645 
3.550000000003067, -0.9673036123999417 
3.5600000000030882, -0.9648078423260187 
3.5700000000031094, -0.9625192337373627 
3.5800000000031305, -0.9605316779305331 
3.5900000000031516, -0.958930649662265 
3.6000000000031727, -0.9577728024757053 
3.6100000000031938, -0.9570648185442366 
3.620000000003215, -0.9567529569711302 
3.630000000003236, -0.9567325258359952 
3.640000000003257, -0.9568736429073961 
3.650000000003278, -0.9570485983055941 
3.6600000000032993, -0.9571485376814771 
3.6700000000033204, -0.9570884120263042 
3.6800000000033415, -0.9568070195911075 
3.6900000000033626, -0.9562684219986153 
3.7000000000033837, -0.9554650346644924 
3.710000000003405, -0.9544172474546898 
3.720000000003426, -0.9531649664001605 
3.730000000003447, -0.951753130280929 
3.740000000003468, -0.9502190988006984 
3.750000000003489, -0.9485886381951989 
3.7600000000035103, -0.9468810359494714 
3.7700000000035314, -0.9451188062862871 
3.7800000000035525, -0.9433364838199813 
3.7900000000035736, -0.9415848850949329 
3.8000000000035947, -0.9399295764326077 
3.810000000003616, -0.938444117606448 
3.820000000003637, -0.9371999915292297 
3.830000000003658, -0.936255539887048 
3.840000000003679, -0.9356454441399372 
3.8500000000037002, -0.9353719162250711 
3.8600000000037213, -0.9354002615746683 
3.8700000000037424, -0.9356625527498044 
3.8800000000037635, -0.9360701946918054 
3.8900000000037847, -0.9365307662337037 
3.9000000000038058, -0.9369625054779388 
3.910000000003827, -0.9373030066132502 
3.920000000003848, -0.9375127850631415 
3.930000000003869, -0.937575203129281 
3.94000000000389, -0.9374925713959501 
3.9500000000039113, -0.9372778007890522 
3.9600000000039324, -0.9369435637461526 
3.9700000000039535, -0.9364939421687334 
3.9800000000039746, -0.9359232026387811 
3.9900000000039957, -0.9352222946459001 
4.000000000004016, -0.9343892406397596 
4.010000000003993, -0.9334383140235774 
4.02000000000397, -0.9324051435985063 
4.030000000003946, -0.9313475517611691 
4.040000000003923, -0.9303422681904032 
4.0500000000039, -0.9294766303405013 
4.0600000000038765, -0.9288351285722867 
4.070000000003853, -0.9284839616964459 
4.08000000000383, -0.9284592579418535 
4.090000000003807, -0.9287628389831616 
4.100000000003783, -0.9293650472716296 
4.11000000000376, -0.930211911112678 
4.120000000003737, -0.931234760403761 
4.130000000003713, -0.9323612262600717 
4.14000000000369, -0.9335257893246873 
4.150000000003667, -0.9346772929185675 
4.1600000000036434, -0.9357813917833153 
4.17000000000362, -0.9368172034050262 
4.180000000003597, -0.9377690062960906 
4.1900000000035735, -0.938616020203921 
4.20000000000355, -0.9393254928086845 
4.210000000003527, -0.9398542371437796 
4.220000000003504, -0.9401595984685636 
4.23000000000348, -0.9402144188019409 
4.240000000003457, -0.9400176960426982 
4.250000000003434, -0.9395969788851054 
4.26000000000341, -0.9390057277668132 
4.270000000003387, -0.9383213141960319 
4.280000000003364, -0.9376452578601692 
4.2900000000033405, -0.9371010865979537 
4.300000000003317, -0.936822532899459 
4.310000000003294, -0.9369295885193092 
4.320000000003271, -0.9375005381379693 
4.330000000003247, -0.9385547814038211 
4.340000000003224, -0.9400553800887539 
4.350000000003201, -0.9419270537945847 
4.360000000003177, -0.944078181097567 
4.370000000003154, -0.9464182829725161 
4.380000000003131, -0.9488683290697435 
4.390000000003107, -0.9513639505409651 
4.400000000003084, -0.9538518233694442 
4.410000000003061, -0.9562801405306074 
4.4200000000030375, -0.9585866521060713 
4.430000000003014, -0.9606912310072473 
4.440000000002991, -0.962500954492175 
4.450000000002968, -0.9639300448880272 
4.460000000002944, -0.9649254893900157 
4.470000000002921, -0.9654822966889972 
4.480000000002898, -0.9656401003292471 
4.490000000002874, -0.9654682743069759 
4.500000000002851, -0.9650537656510836 
4.510000000002828, -0.9645004340994154 
4.520000000002804, -0.963938551779131 
4.530000000002781, -0.9635341069328773 
4.540000000002758, -0.9634822964154885 
4.5500000000027345, -0.9639741694382882 
4.560000000002711, -0.9651446607944284 
4.570000000002688, -0.9670315182675547 
4.580000000002665, -0.9695721221460517 
4.590000000002641, -0.9726366923294124 
4.600000000002618, -0.9760726912573001 
4.610000000002595, -0.9797373074462832 
4.620000000002571, -0.983510708135737 
4.630000000002548, -0.9872935227608097 
4.640000000002525, -0.9909945378964226 
4.6500000000025015, -0.9945151708030858 
4.660000000002478, -0.9977396535487281 
4.670000000002455, -1.000541088891678 
4.6800000000024315, -1.00280699619067 
4.690000000002408, -1.0044726707080243 
4.700000000002385, -1.0055401513058795 
4.710000000002362, -1.0060703719717963 
4.720000000002338, -1.0061581434778577 
4.730000000002315, -1.0059103012013086 
4.740000000002292, -1.0054402183298883 
4.750000000002268, -1.0048790072593952 
4.760000000002245, -1.0043932218342513 
4.770000000002222, -1.0041905717487392 
4.7800000000021985, -1.0044937749098244 
4.790000000002175, -1.0054806069823123 
4.800000000002152, -1.007221822886205 
4.810000000002129, -1.0096614277957552 
4.820000000002105, -1.0126512488163035 
4.830000000002082, -1.0160093730295667 
4.840000000002059, -1.019565950460138 
4.850000000002035, -1.0231829257106164 
4.860000000002012, -1.0267532661057204 
4.870000000001989, -1.0301891826609888 
4.880000000001965, -1.0334068379754733 
4.890000000001942, -1.036314919753709 
4.900000000001919, -1.038815242338663 
4.9100000000018955, -1.040819454647859 
4.920000000001872, -1.042274673435764 
4.930000000001849, -1.0431811164574696 
