t, s[1].omega / s[0].omega 
0, -1.5201303729630038 
0.009999999999999995, -1.5310236386663 
0.019999999999999934, -1.5378485234444461 
0.029999999999999874, -1.5416727020082015 
0.04000000000000012, -1.5436160893841109 
0.050000000000000405, -1.544449036903341 
0.06000000000000069, -1.5446274622307523 
0.07000000000000098, -1.5444107946757952 
0.08000000000000126, -1.5439669604020934 
0.09000000000000155, -1.5434490054954648 
0.10000000000000184, -1.54302085771874 
0.11000000000000212, -1.5428091561531228 
0.12000000000000241, -1.5428389981481314 
0.130000000000002, -1.543044882519398 
0.1400000000000009, -1.5433249556934434 
0.1499999999999998, -1.5435690035503227 
0.1599999999999987, -1.5436697552092995 
0.1699999999999976, -1.5435292701453913 
0.1799999999999965, -1.5430495963423474 
0.1899999999999954, -1.5421126251576287 
0.1999999999999943, -1.5405635631891155 
0.2099999999999932, -1.5382072728623954 
0.2199999999999921, -1.5348281214498898 
0.229999999999991, -1.530265676830934 
0.2399999999999899, -1.5246167596045754 
0.2499999999999888, -1.5185869359830553 
0.2599999999999877, -1.5136087018934006 
0.2699999999999866, -1.5109461423148773 
0.2799999999999855, -1.5104395838887397 
0.2899999999999844, -1.5109059871458062 
0.2999999999999833, -1.511418413420318 
0.3099999999999822, -1.5116335722371652 
0.3199999999999811, -1.5114887642026613 
0.32999999999998, -1.510954172279988 
0.3399999999999789, -1.5099348916742648 
0.3499999999999778, -1.508277545822741 
0.35999999999997667, -1.505989564001689 
0.36999999999997557, -1.5039533713661162 
0.37999999999997447, -1.5047460519701654 
0.38999999999997337, -1.511076639141884 
0.39999999999997227, -1.5219318412169343 
0.40999999999997117, -1.533233855342548 
0.41999999999997006, -1.5421046036155819 
0.42999999999996896, -1.5480077599451567 
0.43999999999996786, -1.5515337258727022 
0.44999999999996676, -1.5534363100972404 
0.45999999999996566, -1.5543017890685573 
0.46999999999996456, -1.5545156663237705 
0.47999999999996346, -1.554316440197873 
0.48999999999996235, -1.5538628658613356 
0.49999999999996125, -1.5532913521489724 
0.5099999999999602, -1.5527407692961213 
0.519999999999959, -1.5523269378038023 
0.529999999999958, -1.552102814320977 
0.5399999999999568, -1.5520578588430314 
0.5499999999999557, -1.5521339512580192 
0.5599999999999546, -1.5522311688920378 
0.5699999999999535, -1.5522278154597502 
0.5799999999999524, -1.5520031334345847 
0.5899999999999513, -1.5514291283908421 
0.5999999999999502, -1.5503357122438746 
0.6099999999999491, -1.5484711314119228 
0.619999999999948, -1.5454755185517135 
0.6299999999999469, -1.5408966808734341 
0.6399999999999458, -1.5343274896804882 
0.6499999999999447, -1.5258281261496371 
0.6599999999999436, -1.5166727876931914 
0.6699999999999425, -1.5094966905607596 
0.6799999999999414, -1.5062831282935272 
0.6899999999999403, -1.5062619965592499 
0.6999999999999392, -1.5073439434999683 
0.7099999999999381, -1.5082690207097709 
0.719999999999937, -1.5087218234587378 
0.7299999999999359, -1.5087319503496535 
0.7399999999999348, -1.508350041956624 
0.7499999999999337, -1.5075661057108733 
0.7599999999999326, -1.5063491152221564 
0.7699999999999315, -1.504855802042878 
0.7799999999999304, -1.5039049630769714 
0.7899999999999293, -1.5052158299784435 
0.7999999999999282, -1.5100763895196994 
0.8099999999999271, -1.5174840086230421 
0.819999999999926, -1.525071832115588 
0.8299999999999249, -1.5312467502841298 
0.8399999999999238, -1.535619442162706 
0.8499999999999227, -1.5384196057768489 
0.8599999999999216, -1.5400297300620942 
0.8699999999999205, -1.5407950450445498 
0.8799999999999194, -1.5409756257195064 
0.8899999999999183, -1.5407533259506156 
0.8999999999999172, -1.5402599235509604 
0.9099999999999161, -1.5396104913508022 
0.919999999999915, -1.5389230684386404 
0.9299999999999139, -1.538308948703346 
0.9399999999999128, -1.537849710486032 
0.9499999999999117, -1.5375860466087774 
0.9599999999999106, -1.537501983074122 
0.9699999999999095, -1.5375088465456994 
0.9799999999999084, -1.537471750584997 
0.9899999999999073, -1.5372526602503078 
0.9999999999999062, -1.5367108519569326 
1.0099999999999052, -1.5356587291942292 
1.019999999999904, -1.5337989065476516 
1.029999999999903, -1.5306621500540856 
1.039999999999902, -1.5255841217940624 
1.0499999999999008, -1.5178392803153131 
1.0599999999998997, -1.507196754373391 
1.0699999999998986, -1.495068620579945 
1.0799999999998975, -1.4850715893392201 
1.0899999999998964, -1.4804053021188461 
1.0999999999998953, -1.4803776568800275 
1.1099999999998942, -1.482046177626343 
1.119999999999893, -1.4835340596587154 
1.129999999999892, -1.4843795267180513 
1.1399999999998909, -1.4846605347914048 
1.1499999999998898, -1.4845065486742846 
1.1599999999998887, -1.4839771286421524 
1.1699999999998876, -1.4830811202017635 
1.1799999999998865, -1.4818983786641746 
1.1899999999998854, -1.4808720821287342 
1.1999999999998843, -1.4811125380706553 
1.2099999999998832, -1.4838997602874824 
1.219999999999882, -1.4892372047140214 
1.229999999999881, -1.4956039827863932 
1.2399999999998799, -1.501415633444739 
1.2499999999998788, -1.5059321975160747 
1.2599999999998777, -1.5090840912669932 
1.2699999999998766, -1.5110807247408613 
1.2799999999998755, -1.5121871444115353 
1.2899999999998744, -1.512638328025118 
1.2999999999998733, -1.5126167186119193 
1.3099999999998722, -1.5122579482497849 
1.319999999999871, -1.511671341863288 
1.32999999999987, -1.5109633162424803 
1.3399999999998689, -1.510245943894161 
1.3499999999998678, -1.5096227532075275 
1.3599999999998666, -1.509170350941155 
1.3699999999998655, -1.5089242987909186 
1.3799999999998644, -1.5088541360450463 
1.3899999999998633, -1.508855475797214 
1.3999999999998622, -1.5087893822928322 
1.4099999999998611, -1.5085206054408238 
1.41999999999986, -1.5079072750445426 
1.429999999999859, -1.5067534450688373 
1.4399999999998578, -1.5047498762271454 
1.4499999999998567, -1.5014223609144046 
1.4599999999998556, -1.496129719190122 
1.4699999999998545, -1.4882283908761473 
1.4799999999998534, -1.4776307208382518 
1.4899999999998523, -1.4658230545241053 
1.4999999999998512, -1.4561908350147061 
1.5099999999998501, -1.4515720973406852 
1.519999999999849, -1.4513201263873667 
1.529999999999848, -1.4527705611866857 
1.5399999999998468, -1.454147408169981 
1.5499999999998457, -1.4549564496528327 
1.5599999999998446, -1.4552344559630832 
1.5699999999998435, -1.4550889162544551 
1.5799999999998424, -1.4545667502571453 
1.5899999999998413, -1.4536562969754634 
1.5999999999998402, -1.452381405686141 
1.6099999999998391, -1.451072498262882 
1.619999999999838, -1.4507855022651839 
1.629999999999837, -1.4531425420565978 
1.6399999999998358, -1.4588028264831336 
1.6499999999998347, -1.4663834339359803 
1.6599999999998336, -1.4737774310824254 
1.6699999999998325, -1.4797263922070691 
1.6799999999998314, -1.4839565117384073 
1.6899999999998303, -1.4866888050645484 
1.6999999999998292, -1.488275311470057 
1.709999999999828, -1.4890408660626717 
1.719999999999827, -1.48923604689749 
1.729999999999826, -1.4890393911321627 
1.7399999999998248, -1.4885820018605707 
1.7499999999998237, -1.4879792907654914 
1.7599999999998226, -1.4873509129153228 
1.7699999999998215, -1.48681012103851 
1.7799999999998204, -1.486433769348145 
1.7899999999998193, -1.4862479316143375 
1.7999999999998182, -1.4862277014906802 
1.809999999999817, -1.486295087814619 
1.819999999999816, -1.4863348715333726 
1.8299999999998149, -1.4862261692679826 
1.8399999999998138, -1.4858521564551377 
1.8499999999998127, -1.485078442463067 
1.8599999999998116, -1.4837201282085304 
1.8699999999998105, -1.4815166637612003 
1.8799999999998094, -1.478130626842678 
1.8899999999998083, -1.473199570357062 
1.8999999999998072, -1.4665058258944528 
1.909999999999806, -1.458356851900349 
1.919999999999805, -1.4500744974145496 
1.9299999999998039, -1.443807615264913 
1.9399999999998028, -1.4409091350040635 
1.9499999999998017, -1.440667873212161 
1.9599999999998006, -1.4414447885461712 
1.9699999999997995, -1.4421857127906603 
1.9799999999997984, -1.4425618498774482 
1.9899999999997973, -1.4425501894654271 
1.9999999999997962, -1.442164089731103 
2.0099999999998173, -1.4413588598247677 
2.0199999999998384, -1.4400253401741934 
2.0299999999998595, -1.4381034776287376 
2.0399999999998806, -1.4360032344346252 
2.0499999999999017, -1.4353658446624102 
2.059999999999923, -1.4389232194621324 
2.069999999999944, -1.447786096932993 
2.079999999999965, -1.4594215637378176 
2.089999999999986, -1.4701996095143715 
2.100000000000007, -1.4782686645153178 
2.1100000000000283, -1.4835511414175382 
2.1200000000000494, -1.4866852688731753 
2.1300000000000705, -1.4883615370625813 
2.1400000000000916, -1.489104070951065 
2.1500000000001127, -1.48925719264963 
2.160000000000134, -1.489036338875856 
2.170000000000155, -1.4885901797418768 
2.180000000000176, -1.4880541388583661 
2.190000000000197, -1.487572128541613 
2.2000000000002182, -1.4872652692841795 
2.2100000000002393, -1.4871805865361387 
2.2200000000002604, -1.4872858458055471 
2.2300000000002815, -1.4875027090573698 
2.2400000000003026, -1.4877306818923126 
2.2500000000003237, -1.4878628463689068 
2.260000000000345, -1.4877996180605728 
2.270000000000366, -1.4874474121621704 
2.280000000000387, -1.48670338643671 
2.290000000000408, -1.4854407234084763 
2.3000000000004293, -1.4835046449565514 
2.3100000000004504, -1.4807245197771777 
2.3200000000004715, -1.4769540949617603 
2.3300000000004926, -1.4721731279655215 
2.3400000000005137, -1.4666923884374703 
2.3500000000005348, -1.461378228352864 
2.360000000000556, -1.4574630708212952 
2.370000000000577, -1.4556313549652349 
2.380000000000598, -1.4554025522603466 
2.390000000000619, -1.4557939197232506 
2.4000000000006403, -1.4561513617284887 
2.4100000000006614, -1.4562361626934641 
2.4200000000006825, -1.4559848966826896 
2.4300000000007036, -1.455333263636899 
2.4400000000007247, -1.4541315826852723 
2.450000000000746, -1.4521242852571425 
2.460000000000767, -1.4491058893685465 
2.470000000000788, -1.4456203267303225 
2.480000000000809, -1.4442820190707317 
2.49000000000083, -1.4493405142785847 
2.5000000000008513, -1.4617793559189043 
2.5100000000008724, -1.4768768798136427 
2.5200000000008935, -1.489515839535475 
2.5300000000009146, -1.498020462819394 
2.5400000000009357, -1.503041126323698 
2.550000000000957, -1.5057375023761204 
2.560000000000978, -1.5070265566605738 
2.570000000000999, -1.5074859808173469 
2.58000000000102, -1.507448188209608 
2.5900000000010412, -1.507109779872883 
2.6000000000010624, -1.5066207087792407 
2.6100000000010835, -1.5061416557724052 
2.6200000000011046, -1.5058376783941871 
2.6300000000011257, -1.5058044795384449 
2.6400000000011468, -1.5060189453977235 
2.650000000001168, -1.5063794882047827 
2.660000000001189, -1.5067672384246686 
2.67000000000121, -1.5070714310938027 
2.680000000001231, -1.507196282257076 
2.6900000000012523, -1.5070600018954743 
2.7000000000012734, -1.506583980505722 
2.7100000000012945, -1.5056798410466194 
2.7200000000013156, -1.5042431997695618 
2.7300000000013367, -1.5021576136413166 
2.740000000001358, -1.4993138858991852 
2.750000000001379, -1.4956637600223428 
2.7600000000014, -1.4913443353275668 
2.770000000001421, -1.4868694740783186 
2.780000000001442, -1.4831631182102636 
2.7900000000014633, -1.4810335317229868 
2.8000000000014844, -1.4804358449233086 
2.8100000000015055, -1.4806245284963269 
2.8200000000015266, -1.4809200421849433 
2.8300000000015477, -1.481006561202336 
2.840000000001569, -1.4807788278981147 
2.85000000000159, -1.4801569869289295 
2.860000000001611, -1.4789788008232145 
2.870000000001632, -1.4769488825338206 
2.8800000000016532, -1.4737352697792798 
2.8900000000016743, -1.4696070857935317 
2.9000000000016954, -1.4669726640807936 
2.9100000000017165, -1.4706571551046914 
2.9200000000017377, -1.4827390547919734 
2.9300000000017588, -1.4984516805977164 
2.94000000000178, -1.5118049574885852 
2.950000000001801, -1.5207153934110313 
2.960000000001822, -1.5258882294595577 
2.970000000001843, -1.528616181086812 
2.9800000000018643, -1.5298955612885012 
2.9900000000018854, -1.5303362127358948 
3.0000000000019065, -1.5302804351517572 
3.0100000000019276, -1.5299280500432715 
3.0200000000019487, -1.529433292659125 
3.03000000000197, -1.5289632279864775 
3.040000000001991, -1.5286839336808864 
3.050000000002012, -1.5286797692280727 
3.060000000002033, -1.5289122231468248 
3.070000000002054, -1.529272145315217 
3.0800000000020753, -1.5296397881154946 
3.0900000000020964, -1.529905107936645 
3.1000000000021175, -1.5299726845713202 
3.1100000000021386, -1.529758523154325 
3.1200000000021597, -1.5291765270855817 
3.130000000002181, -1.5281239326522076 
3.140000000002202, -1.5264747342803198 
3.150000000002223, -1.524085466460418 
3.160000000002244, -1.5208233759059575 
3.1700000000022652, -1.5166483015213847 
3.1800000000022863, -1.511797037312728 
3.1900000000023074, -1.507019612970412 
3.2000000000023285, -1.503463220959953 
3.2100000000023496, -1.5018140851231796 
3.2200000000023707, -1.5016394153723918 
3.230000000002392, -1.502008058721905 
3.240000000002413, -1.5023088577518249 
3.250000000002434, -1.5023245046911833 
3.260000000002455, -1.501990281420961 
3.2700000000024763, -1.5012234638483375 
3.2800000000024974, -1.499846440614085 
3.2900000000025185, -1.4976047951591167 
3.3000000000025396, -1.4944878006564264 
3.3100000000025607, -1.4917669281451933 
3.3200000000025818, -1.4930251642213697 
3.330000000002603, -1.5015246352471634 
3.340000000002624, -1.515129210039503 
3.350000000002645, -1.5283532581388122 
3.360000000002666, -1.538053035021535 
3.3700000000026873, -1.5441020426639145 
3.3800000000027084, -1.5474985286476801 
3.3900000000027295, -1.5492189397314455 
3.4000000000027506, -1.549932929185967 
3.4100000000027717, -1.5500423636353289 
3.420000000002793, -1.5497820835506382 
3.430000000002814, -1.5493113444823732 
3.440000000002835, -1.5487794782561815 
3.450000000002856, -1.5483404329782706 
3.460000000002877, -1.5481034439901316 
3.4700000000028983, -1.548085037887669 
3.4800000000029194, -1.548227864619628 
3.4900000000029405, -1.5484403014709813 
3.5000000000029616, -1.5486137937701505 
3.5100000000029827, -1.5486373325001481 
3.520000000003004, -1.5484059700635378 
3.530000000003025, -1.547807776838424 
3.540000000003046, -1.5466985065716523 
3.550000000003067, -1.5448807836370098 
3.5600000000030882, -1.5420994557423402 
3.5700000000031094, -1.5380717961484431 
3.5800000000031305, -1.5326055312623794 
3.5900000000031516, -1.5259039642850007 
3.6000000000031727, -1.519028699030071 
3.6100000000031938, -1.5138383048191202 
3.620000000003215, -1.5115432454986606 
3.630000000003236, -1.511477450863342 
3.640000000003257, -1.5121751966891104 
3.650000000003278, -1.5127527386449562 
3.6600000000032993, -1.5129624376965858 
3.6700000000033204, -1.512789682208362 
3.6800000000033415, -1.51222202566443 
3.6900000000033626, -1.5111817608406013 
3.7000000000033837, -1.5095752650606313 
3.710000000003405, -1.507588815824087 
3.720000000003426, -1.506399065290613 
3.730000000003447, -1.5084732478075438 
3.740000000003468, -1.5153924388657627 
3.750000000003489, -1.5252888267810623 
3.7600000000035103, -1.5347839272587862 
3.7700000000035314, -1.5420155002967524 
3.7800000000035525, -1.5468100972492 
3.7900000000035736, -1.5496850783904865 
3.8000000000035947, -1.5512269559459095 
3.810000000003616, -1.5518912908239078 
3.820000000003637, -1.5519853021000611 
3.830000000003658, -1.5517072739792215 
3.840000000003679, -1.5511984230328026 
3.8500000000037002, -1.550587334604621 
3.8600000000037213, -1.5500036181209806 
3.8700000000037424, -1.5495513796001528 
3.8800000000037635, -1.5492811609356123 
3.8900000000037847, -1.5491904774419554 
3.9000000000038058, -1.549223967818429 
3.910000000003827, -1.549274770204137 
3.920000000003848, -1.5492137098307166 
3.930000000003869, -1.548913332215282 
3.94000000000389, -1.5482318186239281 
3.9500000000039113, -1.5469687732018298 
3.9600000000039324, -1.5448160229580288 
3.9700000000039535, -1.541323584087047 
3.9800000000039746, -1.5359259662971323 
3.9900000000039957, -1.5281523483597559 
4.000000000004016, -1.518241273227802 
4.010000000003993, -1.5080697075145304 
4.02000000000397, -1.5008800453681022 
4.030000000003946, -1.4983635984943393 
4.040000000003923, -1.4989568670398148 
4.0500000000039, -1.5003129337364813 
4.0600000000038765, -1.501311805648307 
4.070000000003853, -1.5017683574987168 
4.08000000000383, -1.5017650875550368 
4.090000000003807, -1.5013702113391882 
4.100000000003783, -1.500587287140196 
4.11000000000376, -1.499417115167907 
4.120000000003737, -1.498084135352399 
4.130000000003713, -1.4974630651742924 
4.14000000000369, -1.4991138348995852 
4.150000000003667, -1.5039099662950577 
4.1600000000036434, -1.5107077957123773 
4.17000000000362, -1.517471157388564 
4.180000000003597, -1.5229415631659284 
4.1900000000035735, -1.52683470172304 
4.20000000000355, -1.5293469657555137 
4.210000000003527, -1.5307954860505208 
4.220000000003504, -1.5314712982557948 
4.23000000000348, -1.5315994180204753 
4.240000000003457, -1.5313420799797448 
4.250000000003434, -1.5308210870552768 
4.26000000000341, -1.5301461178245583 
4.270000000003387, -1.529431270248494 
4.280000000003364, -1.528785891861856 
4.2900000000033405, -1.5282943632297266 
4.300000000003317, -1.5280034882110838 
4.310000000003294, -1.5279008377115464 
4.320000000003271, -1.527896601357516 
4.330000000003247, -1.5278532523975958 
4.340000000003224, -1.5276311593021112 
4.350000000003201, -1.5270889931558809 
4.360000000003177, -1.5260384772535474 
4.370000000003154, -1.52417993452864 
4.380000000003131, -1.521037840788528 
4.390000000003107, -1.5159344298455406 
4.400000000003084, -1.5081206367180138 
4.410000000003061, -1.497329993089621 
4.4200000000030375, -1.4849333780440461 
4.430000000003014, -1.4745551636350798 
4.440000000002991, -1.469536845855934 
4.450000000002968, -1.4693467144490073 
4.460000000002944, -1.4710218658270962 
4.470000000002921, -1.472576355947483 
4.480000000002898, -1.4734866303732042 
4.490000000002874, -1.4738181749863213 
4.500000000002851, -1.4737058901940787 
4.510000000002828, -1.4732167439557364 
4.520000000002804, -1.4723599601560884 
4.530000000002781, -1.4711913100729566 
4.540000000002758, -1.4700793483932553 
4.5500000000027345, -1.4700452142107794 
4.560000000002711, -1.4724504890260721 
4.570000000002688, -1.4775935865798346 
4.580000000002665, -1.4841078055829349 
4.590000000002641, -1.490282829114205 
4.600000000002618, -1.4951996355268116 
4.610000000002595, -1.4986938719590395 
4.620000000002571, -1.5009517072006973 
4.630000000002548, -1.5022470772456176 
4.640000000002525, -1.5028330184630099 
4.6500000000025015, -1.5029092185407573 
4.660000000002478, -1.50262354275857 
4.670000000002455, -1.5020911095937495 
4.6800000000024315, -1.5014192684299665 
4.690000000002408, -1.500720941728106 
4.700000000002385, -1.5001030961743371 
4.710000000002362, -1.4996449798713587 
4.720000000002338, -1.4993854428270317 
4.730000000002315, -1.49930624501053 
4.740000000002292, -1.4993196442996983 
4.750000000002268, -1.4992954521113533 
4.760000000002245, -1.4991015780462353 
4.770000000002222, -1.4986065941802926 
4.7800000000021985, -1.4976435678371671 
4.790000000002175, -1.49596030287974 
4.800000000002152, -1.4931755801623219 
4.810000000002129, -1.4887690970527248 
4.820000000002105, -1.482175666011711 
4.830000000002082, -1.473134161617556 
4.840000000002059, -1.4624300268679546 
4.850000000002035, -1.452533171019108 
4.860000000002012, -1.446436502227288 
4.870000000001989, -1.4447922899806491 
4.880000000001965, -1.4456200765707805 
4.890000000001942, -1.446895881514055 
4.900000000001919, -1.4477805265766426 
4.9100000000018955, -1.4481614817116513 
4.920000000001872, -1.448113184254443 
4.930000000001849, -1.447683993055965 
4.940000000001826, -1.4468558209916322 
