t, s[1].omega / s[0].omega 
0, -1.1999824985577046 
0.009999999999999995, -1.198082866550298 
0.019999999999999934, -1.1958881497592198 
0.029999999999999874, -1.1933999129815545 
0.04000000000000012, -1.190619954575205 
0.050000000000000405, -1.1875503074603642 
0.06000000000000069, -1.1841932413946128 
0.07000000000000098, -1.1805512664507942 
0.08000000000000126, -1.176627137607447 
0.09000000000000155, -1.172423860343459 
0.10000000000000184, -1.1679446971120453 
0.11000000000000212, -1.1631931745544493 
0.12000000000000241, -1.1581730913010793 
0.130000000000002, -1.1528885261973547 
0.1400000000000009, -1.147343846783447 
0.1499999999999998, -1.1415437178513923 
0.1599999999999987, -1.1354931098997991 
0.1699999999999976, -1.1291973073055115 
0.1799999999999965, -1.1226619160330744 
0.1899999999999954, -1.1158928707065967 
0.1999999999999943, -1.1088964408744977 
0.2099999999999932, -1.1016792363055554 
0.2199999999999921, -1.094248211164488 
0.229999999999991, -1.0866106669268938 
0.2399999999999899, -1.078774253906589 
0.2499999999999888, -1.0707469712830773 
0.2599999999999877, -1.0625371655329308 
0.2699999999999866, -1.0541535271861637 
0.2799999999999855, -1.0456050858469923 
0.2899999999999844, -1.0369012034376281 
0.2999999999999833, -1.0280515656437914 
0.3099999999999822, -1.0190661715611633 
0.3199999999999811, -1.0099553215629695 
0.32999999999998, -1.0007296034299598 
0.3399999999999789, -0.9913998768050227 
0.3499999999999778, -0.9819772560552995 
0.35999999999997667, -0.9724730916446346 
0.36999999999997557, -0.9628989501382106 
0.37999999999997447, -0.9532665929790202 
0.38999999999997337, -0.9435879541920718 
0.39999999999997227, -0.9338751171866614 
0.40999999999997117, -0.9241402908393829 
0.41999999999997006, -0.9143957850505879 
0.42999999999996896, -0.9046539859744576 
0.43999999999996786, -0.8949273311277108 
0.44999999999996676, -0.885228284583936 
0.45999999999996566, -0.8755693124597348 
0.46999999999996456, -0.8659628588951597 
0.47999999999996346, -0.8564213227244523 
0.48999999999996235, -0.846957035023933 
0.49999999999996125, -0.8375822377121793 
0.5099999999999602, -0.8283090633636429 
0.519999999999959, -0.8191495163807716 
0.529999999999958, -0.8101154556517735 
0.5399999999999568, -0.8012185788018534 
0.5499999999999557, -0.7924704081250937 
0.5599999999999546, -0.7838822782627923 
0.5699999999999535, -0.7754653256720478 
0.5799999999999524, -0.7672304799061829 
0.5899999999999513, -0.759188456706442 
0.5999999999999502, -0.7513497528825688 
0.6099999999999491, -0.7437246429386268 
0.619999999999948, -0.7363231773799417 
0.6299999999999469, -0.7291551826175621 
0.6399999999999458, -0.7222302623682302 
0.6499999999999447, -0.7155578004306874 
0.6599999999999436, -0.7091469647032527 
0.6699999999999425, -0.7030067122930805 
0.6799999999999414, -0.69714579555432 
0.6899999999999403, -0.6915727688805319 
0.6999999999999392, -0.686295996066224 
0.7099999999999381, -0.6813236580430665 
0.719999999999937, -0.6766637607883095 
0.7299999999999359, -0.6723241431960278 
0.7399999999999348, -0.6683124846959776 
0.7499999999999337, -0.6646363124001117 
0.7599999999999326, -0.6613030075529919 
0.7699999999999315, -0.6583198110595888 
0.7799999999999304, -0.6556938278621534 
0.7899999999999293, -0.6534320299370996 
0.7999999999999282, -0.6515412576832104 
0.8099999999999271, -0.6500282194740692 
0.819999999999926, -0.6488994891506039 
0.8299999999999249, -0.6481615012342182 
0.8399999999999238, -0.6478205436474237 
0.8499999999999227, -0.6478827477374665 
0.8599999999999216, -0.648354075409546 
0.8699999999999205, -0.6492403031902005 
0.8799999999999194, -0.6505470030587329 
0.8899999999999183, -0.6522795199056189 
0.8999999999999172, -0.6544429455021268 
0.9099999999999161, -0.6570420888953784 
0.919999999999915, -0.6600814431781782 
0.9299999999999139, -0.6635651486236093 
0.9399999999999128, -0.667496952220856 
0.9499999999999117, -0.671880163701287 
0.9599999999999106, -0.6767176082025171 
0.9699999999999095, -0.682011575782881 
0.9799999999999084, -0.6877637680692115 
0.9899999999999073, -0.6939752423963961 
0.9999999999999062, -0.70064635387706 
1.0099999999999052, -0.7077766959226973 
1.019999999999904, -0.7153650398221088 
1.029999999999903, -0.7234092740672382 
1.039999999999902, -0.7319063441981732 
1.0499999999999008, -0.7408521940156353 
1.0599999999998997, -0.750241709077882 
1.0699999999998986, -0.7600686634565129 
1.0799999999998975, -0.7703256707690131 
1.0899999999998964, -0.7810041405318103 
1.0999999999998953, -0.7920942408831136 
1.1099999999998942, -0.8035848687070921 
1.119999999999893, -0.8154636281477853 
1.129999999999892, -0.8277168184309198 
1.1399999999998909, -0.8403294318137313 
1.1499999999998898, -0.8532851623571801 
1.1599999999998887, -0.8665664260628935 
1.1699999999998876, -0.8801543927411979 
1.1799999999998865, -0.8940290297803128 
1.1899999999998854, -0.9081691577749613 
1.1999999999998843, -0.9225525177508546 
1.2099999999998832, -0.9371558494963723 
1.219999999999882, -0.9519549802910283 
1.229999999999881, -0.9669249231093573 
1.2399999999998799, -0.9820399831855058 
1.2499999999998788, -0.9972738716546177 
1.2599999999998777, -1.012599824847721 
1.2699999999998766, -1.0279907277117055 
1.2799999999998755, -1.0434192397582527 
1.2899999999998744, -1.058857921916912 
1.2999999999998733, -1.0742793626778613 
1.3099999999998722, -1.0896563019578012 
1.319999999999871, -1.1049617512050494 
1.32999999999987, -1.1201691083731145 
1.3399999999998689, -1.1352522665309097 
1.3499999999998678, -1.1501857150367707 
1.3599999999998666, -1.1649446323766333 
1.3699999999998655, -1.1795049699484093 
1.3799999999998644, -1.1938435262591218 
1.3899999999998633, -1.2079380111837332 
1.3999999999998622, -1.2217671001103922 
1.4099999999998611, -1.2353104779624995 
1.41999999999986, -1.248548873240511 
1.429999999999859, -1.2614640823638787 
1.4399999999998578, -1.2740389847143976 
1.4499999999998567, -1.2862575488858574 
1.4599999999998556, -1.2981048307309884 
1.4699999999998545, -1.30956696386546 
1.4799999999998534, -1.3206311433407274 
1.4899999999998523, -1.3312856032335592 
1.4999999999998512, -1.3415195889211904 
1.5099999999998501, -1.3513233248183745 
1.519999999999849, -1.3606879783473933 
1.529999999999848, -1.3696056208957095 
1.5399999999998468, -1.3780691864897898 
1.5499999999998457, -1.3860724288791695 
1.5599999999998446, -1.39360987768351 
1.5699999999998435, -1.4006767942086875 
1.5799999999998424, -1.4072691274873057 
1.5899999999998413, -1.4133834710457958 
1.5999999999998402, -1.419017020845839 
1.6099999999998391, -1.4241675347933325 
1.619999999999838, -1.4288332941546849 
1.629999999999837, -1.433013067168862 
1.6399999999998358, -1.436706075094896 
1.6499999999998347, -1.4399119608894195 
1.6599999999998336, -1.442630760667385 
1.6699999999998325, -1.444862878061874 
1.6799999999998314, -1.4466090615658964 
1.6899999999998303, -1.4478703849101122 
1.6999999999998292, -1.448648230505471 
1.709999999999828, -1.4489442759582771 
1.719999999999827, -1.4487604836468617 
1.729999999999826, -1.4480990933331614 
1.7399999999998248, -1.4469626177685089 
1.7499999999998237, -1.4453538412401472 
1.7599999999998226, -1.4432758209925762 
1.7699999999998215, -1.4407318914452638 
1.7799999999998204, -1.4377256711147477 
1.7899999999998193, -1.4342610721341185 
1.7999999999998182, -1.4303423122459438 
1.809999999999817, -1.4259739291253144 
1.819999999999816, -1.421160796867827 
1.8299999999998149, -1.4159081444528843 
1.8399999999998138, -1.4102215759658132 
1.8499999999998127, -1.404107092333464 
1.8599999999998116, -1.3975711142976421 
1.8699999999998105, -1.390620506319763 
1.8799999999998094, -1.3832626010794848 
1.8899999999998083, -1.375505224200796 
1.8999999999998072, -1.3673567188123146 
1.909999999999806, -1.358825969525635 
1.919999999999805, -1.3499224253975561 
1.9299999999998039, -1.340656121430025 
1.9399999999998028, -1.331037698156646 
1.9499999999998017, -1.3210784188671219 
1.9599999999998006, -1.310790184031628 
1.9699999999997995, -1.3001855425058406 
1.9799999999997984, -1.2892776991239703 
1.9899999999997973, -1.2780805183211341 
1.9999999999997962, -1.266608523467041 
2.0099999999998173, -1.2548768916390436 
2.0199999999998384, -1.2429014436132304 
2.0299999999998595, -1.2306986289059227 
2.0399999999998806, -1.2182855057537865 
2.0499999999999017, -1.2056797159774497 
2.059999999999923, -1.1928994547303908 
2.069999999999944, -1.1799634351911181 
2.079999999999965, -1.1668908483119764 
2.089999999999986, -1.1537013177920703 
2.100000000000007, -1.1404148504948264 
2.1100000000000283, -1.1270517825826605 
2.1200000000000494, -1.1136327216923019 
2.1300000000000705, -1.1001784855244847 
2.1400000000000916, -1.086710037270956 
2.1500000000001127, -1.0732484183495772 
2.160000000000134, -1.0598146789641911 
2.170000000000155, -1.0464298070488542 
2.180000000000176, -1.0331146561947846 
2.190000000000197, -1.0198898731914823 
2.2000000000002182, -1.0067758258393582 
2.2100000000002393, -0.9937925317082017 
2.2200000000002604, -0.9809595885224558 
2.2300000000002815, -0.9682961068492132 
2.2400000000003026, -0.9558206457471788 
2.2500000000003237, -0.943551152004099 
2.260000000000345, -0.9315049035462964 
2.270000000000366, -0.9196984575475607 
2.280000000000387, -0.9081476036968927 
2.290000000000408, -0.8968673230069062 
2.3000000000004293, -0.8858717524592722 
2.3100000000004504, -0.8751741556926718 
2.3200000000004715, -0.8647868998447732 
2.3300000000004926, -0.854721438565571 
2.3400000000005137, -0.8449883011273661 
2.3500000000005348, -0.835597087469268 
2.360000000000556, -0.8265564689334551 
2.370000000000577, -0.8178741943783379 
2.380000000000598, -0.8095571012916218 
2.390000000000619, -0.8016111314751075 
2.4000000000006403, -0.7940413508333839 
2.4100000000006614, -0.7868519727706089 
2.4200000000006825, -0.7800463846830064 
2.4300000000007036, -0.7736271770290913 
2.4400000000007247, -0.7675961744641071 
2.450000000000746, -0.7619544685386621 
2.460000000000767, -0.7567024514829934 
2.470000000000788, -0.7518398506263326 
2.480000000000809, -0.7473657630342648 
2.49000000000083, -0.7432786899844386 
2.5000000000008513, -0.7395765709413392 
2.5100000000008724, -0.7362568167328981 
2.5200000000008935, -0.7333163416744763 
2.5300000000009146, -0.7307515944283431 
2.5400000000009357, -0.7285585874283896 
2.550000000000957, -0.7267329247398238 
2.560000000000978, -0.7252698282615104 
2.570000000000999, -0.7241641622140291 
2.58000000000102, -0.723410455889145 
2.5900000000010412, -0.7230029246660752 
2.6000000000010624, -0.722935489326517 
2.6100000000010835, -0.7232017937239228 
2.6200000000011046, -0.7237952208829361 
2.6300000000011257, -0.7247089076223368 
2.6400000000011468, -0.7259357578093746 
2.650000000001168, -0.7274684543651386 
2.660000000001189, -0.7292994701497219 
2.67000000000121, -0.7314210778626085 
2.680000000001231, -0.7338253590980257 
2.6900000000012523, -0.7365042126971694 
2.7000000000012734, -0.7394493625393436 
2.7100000000012945, -0.7426523649123393 
2.7200000000013156, -0.7461046155989096 
2.7300000000013367, -0.7497973568111702 
2.740000000001358, -0.753721684098249 
2.750000000001379, -0.757868553344674 
2.7600000000014, -0.7622287879679819 
2.770000000001421, -0.7667930864139032 
2.780000000001442, -0.7715520300364413 
2.7900000000014633, -0.7764960914382725 
2.8000000000014844, -0.7816156433343341 
2.8100000000015055, -0.7869009679883158 
2.8200000000015266, -0.7923422672582191 
2.8300000000015477, -0.7979296732732968 
2.840000000001569, -0.8036532597506856 
2.85000000000159, -0.809503053946058 
2.860000000001611, -0.8154690492187868 
2.870000000001632, -0.8215412181785542 
2.8800000000016532, -0.8277095263672518 
2.8900000000016743, -0.8339639464175125 
2.9000000000016954, -0.8402944726174544 
2.9100000000017165, -0.8466911358002867 
2.9200000000017377, -0.8531440184675348 
2.9300000000017588, -0.8596432700458763 
2.94000000000178, -0.8661791221699755 
2.950000000001801, -0.8727419038775114 
2.960000000001822, -0.8793220565977651 
2.970000000001843, -0.8859101488117901 
2.9800000000018643, -0.8924968902604699 
2.9900000000018854, -0.8990731455765821 
3.0000000000019065, -0.9056299472185122 
3.0100000000019276, -0.9121585075864417 
3.0200000000019487, -0.9186502302067392 
3.03000000000197, -0.925096719876881 
3.040000000001991, -0.9314897916715295 
3.050000000002012, -0.9378214787203906 
3.060000000002033, -0.9440840386800986 
3.070000000002054, -0.950269958835591 
3.0800000000020753, -0.9563719597811706 
3.0900000000020964, -0.9623829976475775 
3.1000000000021175, -0.9682962648588462 
3.1100000000021386, -0.9741051894212422 
3.1200000000021597, -0.9798034327661082 
3.130000000002181, -0.9853848861886506 
3.140000000002202, -0.9908436659453823 
3.150000000002223, -0.9961741070938089 
3.160000000002244, -1.0013707561786382 
3.1700000000022652, -1.0064283628890076 
3.1800000000022863, -1.0113418708305395 
3.1900000000023074, -1.0161064075740125 
3.2000000000023285, -1.0207172741588109 
3.2100000000023496, -1.0251699342434553 
3.2200000000023707, -1.0294600031072074 
3.230000000002392, -1.0335832367154847 
3.240000000002413, -1.037535521067293 
3.250000000002434, -1.041312862044822 
3.260000000002455, -1.0449113759834208 
3.2700000000024763, -1.0483272811742932 
3.2800000000024974, -1.0515568905022696 
3.2900000000025185, -1.0545966054069775 
3.3000000000025396, -1.0574429113376722 
3.3100000000025607, -1.0600923748502133 
3.3200000000025818, -1.0625416424693839 
3.330000000002603, -1.064787441411427 
3.340000000002624, -1.0668265822307976 
3.350000000002645, -1.0686559634223092 
3.360000000002666, -1.0702725779757922 
3.3700000000026873, -1.0716735218456992 
3.3800000000027084, -1.072856004263794 
3.3900000000027295, -1.0738173597896594 
3.4000000000027506, -1.0745550619623152 
3.4100000000027717, -1.0750667383873087 
3.420000000002793, -1.0753501870681101 
3.430000000002814, -1.0754033937689997 
3.440000000002835, -1.075224550179487 
3.450000000002856, -1.0748120726380699 
3.460000000002877, -1.0741646211660052 
3.4700000000028983, -1.0732811185599251 
3.4800000000029194, -1.0721607692955148 
3.4900000000029405, -1.0708030780028153 
3.5000000000029616, -1.069207867286779 
3.5100000000029827, -1.0673752946838744 
3.520000000003004, -1.0653058685662928 
3.530000000003025, -1.0630004628288647 
3.540000000003046, -1.0604603302194018 
3.550000000003067, -1.0576871142000797 
3.5600000000030882, -1.0546828592546809 
3.5700000000031094, -1.0514500195834582 
3.5800000000031305, -1.047991466153118 
3.5900000000031516, -1.0443104920934279 
3.6000000000031727, -1.0404108164536203 
3.6100000000031938, -1.0362965863507163 
3.620000000003215, -1.0319723775577438 
3.630000000003236, -1.0274431935925792 
3.640000000003257, -1.022714463377603 
3.650000000003278, -1.017792037546764 
3.6600000000032993, -1.0126821834801674 
3.6700000000033204, -1.0073915791472703 
3.6800000000033415, -1.0019273058385758 
3.6900000000033626, -0.996296839862777 
3.7000000000033837, -0.9905080432822186 
3.710000000003405, -0.9845691537546006 
3.720000000003426, -0.9784887735436895 
3.730000000003447, -0.9722758577567726 
3.740000000003468, -0.9659397018620532 
3.750000000003489, -0.9594899285355037 
3.7600000000035103, -0.9529364738840582 
3.7700000000035314, -0.9462895730905456 
3.7800000000035525, -0.9395597455256247 
3.7900000000035736, -0.932757779372996 
3.8000000000035947, -0.9258947158163815 
3.810000000003616, -0.918981832839925 
3.820000000003637, -0.9120306286975529 
3.830000000003658, -0.9050528051112673 
3.840000000003679, -0.89806025026286 
3.8500000000037002, -0.8910650216480077 
3.8600000000037213, -0.8840793288656291 
3.8700000000037424, -0.8771155164185938 
3.8800000000037635, -0.8701860466039971 
3.8900000000037847, -0.8633034825720008 
3.9000000000038058, -0.8564804716315197 
3.910000000003827, -0.8497297288785688 
3.920000000003848, -0.843064021218828 
3.930000000003869, -0.8364961518497911 
3.94000000000389, -0.8300389452597553 
3.9500000000039113, -0.823705232790952 
3.9600000000039324, -0.8175078388023099 
3.9700000000039535, -0.8114595674538533 
3.9800000000039746, -0.805573190119724 
3.9900000000039957, -0.7998614334204335 
4.000000000004016, -0.7943369678474386 
4.010000000003993, -0.7890123969346869 
4.02000000000397, -0.7839002469126509 
4.030000000003946, -0.7790129567608396 
4.040000000003923, -0.7743628685550312 
4.0500000000039, -0.7699622179858514 
4.0600000000038765, -0.7658231249060318 
4.070000000003853, -0.7619575837450251 
4.08000000000383, -0.7583774536119187 
4.090000000003807, -0.7550944478909989 
4.100000000003783, -0.7521201231192745 
4.11000000000376, -0.7494658669219957 
4.120000000003737, -0.7471428847711163 
4.130000000003713, -0.7451621853230583 
4.14000000000369, -0.7435345640864908 
4.150000000003667, -0.7422705851685374 
4.1600000000036434, -0.7413805608493634 
4.17000000000362, -0.740874528740952 
4.180000000003597, -0.7407622262966236 
4.1900000000035735, -0.7410530624539998 
4.20000000000355, -0.7417560862162992 
4.210000000003527, -0.7428799520055688 
4.220000000003504, -0.7444328816573447 
4.23000000000348, -0.7464226229697016 
4.240000000003457, -0.748856404771188 
4.250000000003434, -0.7517408885319987 
4.26000000000341, -0.7550821166110501 
4.270000000003387, -0.7588854573083154 
4.280000000003364, -0.7631555469764667 
4.2900000000033405, -0.7678962295379007 
4.300000000003317, -0.7731104938515156 
4.310000000003294, -0.7788004094766878 
4.320000000003271, -0.7849670614878023 
4.330000000003247, -0.7916104850990419 
4.340000000003224, -0.798729600962939 
4.350000000003201, -0.8063221521041486 
4.360000000003177, -0.814384643538153 
4.370000000003154, -0.8229122856991072 
4.380000000003131, -0.8318989428574245 
4.390000000003107, -0.8413370877417321 
4.400000000003084, -0.8512177635873417 
4.410000000003061, -0.861530554810631 
4.4200000000030375, -0.8722635674527689 
4.430000000003014, -0.883403420444902 
4.440000000002991, -0.8949352486193553 
4.450000000002968, -0.9068427182281207 
4.460000000002944, -0.9191080555330643 
4.470000000002921, -0.9317120888055281 
4.480000000002898, -0.9446343038219489 
4.490000000002874, -0.9578529126736266 
4.500000000002851, -0.9713449354313035 
4.510000000002828, -0.9850862939280031 
4.520000000002804, -0.9990519166565915 
4.530000000002781, -1.013215853531695 
4.540000000002758, -1.0275513990483027 
4.5500000000027345, -1.0420312221900883 
4.560000000002711, -1.0566275013058788 
4.570000000002688, -1.071312062087668 
4.580000000002665, -1.086056516750589 
4.590000000002641, -1.100832402534381 
4.600000000002618, -1.1156113177147362 
4.610000000002595, -1.130365053426949 
4.620000000002571, -1.1450657197569831 
4.630000000002548, -1.1596858647385409 
4.640000000002525, -1.1741985851002361 
4.6500000000025015, -1.1885776278254472 
4.660000000002478, -1.2027974818100813 
4.670000000002455, -1.2168334591223733 
4.6800000000024315, -1.2306617655770888 
4.690000000002408, -1.2442595605287574 
4.700000000002385, -1.2576050059610209 
4.710000000002362, -1.270677305099611 
4.720000000002338, -1.2834567309040528 
4.730000000002315, -1.2959246448983985 
4.740000000002292, -1.3080635068854927 
4.750000000002268, -1.3198568761543705 
4.760000000002245, -1.33128940483892 
4.770000000002222, -1.3423468241200207 
4.7800000000021985, -1.3530159239855803 
4.790000000002175, -1.3632845272748766 
4.800000000002152, -1.3731414587372026 
4.810000000002129, -1.3825765098311171 
4.820000000002105, -1.3915803999804808 
4.830000000002082, -1.4001447349875578 
4.840000000002059, -1.4082619632821796 
4.850000000002035, -1.4159253306596074 
4.860000000002012, -1.4231288341286092 
4.870000000001989, -1.4298671754558612 
4.880000000001965, -1.4361357149534804 
4.890000000001942, -1.441930426013983 
4.900000000001919, -1.4472478508519908 
4.9100000000018955, -1.452085057865418 
4.920000000001872, -1.4564396009815062 
4.930000000001849, -1.460309481305986 
