t, s[1].omega / s[0].omega 
0, -0.7999946766334696 
0.009999999999999995, -0.7994339510838018 
0.019999999999999934, -0.7988231552289766 
0.029999999999999874, -0.7981681564465553 
0.04000000000000012, -0.7974743974448424 
0.050000000000000405, -0.7967521548259839 
0.06000000000000069, -0.7960202734742762 
0.07000000000000098, -0.7953079192135709 
0.08000000000000126, -0.7946547974372768 
0.09000000000000155, -0.7941098215902664 
0.10000000000000184, -0.7937275724925735 
0.11000000000000212, -0.7935621992352533 
0.12000000000000241, -0.7936597401952843 
0.130000000000002, -0.7940511841588004 
0.1400000000000009, -0.7947487171586789 
0.1499999999999998, -0.7957461810710555 
0.1599999999999987, -0.7970226722120988 
0.1699999999999976, -0.7985466471273731 
0.1799999999999965, -0.8002775495157664 
0.1899999999999954, -0.8021629888384872 
0.1999999999999943, -0.8041320832843102 
0.2099999999999932, -0.8060897130399111 
0.2199999999999921, -0.8079200984153456 
0.229999999999991, -0.809506035614017 
0.2399999999999899, -0.8107587003284712 
0.2499999999999888, -0.8116404668739096 
0.2599999999999877, -0.8121657643935174 
0.2699999999999866, -0.812382463183081 
0.2799999999999855, -0.812348905673187 
0.2899999999999844, -0.8121189764004748 
0.2999999999999833, -0.8117386841169909 
0.3099999999999822, -0.8112529409030195 
0.3199999999999811, -0.8107215808098417 
0.32999999999998, -0.8102454496549856 
0.3399999999999789, -0.8100028891985979 
0.3499999999999778, -0.8102911099154728 
0.35999999999997667, -0.8115545618331996 
0.36999999999997557, -0.814367733344732 
0.37999999999997447, -0.8193349951324735 
0.38999999999997337, -0.8268899120186308 
0.39999999999997227, -0.8370288112960335 
0.40999999999997117, -0.8490943020536257 
0.41999999999997006, -0.8617950694144849 
0.42999999999996896, -0.8735904790118543 
0.43999999999996786, -0.8832876306907427 
0.44999999999996676, -0.8904324090563385 
0.45999999999996566, -0.89524074682727 
0.46999999999996456, -0.8982503606137966 
0.47999999999996346, -0.9000126446322023 
0.48999999999996235, -0.9009526144132269 
0.49999999999996125, -0.9013511615215443 
0.5099999999999602, -0.9013739549281038 
0.519999999999959, -0.9011044107594557 
0.529999999999958, -0.900567508963212 
0.5399999999999568, -0.8997452777927017 
0.5499999999999557, -0.8985914212096315 
0.5599999999999546, -0.8970595581982194 
0.5699999999999535, -0.8951699201871886 
0.5799999999999524, -0.8931454974550009 
0.5899999999999513, -0.8916184143829232 
0.5999999999999502, -0.8917860665499882 
0.6099999999999491, -0.8952057646130853 
0.619999999999948, -0.902956298463943 
0.6299999999999469, -0.9145669053754393 
0.6399999999999458, -0.9278689892454477 
0.6499999999999447, -0.9402375523463664 
0.6599999999999436, -0.9500181906040062 
0.6699999999999425, -0.9568861628619297 
0.6799999999999414, -0.9613248957312145 
0.6899999999999403, -0.9640255381703365 
0.6999999999999392, -0.965574977134437 
0.7099999999999381, -0.966379739790059 
0.719999999999937, -0.9666893921604369 
0.7299999999999359, -0.9666384005254101 
0.7399999999999348, -0.9662772225889315 
0.7499999999999337, -0.965586887509111 
0.7599999999999326, -0.9644785830824484 
0.7699999999999315, -0.9627828984771968 
0.7799999999999304, -0.9602409925875535 
0.7899999999999293, -0.9565297739289296 
0.7999999999999282, -0.951385093173756 
0.8099999999999271, -0.9448915487045125 
0.819999999999926, -0.9378730903826792 
0.8299999999999249, -0.9319958634975961 
0.8399999999999238, -0.9290900573148619 
0.8499999999999227, -0.929940047468538 
0.8599999999999216, -0.9337183892877258 
0.8699999999999205, -0.9386940896804159 
0.8799999999999194, -0.9433743593733425 
0.8899999999999183, -0.9470360122659425 
0.8999999999999172, -0.9495826087697219 
0.9099999999999161, -0.951204738438965 
0.919999999999915, -0.9521443517015296 
0.9299999999999139, -0.9525956718787183 
0.9399999999999128, -0.9526824557366259 
0.9499999999999117, -0.9524609381435226 
0.9599999999999106, -0.9519230206975127 
0.9699999999999095, -0.9509888746836722 
0.9799999999999084, -0.949483471049866 
0.9899999999999073, -0.9470944127085259 
0.9999999999999062, -0.9433180127871947 
1.0099999999999052, -0.9374317625375113 
1.019999999999904, -0.9285973806266764 
1.029999999999903, -0.9162565095423858 
1.039999999999902, -0.9008357435626525 
1.0499999999999008, -0.8842484253343452 
1.0599999999998997, -0.8693408026759105 
1.0699999999998986, -0.8583663240871549 
1.0799999999998975, -0.8518906213897122 
1.0899999999998964, -0.8490246462167874 
1.0999999999998953, -0.8483722521829009 
1.1099999999998942, -0.8487568992286209 
1.119999999999893, -0.8494500588036867 
1.129999999999892, -0.8500953600451764 
1.1399999999998909, -0.8505574984145985 
1.1499999999998898, -0.8508029959542627 
1.1599999999998887, -0.8508298396404287 
1.1699999999998876, -0.8506308509381393 
1.1799999999998865, -0.8501734770656799 
1.1899999999998854, -0.8493848103852549 
1.1999999999998843, -0.8481376223039016 
1.2099999999998832, -0.8462415336562966 
1.219999999999882, -0.8434548459038368 
1.229999999999881, -0.8395413562467263 
1.2399999999998799, -0.8343816892544045 
1.2499999999998788, -0.8280936169743741 
1.2599999999998777, -0.8210660598986916 
1.2699999999998766, -0.8138571609358966 
1.2799999999998755, -0.8070235634941415 
1.2899999999998744, -0.8009900769852611 
1.2999999999998733, -0.7960028086841068 
1.3099999999998722, -0.7921408932708905 
1.319999999999871, -0.7893510992989661 
1.32999999999987, -0.7874880327579296 
1.3399999999998689, -0.7863557009024562 
1.3499999999998678, -0.7857469603142542 
1.3599999999998666, -0.7854744575156745 
1.3699999999998655, -0.7853877083701272 
1.3799999999998644, -0.7853760575092379 
1.3899999999998633, -0.7853620200178258 
1.3999999999998622, -0.7852910354792505 
1.4099999999998611, -0.7851225354969555 
1.41999999999986, -0.7848252913324976 
1.429999999999859, -0.784378041035643 
1.4399999999998578, -0.7837739335792453 
1.4499999999998567, -0.7830245179141023 
1.4599999999998556, -0.7821582438557844 
1.4699999999998545, -0.7812121600537015 
1.4799999999998534, -0.7802212977401616 
1.4899999999998523, -0.7792121432849551 
1.4999999999998512, -0.7782029160725827 
1.5099999999998501, -0.777208529688534 
1.519999999999849, -0.7762463476952511 
1.529999999999848, -0.7753400924738622 
1.5399999999998468, -0.7745211194909144 
1.5499999999998457, -0.7738271688792289 
1.5599999999998446, -0.7732988549805471 
1.5699999999998435, -0.7729744137468655 
1.5799999999998424, -0.7728838857625877 
1.5899999999998413, -0.7730444737379487 
1.5999999999998402, -0.7734586323997188 
1.6099999999998391, -0.774115419215185 
1.619999999999838, -0.774994278418111 
1.629999999999837, -0.7760694131150327 
1.6399999999998358, -0.7773125538553924 
1.6499999999998347, -0.7786922674361972 
1.6599999999998336, -0.7801690735606573 
1.6699999999998325, -0.7816879628608989 
1.6799999999998314, -0.7831733430700354 
1.6899999999998303, -0.7845336237161739 
1.6999999999998292, -0.7856790007321491 
1.709999999999828, -0.7865455351028889 
1.719999999999827, -0.7871106152976161 
1.729999999999826, -0.7873904433898031 
1.7399999999998248, -0.7874243980463118 
1.7499999999998237, -0.7872584537654777 
1.7599999999998226, -0.7869361143564275 
1.7699999999998215, -0.786498923791283 
1.7799999999998204, -0.7859959142045038 
1.7899999999998193, -0.785501901406022 
1.7999999999998182, -0.7851452120969542 
1.809999999999817, -0.7851432906981979 
1.819999999999816, -0.7858376503349352 
1.8299999999998149, -0.787708127087758 
1.8399999999998138, -0.7913354076951034 
1.8499999999998127, -0.7972800507921933 
1.8599999999998116, -0.8058669893984571 
1.8699999999998105, -0.8169187343789348 
1.8799999999998094, -0.8295724110901194 
1.8899999999998083, -0.8423872696352868 
1.8999999999998072, -0.8538341485515935 
1.909999999999806, -0.8629044508020627 
1.919999999999805, -0.8693803078120215 
1.9299999999998039, -0.8736337247246835 
1.9399999999998028, -0.8762472883479993 
1.9499999999998017, -0.8777501656696508 
1.9599999999998006, -0.8785258579429204 
1.9699999999997995, -0.8788179710644654 
1.9799999999997984, -0.8787642730168356 
1.9899999999997973, -0.8784271190679818 
1.9999999999997962, -0.8778124804704508 
2.0099999999998173, -0.8768795079494313 
2.0199999999998384, -0.8755468541208191 
2.0299999999998595, -0.8737074808385079 
2.0399999999998806, -0.8712732287176049 
2.0499999999999017, -0.8682786463218555 
2.059999999999923, -0.8650546111249554 
2.069999999999944, -0.8623899135946294 
2.079999999999965, -0.8614491402314901 
2.089999999999986, -0.8632423912302498 
2.100000000000007, -0.8679042608548793 
2.1100000000000283, -0.8744769557553145 
2.1200000000000494, -0.8814712544801487 
2.1300000000000705, -0.8876579736312353 
2.1400000000000916, -0.8924572815863469 
2.1500000000001127, -0.8958450163361942 
2.160000000000134, -0.8980720093874822 
2.170000000000155, -0.8994421698330386 
2.180000000000176, -0.900207683798582 
2.190000000000197, -0.9005423321251105 
2.2000000000002182, -0.9005464618622667 
2.2100000000002393, -0.9002565960555897 
2.2200000000002604, -0.899647746535209 
2.2300000000002815, -0.8986229482156685 
2.2400000000003026, -0.8969862141775181 
2.2500000000003237, -0.8943974583205734 
2.260000000000345, -0.8903198381985721 
2.270000000000366, -0.8840062615394283 
2.280000000000387, -0.8746376926556382 
2.290000000000408, -0.8617503107693478 
2.3000000000004293, -0.8458725807678107 
2.3100000000004504, -0.8288202498365941 
2.3200000000004715, -0.8130678866595001 
2.3300000000004926, -0.8005508862771473 
2.3400000000005137, -0.7919387752397835 
2.3500000000005348, -0.7867929532895335 
2.360000000000556, -0.7841604736441278 
2.370000000000577, -0.7830795257696725 
2.380000000000598, -0.7828186545601055 
2.390000000000619, -0.7829109045643313 
2.4000000000006403, -0.7830945741833648 
2.4100000000006614, -0.783236911110894 
2.4200000000006825, -0.783273038663437 
2.4300000000007036, -0.7831656145591159 
2.4400000000007247, -0.7828805630815026 
2.450000000000746, -0.7823734321915301 
2.460000000000767, -0.7815840271116197 
2.470000000000788, -0.7804409667520477 
2.480000000000809, -0.7788796904102387 
2.49000000000083, -0.7768726751321877 
2.5000000000008513, -0.7744581431843282 
2.5100000000008724, -0.7717452608377664 
2.5200000000008935, -0.7688867712354213 
2.5300000000009146, -0.7660364040981154 
2.5400000000009357, -0.7633177890900089 
2.550000000000957, -0.7608159969820579 
2.560000000000978, -0.7585846670045513 
2.570000000000999, -0.7566568075019016 
2.58000000000102, -0.7550519955154085 
2.5900000000010412, -0.7537784400899978 
2.6000000000010624, -0.7528317072685031 
2.6100000000010835, -0.7521929458683052 
2.6200000000011046, -0.7518290036287938 
2.6300000000011257, -0.7516954690744455 
2.6400000000011468, -0.7517420543212363 
2.650000000001168, -0.7519186514689907 
2.660000000001189, -0.7521803765694172 
2.67000000000121, -0.7524907509457239 
2.680000000001231, -0.7528230616377456 
2.6900000000012523, -0.7531601676141328 
2.7000000000012734, -0.7534925544645503 
2.7100000000012945, -0.7538141310172942 
2.7200000000013156, -0.7541161755886434 
2.7300000000013367, -0.7543819044804023 
2.740000000001358, -0.7545854267875419 
2.750000000001379, -0.7546971090788858 
2.7600000000014, -0.7546929450243656 
2.770000000001421, -0.754562325446544 
2.780000000001442, -0.7543102603795473 
2.7900000000014633, -0.7539549945007558 
2.8000000000014844, -0.7535251298017164 
2.8100000000015055, -0.7530598449735273 
2.8200000000015266, -0.752613498316599 
2.8300000000015477, -0.7522638033440135 
2.840000000001569, -0.7521211325696189 
2.85000000000159, -0.752335046267756 
2.860000000001611, -0.7530933163786429 
2.870000000001632, -0.7546095559456997 
2.8800000000016532, -0.7570981995845409 
2.8900000000016743, -0.7607381055617772 
2.9000000000016954, -0.7656261042304472 
2.9100000000017165, -0.7717208448919763 
2.9200000000017377, -0.7787833710180763 
2.9300000000017588, -0.7863430854206946 
2.94000000000178, -0.7937452997294929 
2.950000000001801, -0.8003186208430847 
2.960000000001822, -0.8055989764174274 
2.970000000001843, -0.8094568670627835 
2.9800000000018643, -0.8120452973389712 
2.9900000000018854, -0.8136461586144421 
3.0000000000019065, -0.8145384278521665 
3.0100000000019276, -0.8149366813698965 
3.0200000000019487, -0.8149815119242 
3.03000000000197, -0.8147507884235947 
3.040000000001991, -0.814273327059559 
3.050000000002012, -0.813538961210152 
3.060000000002033, -0.8125060587555287 
3.070000000002054, -0.8111122064983496 
3.0800000000020753, -0.8092989958569905 
3.0900000000020964, -0.8070668321844743 
3.1000000000021175, -0.8045707877653893 
3.1100000000021386, -0.8022311600081155 
3.1200000000021597, -0.8007509721633564 
3.130000000002181, -0.8008906198057965 
3.140000000002202, -0.8030365977299907 
3.150000000002223, -0.8069291972112514 
3.160000000002244, -0.8118183015079478 
3.1700000000022652, -0.8168393302992903 
3.1800000000022863, -0.8213161049805653 
3.1900000000023074, -0.8248981202566892 
3.2000000000023285, -0.8275324415040363 
3.2100000000023496, -0.8293414066055129 
3.2200000000023707, -0.8305031270332153 
3.230000000002392, -0.8311805423929461 
3.240000000002413, -0.831493711616592 
3.250000000002434, -0.8315146078819584 
3.260000000002455, -0.831268137309595 
3.2700000000024763, -0.8307302811457472 
3.2800000000024974, -0.8298187412197665 
3.2900000000025185, -0.828374362852131 
3.3000000000025396, -0.8261369119645737 
3.3100000000025607, -0.8227325201540674 
3.3200000000025818, -0.817714960483405 
3.330000000002603, -0.8107174363938029 
3.340000000002624, -0.801712448785888 
3.350000000002645, -0.7912209910896231 
3.360000000002666, -0.7802402607330988 
3.3700000000026873, -0.7698804708144014 
3.3800000000027084, -0.7609832077669257 
3.3900000000027295, -0.7539551633996866 
3.4000000000027506, -0.748814150194142 
3.4100000000027717, -0.745326083958486 
3.420000000002793, -0.743140973022859 
3.430000000002814, -0.7418932090501282 
3.440000000002835, -0.7412618047141002 
3.450000000002856, -0.7409964336184209 
3.460000000002877, -0.7409187765179412 
3.4700000000028983, -0.7409098124973621 
3.4800000000029194, -0.7408922796029228 
3.4900000000029405, -0.740814452019177 
3.5000000000029616, -0.7406384094898545 
3.5100000000029827, -0.7403341377640487 
3.520000000003004, -0.7398797230412336 
3.530000000003025, -0.7392663226894626 
3.540000000003046, -0.7385039134594689 
3.550000000003067, -0.737622024648711 
3.5600000000030882, -0.7366622635852151 
3.5700000000031094, -0.7356659477587117 
3.5800000000031305, -0.7346642888013807 
3.5900000000031516, -0.7336760686508724 
3.6000000000031727, -0.7327119964234783 
3.6100000000031938, -0.7317815679646149 
3.620000000003215, -0.7308987704779165 
3.630000000003236, -0.7300852172632541 
3.640000000003257, -0.7293708942254419 
3.650000000003278, -0.7287930098437752 
3.6600000000032993, -0.7283931990984637 
3.6700000000033204, -0.728213371879608 
3.6800000000033415, -0.7282909799249697 
3.6900000000033626, -0.7286549611986548 
3.7000000000033837, -0.7293235614907235 
3.710000000003405, -0.730304454086643 
3.720000000003426, -0.7315963750629224 
3.730000000003447, -0.7331903557275398 
3.740000000003468, -0.7350679925519804 
3.750000000003489, -0.7371945419075957 
3.7600000000035103, -0.7395068733939153 
3.7700000000035314, -0.7419013939008616 
3.7800000000035525, -0.7442334209967958 
3.7900000000035736, -0.7463397956605581 
3.8000000000035947, -0.748082139872668 
3.810000000003616, -0.7493866044192032 
3.820000000003637, -0.7502535762724445 
3.830000000003658, -0.7507354886746894 
3.840000000003679, -0.7509035783666235 
3.8500000000037002, -0.750823093554543 
3.8600000000037213, -0.7505425648270728 
3.8700000000037424, -0.7500939654436165 
3.8800000000037635, -0.7495001766380753 
3.8900000000037847, -0.7487897473669711 
3.9000000000038058, -0.7480231778323339 
3.910000000003827, -0.7473382384883478 
3.920000000003848, -0.7470211542556089 
3.930000000003869, -0.747598086293827 
3.94000000000389, -0.7499041381795473 
3.9500000000039113, -0.75501905591418 
3.9600000000039324, -0.7639064216633608 
3.9700000000039535, -0.7767191399294975 
3.9800000000039746, -0.7921916681469647 
3.9900000000039957, -0.8079063064361802 
4.000000000004016, -0.8215319005952775 
4.010000000003993, -0.8319088089441001 
4.02000000000397, -0.839094550582151 
4.030000000003946, -0.8437600478785339 
4.040000000003923, -0.8466565074919903 
4.0500000000039, -0.8483817192788345 
4.0600000000038765, -0.849344037695051 
4.070000000003853, -0.8497980081648908 
4.08000000000383, -0.8498879049736123 
4.090000000003807, -0.8496786389142098 
4.100000000003783, -0.8491705319860936 
4.11000000000376, -0.8482981826940998 
4.120000000003737, -0.8469127325475567 
4.130000000003713, -0.8447460982834037 
4.14000000000369, -0.8413608672217763 
4.150000000003667, -0.8361119708629298 
4.1600000000036434, -0.8281995541420603 
4.17000000000362, -0.816951354066533 
4.180000000003597, -0.8023886039267575 
4.1900000000035735, -0.7857343887975925 
4.20000000000355, -0.7692012859078874 
4.210000000003527, -0.7549711507925526 
4.220000000003504, -0.7442419434935277 
4.23000000000348, -0.7370629280614669 
4.240000000003457, -0.7327693506457676 
4.250000000003434, -0.730489230621877 
4.26000000000341, -0.7294520456297973 
4.270000000003387, -0.7290963929854506 
4.280000000003364, -0.729061616682894 
4.2900000000033405, -0.7291364036978324 
4.300000000003317, -0.7292043402954159 
4.310000000003294, -0.7292014342877218 
4.320000000003271, -0.7290875481360137 
4.330000000003247, -0.7288291538366308 
4.340000000003224, -0.7283908710962905 
4.350000000003201, -0.7277350106037012 
4.360000000003177, -0.7268294628196295 
4.370000000003154, -0.7256623352081082 
4.380000000003131, -0.7242561896600817 
4.390000000003107, -0.7226707553377875 
4.400000000003084, -0.7209886836212973 
4.410000000003061, -0.7192921990110233 
4.4200000000030375, -0.7176451486257955 
4.430000000003014, -0.7160882727836773 
4.440000000002991, -0.7146450015162904 
4.450000000002968, -0.7133306922444365 
4.460000000002944, -0.7121600035745881 
4.470000000002921, -0.7111504971055203 
4.480000000002898, -0.7103227687086119 
4.490000000002874, -0.7096982051437285 
4.500000000002851, -0.7092956003041838 
4.510000000002828, -0.7091278616423156 
4.520000000002804, -0.7091999089139398 
4.530000000002781, -0.7095084631072354 
4.540000000002758, -0.7100437539018225 
4.5500000000027345, -0.7107924519932453 
4.560000000002711, -0.7117405817751334 
4.570000000002688, -0.7128748568444874 
4.580000000002665, -0.714180804110552 
4.590000000002641, -0.7156364774108392 
4.600000000002618, -0.7172022768388724 
4.610000000002595, -0.7188110266945754 
4.620000000002571, -0.7203666124542679 
4.630000000002548, -0.7217589762410315 
4.640000000002525, -0.7228931121666752 
4.6500000000025015, -0.7237158379689916 
4.660000000002478, -0.7242231363137895 
4.670000000002455, -0.7244466479209895 
4.6800000000024315, -0.7244323681494454 
4.690000000002408, -0.7242243672737774 
4.700000000002385, -0.7238580915184603 
4.710000000002362, -0.7233623078146842 
4.720000000002338, -0.7227685319535795 
4.730000000002315, -0.7221293404699449 
4.740000000002292, -0.7215498717690795 
4.750000000002268, -0.7212380258488286 
4.760000000002245, -0.7215746371927777 
4.770000000002222, -0.7231878412750198 
4.7800000000021985, -0.726976468136989 
4.790000000002175, -0.7339685954306694 
4.800000000002152, -0.7448832953989585 
4.810000000002129, -0.759446380528278 
4.820000000002105, -0.7759713306322438 
4.830000000002082, -0.7919047153870238 
4.840000000002059, -0.8051414386108805 
4.850000000002035, -0.8148898434159774 
4.860000000002012, -0.8214755041930444 
4.870000000001989, -0.825677071459593 
4.880000000001965, -0.8282511575288491 
4.890000000001942, -0.8297632209420301 
4.900000000001919, -0.8305856481396819 
4.9100000000018955, -0.8309443292413896 
4.920000000001872, -0.8309627521661399 
