t, s[1].omega / s[0].omega 
0, -1.0499984044946955 
0.009999999999999995, -1.0497406269774319 
0.019999999999999934, -1.0492977624242752 
0.029999999999999874, -1.0487738329130043 
0.04000000000000012, -1.0483836741314483 
0.050000000000000405, -1.0482702092122789 
0.06000000000000069, -1.0483358512762162 
0.07000000000000098, -1.0483245067808697 
0.08000000000000126, -1.048079259197528 
0.09000000000000155, -1.047602342823368 
0.10000000000000184, -1.0469492702416492 
0.11000000000000212, -1.0462098935800546 
0.12000000000000241, -1.0455844025061793 
0.130000000000002, -1.045285589297808 
0.1400000000000009, -1.0452557209273419 
0.1499999999999998, -1.0451738525169505 
0.1599999999999987, -1.044797119420143 
0.1699999999999976, -1.0440777586190269 
0.1799999999999965, -1.0431235696162304 
0.1899999999999954, -1.0420633170553142 
0.1999999999999943, -1.041116526642492 
0.2099999999999932, -1.0405956964000311 
0.2199999999999921, -1.040488035282327 
0.229999999999991, -1.0403827946160629 
0.2399999999999899, -1.0399386634605106 
0.2499999999999888, -1.0389878978892693 
0.2599999999999877, -1.037642250268992 
0.2699999999999866, -1.036127111380571 
0.2799999999999855, -1.0347295761439737 
0.2899999999999844, -1.0339011190910703 
0.2999999999999833, -1.033703329558856 
0.3099999999999822, -1.0336067160766769 
0.3199999999999811, -1.0331705313211597 
0.32999999999998, -1.0320724374339116 
0.3399999999999789, -1.0303071053122694 
0.3499999999999778, -1.028218831450687 
0.35999999999997667, -1.0262259301575207 
0.36999999999997557, -1.0249531806135934 
0.37999999999997447, -1.0246093148908506 
0.38999999999997337, -1.024534439419496 
0.39999999999997227, -1.0241739615600705 
0.40999999999997117, -1.0230930476633229 
0.41999999999997006, -1.0210439080961615 
0.42999999999996896, -1.018395484913062 
0.43999999999996786, -1.0157445862479373 
0.44999999999996676, -1.013879430116405 
0.45999999999996566, -1.0132677012344025 
0.46999999999996456, -1.013197037182481 
0.47999999999996346, -1.0129508278211905 
0.48999999999996235, -1.0120616501554336 
0.49999999999996125, -1.0100595848897616 
0.5099999999999602, -1.0071320938138641 
0.519999999999959, -1.0040006941723763 
0.529999999999958, -1.0015228164081227 
0.5399999999999568, -1.0004643492460958 
0.5499999999999557, -1.000322573256532 
0.5599999999999546, -1.0001907120303586 
0.5699999999999535, -0.9995814618326625 
0.5799999999999524, -0.9979768362262678 
0.5899999999999513, -0.995272088558343 
0.5999999999999502, -0.9921228018663948 
0.6099999999999491, -0.9893171895618847 
0.619999999999948, -0.9877154495887261 
0.6299999999999469, -0.9873431425978364 
0.6399999999999458, -0.9872802618631966 
0.6499999999999447, -0.9869354847561184 
0.6599999999999436, -0.9858696678407416 
0.6699999999999425, -0.9837991230805591 
0.6799999999999414, -0.9811340853648448 
0.6899999999999403, -0.9785086280420083 
0.6999999999999392, -0.9765788825976336 
0.7099999999999381, -0.9758120333244757 
0.719999999999937, -0.975706144759591 
0.7299999999999359, -0.9755544127329084 
0.7399999999999348, -0.9749554304735101 
0.7499999999999337, -0.973611746401955 
0.7599999999999326, -0.9716738773187769 
0.7699999999999315, -0.9695967331356309 
0.7799999999999304, -0.9677800295046302 
0.7899999999999293, -0.9666844677516471 
0.7999999999999282, -0.9663790478396406 
0.8099999999999271, -0.9663178328284459 
0.819999999999926, -0.966043562106728 
0.8299999999999249, -0.9652884490815242 
0.8399999999999238, -0.9640423064922956 
0.8499999999999227, -0.9625845128883884 
0.8599999999999216, -0.9611631496739353 
0.8699999999999205, -0.9600444273769384 
0.8799999999999194, -0.9595001110799427 
0.8899999999999183, -0.9594002354201473 
0.8999999999999172, -0.9593211684015795 
0.9099999999999161, -0.9589724881189468 
0.919999999999915, -0.9582654193127488 
0.9299999999999139, -0.9573359636613512 
0.9399999999999128, -0.9563423075506228 
0.9499999999999117, -0.9554256112172927 
0.9599999999999106, -0.9547980777017492 
0.9699999999999095, -0.9545823417829052 
0.9799999999999084, -0.9545849623115188 
0.9899999999999073, -0.9545048779477409 
0.9999999999999062, -0.9541924183742546 
1.0099999999999052, -0.9536811410102526 
1.019999999999904, -0.9530580022951779 
1.029999999999903, -0.9523910772472256 
1.039999999999902, -0.9518280698280313 
1.0499999999999008, -0.9515441423796633 
1.0599999999998997, -0.9515510951892701 
1.0699999999998986, -0.951647523463233 
1.0799999999998975, -0.9516368010653157 
1.0899999999998964, -0.9514718847512263 
1.0999999999998953, -0.9511776161030618 
1.1099999999998942, -0.9507601111485829 
1.119999999999893, -0.9503055060957811 
1.129999999999892, -0.9500132910145616 
1.1399999999998909, -0.9500156597611099 
1.1499999999998898, -0.9502360919747326 
1.1599999999998887, -0.9504857876438337 
1.1699999999998876, -0.9506480481830145 
1.1799999999998865, -0.9506871761834809 
1.1899999999998854, -0.9505476576086843 
1.1999999999998843, -0.9502387408749587 
1.2099999999998832, -0.9499402621420454 
1.219999999999882, -0.9499163006834013 
1.229999999999881, -0.9502411784539088 
1.2399999999998799, -0.9507554499340511 
1.2499999999998788, -0.9512837311252211 
1.2599999999998777, -0.9517225706173404 
1.2699999999998766, -0.9519438068191084 
1.2799999999998755, -0.9518632811642762 
1.2899999999998744, -0.951601642660627 
1.2999999999998733, -0.9514699746444722 
1.3099999999998722, -0.9518114038228194 
1.319999999999871, -0.9526090705937516 
1.32999999999987, -0.9536041174286085 
1.3399999999998689, -0.9545904197295647 
1.3499999999998678, -0.9553425271780318 
1.3599999999998666, -0.955633261947172 
1.3699999999998655, -0.9555241135260083 
1.3799999999998644, -0.9552951231976994 
1.3899999999998633, -0.955438008317666 
1.3999999999998622, -0.9563923766703529 
1.4099999999998611, -0.9579650195957906 
1.41999999999986, -0.959734020358486 
1.429999999999859, -0.96130577270035 
1.4399999999998578, -0.9622209474046312 
1.4499999999998567, -0.962421637090617 
1.4599999999998556, -0.9622366983297533 
1.4699999999998545, -0.962097087120626 
1.4799999999998534, -0.9628033128520878 
1.4899999999998523, -0.9648202189046462 
1.4999999999998512, -0.967582987434229 
1.5099999999998501, -0.970333124745905 
1.519999999999849, -0.9722579089518032 
1.529999999999848, -0.972999256220276 
1.5399999999998468, -0.9730085013547962 
1.5499999999998457, -0.9727570654796445 
1.5599999999998446, -0.9729331184970169 
1.5699999999998435, -0.9747665626175395 
1.5799999999998424, -0.9783186141831256 
1.5899999999998413, -0.982377065047693 
1.5999999999998402, -0.9856354527118084 
1.6099999999998391, -0.9872116312062077 
1.619999999999838, -0.9875491122047362 
1.629999999999837, -0.987364976373164 
1.6399999999998358, -0.987183232013923 
1.6499999999998347, -0.9882553604104458 
1.6599999999998336, -0.9917180758629293 
1.6699999999998325, -0.996495273187483 
1.6799999999998314, -1.0008383131852194 
1.6899999999998303, -1.0033586248983353 
1.6999999999998292, -1.0041350910293594 
1.709999999999828, -1.0041020165113088 
1.719999999999827, -1.0038266828284472 
1.729999999999826, -1.0042075401649664 
1.7399999999998248, -1.006760523801119 
1.7499999999998237, -1.0111101646649936 
1.7599999999998226, -1.0155285168715622 
1.7699999999998215, -1.01855997503454 
1.7799999999998204, -1.0197529250840653 
1.7899999999998193, -1.0198926181162766 
1.7999999999998182, -1.0196462486393216 
1.809999999999817, -1.0196659623182651 
1.819999999999816, -1.0212164825011343 
1.8299999999998149, -1.0244058734724204 
1.8399999999998138, -1.0279336009163298 
1.8499999999998127, -1.0307067786640127 
1.8599999999998116, -1.0320747630099423 
1.8699999999998105, -1.0323561280558033 
1.8799999999998094, -1.0321649440705742 
1.8899999999998083, -1.0320355403365646 
1.8999999999998072, -1.032874762581133 
1.909999999999806, -1.034908327423815 
1.919999999999805, -1.0372914063382739 
1.9299999999998039, -1.039342740141382 
1.9399999999998028, -1.0405673519466323 
1.9499999999998017, -1.0409087840629165 
1.9599999999998006, -1.0407597331837464 
1.9699999999997995, -1.0405652779534342 
1.9799999999997984, -1.0409644781546374 
1.9899999999997973, -1.0421568863151283 
1.9999999999997962, -1.043620186522374 
2.0099999999998173, -1.0449403232344825 
2.0199999999998384, -1.0458357672135568 
2.0299999999998595, -1.0461367432240467 
2.0399999999998806, -1.0459990469104237 
2.0499999999999017, -1.04575989466732 
2.059999999999923, -1.0458822229872178 
2.069999999999944, -1.0465277236938668 
2.079999999999965, -1.047376147724178 
2.089999999999986, -1.0481484332920832 
2.100000000000007, -1.0486905522170744 
2.1100000000000283, -1.048870480035295 
2.1200000000000494, -1.0487030303535068 
2.1300000000000705, -1.048410288656487 
2.1400000000000916, -1.0483371337890943 
2.1500000000001127, -1.0486287355076245 
2.160000000000134, -1.049091465262869 
2.170000000000155, -1.049500352040242 
2.180000000000176, -1.0497428472938264 
2.190000000000197, -1.0497539093164336 
2.2000000000002182, -1.0495084713677183 
2.2100000000002393, -1.0491349655404383 
2.2200000000002604, -1.0488951488968887 
2.2300000000002815, -1.0489397522049069 
2.2400000000003026, -1.0491607684890496 
2.2500000000003237, -1.0493411638703105 
2.260000000000345, -1.0493512134601375 
2.270000000000366, -1.0491681019461903 
2.280000000000387, -1.0487892464644415 
2.290000000000408, -1.0482895922721192 
2.3000000000004293, -1.0478736621433804 
2.3100000000004504, -1.047717345446127 
2.3200000000004715, -1.0477796427073245 
2.3300000000004926, -1.0478231288039992 
2.3400000000005137, -1.0476617196895774 
2.3500000000005348, -1.047269633633124 
2.360000000000556, -1.0466920548445038 
2.370000000000577, -1.045997840741295 
2.380000000000598, -1.04536092183319 
2.390000000000619, -1.0450033937627754 
2.4000000000006403, -1.044948763620244 
2.4100000000006614, -1.0449178057041197 
2.4200000000006825, -1.0446431998606178 
2.4300000000007036, -1.0440393605682763 
2.4400000000007247, -1.043188209431884 
2.450000000000746, -1.0422028968230157 
2.460000000000767, -1.0412616189685604 
2.470000000000788, -1.0406591947148642 
2.480000000000809, -1.040497200240425 
2.49000000000083, -1.0404340413329427 
2.5000000000008513, -1.0401078910479904 
2.5100000000008724, -1.0393207573951964 
2.5200000000008935, -1.0381290721867542 
2.5300000000009146, -1.0367331812724503 
2.5400000000009357, -1.0353663273848892 
2.550000000000957, -1.0344284046746692 
2.560000000000978, -1.0341343923089283 
2.570000000000999, -1.0340636488150539 
2.58000000000102, -1.033748144910455 
2.5900000000010412, -1.0328616845872443 
2.6000000000010624, -1.0313235931464606 
2.6100000000010835, -1.029414266688098 
2.6200000000011046, -1.0274891972042604 
2.6300000000011257, -1.0260826058166124 
2.6400000000011468, -1.025585075041067 
2.650000000001168, -1.025509896475444 
2.660000000001189, -1.0252554443185224 
2.67000000000121, -1.0244039211498392 
2.680000000001231, -1.0226525781550178 
2.6900000000012523, -1.0202442994200402 
2.7000000000012734, -1.0177031138652086 
2.7100000000012945, -1.01570021926971 
2.7200000000013156, -1.0148669015466047 
2.7300000000013367, -1.0147547218721489 
2.740000000001358, -1.0145872904575592 
2.750000000001379, -1.0138989206475126 
2.7600000000014, -1.0122153753295582 
2.770000000001421, -1.0095594107484955 
2.780000000001442, -1.0065584787178268 
2.7900000000014633, -1.0039702759100526 
2.8000000000014844, -1.0026389874704007 
2.8100000000015055, -1.0023933589059788 
2.8200000000015266, -1.0023060424799413 
2.8300000000015477, -1.0018409988513333 
2.840000000001569, -1.0005045952985197 
2.85000000000159, -0.9980502280964224 
2.860000000001611, -0.9950096464712759 
2.870000000001632, -0.9921299671747701 
2.8800000000016532, -0.9902632784823291 
2.8900000000016743, -0.9897129389633514 
2.9000000000016954, -0.9896503557693592 
2.9100000000017165, -0.9893942499920209 
2.9200000000017377, -0.9885109113395133 
2.9300000000017588, -0.9866319611668642 
2.94000000000178, -0.9840318038798651 
2.950000000001801, -0.9813454502860871 
2.960000000001822, -0.9792157010817562 
2.970000000001843, -0.9782302820839692 
2.9800000000018643, -0.978064376569163 
2.9900000000018854, -0.9779557529118402 
3.0000000000019065, -0.9774639330037636 
3.0100000000019276, -0.9762482854070786 
3.0200000000019487, -0.9743451328095594 
3.03000000000197, -0.9722077078678342 
3.040000000001991, -0.9702567082365462 
3.050000000002012, -0.9689712234362579 
3.060000000002033, -0.9685486643096698 
3.070000000002054, -0.9684848198795278 
3.0800000000020753, -0.96826620645155 
3.0900000000020964, -0.9675890786760296 
3.1000000000021175, -0.9663664105080092 
3.1100000000021386, -0.9648580682225488 
3.1200000000021597, -0.9633452232213393 
3.130000000002181, -0.9620959409376393 
3.140000000002202, -0.9614215724383715 
3.150000000002223, -0.9612701901136477 
3.160000000002244, -0.9612076061685707 
3.1700000000022652, -0.9609012822146354 
3.1800000000022863, -0.960212214691362 
3.1900000000023074, -0.9592485068903678 
3.2000000000023285, -0.9581941401508774 
3.2100000000023496, -0.9571949300985374 
3.2200000000023707, -0.9564639255270386 
3.230000000002392, -0.95616670224748 
3.240000000002413, -0.9561466025446816 
3.250000000002434, -0.9560797448144237 
3.260000000002455, -0.9557765178363501 
3.2700000000024763, -0.9552427847417928 
3.2800000000024974, -0.9545810009013438 
3.2900000000025185, -0.9538666781293919 
3.3000000000025396, -0.953233678339448 
3.3100000000025607, -0.9528672852909653 
3.3200000000025818, -0.952817105935986 
3.330000000002603, -0.9528946936396804 
3.340000000002624, -0.952876925713029 
3.350000000002645, -0.9526902591974477 
3.360000000002666, -0.9523675050453063 
3.3700000000026873, -0.9519268086375502 
3.3800000000027084, -0.9514349628821493 
3.3900000000027295, -0.95107522338493 
3.4000000000027506, -0.9509999693578964 
3.4100000000027717, -0.9511641721199134 
3.420000000002793, -0.9513783261371722 
3.430000000002814, -0.9515043373685108 
3.440000000002835, -0.9515096376008328 
3.450000000002856, -0.9513574310509091 
3.460000000002877, -0.9510398479086074 
3.4700000000028983, -0.9507027435185944 
3.4800000000029194, -0.9505967102195507 
3.4900000000029405, -0.9508262780057147 
3.5000000000029616, -0.9512592356801064 
3.5100000000029827, -0.9517151737687172 
3.520000000003004, -0.9520929144327555 
3.530000000003025, -0.9522939816359126 
3.540000000003046, -0.9522233898862477 
3.550000000003067, -0.9519584624444252 
3.5600000000030882, -0.9517693504526467 
3.5700000000031094, -0.9519859598307299 
3.5800000000031305, -0.9526366086879695 
3.5900000000031516, -0.9534914572359507 
3.6000000000031727, -0.9543558030128895 
3.6100000000031938, -0.9550511598721912 
3.620000000003215, -0.9553592927066248 
3.630000000003236, -0.955276038339047 
3.640000000003257, -0.9550360507785708 
3.650000000003278, -0.9550704592112019 
3.6600000000032993, -0.9558083324873077 
3.6700000000033204, -0.9571330149699571 
3.6800000000033415, -0.9586722031658362 
3.6900000000033626, -0.9601041813074701 
3.7000000000033837, -0.9610269486225067 
3.710000000003405, -0.9612826734965185 
3.720000000003426, -0.9611264985586851 
3.730000000003447, -0.9609433124811194 
3.740000000003468, -0.9614252649376991 
3.750000000003489, -0.9630694149190708 
3.7600000000035103, -0.9654525304419737 
3.7700000000035314, -0.9679329568340015 
3.7800000000035525, -0.969828789414488 
3.7900000000035736, -0.9706692452299098 
3.8000000000035947, -0.970744638696852 
3.810000000003616, -0.9705081645656719 
3.820000000003637, -0.9705422866084339 
3.830000000003658, -0.9719485427022058 
3.840000000003679, -0.9749874053781368 
3.8500000000037002, -0.9786658111380744 
3.8600000000037213, -0.9818572329703044 
3.8700000000037424, -0.9836057489653014 
3.8800000000037635, -0.9840700558118247 
3.8900000000037847, -0.9839395536364769 
3.9000000000038058, -0.9837085784221632 
3.910000000003827, -0.9844205702739844 
3.920000000003848, -0.9873333871691387 
3.930000000003869, -0.9917510332146388 
3.94000000000389, -0.9960741787410698 
3.9500000000039113, -0.9988753605137489 
3.9600000000039324, -0.9998781707981844 
3.9700000000039535, -0.9999395766142917 
3.9800000000039746, -0.9996715627194991 
3.9900000000039957, -0.9998086058009666 
4.000000000004016, -1.0018748743991166 
4.010000000003993, -1.0059954370142976 
4.02000000000397, -1.0105389183634375 
4.030000000003946, -1.0139572351122048 
4.040000000003923, -1.0154881317078668 
4.0500000000039, -1.015775200101543 
4.0600000000038765, -1.0155696802724352 
4.070000000003853, -1.0154414959027749 
4.08000000000383, -1.0166169373433365 
4.090000000003807, -1.0196900574456538 
4.100000000003783, -1.023446411433662 
4.11000000000376, -1.0266302889537535 
4.120000000003737, -1.0283879719043567 
4.130000000003713, -1.0288667151344493 
4.14000000000369, -1.0287417598546658 
4.150000000003667, -1.0285289021388047 
4.1600000000036434, -1.0291062668960624 
4.17000000000362, -1.0310803088309688 
4.180000000003597, -1.033688170942491 
4.1900000000035735, -1.0360817094181902 
4.20000000000355, -1.0376551410204273 
4.210000000003527, -1.0382148152668151 
4.220000000003504, -1.0381522258703302 
4.23000000000348, -1.037917655714393 
4.240000000003457, -1.0381452876599864 
4.250000000003434, -1.0393021769932982 
4.26000000000341, -1.0409339980773702 
4.270000000003387, -1.0425004002321705 
4.280000000003364, -1.0436581487775813 
4.2900000000033405, -1.0441614971887143 
4.300000000003317, -1.0441230497507776 
4.310000000003294, -1.0438752772378381 
4.320000000003271, -1.043890506258761 
4.330000000003247, -1.0445102079298842 
4.340000000003224, -1.0454692950734508 
4.350000000003201, -1.046410827176125 
4.360000000003177, -1.0471382791025838 
4.370000000003154, -1.047485782276266 
4.380000000003131, -1.0474223196217185 
4.390000000003107, -1.0471460985547143 
4.400000000003084, -1.0470110857257755 
4.410000000003061, -1.0472799092323184 
4.4200000000030375, -1.047808266991043 
4.430000000003014, -1.048336417016074 
4.440000000002991, -1.0487168295823341 
4.450000000002968, -1.0488643271785194 
4.460000000002944, -1.0487235225782385 
4.470000000002921, -1.0483891256822835 
4.480000000002898, -1.0481213287123847 
4.490000000002874, -1.0481423229696842 
4.500000000002851, -1.048394302107977 
4.510000000002828, -1.048663340847809 
4.520000000002804, -1.0487908972348763 
4.530000000002781, -1.0487300362854033 
4.540000000002758, -1.0484597189000289 
4.5500000000027345, -1.0480231950175816 
4.560000000002711, -1.04760871728239 
4.570000000002688, -1.047425330423571 
4.580000000002665, -1.0474884236059865 
4.590000000002641, -1.0475997854124193 
4.600000000002618, -1.0475534908460045 
4.610000000002595, -1.0472910489584806 
4.620000000002571, -1.0468376645201196 
4.630000000002548, -1.0462372595549232 
4.640000000002525, -1.0456331168928883 
4.6500000000025015, -1.0452433897345212 
4.660000000002478, -1.0451584880657743 
4.670000000002455, -1.0451770145911286 
4.6800000000024315, -1.0450226843230561 
4.690000000002408, -1.0445762499938656 
4.700000000002385, -1.0438846046115602 
4.710000000002362, -1.0430368030953878 
4.720000000002338, -1.042167817638368 
4.730000000002315, -1.041528198568073 
4.740000000002292, -1.041299459777111 
4.750000000002268, -1.0412646822170182 
4.760000000002245, -1.0410606894768877 
4.770000000002222, -1.0404697529796423 
4.7800000000021985, -1.0394962371266079 
4.790000000002175, -1.0382993778258396 
4.800000000002152, -1.037057390544511 
4.810000000002129, -1.036081316803828 
4.820000000002105, -1.0356754517023368 
4.830000000002082, -1.035605747760443 
4.840000000002059, -1.0354029464301662 
4.850000000002035, -1.0347416776462208 
4.860000000002012, -1.0334935075501535 
4.870000000001989, -1.0318577109959868 
4.880000000001965, -1.03011994469165 
4.890000000001942, -1.02868433313085 
4.900000000001919, -1.028021767203078 
4.9100000000018955, -1.0279105949126082 
4.920000000001872, -1.027746611687997 
4.930000000001849, -1.0271159382533446 
