t, s[1].omega / s[0].omega 
0, -1.1299974777526367 
0.009999999999999995, -1.1296290609950126 
0.019999999999999934, -1.129033724452115 
0.029999999999999874, -1.1282227719249587 
0.04000000000000012, -1.1272204638563026 
0.050000000000000405, -1.1260692828550294 
0.06000000000000069, -1.1248331829839802 
0.07000000000000098, -1.1235961582062495 
0.08000000000000126, -1.122454199793411 
0.09000000000000155, -1.1215016841397683 
0.10000000000000184, -1.120813757629176 
0.11000000000000212, -1.1204241703480229 
0.12000000000000241, -1.1203052542175203 
0.130000000000002, -1.120368388753845 
0.1400000000000009, -1.1204915636088413 
0.1499999999999998, -1.1205532051048483 
0.1599999999999987, -1.1204491044638711 
0.1699999999999976, -1.1200919365367263 
0.1799999999999965, -1.1194076418189662 
0.1899999999999954, -1.1183391807993677 
0.1999999999999943, -1.1168563365205293 
0.2099999999999932, -1.1149621125603537 
0.2199999999999921, -1.112689260115781 
0.229999999999991, -1.1100912158161163 
0.2399999999999899, -1.107237572149316 
0.2499999999999888, -1.1042196981319177 
0.2599999999999877, -1.10116394371253 
0.2699999999999866, -1.0982432665579744 
0.2799999999999855, -1.0956709015098292 
0.2899999999999844, -1.09365529650278 
0.2999999999999833, -1.092316294949644 
0.3099999999999822, -1.091615308027269 
0.3199999999999811, -1.091369250434757 
0.32999999999998, -1.091340928090464 
0.3399999999999789, -1.0913228782744642 
0.3499999999999778, -1.0911604432646018 
0.35999999999997667, -1.0907275956471618 
0.36999999999997557, -1.0898908365653015 
0.37999999999997447, -1.0884852175894486 
0.38999999999997337, -1.0863171739636353 
0.39999999999997227, -1.0832027889042055 
0.40999999999997117, -1.079031730184522 
0.41999999999997006, -1.0738211867221106 
0.42999999999996896, -1.0677262030869694 
0.43999999999996786, -1.0610137880303603 
0.44999999999996676, -1.054038322000703 
0.45999999999996566, -1.0472358549374055 
0.46999999999996456, -1.041108081725881 
0.47999999999996346, -1.0361410758230776 
0.48999999999996235, -1.0326444588327726 
0.49999999999996125, -1.0306047598861192 
0.5099999999999602, -1.029696548084678 
0.519999999999959, -1.0294609067950398 
0.529999999999958, -1.029495763210748 
0.5399999999999568, -1.0295323160688712 
0.5499999999999557, -1.0294084546465583 
0.5599999999999546, -1.029006154212598 
0.5699999999999535, -1.0281939154213942 
0.5799999999999524, -1.0267852689885146 
0.5899999999999513, -1.0245202325191296 
0.5999999999999502, -1.0210885397604772 
0.6099999999999491, -1.0162149750329557 
0.619999999999948, -1.0097889018192476 
0.6299999999999469, -1.0019606061999475 
0.6399999999999458, -0.993132806578634 
0.6499999999999447, -0.9838678464309986 
0.6599999999999436, -0.9747899483965428 
0.6699999999999425, -0.9665173850195927 
0.6799999999999414, -0.9595921760900608 
0.6899999999999403, -0.9543736291943384 
0.6999999999999392, -0.9509289235917825 
0.7099999999999381, -0.9490118204125562 
0.719999999999937, -0.9481763118447759 
0.7299999999999359, -0.9479539426882544 
0.7399999999999348, -0.9479785359948286 
0.7499999999999337, -0.9480134610121077 
0.7599999999999326, -0.9479153231304339 
0.7699999999999315, -0.9475820263575787 
0.7799999999999304, -0.9469105904900884 
0.7899999999999293, -0.9457727779421568 
0.7999999999999282, -0.9440145873333521 
0.8099999999999271, -0.9414879493144582 
0.819999999999926, -0.9381117148381932 
0.8299999999999249, -0.9339296029089658 
0.8399999999999238, -0.9291181836319204 
0.8499999999999227, -0.923934924162422 
0.8599999999999216, -0.9186493429353517 
0.8699999999999205, -0.9135029492257966 
0.8799999999999194, -0.9087043095357646 
0.8899999999999183, -0.90443700380905 
0.8999999999999172, -0.9008573695466827 
0.9099999999999161, -0.8980729028864325 
0.919999999999915, -0.8961103456199053 
0.9299999999999139, -0.8948967109829391 
0.9399999999999128, -0.8942737285352269 
0.9499999999999117, -0.894042688213166 
0.9599999999999106, -0.8940136017028548 
0.9699999999999095, -0.8940337732488801 
0.9799999999999084, -0.89399081145101 
0.9899999999999073, -0.8938012132282704 
0.9999999999999062, -0.8933985360623712 
1.0099999999999052, -0.8927303604722784 
1.019999999999904, -0.8917660644212464 
1.029999999999903, -0.8905088880421014 
1.039999999999902, -0.8889998498361809 
1.0499999999999008, -0.8873059114700892 
1.0599999999998997, -0.8854988974994038 
1.0699999999998986, -0.8836396127791831 
1.0799999999998975, -0.881775133560341 
1.0899999999998964, -0.8799461297284992 
1.0999999999998953, -0.8781962440593676 
1.1099999999998942, -0.8765773536510848 
1.119999999999893, -0.8751482609924477 
1.129999999999892, -0.8739672234522713 
1.1399999999998909, -0.8730805539762801 
1.1499999999998898, -0.8725107613444985 
1.1599999999998887, -0.872248423805573 
1.1699999999998876, -0.8722516064606669 
1.1799999999998865, -0.8724540604302937 
1.1899999999998854, -0.8727791722291887 
1.1999999999998843, -0.8731539222468939 
1.2099999999998832, -0.8735184878945489 
1.219999999999882, -0.8738307426910923 
1.229999999999881, -0.8740668636714212 
1.2399999999998799, -0.8742184735486196 
1.2499999999998788, -0.8742858908892549 
1.2599999999998777, -0.8742689181976171 
1.2699999999998766, -0.8741598615495796 
1.2799999999998755, -0.8739437126386941 
1.2899999999998744, -0.8736058635838478 
1.2999999999998733, -0.8731423175486391 
1.3099999999998722, -0.8725666840124701 
1.319999999999871, -0.8719125724403239 
1.32999999999987, -0.8712337621460442 
1.3399999999998689, -0.8706036863538127 
1.3499999999998678, -0.8701121784367072 
1.3599999999998666, -0.8698557432078046 
1.3699999999998655, -0.8699207181868717 
1.3799999999998644, -0.8703648121656121 
1.3899999999998633, -0.8712057321706563 
1.3999999999998622, -0.8724219933325463 
1.4099999999998611, -0.8739638449265585 
1.41999999999986, -0.8757677927159871 
1.429999999999859, -0.8777682714851389 
1.4399999999998578, -0.879902270660067 
1.4499999999998567, -0.8821053958761876 
1.4599999999998556, -0.8843014564674538 
1.4699999999998545, -0.8863928685435039 
1.4799999999998534, -0.888263342972936 
1.4899999999998523, -0.8898002701208576 
1.4999999999998512, -0.8909282122388422 
1.5099999999998501, -0.8916305752571836 
1.519999999999849, -0.8919444097032534 
1.529999999999848, -0.8919369708070513 
1.5399999999998468, -0.8916844668449769 
1.5499999999998457, -0.8912661523403921 
1.5599999999998446, -0.8907756556601546 
1.5699999999998435, -0.8903449958222719 
1.5799999999998424, -0.8901712205381254 
1.5899999999998413, -0.8905271011820242 
1.5999999999998402, -0.8917332347298688 
1.6099999999998391, -0.8940850858449458 
1.619999999999838, -0.8977642435036441 
1.629999999999837, -0.9027833396517038 
1.6399999999998358, -0.9089883826582893 
1.6499999999998347, -0.9160960380748948 
1.6599999999998336, -0.9237269066242583 
1.6699999999998325, -0.9314212035593489 
1.6799999999998314, -0.9386634325171505 
1.6899999999998303, -0.94495865750901 
1.6999999999998292, -0.9499602756978842 
1.709999999999828, -0.9535707560155802 
1.719999999999827, -0.9559292762711685 
1.729999999999826, -0.9573003970099295 
1.7399999999998248, -0.957955429148568 
1.7499999999998237, -0.9581085699490599 
1.7599999999998226, -0.957907626120674 
1.7699999999998215, -0.9574565149200185 
1.7799999999998204, -0.9568568937035952 
1.7899999999998193, -0.9562702762472168 
1.7999999999998182, -0.956001203151118 
1.809999999999817, -0.9565730538234638 
1.819999999999816, -0.9587169909800926 
1.8299999999998149, -0.9631873560491059 
1.8399999999998138, -0.9704381794396699 
1.8499999999998127, -0.9803633933202068 
1.8599999999998116, -0.992281608222705 
1.8699999999998105, -1.0051326505767484 
1.8799999999998094, -1.0177311101389943 
1.8899999999998083, -1.0289969899054623 
1.8999999999998072, -1.0381678110020203 
1.909999999999806, -1.0449520136043065 
1.919999999999805, -1.0495216084553187 
1.9299999999998039, -1.0523293953101587 
1.9399999999998028, -1.0538807639372239 
1.9499999999998017, -1.0545899841915185 
1.9599999999998006, -1.0547425008620244 
1.9699999999997995, -1.0545193634018506 
1.9799999999997984, -1.0540460414307744 
1.9899999999997973, -1.0534550540288348 
1.9999999999997962, -1.0529638140861224 
2.0099999999998173, -1.0529480035308114 
2.0199999999998384, -1.053938118022077 
2.0299999999998595, -1.0564545222252864 
2.0399999999998806, -1.0607332328707397 
2.0499999999999017, -1.0665705706955786 
2.059999999999923, -1.0734275536518851 
2.069999999999944, -1.080664616720799 
2.079999999999965, -1.0877104263718917 
2.089999999999986, -1.0941162180381796 
2.100000000000007, -1.0995588479332934 
2.1100000000000283, -1.103850965247098 
2.1200000000000494, -1.106959413143437 
2.1300000000000705, -1.108995485729454 
2.1400000000000916, -1.1101600678782506 
2.1500000000001127, -1.1106721230313243 
2.160000000000134, -1.1107204702563018 
2.170000000000155, -1.1104538074766812 
2.180000000000176, -1.1100014108380882 
2.190000000000197, -1.109509862735142 
2.2000000000002182, -1.1091739099493783 
2.2100000000002393, -1.1092264703596826 
2.2200000000002604, -1.1098648857964242 
2.2300000000002815, -1.1111550314796514 
2.2400000000003026, -1.113001228824443 
2.2500000000003237, -1.1152071167415458 
2.260000000000345, -1.1175623537554322 
2.270000000000366, -1.1198939587561276 
2.280000000000387, -1.1220767541589116 
2.290000000000408, -1.1240233911772406 
2.3000000000004293, -1.1256705755815208 
2.3100000000004504, -1.126970537965892 
2.3200000000004715, -1.1278916090478703 
2.3300000000004926, -1.1284253091754903 
2.3400000000005137, -1.1285917828513559 
2.3500000000005348, -1.1284375156260364 
2.360000000000556, -1.12802819708628 
2.370000000000577, -1.127444714347509 
2.380000000000598, -1.1267850307722875 
2.390000000000619, -1.126163936848734 
2.4000000000006403, -1.12569808600395 
2.4100000000006614, -1.1254759404084518 
2.4200000000006825, -1.1255322193965993 
2.4300000000007036, -1.1258450406485054 
2.4400000000007247, -1.1263506786095203 
2.450000000000746, -1.1269614794489833 
2.460000000000767, -1.127582566349846 
2.470000000000788, -1.1281271746844275 
2.480000000000809, -1.1285269504763962 
2.49000000000083, -1.1287350867902366 
2.5000000000008513, -1.1287244114188422 
2.5100000000008724, -1.1284830708672249 
2.5200000000008935, -1.1280094671832965 
2.5300000000009146, -1.1273086106046724 
2.5400000000009357, -1.1263921620822255 
2.550000000000957, -1.1252823832260839 
2.560000000000978, -1.1240178957406448 
2.570000000000999, -1.122658329106931 
2.58000000000102, -1.121284915783877 
2.5900000000010412, -1.119994961346243 
2.6000000000010624, -1.1188901303608263 
2.6100000000010835, -1.1180581993022176 
2.6200000000011046, -1.1175467595987878 
2.6300000000011257, -1.1173372230683043 
2.6400000000011468, -1.1173416307615174 
2.650000000001168, -1.1174318059601795 
2.660000000001189, -1.1174778140696087 
2.67000000000121, -1.1173678519520682 
2.680000000001231, -1.1170071282939142 
2.6900000000012523, -1.116311601214494 
2.7000000000012734, -1.1152101769774412 
2.7100000000012945, -1.1136566775306893 
2.7200000000013156, -1.1116417397564937 
2.7300000000013367, -1.1091939588464435 
2.740000000001358, -1.1063706981180192 
2.750000000001379, -1.1032496588722622 
2.7600000000014, -1.0999309660838688 
2.770000000001421, -1.0965499981045137 
2.780000000001442, -1.0932917026534006 
2.7900000000014633, -1.0903879727583408 
2.8000000000014844, -1.0880737519377646 
2.8100000000015055, -1.0864973848285246 
2.8200000000015266, -1.0856379812867616 
2.8300000000015477, -1.0853099130967756 
2.840000000001569, -1.0852577060760789 
2.85000000000159, -1.0852534412984696 
2.860000000001611, -1.085129712909744 
2.870000000001632, -1.0847571374969003 
2.8800000000016532, -1.0840045549282085 
2.8900000000016743, -1.082708287025289 
2.9000000000016954, -1.0806658019398332 
2.9100000000017165, -1.0776659602855168 
2.9200000000017377, -1.0735547309997855 
2.9300000000017588, -1.0683054557421372 
2.94000000000178, -1.0620489566781524 
2.950000000001801, -1.055053248301936 
2.960000000001822, -1.0476885061700576 
2.970000000001843, -1.0404092620139807 
2.9800000000018643, -1.033738103777614 
2.9900000000018854, -1.0281972470949552 
3.0000000000019065, -1.0241581996141018 
3.0100000000019276, -1.0216799416250462 
3.0200000000019487, -1.0204818104725908 
3.03000000000197, -1.0200998423241945 
3.040000000001991, -1.0200936068772053 
3.050000000002012, -1.02015401332511 
3.060000000002033, -1.0200951041015949 
3.070000000002054, -1.0197944054214108 
3.0800000000020753, -1.019132270534049 
3.0900000000020964, -1.017946320040128 
3.1000000000021175, -1.0160060659875492 
3.1100000000021386, -1.0130220662623182 
3.1200000000021597, -1.0087113636632838 
3.130000000002181, -1.0029159550003832 
3.140000000002202, -0.9957124385083154 
3.150000000002223, -0.9874309890836038 
3.160000000002244, -0.9785764577181044 
3.1700000000022652, -0.969725515009322 
3.1800000000022863, -0.9614563802304555 
3.1900000000023074, -0.9542965255511794 
3.2000000000023285, -0.9486460340027364 
3.2100000000023496, -0.9446764324055144 
3.2200000000023707, -0.9422707351038442 
3.230000000002392, -0.9410751540813888 
3.240000000002413, -0.940645445140903 
3.250000000002434, -0.9405896113327517 
3.260000000002455, -0.9406316639394652 
3.2700000000024763, -0.9405997523949792 
3.2800000000024974, -0.9403816570179387 
3.2900000000025185, -0.9398810367766737 
3.3000000000025396, -0.9389882294534173 
3.3100000000025607, -0.93757176768934 
3.3200000000025818, -0.9354974580665999 
3.330000000002603, -0.9326758132489275 
3.340000000002624, -0.929116217668868 
3.350000000002645, -0.9249468458536768 
3.360000000002666, -0.920379863958459 
3.3700000000026873, -0.9156499369080479 
3.3800000000027084, -0.9109705633367786 
3.3900000000027295, -0.9065240326525817 
3.4000000000027506, -0.9024702245076643 
3.4100000000027717, -0.8989525787065036 
3.420000000002793, -0.896088322252627 
3.430000000002814, -0.8939433798518903 
3.440000000002835, -0.8925059901258967 
3.450000000002856, -0.891679767728825 
3.460000000002877, -0.8913070348117984 
3.4700000000028983, -0.891211095124642 
3.4800000000029194, -0.891233321511622 
3.4900000000029405, -0.8912495039248715 
3.5000000000029616, -0.8911673567324285 
3.5100000000029827, -0.8909168050964624 
3.520000000003004, -0.8904440181976858 
3.530000000003025, -0.889714264284628 
3.540000000003046, -0.8887207572932327 
3.550000000003067, -0.8874898602221167 
3.5600000000030882, -0.8860739505730498 
3.5700000000031094, -0.8845339892101857 
3.5800000000031305, -0.8829234993590032 
3.5900000000031516, -0.8812834078334515 
3.6000000000031727, -0.879647455771069 
3.6100000000031938, -0.8780515181407195 
3.620000000003215, -0.876540385730894 
3.630000000003236, -0.8751687607392931 
3.640000000003257, -0.8739960555154008 
3.650000000003278, -0.8730764834378867 
3.6600000000032993, -0.8724473069675746 
3.6700000000033204, -0.8721189008043796 
3.6800000000033415, -0.8720702342846168 
3.6900000000033626, -0.8722520863163152 
3.7000000000033837, -0.8725974004831446 
3.710000000003405, -0.8730348601945078 
3.720000000003426, -0.8735007335085683 
3.730000000003447, -0.8739461370335606 
3.740000000003468, -0.87433954745643 
3.750000000003489, -0.8746651061503051 
3.7600000000035103, -0.8749167858324658 
3.7700000000035314, -0.8750895365799968 
3.7800000000035525, -0.8751714535756353 
3.7900000000035736, -0.8751423247538671 
3.8000000000035947, -0.8749804831527517 
3.810000000003616, -0.8746737959606138 
3.820000000003637, -0.8742280431083961 
3.830000000003658, -0.8736697405591144 
3.840000000003679, -0.8730458787375515 
3.8500000000037002, -0.8724239172422585 
3.8600000000037213, -0.8718915739841003 
3.8700000000037424, -0.8715519903015077 
3.8800000000037635, -0.8715101501171288 
3.8900000000037847, -0.8718521973039766 
3.9000000000038058, -0.8726263194184589 
3.910000000003827, -0.8738348819340596 
3.920000000003848, -0.8754406320730107 
3.930000000003869, -0.877381577129823 
3.94000000000389, -0.8795860791273071 
3.9500000000039113, -0.8819815841574592 
3.9600000000039324, -0.8844938974786208 
3.9700000000039535, -0.8870379283327215 
3.9800000000039746, -0.8895062941605584 
3.9900000000039957, -0.8917679132415952 
4.000000000004016, -0.893687829055968 
4.010000000003993, -0.8951645333971404 
4.02000000000397, -0.8961610326900453 
4.030000000003946, -0.8967066377624198 
4.040000000003923, -0.896872169357608 
4.0500000000039, -0.8967412604127732 
4.0600000000038765, -0.896396341516373 
4.070000000003853, -0.895924225574446 
4.08000000000383, -0.8954382322366907 
4.090000000003807, -0.8951098157940631 
4.100000000003783, -0.8951949998191691 
4.11000000000376, -0.8960304413938294 
4.120000000003737, -0.8979765883941164 
4.130000000003713, -0.9013171357035207 
4.14000000000369, -0.9061654757707217 
4.150000000003667, -0.912429904536126 
4.1600000000036434, -0.919840159030767 
4.17000000000362, -0.9279940504055446 
4.180000000003597, -0.936390287985334 
4.1900000000035735, -0.9444579384777463 
4.20000000000355, -0.9516268162815595 
4.210000000003527, -0.9574582962908575 
4.220000000003504, -0.9617726078143674 
4.23000000000348, -0.9646684370586577 
4.240000000003457, -0.966417905971522 
4.250000000003434, -0.9673277513242887 
4.26000000000341, -0.9676516518720717 
4.270000000003387, -0.967567305681498 
4.280000000003364, -0.967193566764289 
4.2900000000033405, -0.9666284305957762 
4.300000000003317, -0.9660057779143753 
4.310000000003294, -0.965574928186969 
4.320000000003271, -0.965787194621576 
4.330000000003247, -0.9673231157539253 
4.340000000003224, -0.9709602970409621 
4.350000000003201, -0.9772666545786584 
4.360000000003177, -0.9862927908987933 
4.370000000003154, -0.9974896249847894 
4.380000000003131, -1.009877988277115 
4.390000000003107, -1.022310224277984 
4.400000000003084, -1.0337013203392758 
4.410000000003061, -1.043225220019649 
4.4200000000030375, -1.050473354915229 
4.430000000003014, -1.0554953605025816 
4.440000000002991, -1.0586688151247525 
4.450000000002968, -1.0604823007588862 
4.460000000002944, -1.0613683584587763 
4.470000000002921, -1.0616396473000318 
4.480000000002898, -1.0614990063370886 
4.490000000002874, -1.0610823177802553 
4.500000000002851, -1.0605166862062814 
4.510000000002828, -1.0599927502774138 
4.520000000002804, -1.059836972317214 
4.530000000002781, -1.0605240064118706 
4.540000000002758, -1.0625466611981547 
4.5500000000027345, -1.0661681900011126 
4.560000000002711, -1.0712554610869296 
4.570000000002688, -1.0773489798072955 
4.580000000002665, -1.0838760784572226 
4.590000000002641, -1.0903179153727913 
4.600000000002618, -1.096265766327943 
4.610000000002595, -1.1014181844193143 
4.620000000002571, -1.105580350495094 
4.630000000002548, -1.1086804703699737 
4.640000000002525, -1.1107756237910567 
4.6500000000025015, -1.112019865464253 
4.660000000002478, -1.1126052084963935 
4.670000000002455, -1.1127109868360896 
4.6800000000024315, -1.1124846078636064 
4.690000000002408, -1.1120534011650376 
4.700000000002385, -1.1115552948693244 
4.710000000002362, -1.1111681421240482 
4.720000000002338, -1.1111060359493858 
4.730000000002315, -1.1115587550577974 
4.740000000002292, -1.1126046816975041 
4.750000000002268, -1.1141749717400073 
4.760000000002245, -1.1161005707015432 
4.770000000002222, -1.1181900485699505 
4.7800000000021985, -1.1202804130633992 
4.790000000002175, -1.1222512118096886 
4.800000000002152, -1.1240184047622706 
4.810000000002129, -1.125522438356883 
4.820000000002105, -1.1267186847629131 
4.830000000002082, -1.1275749766814687 
4.840000000002059, -1.1280764463281323 
4.850000000002035, -1.1282320623609707 
4.860000000002012, -1.128076078162387 
4.870000000001989, -1.127663869884776 
4.880000000001965, -1.127068091918858 
4.890000000001942, -1.1263791304510475 
4.900000000001919, -1.125704723685567 
4.9100000000018955, -1.1251577567031184 
4.920000000001872, -1.1248298274975814 
4.930000000001849, -1.1247660468680376 
