t, s[1].omega / s[0].omega 
0, -1.03999838350431 
0.009999999999999995, -1.0397419665466032 
0.019999999999999934, -1.0393002886594833 
0.029999999999999874, -1.0387385923890566 
0.04000000000000012, -1.038229361784738 
0.050000000000000405, -1.037953833098227 
0.06000000000000069, -1.0379535388470968 
0.07000000000000098, -1.0380741814260381 
0.08000000000000126, -1.0380948337193645 
0.09000000000000155, -1.0378960860482287 
0.10000000000000184, -1.03747951290587 
0.11000000000000212, -1.0368847146275522 
0.12000000000000241, -1.036161221172057 
0.130000000000002, -1.0354384135216566 
0.1400000000000009, -1.0349134766577346 
0.1499999999999998, -1.0347160934353705 
0.1599999999999987, -1.0347412241273715 
0.1699999999999976, -1.0347213324256908 
0.1799999999999965, -1.0344584000116608 
0.1899999999999954, -1.0339008679727288 
0.1999999999999943, -1.0331149700749562 
0.2099999999999932, -1.0321811020553693 
0.2199999999999921, -1.0312075121487694 
0.229999999999991, -1.0303943509797464 
0.2399999999999899, -1.0299580668427748 
0.2499999999999888, -1.0298764672432463 
0.2599999999999877, -1.0298482287241295 
0.2699999999999866, -1.029593447291206 
0.2799999999999855, -1.028966732048754 
0.2899999999999844, -1.0279986496192652 
0.2999999999999833, -1.0268210869401206 
0.3099999999999822, -1.0255613128068113 
0.3199999999999811, -1.0244144565483464 
0.32999999999998, -1.023668161650308 
0.3399999999999789, -1.0234271683872647 
0.3499999999999778, -1.0233916727765549 
0.35999999999997667, -1.0231994542609368 
0.36999999999997557, -1.022612335313214 
0.37999999999997447, -1.0215517935540175 
0.38999999999997337, -1.0201555447069595 
0.39999999999997227, -1.0186105404459194 
0.40999999999997117, -1.0171145781101543 
0.41999999999997006, -1.015987518267226 
0.42999999999996896, -1.0154898769112493 
0.43999999999996786, -1.015406471034307 
0.44999999999996676, -1.0152954500535971 
0.45999999999996566, -1.014844270754814 
0.46999999999996456, -1.013853863640415 
0.47999999999996346, -1.0123664509424195 
0.48999999999996235, -1.0106178760809057 
0.49999999999996125, -1.0088354571204499 
0.5099999999999602, -1.007321697086279 
0.519999999999959, -1.0064551341831554 
0.529999999999958, -1.0062262943561289 
0.5399999999999568, -1.0061712493333668 
0.5499999999999557, -1.0058952423620213 
0.5599999999999546, -1.005129479475748 
0.5699999999999535, -1.003766456964935 
0.5799999999999524, -1.0019972556398449 
0.5899999999999513, -1.0000925739661104 
0.5999999999999502, -0.998315813386343 
0.6099999999999491, -0.9970483121754902 
0.619999999999948, -0.9965313682718402 
0.6299999999999469, -0.996450478618534 
0.6399999999999458, -0.9963271223987625 
0.6499999999999447, -0.9958471011320387 
0.6599999999999436, -0.9948035959413325 
0.6699999999999425, -0.9932481575934197 
0.6799999999999414, -0.9914464792622071 
0.6899999999999403, -0.9896400851650007 
0.6999999999999392, -0.98811711371983 
0.7099999999999381, -0.9872288444424989 
0.719999999999937, -0.9869785556135894 
0.7299999999999359, -0.9869323144604817 
0.7399999999999348, -0.9867037708511066 
0.7499999999999337, -0.9860478317537293 
0.7599999999999326, -0.9848825353082561 
0.7699999999999315, -0.9833832180022161 
0.7799999999999304, -0.9817774160481588 
0.7899999999999293, -0.9802621661361683 
0.7999999999999282, -0.9791169845362974 
0.8099999999999271, -0.9785759480549884 
0.819999999999926, -0.9784756078300731 
0.8299999999999249, -0.9784119400381194 
0.8399999999999238, -0.9780922542310022 
0.8499999999999227, -0.9773625523862512 
0.8599999999999216, -0.9762726273979875 
0.8699999999999205, -0.9750052634692715 
0.8799999999999194, -0.9737086037193343 
0.8899999999999183, -0.972553069277438 
0.8999999999999172, -0.9717768138715723 
0.9099999999999161, -0.9714898283970759 
0.919999999999915, -0.9714683177190344 
0.9299999999999139, -0.971384351593801 
0.9399999999999128, -0.9710308560334618 
0.9499999999999117, -0.9703586989389091 
0.9599999999999106, -0.969472424250499 
0.9699999999999095, -0.9684877280085643 
0.9799999999999084, -0.9675037989695945 
0.9899999999999073, -0.9666838476154175 
0.9999999999999062, -0.9662114158200196 
1.0099999999999052, -0.9661052438186214 
1.019999999999904, -0.9661412377106543 
1.029999999999903, -0.9660680300754634 
1.039999999999902, -0.9657619877671952 
1.0499999999999008, -0.9652438835560272 
1.0599999999998997, -0.9645906266599645 
1.0699999999998986, -0.9638551301736555 
1.0799999999998975, -0.963134057055397 
1.0899999999998964, -0.9625951060840344 
1.0999999999998953, -0.9623686742898582 
1.1099999999998942, -0.9624122717101954 
1.119999999999893, -0.9625217174983348 
1.129999999999892, -0.9625143715626184 
1.1399999999998909, -0.9623332288858009 
1.1499999999998898, -0.9620068287754227 
1.1599999999998887, -0.9615529498019355 
1.1699999999998876, -0.9610043426433005 
1.1799999999998865, -0.9604899038803775 
1.1899999999998854, -0.9601892193603362 
1.1999999999998843, -0.9601847762817429 
1.2099999999998832, -0.9603882508610073 
1.219999999999882, -0.9606176730243384 
1.229999999999881, -0.9607468955629312 
1.2399999999998799, -0.9607471600721745 
1.2499999999998788, -0.9606039480688859 
1.2599999999998777, -0.9602919550715832 
1.2699999999998766, -0.9598710378955033 
1.2799999999998755, -0.9595242739499344 
1.2899999999998744, -0.9594505389922862 
1.2999999999998733, -0.9596862945855592 
1.3099999999998722, -0.960099821866973 
1.319999999999871, -0.9605256980864887 
1.32999999999987, -0.960870595732931 
1.3399999999998689, -0.9610823908756483 
1.3499999999998678, -0.9610831768725029 
1.3599999999998666, -0.9608526620678745 
1.3699999999998655, -0.9605156514598882 
1.3799999999998644, -0.9603252417543388 
1.3899999999998633, -0.9605091802033138 
1.3999999999998622, -0.9610512619256085 
1.4099999999998611, -0.9617679797063616 
1.41999999999986, -0.9624961528933692 
1.429999999999859, -0.9631323632680432 
1.4399999999998578, -0.9635484391900596 
1.4499999999998567, -0.9636298864500485 
1.4599999999998556, -0.9634273200582807 
1.4699999999998545, -0.9631506807431542 
1.4799999999998534, -0.963142339556239 
1.4899999999998523, -0.963667172582759 
1.4999999999998512, -0.9646333622549286 
1.5099999999998501, -0.9657865414920249 
1.519999999999849, -0.9669354123132834 
1.529999999999848, -0.9678985340212661 
1.5399999999998468, -0.9684506809196015 
1.5499999999998457, -0.9685339830425604 
1.5599999999998446, -0.9683195679687023 
1.5699999999998435, -0.968107260685623 
1.5799999999998424, -0.9683597053008811 
1.5899999999998413, -0.9693657507880556 
1.5999999999998402, -0.970907348499699 
1.6099999999998391, -0.9726318964024891 
1.619999999999838, -0.9742640424386562 
1.629999999999837, -0.9754750625934484 
1.6399999999998358, -0.9760265410681989 
1.6499999999998347, -0.9760384106381523 
1.6599999999998336, -0.975793939307442 
1.6699999999998325, -0.9756965621803958 
1.6799999999998314, -0.976358630389198 
1.6899999999998303, -0.9780062353844575 
1.6999999999998292, -0.9802211438775181 
1.709999999999828, -0.9825330455024059 
1.719999999999827, -0.9845172507242711 
1.729999999999826, -0.9857334916662399 
1.7399999999998248, -0.986131004730716 
1.7499999999998237, -0.9860283147261437 
1.7599999999998226, -0.9857730312650197 
1.7699999999998215, -0.9859227699027112 
1.7799999999998204, -0.9871820191036953 
1.7899999999998193, -0.9895078911629507 
1.7999999999998182, -0.9922634534187782 
1.809999999999817, -0.9948872645057868 
1.819999999999816, -0.9968246182241548 
1.8299999999998149, -0.9977497653949612 
1.8399999999998138, -0.997907233043335 
1.8499999999998127, -0.9976920782989339 
1.8599999999998116, -0.9975197401255763 
1.8699999999998105, -0.9981331116293958 
1.8799999999998094, -1.0000327198101164 
1.8899999999998083, -1.0027450779684726 
1.8999999999998072, -1.0055770915047584 
1.909999999999806, -1.007967127417742 
1.919999999999805, -1.0094141563163532 
1.9299999999998039, -1.0099041288559685 
1.9399999999998028, -1.0098294513681507 
1.9499999999998017, -1.0095682601222309 
1.9599999999998006, -1.0096807295945711 
1.9699999999997995, -1.0108758817693266 
1.9799999999997984, -1.0130757124176066 
1.9899999999997973, -1.0156135739018766 
1.9999999999997962, -1.0179644510950396 
2.0099999999998173, -1.019667993927008 
2.0199999999998384, -1.0204631118341123 
2.0299999999998595, -1.0205643091934247 
2.0399999999998806, -1.020333791519397 
2.0499999999999017, -1.020190438124718 
2.059999999999923, -1.0207646414001539 
2.069999999999944, -1.0222697978792599 
2.079999999999965, -1.0242241671164651 
2.089999999999986, -1.0261585392111288 
2.100000000000007, -1.0277436293131528 
2.1100000000000283, -1.0286775448657604 
2.1200000000000494, -1.028933986329959 
2.1300000000000705, -1.0287719761369873 
2.1400000000000916, -1.0285276631992515 
2.1500000000001127, -1.0286890461117053 
2.160000000000134, -1.0295748040466461 
2.170000000000155, -1.030917404636327 
2.180000000000176, -1.032325849350534 
2.190000000000197, -1.0335623622210974 
2.2000000000002182, -1.034418081531743 
2.2100000000002393, -1.0347494099404155 
2.2200000000002604, -1.0346499830285931 
2.2300000000002815, -1.0343710564431774 
2.2400000000003026, -1.034283706575738 
2.2500000000003237, -1.0347087715656482 
2.260000000000345, -1.035545348592687 
2.270000000000366, -1.0364926176983782 
2.280000000000387, -1.0373486223618504 
2.290000000000408, -1.0379875883637866 
2.3000000000004293, -1.0382840355720875 
2.3100000000004504, -1.0382107743220528 
2.3200000000004715, -1.0379129642332872 
2.3300000000004926, -1.0376685244275614 
2.3400000000005137, -1.0377670632535176 
2.3500000000005348, -1.0382208638962644 
2.360000000000556, -1.0388187004677236 
2.370000000000577, -1.039365799428278 
2.380000000000598, -1.0397598552528817 
2.390000000000619, -1.0399327707199755 
2.4000000000006403, -1.0398286055057115 
2.4100000000006614, -1.0394982945744051 
2.4200000000006825, -1.0391347971158276 
2.4300000000007036, -1.038989447418117 
2.4400000000007247, -1.0391510507847834 
2.450000000000746, -1.039493626751475 
2.460000000000767, -1.0398230433765 
2.470000000000788, -1.040012332018859 
2.480000000000809, -1.0400213552208586 
2.49000000000083, -1.0398247976408868 
2.5000000000008513, -1.0394278754012287 
2.5100000000008724, -1.0389479005392985 
2.5200000000008935, -1.0385953247258297 
2.5300000000009146, -1.0385129168865601 
2.5400000000009357, -1.0386584359334003 
2.550000000000957, -1.0388444465688476 
2.560000000000978, -1.0388942863349304 
2.570000000000999, -1.03874592263986 
2.58000000000102, -1.0384089778085466 
2.5900000000010412, -1.037897604529736 
2.6000000000010624, -1.0372787219732464 
2.6100000000010835, -1.0367204281021534 
2.6200000000011046, -1.0364034543970038 
2.6300000000011257, -1.036372598531842 
2.6400000000011468, -1.0364618077531504 
2.650000000001168, -1.036438163692432 
2.660000000001189, -1.036176172035722 
2.67000000000121, -1.0356806446617746 
2.680000000001231, -1.0350048686434 
2.6900000000012523, -1.0342074739238782 
2.7000000000012734, -1.033419954964771 
2.7100000000012945, -1.0328458023710405 
2.7200000000013156, -1.0326225580244053 
2.7300000000013367, -1.0326307566152844 
2.740000000001358, -1.0325854821678393 
2.750000000001379, -1.032279126839839 
2.7600000000014, -1.0316534941682944 
2.770000000001421, -1.030783384178595 
2.780000000001442, -1.0297641027070765 
2.7900000000014633, -1.028712005252999 
2.8000000000014844, -1.0278373040151516 
2.8100000000015055, -1.027370156401236 
2.8200000000015266, -1.027278068267833 
2.8300000000015477, -1.027238436083537 
2.840000000001569, -1.0269611500983904 
2.85000000000159, -1.026289294996088 
2.860000000001611, -1.0252501311477245 
2.870000000001632, -1.0239898699097876 
2.8800000000016532, -1.022649303272445 
2.8900000000016743, -1.0214338697280692 
2.9000000000016954, -1.0206463206828256 
2.9100000000017165, -1.0203919257450584 
2.9200000000017377, -1.0203524669793367 
2.9300000000017588, -1.0201547708553664 
2.94000000000178, -1.0195521493402868 
2.950000000001801, -1.0184545510358367 
2.960000000001822, -1.017002957337397 
2.970000000001843, -1.0153984277598578 
2.9800000000018643, -1.0138469918671023 
2.9900000000018854, -1.0126758109021137 
3.0000000000019065, -1.012154054097116 
3.0100000000019276, -1.0120649535850175 
3.0200000000019487, -1.011957705046232 
3.03000000000197, -1.0115149928907097 
3.040000000001991, -1.0105310439881785 
3.050000000002012, -1.009040140426104 
3.060000000002033, -1.0072819965513113 
3.070000000002054, -1.005487774622293 
3.0800000000020753, -1.0039541607891047 
3.0900000000020964, -1.0030587254504235 
3.1000000000021175, -1.0028121116879738 
3.1100000000021386, -1.0027600501871856 
3.1200000000021597, -1.0025032713054998 
3.130000000002181, -1.0017743264177685 
3.140000000002202, -1.000461852266623 
3.150000000002223, -0.9987473371746596 
3.160000000002244, -0.9968954217947565 
3.1700000000022652, -0.9951550229571757 
3.1800000000022863, -0.9938848484918654 
3.1900000000023074, -0.993339674455158 
3.2000000000023285, -0.9932492289585547 
3.2100000000023496, -0.9931432821236336 
3.2200000000023707, -0.9927075355323466 
3.230000000002392, -0.9917419398465509 
3.240000000002413, -0.9902890947143882 
3.250000000002434, -0.9885966681631715 
3.260000000002455, -0.9868877376888836 
3.2700000000024763, -0.9854199464973963 
3.2800000000024974, -0.9845239864319256 
3.2900000000025185, -0.9842485327757662 
3.3000000000025396, -0.9842067770408007 
3.3100000000025607, -0.9840147935852525 
3.3200000000025818, -0.9834332262192664 
3.330000000002603, -0.9823819968850469 
3.340000000002624, -0.981016753742297 
3.350000000002645, -0.9795424484280365 
3.360000000002666, -0.9781319057418236 
3.3700000000026873, -0.9770319249257416 
3.3800000000027084, -0.976476301260394 
3.3900000000027295, -0.9763625996168223 
3.4000000000027506, -0.9763202156163158 
3.4100000000027717, -0.9760575499043687 
3.420000000002793, -0.9754251806021137 
3.430000000002814, -0.9744623368557633 
3.440000000002835, -0.9733285358367137 
3.450000000002856, -0.972151887199212 
3.460000000002877, -0.9710809755413842 
3.4700000000028983, -0.9703320332306796 
3.4800000000029194, -0.9700330177067016 
3.4900000000029405, -0.9700148481151671 
3.5000000000029616, -0.9699691790556467 
3.5100000000029827, -0.9696890305821015 
3.520000000003004, -0.9691213324702841 
3.530000000003025, -0.9683529976104498 
3.540000000003046, -0.9674807246865226 
3.550000000003067, -0.9665883902975003 
3.5600000000030882, -0.9658254535761569 
3.5700000000031094, -0.9653686802445743 
3.5800000000031305, -0.9652615489432006 
3.5900000000031516, -0.965319234516122 
3.6000000000031727, -0.965300048392807 
3.6100000000031938, -0.9650764140124182 
3.620000000003215, -0.9646577404331318 
3.630000000003236, -0.964104235211214 
3.640000000003257, -0.9634543635422586 
3.650000000003278, -0.96279425313605 
3.6600000000032993, -0.962289033482347 
3.6700000000033204, -0.9620759898487442 
3.6800000000033415, -0.9621352134494948 
3.6900000000033626, -0.9622857585817409 
3.7000000000033837, -0.9623467627119235 
3.710000000003405, -0.9622524570872281 
3.720000000003426, -0.9620177242683137 
3.730000000003447, -0.9616459511493892 
3.740000000003468, -0.961158110611766 
3.750000000003489, -0.9606780132197588 
3.7600000000035103, -0.9603953778959766 
3.7700000000035314, -0.9604105613769595 
3.7800000000035525, -0.9606508780098454 
3.7900000000035736, -0.9609429999070354 
3.8000000000035947, -0.9611555957632804 
3.810000000003616, -0.961248048741398 
3.820000000003637, -0.9611914041923321 
3.830000000003658, -0.9609465580290003 
3.840000000003679, -0.9605649423171705 
3.8500000000037002, -0.9602306230977611 
3.8600000000037213, -0.9601666030818895 
3.8700000000037424, -0.9604361576858459 
3.8800000000037635, -0.9609132631797596 
3.8900000000037847, -0.9614275792566583 
3.9000000000038058, -0.9618746270996692 
3.910000000003827, -0.962187605878239 
3.920000000003848, -0.9622712199147117 
3.930000000003869, -0.9620938343982459 
3.94000000000389, -0.961777154601791 
3.9500000000039113, -0.9615809459993984 
3.9600000000039324, -0.9617731640975825 
3.9700000000039535, -0.9623712496199335 
3.9800000000039746, -0.9631842939340519 
3.9900000000039957, -0.9640312969863789 
4.000000000004016, -0.9647919011035685 
4.010000000003993, -0.9653174160198629 
4.02000000000397, -0.9654739367166179 
4.030000000003946, -0.9653096783357029 
4.040000000003923, -0.9650358506547728 
4.0500000000039, -0.9650065315689641 
4.0600000000038765, -0.9655451325476285 
4.070000000003853, -0.9665951776226027 
4.08000000000383, -0.9678783945618625 
4.090000000003807, -0.9691742481555135 
4.100000000003783, -0.970277366840599 
4.11000000000376, -0.9709350679141111 
4.120000000003737, -0.9710777230403338 
4.130000000003713, -0.9708860790606528 
4.14000000000369, -0.9706603010516285 
4.150000000003667, -0.9708807897110308 
4.1600000000036434, -0.9719104393459216 
4.17000000000362, -0.9735563142261193 
4.180000000003597, -0.9754258908844409 
4.1900000000035735, -0.9772089933530143 
4.20000000000355, -0.9785484443655116 
4.210000000003527, -0.9791809955010694 
4.220000000003504, -0.9792309214897791 
4.23000000000348, -0.9789946054827006 
4.240000000003457, -0.978870224497999 
4.250000000003434, -0.9794949241308292 
4.26000000000341, -0.9811654934559125 
4.270000000003387, -0.9834654892355297 
4.280000000003364, -0.9858838703748686 
4.2900000000033405, -0.987971904497298 
4.300000000003317, -0.9892688931948467 
4.310000000003294, -0.9897109461516721 
4.320000000003271, -0.9896265230416227 
4.330000000003247, -0.9893680596243667 
4.340000000003224, -0.9894828259602263 
4.350000000003201, -0.9906957184059189 
4.360000000003177, -0.9930005863208176 
4.370000000003154, -0.9957528298407629 
4.380000000003131, -0.9983816163827979 
4.390000000003107, -1.0003385387386599 
4.400000000003084, -1.001288204542697 
4.410000000003061, -1.0014605076048795 
4.4200000000030375, -1.0012508151482853 
4.430000000003014, -1.001069648171173 
4.440000000002991, -1.001639714657577 
4.450000000002968, -1.0034516272184095 
4.460000000002944, -1.0060467779833437 
4.470000000002921, -1.0087557278880437 
4.480000000002898, -1.0110516312681674 
4.490000000002874, -1.0124586491505636 
4.500000000002851, -1.0129414061833808 
4.510000000002828, -1.0128669835097615 
4.520000000002804, -1.0126069521078254 
4.530000000002781, -1.012705365970305 
4.540000000002758, -1.0138225527553826 
4.5500000000027345, -1.0158633363353304 
4.560000000002711, -1.0182046644242149 
4.570000000002688, -1.0203724951379032 
4.580000000002665, -1.0219555641361526 
4.590000000002641, -1.0227014105287522 
4.600000000002618, -1.0227879247194418 
4.610000000002595, -1.0225548173341479 
4.620000000002571, -1.0224111689974227 
4.630000000002548, -1.022943305030476 
4.640000000002525, -1.0243161405223327 
4.6500000000025015, -1.0260789637639258 
4.660000000002478, -1.0278148985315634 
4.670000000002455, -1.0292389177258119 
4.6800000000024315, -1.030081600083753 
4.690000000002408, -1.0303018485786364 
4.700000000002385, -1.0301275753292156 
4.710000000002362, -1.0298818009825674 
4.720000000002338, -1.0300243589716405 
4.730000000002315, -1.0308233213681781 
4.740000000002292, -1.0320200869406124 
4.750000000002268, -1.0332654364847988 
4.760000000002245, -1.0343513423709507 
4.770000000002222, -1.035098403439192 
4.7800000000021985, -1.0353733196531196 
4.790000000002175, -1.0352496204672381 
4.800000000002152, -1.034961688496204 
4.810000000002129, -1.0348625512620728 
4.820000000002105, -1.035235125151112 
4.830000000002082, -1.0359740870472671 
4.840000000002059, -1.0368057311636354 
4.850000000002035, -1.037545368450684 
4.860000000002012, -1.0380838769965577 
4.870000000001989, -1.038313126742133 
4.880000000001965, -1.0382036889758952 
4.890000000001942, -1.0378872008864948 
4.900000000001919, -1.0376284158659708 
4.9100000000018955, -1.0376925477807912 
4.920000000001872, -1.0380839404817181 
4.930000000001849, -1.0386060758268256 
