t, s[1].omega / s[0].omega 
0, -0.9000907593135834 
0.009999999999999995, -0.9086136373932554 
0.019999999999999934, -0.9156250899120119 
0.029999999999999874, -0.920847553085245 
0.04000000000000012, -0.9244060901275694 
0.050000000000000405, -0.9266429972786066 
0.06000000000000069, -0.9279306327865158 
0.07000000000000098, -0.9285700848053345 
0.08000000000000126, -0.928767527312214 
0.09000000000000155, -0.9286479026643117 
0.10000000000000184, -0.9282778112463577 
0.11000000000000212, -0.9276883231107256 
0.12000000000000241, -0.9269012227527569 
0.130000000000002, -0.9259708237321812 
0.1400000000000009, -0.925059123702421 
0.1499999999999998, -0.9245558032143084 
0.1599999999999987, -0.9252133609611443 
0.1699999999999976, -0.9281755728235481 
0.1799999999999965, -0.9346962276869814 
0.1899999999999954, -0.9454582384626431 
0.1999999999999943, -0.9598230471545944 
0.2099999999999932, -0.975722007703838 
0.2199999999999921, -0.9905585688421933 
0.229999999999991, -1.0024762698155871 
0.2399999999999899, -1.0109418304130133 
0.2499999999999888, -1.0164153883184337 
0.2599999999999877, -1.0197109810917238 
0.2699999999999866, -1.0215697957298269 
0.2799999999999855, -1.0225204548536182 
0.2899999999999844, -1.0228931794208098 
0.2999999999999833, -1.0228751401315868 
0.3099999999999822, -1.0225601091962866 
0.3199999999999811, -1.0219850228963763 
0.32999999999998, -1.0211631210780543 
0.3399999999999789, -1.0201335122522566 
0.3499999999999778, -1.019055597350553 
0.35999999999997667, -1.0183678490298467 
0.36999999999997557, -1.0189590175353036 
0.37999999999997447, -1.0221443973447228 
0.38999999999997337, -1.0291675832618976 
0.39999999999997227, -1.0403006682855096 
0.40999999999997117, -1.0542613315078704 
0.41999999999997006, -1.0686663730627526 
0.42999999999996896, -1.0812515190111374 
0.43999999999996786, -1.0908226593821637 
0.44999999999996676, -1.097336825401287 
0.45999999999996566, -1.101400898790089 
0.46999999999996456, -1.1037540860727908 
0.47999999999996346, -1.1049992003935458 
0.48999999999996235, -1.1055440053581906 
0.49999999999996125, -1.1056355328022336 
0.5099999999999602, -1.105413192518704 
0.519999999999959, -1.1049569831366552 
0.529999999999958, -1.1043348307059833 
0.5399999999999568, -1.103663341161163 
0.5499999999999557, -1.1031882327635771 
0.5599999999999546, -1.1033490625856863 
0.5699999999999535, -1.1047283369465275 
0.5799999999999524, -1.1078060930728895 
0.5899999999999513, -1.1126443169248346 
0.5999999999999502, -1.1187850082772282 
0.6099999999999491, -1.1254539992820978 
0.619999999999948, -1.1318689055487634 
0.6299999999999469, -1.1374471007694025 
0.6399999999999458, -1.1418775419900482 
0.6499999999999447, -1.145102312691295 
0.6599999999999436, -1.1472462911520647 
0.6699999999999425, -1.1485247748940186 
0.6799999999999414, -1.149162465760512 
0.6899999999999403, -1.14934675328244 
0.6999999999999392, -1.14921649555762 
0.7099999999999381, -1.148874886631492 
0.719999999999937, -1.148415501152572 
0.7299999999999359, -1.1479528509944674 
0.7399999999999348, -1.1476424628021458 
0.7499999999999337, -1.1476655446586788 
0.7599999999999326, -1.1481668204226478 
0.7699999999999315, -1.1491830452281044 
0.7799999999999304, -1.150625324422724 
0.7899999999999293, -1.15232737636106 
0.7999999999999282, -1.1541113981647597 
0.8099999999999271, -1.1558287528826248 
0.819999999999926, -1.1573708184769531 
0.8299999999999249, -1.1586642882147693 
0.8399999999999238, -1.1596636850073216 
0.8499999999999227, -1.1603469994042133 
0.8599999999999216, -1.1607144127318882 
0.8699999999999205, -1.1607867922104025 
0.8799999999999194, -1.1606016037583953 
0.8899999999999183, -1.1602077932169905 
0.8999999999999172, -1.1596634587044097 
0.9099999999999161, -1.1590377125602491 
0.919999999999915, -1.1584124790007604 
0.9299999999999139, -1.1578762408766985 
0.9399999999999128, -1.157506240885209 
0.9499999999999117, -1.1573472826763997 
0.9599999999999106, -1.1574003099277552 
0.9699999999999095, -1.1576252413473176 
0.9799999999999084, -1.1579535279683877 
0.9899999999999073, -1.1583049449483969 
0.9999999999999062, -1.1586031824110867 
1.0099999999999052, -1.1587851388677988 
1.019999999999904, -1.158803232610929 
1.029999999999903, -1.1586242902248645 
1.039999999999902, -1.1582282298284583 
1.0499999999999008, -1.1576071614365033 
1.0599999999998997, -1.1567645154258361 
1.0699999999998986, -1.1557147049703012 
1.0799999999998975, -1.1544844891611352 
1.0899999999998964, -1.1531164342636466 
1.0999999999998953, -1.1516732183083616 
1.1099999999998942, -1.1502398284973583 
1.119999999999893, -1.1489194461884376 
1.129999999999892, -1.1478182990869148 
1.1399999999998909, -1.1470171174070525 
1.1499999999998898, -1.1465375844616286 
1.1599999999998887, -1.1463269476133884 
1.1699999999998876, -1.1462779277880648 
1.1799999999998865, -1.1462691150951234 
1.1899999999998854, -1.146193854793376 
1.1999999999998843, -1.1459638283412772 
1.2099999999998832, -1.1454968629177482 
1.219999999999882, -1.1447042497315185 
1.229999999999881, -1.143488053527524 
1.2399999999998799, -1.1417528658345701 
1.2499999999998788, -1.139429429789403 
1.2599999999998777, -1.1365004584908136 
1.2699999999998766, -1.1330186455488043 
1.2799999999998755, -1.1291156666983895 
1.2899999999998744, -1.1250077290940095 
1.2999999999998733, -1.1209951445703932 
1.3099999999998722, -1.1174336113163517 
1.319999999999871, -1.1146487053851515 
1.32999999999987, -1.1128080138847591 
1.3399999999998689, -1.1118404207374781 
1.3499999999998678, -1.1114871824911903 
1.3599999999998666, -1.1114437399833634 
1.3699999999998655, -1.1114705718273403 
1.3799999999998644, -1.1114165992007559 
1.3899999999998633, -1.111185878582383 
1.3999999999998622, -1.110691417485076 
1.4099999999998611, -1.109814282165603 
1.41999999999986, -1.1083695375502105 
1.429999999999859, -1.1060826429138237 
1.4399999999998578, -1.1025946015914236 
1.4499999999998567, -1.0975288956168048 
1.4599999999998556, -1.0906428800837331 
1.4699999999998545, -1.0820305619212611 
1.4799999999998534, -1.0722725599981362 
1.4899999999998523, -1.0624108117205024 
1.4999999999998512, -1.0536842417497312 
1.5099999999998501, -1.04708463134269 
1.519999999999849, -1.0429611322461991 
1.529999999999848, -1.0409607775563543 
1.5399999999998468, -1.0403466633200427 
1.5499999999998457, -1.0404044106804835 
1.5599999999998446, -1.0406541557282438 
1.5699999999998435, -1.0408474350012555 
1.5799999999998424, -1.0408757951995642 
1.5899999999998413, -1.0406847111950253 
1.5999999999998402, -1.0402157701648558 
1.6099999999998391, -1.0393664924105688 
1.619999999999838, -1.0379533117086501 
1.629999999999837, -1.0356720683919396 
1.6399999999998358, -1.0320695024121576 
1.6499999999998347, -1.026572110190679 
1.6599999999998336, -1.018647767720993 
1.6699999999998325, -1.0081341456658641 
1.6799999999998314, -0.9955972950109968 
1.6899999999998303, -0.982409130321426 
1.6999999999998292, -0.970337667041548 
1.709999999999828, -0.9608372667584293 
1.719999999999827, -0.9545041805401707 
1.729999999999826, -0.9510285665228851 
1.7399999999998248, -0.9495772861376224 
1.7499999999998237, -0.9492658426668511 
1.7599999999998226, -0.9494376916516428 
1.7699999999998215, -0.9497106623653206 
1.7799999999998204, -0.9499009762195332 
1.7899999999998193, -0.9499297708473595 
1.7999999999998182, -0.9497547338420225 
1.809999999999817, -0.9493275814668948 
1.819999999999816, -0.9485657778214766 
1.8299999999998149, -0.9473295914274719 
1.8399999999998138, -0.9454045293468409 
1.8499999999998127, -0.9425029655550322 
1.8599999999998116, -0.9383129678063733 
1.8699999999998105, -0.9326165345029874 
1.8799999999998094, -0.9254476032451115 
1.8899999999998083, -0.9171895380467239 
1.8999999999998072, -0.9085203236345822 
1.909999999999806, -0.9002262171266959 
1.919999999999805, -0.8929922472414071 
1.9299999999998039, -0.8872561739816188 
1.9399999999998028, -0.8831517393218734 
1.9499999999998017, -0.8805370559696769 
1.9599999999998006, -0.8790897931479998 
1.9699999999997995, -0.8784295098514262 
1.9799999999997984, -0.8782173294933099 
1.9899999999997973, -0.8782034695659343 
1.9999999999997962, -0.8782269339706282 
2.0099999999998173, -0.8781902554755359 
2.0199999999998384, -0.8780298523607932 
2.0299999999998595, -0.8776922269705562 
2.0399999999998806, -0.8771190116036077 
2.0499999999999017, -0.8762421876377028 
2.059999999999923, -0.8749917239278503 
2.069999999999944, -0.8733163260234829 
2.079999999999965, -0.8712102344710697 
2.089999999999986, -0.868729696292583 
2.100000000000007, -0.8659852958326363 
2.1100000000000283, -0.8631142407531456 
2.1200000000000494, -0.8602513708147306 
2.1300000000000705, -0.8575133497129116 
2.1400000000000916, -0.854996129160247 
2.1500000000001127, -0.8527773499986961 
2.160000000000134, -0.8509162651604795 
2.170000000000155, -0.8494488800601966 
2.180000000000176, -0.8483809002156153 
2.190000000000197, -0.8476837184361793 
2.2000000000002182, -0.8472978775159865 
2.2100000000002393, -0.8471443251523108 
2.2200000000002604, -0.8471390688866072 
2.2300000000002815, -0.847205288519054 
2.2400000000003026, -0.8472795278989593 
2.2500000000003237, -0.8473126113172993 
2.260000000000345, -0.8472683173541707 
2.270000000000366, -0.8471225937764256 
2.280000000000387, -0.8468639801785116 
2.290000000000408, -0.8464935320813372 
2.3000000000004293, -0.8460219761162744 
2.3100000000004504, -0.8454640810260873 
2.3200000000004715, -0.8448332689869955 
2.3300000000004926, -0.8441398621458216 
2.3400000000005137, -0.8433935858201387 
2.3500000000005348, -0.8426080981529808 
2.360000000000556, -0.8418049155516594 
2.370000000000577, -0.841015503536487 
2.380000000000598, -0.840281354519159 
2.390000000000619, -0.8396517762720898 
2.4000000000006403, -0.8391788610537819 
2.4100000000006614, -0.8389098460071972 
2.4200000000006825, -0.8388786828837806 
2.4300000000007036, -0.8390997600999409 
2.4400000000007247, -0.839566170926266 
2.450000000000746, -0.8402529185714537 
2.460000000000767, -0.8411233314657064 
2.470000000000788, -0.8421358778173541 
2.480000000000809, -0.8432487442967622 
2.49000000000083, -0.8444205928247139 
2.5000000000008513, -0.8456075218827948 
2.5100000000008724, -0.8467584343923782 
2.5200000000008935, -0.8478132412687225 
2.5300000000009146, -0.848708477861251 
2.5400000000009357, -0.8493905361438486 
2.550000000000957, -0.849829684556078 
2.560000000000978, -0.8500257458909013 
2.570000000000999, -0.8500027201409102 
2.58000000000102, -0.8497981475447528 
2.5900000000010412, -0.8494552528630418 
2.6000000000010624, -0.8490223703209224 
2.6100000000010835, -0.8485600701466536 
2.6200000000011046, -0.8481538917384676 
2.6300000000011257, -0.8479282334545376 
2.6400000000011468, -0.8480537341671308 
2.650000000001168, -0.8487385745490913 
2.660000000001189, -0.8501980460739416 
2.67000000000121, -0.8526075980386658 
2.680000000001231, -0.856054841930393 
2.6900000000012523, -0.8605054625707366 
2.7000000000012734, -0.8657876357136098 
2.7100000000012945, -0.8715931127981426 
2.7200000000013156, -0.877500686561787 
2.7300000000013367, -0.8830392160805411 
2.740000000001358, -0.8877950636213777 
2.750000000001379, -0.8915232599783011 
2.7600000000014, -0.8941923601194238 
2.770000000001421, -0.895935999231624 
2.780000000001442, -0.8969576758129867 
2.7900000000014633, -0.8974522495140258 
2.8000000000014844, -0.8975691811106088 
2.8100000000015055, -0.8974079090928406 
2.8200000000015266, -0.8970287528471721 
2.8300000000015477, -0.8964706663816514 
2.840000000001569, -0.8957766986712429 
2.85000000000159, -0.8950348820309983 
2.860000000001611, -0.8944440934708071 
2.870000000001632, -0.8944036854855131 
2.8800000000016532, -0.8955907875313744 
2.8900000000016743, -0.898933925070644 
2.9000000000016954, -0.905368045813335 
2.9100000000017165, -0.9153541203328939 
2.9200000000017377, -0.9283825954423248 
2.9300000000017588, -0.9428732058820222 
2.94000000000178, -0.9567293155845921 
2.950000000001801, -0.9682556225236061 
2.960000000001822, -0.9767534040636008 
2.970000000001843, -0.9824370137176075 
2.9800000000018643, -0.985960236994852 
2.9900000000018854, -0.9880033552985557 
3.0000000000019065, -0.9890888742541352 
3.0100000000019276, -0.9895597655038386 
3.0200000000019487, -0.9896185241552249 
3.03000000000197, -0.9893717236301406 
3.040000000001991, -0.9888645841516153 
3.050000000002012, -0.9881095982235484 
3.060000000002033, -0.987123568824565 
3.070000000002054, -0.9859966929565698 
3.0800000000020753, -0.9850204585747463 
3.0900000000020964, -0.9848686884467008 
3.1000000000021175, -0.9867137532935454 
3.1100000000021386, -0.9920074654727793 
3.1200000000021597, -1.0017269508719238 
3.130000000002181, -1.015432985718379 
3.140000000002202, -1.031048213472689 
3.150000000002223, -1.0458325736470693 
3.160000000002244, -1.0577847521016286 
3.1700000000022652, -1.066286970115361 
3.1800000000022863, -1.0717702075912992 
3.1900000000023074, -1.0750496979994222 
3.2000000000023285, -1.0768772019344794 
3.2100000000023496, -1.0777907388075536 
3.2200000000023707, -1.0781264767810979 
3.230000000002392, -1.078075945973723 
3.240000000002413, -1.0777397415493042 
3.250000000002434, -1.0771713077349467 
3.260000000002455, -1.0764233663706377 
3.2700000000024763, -1.075617592073204 
3.2800000000024974, -1.0750506421919432 
3.2900000000025185, -1.0752998074534104 
3.3000000000025396, -1.0771938634077647 
3.3100000000025607, -1.0814961061802828 
3.3200000000025818, -1.0883996689484525 
3.330000000002603, -1.097258534470888 
3.340000000002624, -1.1068321019704765 
3.350000000002645, -1.1158252881929944 
3.360000000002666, -1.1233282568653835 
3.3700000000026873, -1.1289727585230318 
3.3800000000027084, -1.1328441291058673 
3.3900000000027295, -1.135276853705078 
3.4000000000027506, -1.1366607837183937 
3.4100000000027717, -1.137326956710637 
3.420000000002793, -1.1375127903991327 
3.430000000002814, -1.1373738706918393 
3.440000000002835, -1.137014584257659 
3.450000000002856, -1.136526407045606 
3.460000000002877, -1.136031376279218 
3.4700000000028983, -1.1357199502079145 
3.4800000000029194, -1.1358496026016884 
3.4900000000029405, -1.1366676153750295 
3.5000000000029616, -1.1382852071721796 
3.5100000000029827, -1.1406075945618466 
3.520000000003004, -1.143383605991752 
3.530000000003025, -1.1463171855766374 
3.540000000003046, -1.1491512251271845 
3.550000000003067, -1.1516970061820866 
3.5600000000030882, -1.15383191571999 
3.5700000000031094, -1.1554907502444145 
3.5800000000031305, -1.1566595733313298 
3.5900000000031516, -1.157368545803189 
3.6000000000031727, -1.1576789043519655 
3.6100000000031938, -1.157666209220597 
3.620000000003215, -1.1574074932433607 
3.630000000003236, -1.1569782923486471 
3.640000000003257, -1.156459222442045 
3.650000000003278, -1.1559446669387907 
3.6600000000032993, -1.1555409616842809 
3.6700000000033204, -1.1553451498108296 
3.6800000000033415, -1.155413012120294 
3.6900000000033626, -1.1557402903524348 
3.7000000000033837, -1.1562702932826803 
3.710000000003405, -1.1569175869185924 
3.720000000003426, -1.1575914362933086 
3.730000000003447, -1.1582115400083803 
3.740000000003468, -1.1587153565890245 
3.750000000003489, -1.159058860453746 
3.7600000000035103, -1.15921381961051 
3.7700000000035314, -1.159164444852053 
3.7800000000035525, -1.158905027490675 
3.7900000000035736, -1.1584391701801118 
3.8000000000035947, -1.1577805640219536 
3.810000000003616, -1.15695489680906 
3.820000000003637, -1.1560024191661762 
3.830000000003658, -1.1549801846879282 
3.840000000003679, -1.1539615367139056 
3.8500000000037002, -1.1530297478247225 
3.8600000000037213, -1.1522646407563812 
3.8700000000037424, -1.15172392136061 
3.8800000000037635, -1.1514238266742902 
3.8900000000037847, -1.1513287532498113 
3.9000000000038058, -1.151360211072361 
3.910000000003827, -1.1514217287976416 
3.920000000003848, -1.1514218887072538 
3.930000000003869, -1.1512826722908156 
3.94000000000389, -1.1509360167350686 
3.9500000000039113, -1.1503190126398462 
3.9600000000039324, -1.1493751984138938 
3.9700000000039535, -1.1480626343673752 
3.9800000000039746, -1.1463639251285298 
3.9900000000039957, -1.1442927016502455 
4.000000000004016, -1.1418958450784737 
4.010000000003993, -1.1392557487931807 
4.02000000000397, -1.1364961762389936 
4.030000000003946, -1.1337881061852415 
4.040000000003923, -1.131341834877382 
4.0500000000039, -1.129366596112849 
4.0600000000038765, -1.1279961478241194 
4.070000000003853, -1.1272226430476011 
4.08000000000383, -1.1269004714819029 
4.090000000003807, -1.1268230492715048 
4.100000000003783, -1.1268044514809021 
4.11000000000376, -1.1267107852655984 
4.120000000003737, -1.1264451814459604 
4.130000000003713, -1.1259151858104464 
4.14000000000369, -1.1250015359858283 
4.150000000003667, -1.1235363420910336 
4.1600000000036434, -1.1212992767853858 
4.17000000000362, -1.1180458692105573 
4.180000000003597, -1.1135780561324329 
4.1900000000035735, -1.1078447762325228 
4.20000000000355, -1.1010341821080916 
4.210000000003527, -1.093615526438262 
4.220000000003504, -1.0863012812042139 
4.23000000000348, -1.079902193445935 
4.240000000003457, -1.0750723181376185 
4.250000000003434, -1.0720476921563609 
4.26000000000341, -1.0705780264640867 
4.270000000003387, -1.0701271782417208 
4.280000000003364, -1.0701631647214898 
4.2900000000033405, -1.0703206944662635 
4.300000000003317, -1.0704034370200495 
4.310000000003294, -1.0703151959524186 
4.320000000003271, -1.0699911609781445 
4.330000000003247, -1.0693473845209331 
4.340000000003224, -1.0682405664693042 
4.350000000003201, -1.0664289135701477 
4.360000000003177, -1.0635376590266588 
4.370000000003154, -1.0590587129500024 
4.380000000003131, -1.052445637226839 
4.390000000003107, -1.0433605322426818 
4.400000000003084, -1.0320232858157716 
4.410000000003061, -1.019436449746313 
4.4200000000030375, -1.0072165000167401 
4.430000000003014, -0.9970061247347932 
4.440000000002991, -0.9897982555657763 
4.450000000002968, -0.9856227247794227 
4.460000000002944, -0.9837710339993226 
4.470000000002921, -0.9833057606685347 
4.480000000002898, -0.9834612002035478 
4.490000000002874, -0.9837704158162677 
4.500000000002851, -0.9840061930205323 
4.510000000002828, -0.9840747412533244 
4.520000000002804, -0.9839322662411693 
4.530000000002781, -0.983533045695219 
4.540000000002758, -0.9827955627147785 
4.5500000000027345, -0.9815735875055015 
4.560000000002711, -0.9796276797691166 
4.570000000002688, -0.9766077243761242 
4.580000000002665, -0.9720799733876623 
4.590000000002641, -0.9656473925404668 
4.600000000002618, -0.95717486059084 
4.610000000002595, -0.9470172265174573 
4.620000000002571, -0.936062117418096 
4.630000000002548, -0.9254961968322689 
4.640000000002525, -0.9164157415167719 
4.6500000000025015, -0.9094970975846008 
4.660000000002478, -0.9048689112842989 
4.670000000002455, -0.9022030615335561 
4.6800000000024315, -0.9009392962045734 
4.690000000002408, -0.9005126230990698 
4.700000000002385, -0.9004877556374113 
4.710000000002362, -0.9005871985529721 
4.720000000002338, -0.9006562321931371 
4.730000000002315, -0.9006118200635915 
4.740000000002292, -0.900399813973026 
4.750000000002268, -0.8999654264082546 
4.760000000002245, -0.8992345917741451 
4.770000000002222, -0.898105276878228 
4.7800000000021985, -0.8964530270047326 
4.790000000002175, -0.8941581446703577 
4.800000000002152, -0.8911544433881208 
4.810000000002129, -0.8874790364596091 
4.820000000002105, -0.8832884907461832 
4.830000000002082, -0.8788256580182535 
4.840000000002059, -0.8743602057941677 
4.850000000002035, -0.8701389878351827 
4.860000000002012, -0.8663609763493569 
4.870000000001989, -0.8631681862615886 
4.880000000001965, -0.8606399496594396 
4.890000000001942, -0.8587872222748942 
4.900000000001919, -0.8575529857964502 
4.9100000000018955, -0.8568258277627885 
4.920000000001872, -0.856466001818157 
4.930000000001849, -0.8563342393940214 
