t, s[1].omega / s[0].omega 
0, -0.5099977554475189 
0.009999999999999995, -0.5098008431915794 
0.019999999999999934, -0.5096486815630443 
0.029999999999999874, -0.5095158262193673 
0.04000000000000012, -0.5093705325874366 
0.050000000000000405, -0.5091849442555907 
0.06000000000000069, -0.5089414873433726 
0.07000000000000098, -0.5086339052407832 
0.08000000000000126, -0.5082648314480273 
0.09000000000000155, -0.507843032234216 
0.10000000000000184, -0.5073826498041247 
0.11000000000000212, -0.5069056806772416 
0.12000000000000241, -0.5064485794649414 
0.130000000000002, -0.5060741920110903 
0.1400000000000009, -0.505890350997593 
0.1499999999999998, -0.5060744733618658 
0.1599999999999987, -0.5068947687098793 
0.1699999999999976, -0.5086946481880572 
0.1799999999999965, -0.5117646714376124 
0.1899999999999954, -0.5160190402096749 
0.1999999999999943, -0.5206032686116455 
0.2099999999999932, -0.5240291229526982 
0.2199999999999921, -0.5252482472206311 
0.229999999999991, -0.5245684671430477 
0.2399999999999899, -0.5231395030152625 
0.2499999999999888, -0.5218789453202314 
0.2599999999999877, -0.5211087468949172 
0.2699999999999866, -0.5207775692800319 
0.2799999999999855, -0.5207255992655477 
0.2899999999999844, -0.5208107439115817 
0.2999999999999833, -0.5209378599822537 
0.3099999999999822, -0.5210511613533142 
0.3199999999999811, -0.5211197442168368 
0.32999999999998, -0.5211258111399493 
0.3399999999999789, -0.5210571749619003 
0.3499999999999778, -0.5209036166665602 
0.35999999999997667, -0.5206566741182341 
0.36999999999997557, -0.5203125707103069 
0.37999999999997447, -0.5198772555239721 
0.38999999999997337, -0.5193707710056756 
0.39999999999997227, -0.5188268919423835 
0.40999999999997117, -0.518285709128999 
0.41999999999997006, -0.5177816108867026 
0.42999999999996896, -0.5173328136719167 
0.43999999999996786, -0.5169376407941269 
0.44999999999996676, -0.5165785498168065 
0.45999999999996566, -0.5162310164313958 
0.46999999999996456, -0.5158727122914001 
0.47999999999996346, -0.5154893752368439 
0.48999999999996235, -0.5150765512955913 
0.49999999999996125, -0.5146389392221463 
0.5099999999999602, -0.5141898934956339 
0.519999999999959, -0.5137531193993768 
0.529999999999958, -0.5133679564972417 
0.5399999999999568, -0.5130995914287093 
0.5499999999999557, -0.5130559847012995 
0.5599999999999546, -0.5134135728157634 
0.5699999999999535, -0.5144522618433773 
0.5799999999999524, -0.5165927193427368 
0.5899999999999513, -0.5204069152610753 
0.5999999999999502, -0.5265275581497108 
0.6099999999999491, -0.5353399849069554 
0.619999999999948, -0.5464460459462478 
0.6299999999999469, -0.558327656051343 
0.6399999999999458, -0.5689381754902509 
0.6499999999999447, -0.5769790217959487 
0.6599999999999436, -0.5824365162468157 
0.6699999999999425, -0.5859942691843535 
0.6799999999999414, -0.5883375408895031 
0.6899999999999403, -0.5899176802757923 
0.6999999999999392, -0.5909936368847628 
0.7099999999999381, -0.5917144608175761 
0.719999999999937, -0.5921708037995461 
0.7299999999999359, -0.5924192629749243 
0.7399999999999348, -0.5924929322774343 
0.7499999999999337, -0.5924059509639708 
0.7599999999999326, -0.5921556011203659 
0.7699999999999315, -0.5917240655290504 
0.7799999999999304, -0.5910821945936985 
0.7899999999999293, -0.5901982308374881 
0.7999999999999282, -0.5890533224756606 
0.8099999999999271, -0.5876604879501724 
0.819999999999926, -0.5860760943884242 
0.8299999999999249, -0.5843920104082077 
0.8399999999999238, -0.5827093021006603 
0.8499999999999227, -0.5811096680645154 
0.8599999999999216, -0.5796408883668261 
0.8699999999999205, -0.578319251694672 
0.8799999999999194, -0.5771413709508612 
0.8899999999999183, -0.5760968638062806 
0.8999999999999172, -0.575177475653809 
0.9099999999999161, -0.574382073772158 
0.919999999999915, -0.5737187866222253 
0.9299999999999139, -0.5732057837638914 
0.9399999999999128, -0.5728716996448926 
0.9499999999999117, -0.5727561834719838 
0.9599999999999106, -0.5729107689245477 
0.9699999999999095, -0.5734001471936347 
0.9799999999999084, -0.5743037860269746 
0.9899999999999073, -0.5757173751109994 
0.9999999999999062, -0.577752416930626 
1.0099999999999052, -0.5805300050359607 
1.019999999999904, -0.5841614163076185 
1.029999999999903, -0.5887055353922909 
1.039999999999902, -0.5940984049946033 
1.0499999999999008, -0.6000758001737867 
1.0599999999998997, -0.6061544054730572 
1.0699999999998986, -0.6117460529261682 
1.0799999999998975, -0.6163777378937327 
1.0899999999998964, -0.6198564133503219 
1.0999999999998953, -0.6222580062022718 
1.1099999999998942, -0.6237972434250576 
1.119999999999893, -0.6247037823476381 
1.129999999999892, -0.6251602343600235 
1.1399999999998909, -0.6252884509905083 
1.1499999999998898, -0.6251555839458284 
1.1599999999998887, -0.6247820294128441 
1.1699999999998876, -0.6241437277276533 
1.1799999999998865, -0.623166053158355 
1.1899999999998854, -0.621708423479395 
1.1999999999998843, -0.6195422594059712 
1.2099999999998832, -0.6163363434327983 
1.219999999999882, -0.6116885492077333 
1.229999999999881, -0.6052657210289112 
1.2399999999998799, -0.597063835468746 
1.2499999999998788, -0.5876220656418945 
1.2599999999998777, -0.5779171544627247 
1.2699999999998766, -0.5689408675168974 
1.2799999999998755, -0.5613241720111697 
1.2899999999998744, -0.555262124108996 
1.2999999999998733, -0.5506524769431878 
1.3099999999998722, -0.547262808164035 
1.319999999999871, -0.5448390731402355 
1.32999999999987, -0.5431550096690637 
1.3399999999998689, -0.5420265854458075 
1.3499999999998678, -0.5413109538976826 
1.3599999999998666, -0.5409003424895666 
1.3699999999998655, -0.5407153176530325 
1.3799999999998644, -0.5406989570575403 
1.3899999999998633, -0.5408123072074263 
1.3999999999998622, -0.541031129106318 
1.4099999999998611, -0.5413437704073182 
1.41999999999986, -0.54174973285573 
1.429999999999859, -0.5422579983048557 
1.4399999999998578, -0.5428835833297929 
1.4499999999998567, -0.5436406443366129 
1.4599999999998556, -0.54453152221521 
1.4699999999998545, -0.5455339312637961 
1.4799999999998534, -0.5465925179110844 
1.4899999999998523, -0.5476231685855912 
1.4999999999998512, -0.5485334431433799 
1.5099999999998501, -0.5492501366349135 
1.519999999999849, -0.5497370829484785 
1.529999999999848, -0.5499939626624586 
1.5399999999998468, -0.5500416982026927 
1.5499999999998457, -0.5499058949262022 
1.5599999999998446, -0.549605078598231 
1.5699999999998435, -0.5491440529584118 
1.5799999999998424, -0.5485096432377438 
1.5899999999998413, -0.5476655768960936 
1.5999999999998402, -0.546542971506126 
1.6099999999998391, -0.5450212877233417 
1.619999999999838, -0.5428912667619147 
1.629999999999837, -0.5397900816505313 
1.6399999999998358, -0.5351190415700978 
1.6499999999998347, -0.528042288497635 
1.6599999999998336, -0.5178152356413743 
1.6699999999998325, -0.5045677404494076 
1.6799999999998314, -0.4898603226386129 
1.6899999999998303, -0.4759982007129538 
1.6999999999998292, -0.464650487649774 
1.709999999999828, -0.4562727480204929 
1.719999999999827, -0.45049182915855096 
1.729999999999826, -0.446666470279171 
1.7399999999998248, -0.44420318935524084 
1.7499999999998237, -0.4426518392897908 
1.7599999999998226, -0.44170026117462813 
1.7699999999998215, -0.4411413978254706 
1.7799999999998204, -0.4408412729663727 
1.7899999999998193, -0.4407149274393983 
1.7999999999998182, -0.44071015099943 
1.809999999999817, -0.4407972268343852 
1.819999999999816, -0.4409629961807683 
1.8299999999998149, -0.44120787566992564 
1.8399999999998138, -0.44154451244788645 
1.8499999999998127, -0.44199644741160726 
1.8599999999998116, -0.44259470699257353 
1.8699999999998105, -0.44337017273601403 
1.8799999999998094, -0.4443405279031493 
1.8899999999998083, -0.44549332332105 
1.8999999999998072, -0.4467717932494598 
1.909999999999806, -0.4480750745476354 
1.919999999999805, -0.4492812959734831 
1.9299999999998039, -0.45028549306334276 
1.9399999999998028, -0.45102873038044217 
1.9499999999998017, -0.45150139142187806 
1.9599999999998006, -0.4517254919740715 
1.9699999999997995, -0.45173215450780574 
1.9799999999997984, -0.45154476294191587 
1.9899999999997973, -0.4511687298780645 
1.9999999999997962, -0.4505839607008486 
2.0099999999998173, -0.4497353769669873 
2.0199999999998384, -0.4485175875230526 
2.0299999999998595, -0.44675190180647284 
2.0399999999998806, -0.4441616564690685 
2.0499999999999017, -0.44037404469125363 
2.059999999999923, -0.43501307486544605 
2.069999999999944, -0.42794233332175474 
2.079999999999965, -0.4195515681221512 
2.089999999999986, -0.4107572776002296 
2.100000000000007, -0.4025775779447807 
2.1100000000000283, -0.3956667706010513 
2.1200000000000494, -0.3902005142027388 
2.1300000000000705, -0.3860415725518288 
2.1400000000000916, -0.3829384150632004 
2.1500000000001127, -0.38064275737354536 
2.160000000000134, -0.3789536130604409 
2.170000000000155, -0.3777234011681409 
2.180000000000176, -0.3768505718442806 
2.190000000000197, -0.3762700929995646 
2.2000000000002182, -0.37594586493552307 
2.2100000000002393, -0.3758661060010008 
2.2200000000002604, -0.3760417917216083 
2.2300000000002815, -0.37650808298028116 
2.2400000000003026, -0.377328723020827 
2.2500000000003237, -0.3786031807923584 
2.260000000000345, -0.38047523371594627 
2.270000000000366, -0.3831384694266923 
2.280000000000387, -0.38682680958516336 
2.290000000000408, -0.391765774826992 
2.3000000000004293, -0.39805262914040795 
2.3100000000004504, -0.4054686895956041 
2.3200000000004715, -0.41334819650645854 
2.3300000000004926, -0.42072983707028555 
2.3400000000005137, -0.42680493032915423 
2.3500000000005348, -0.4312720638666903 
2.360000000000556, -0.43429348848130245 
2.370000000000577, -0.4362250105328876 
2.380000000000598, -0.43740641459338725 
2.390000000000619, -0.4380864854623197 
2.4000000000006403, -0.4384247575005011 
2.4100000000006614, -0.4385142727004931 
2.4200000000006825, -0.4384020538456844 
2.4300000000007036, -0.4381027490697093 
2.4400000000007247, -0.437607469845317 
2.450000000000746, -0.43689176906476923 
2.460000000000767, -0.435927283124305 
2.470000000000788, -0.43470008007121486 
2.480000000000809, -0.433232630882323 
2.49000000000083, -0.4315968280047744 
2.5000000000008513, -0.42990351339699256 
2.5100000000008724, -0.42826941742775404 
2.5200000000008935, -0.42678212944260097 
2.5300000000009146, -0.42548357236817225 
2.5400000000009357, -0.42437470288656964 
2.550000000000957, -0.4234311072600711 
2.560000000000978, -0.4226190865893084 
2.570000000000999, -0.42190721365862593 
2.58000000000102, -0.4212726512116799 
2.5900000000010412, -0.420703678342767 
2.6000000000010624, -0.42020058416452655 
2.6100000000010835, -0.41977695878104593 
2.6200000000011046, -0.4194630048086367 
2.6300000000011257, -0.4193122980377292 
2.6400000000011468, -0.41941364727500774 
2.650000000001168, -0.4199101757197831 
2.660000000001189, -0.42102769281638863 
2.67000000000121, -0.42311144131092915 
2.680000000001231, -0.4266579233799942 
2.6900000000012523, -0.4322938026063463 
2.7000000000012734, -0.4405895592633633 
2.7100000000012945, -0.45157301521462945 
2.7200000000013156, -0.46409303813906655 
2.7300000000013367, -0.47586269242237555 
2.740000000001358, -0.4848217754752991 
2.750000000001379, -0.490499301333584 
2.7600000000014, -0.4937378378132033 
2.770000000001421, -0.4955854215997202 
2.780000000001442, -0.4967266329327506 
2.7900000000014633, -0.497496617675347 
2.8000000000014844, -0.4980401032678811 
2.8100000000015055, -0.4984203003172061 
2.8200000000015266, -0.49866834334348387 
2.8300000000015477, -0.4988013656947185 
2.840000000001569, -0.49882811217622025 
2.85000000000159, -0.4987505848775345 
2.860000000001611, -0.49856517947572365 
2.870000000001632, -0.4982650274211486 
2.8800000000016532, -0.4978446339205017 
2.8900000000016743, -0.4973068523745531 
2.9000000000016954, -0.4966699679584622 
2.9100000000017165, -0.4959702484280951 
2.9200000000017377, -0.49525595574641257 
2.9300000000017588, -0.49457405972837776 
2.94000000000178, -0.4939565235064255 
2.950000000001801, -0.4934132261581117 
2.960000000001822, -0.49293378716251396 
2.970000000001843, -0.49249574049909645 
2.9800000000018643, -0.49207445309403086 
2.9900000000018854, -0.4916507490229233 
3.0000000000019065, -0.4912145080106556 
3.0100000000019276, -0.4907651144911919 
3.0200000000019487, -0.49031101892410833 
3.03000000000197, -0.48987059523753756 
3.040000000001991, -0.4894758760655544 
3.050000000002012, -0.4891804973596653 
3.060000000002033, -0.4890734814399066 
3.070000000002054, -0.48930092287877003 
3.0800000000020753, -0.49009700903182074 
3.0900000000020964, -0.49182090799263456 
3.1000000000021175, -0.4949794291231441 
3.1100000000021386, -0.5001758217617687 
3.1200000000021597, -0.5078708817056137 
3.130000000002181, -0.5178825199733325 
3.140000000002202, -0.5289188884590316 
3.150000000002223, -0.538931194616119 
3.160000000002244, -0.5464232086449827 
3.1700000000022652, -0.5512854264605662 
3.1800000000022863, -0.5542799454747647 
3.1900000000023074, -0.5561875310618831 
3.2000000000023285, -0.5574848214735858 
3.2100000000023496, -0.5584054409765917 
3.2200000000023707, -0.5590603513939617 
3.230000000002392, -0.5595087533634537 
3.240000000002413, -0.559787012186409 
3.250000000002434, -0.5599179980726394 
3.260000000002455, -0.5599134576415778 
3.2700000000024763, -0.5597745057560254 
3.2800000000024974, -0.5594923174117696 
3.2900000000025185, -0.5590505500389407 
3.3000000000025396, -0.5584311924116115 
3.3100000000025607, -0.5576247923955238 
3.3200000000025818, -0.5566428878017975 
3.330000000002603, -0.5555258038991935 
3.340000000002624, -0.554338031243762 
3.350000000002645, -0.5531507842604286 
3.360000000002666, -0.5520215806996909 
3.3700000000026873, -0.5509824440987021 
3.3800000000027084, -0.5500405204540215 
3.3900000000027295, -0.5491869219393598 
3.4000000000027506, -0.5484074265577081 
3.4100000000027717, -0.5476907923446597 
3.420000000002793, -0.5470335520135766 
3.430000000002814, -0.5464423086396397 
3.440000000002835, -0.5459352523203301 
3.450000000002856, -0.5455442984647624 
3.460000000002877, -0.5453186470061897 
3.4700000000028983, -0.5453301337766244 
3.4800000000029194, -0.5456805351714823 
3.4900000000029405, -0.5465107654675794 
3.5000000000029616, -0.548011201351677 
3.5100000000029827, -0.5504302696832297 
3.520000000003004, -0.554073322539841 
3.530000000003025, -0.5592738395032882 
3.540000000003046, -0.5663059995666311 
3.550000000003067, -0.5752094239894576 
3.5600000000030882, -0.5855595550379846 
3.5700000000031094, -0.5963646140324333 
3.5800000000031305, -0.6063353826827269 
3.5900000000031516, -0.6144629440282435 
3.6000000000031727, -0.6204134545185006 
3.6100000000031938, -0.6244327571416549 
3.620000000003215, -0.6270005598017655 
3.630000000003236, -0.6285705529474538 
3.640000000003257, -0.6294770824449066 
3.650000000003278, -0.6299369783666433 
3.6600000000032993, -0.6300781131789658 
3.6700000000033204, -0.6299648660134733 
3.6800000000033415, -0.6296132857656367 
3.6900000000033626, -0.6289963928080797 
3.7000000000033837, -0.628041942261023 
3.710000000003405, -0.6266269312614564 
3.720000000003426, -0.6245785949462924 
3.730000000003447, -0.6217008395690939 
3.740000000003468, -0.6178476458860569 
3.750000000003489, -0.6130356996128785 
3.7600000000035103, -0.6075234008168324 
3.7700000000035314, -0.6017622866582919 
3.7800000000035525, -0.5962305387365701 
3.7900000000035736, -0.5912758512289433 
3.8000000000035947, -0.5870637837374252 
3.810000000003616, -0.5836153807414048 
3.820000000003637, -0.5808708695795078 
3.830000000003658, -0.5787395581897277 
3.840000000003679, -0.5771277400355413 
3.8500000000037002, -0.5759505414114857 
3.8600000000037213, -0.5751352142606286 
3.8700000000037424, -0.5746209420875568 
3.8800000000037635, -0.5743577670125812 
3.8900000000037847, -0.5743056834824147 
3.9000000000038058, -0.5744341577302576 
3.910000000003827, -0.5747220176735637 
3.920000000003848, -0.5751575380968926 
3.930000000003869, -0.5757383853729834 
3.94000000000389, -0.5764707158524855 
3.9500000000039113, -0.5773661543974761 
3.9600000000039324, -0.5784349930213722 
3.9700000000039535, -0.579674589655843 
3.9800000000039746, -0.5810546681704138 
3.9900000000039957, -0.5825061738565862 
4.000000000004016, -0.5839243339012973 
4.010000000003993, -0.5851922733903697 
4.02000000000397, -0.5862161098994567 
4.030000000003946, -0.5869497172929932 
4.040000000003923, -0.5873948699814407 
4.0500000000039, -0.5875826208511933 
4.0600000000038765, -0.5875514517291083 
4.070000000003853, -0.5873320361780187 
4.08000000000383, -0.5869394705408861 
4.090000000003807, -0.5863695662717163 
4.100000000003783, -0.5855954949781772 
4.11000000000376, -0.5845616505352809 
4.120000000003737, -0.583171142700454 
4.130000000003713, -0.5812610915394725 
4.14000000000369, -0.5785568606191955 
4.150000000003667, -0.5746016869420816 
4.1600000000036434, -0.5687038368216131 
4.17000000000362, -0.5600689018949087 
4.180000000003597, -0.5483556973277839 
4.1900000000035735, -0.5344359761732583 
4.20000000000355, -0.5203602719620429 
4.210000000003527, -0.5081774789593008 
4.220000000003504, -0.49888026078971387 
4.23000000000348, -0.492397943288052 
4.240000000003457, -0.48814675710292416 
4.250000000003434, -0.48547553484989636 
4.26000000000341, -0.4838541834049249 
4.270000000003387, -0.4829048562820331 
4.280000000003364, -0.48237547368769995 
4.2900000000033405, -0.48210373440344745 
4.300000000003317, -0.48198731036697123 
4.310000000003294, -0.48196273152979696 
4.320000000003271, -0.4819916054807294 
4.330000000003247, -0.4820523086220005 
4.340000000003224, -0.48213561507253855 
4.350000000003201, -0.4822429457191415 
4.360000000003177, -0.48238571466490043 
4.370000000003154, -0.4825837894143884 
4.380000000003131, -0.4828610235916277 
4.390000000003107, -0.4832368991373091 
4.400000000003084, -0.4837155776608172 
4.410000000003061, -0.4842763497325747 
4.4200000000030375, -0.484871280436271 
4.430000000003014, -0.4854344351770542 
4.440000000002991, -0.4859005239217569 
4.450000000002968, -0.4862230150423653 
4.460000000002944, -0.48638150616689957 
4.470000000002921, -0.48637670378081427 
4.480000000002898, -0.486219224233409 
4.490000000002874, -0.48591885350745256 
4.500000000002851, -0.485476796450233 
4.510000000002828, -0.48487987083790485 
4.520000000002804, -0.4840939005656068 
4.530000000002781, -0.48305244220168114 
4.540000000002758, -0.48163488920130026 
4.5500000000027345, -0.47962459619092285 
4.560000000002711, -0.4766377287083661 
4.570000000002688, -0.47203903453876983 
4.580000000002665, -0.46495907220029914 
4.590000000002641, -0.45467390718548184 
4.600000000002618, -0.44142204470162005 
4.610000000002595, -0.4268722157572283 
4.620000000002571, -0.41329602060584864 
4.630000000002548, -0.40221449014077326 
4.640000000002525, -0.39396663574677104 
4.6500000000025015, -0.388156543601338 
4.660000000002478, -0.3841812673944296 
4.670000000002455, -0.38150133232342487 
4.6800000000024315, -0.3797129348339551 
4.690000000002408, -0.3785369651746114 
4.700000000002385, -0.3777881126725985 
4.710000000002362, -0.37734672228885213 
4.720000000002338, -0.37713838149176565 
4.730000000002315, -0.37712062078423947 
4.740000000002292, -0.3772750437544194 
4.750000000002268, -0.37760341234698513 
4.760000000002245, -0.37812653135445345 
4.770000000002222, -0.3788847742630291 
4.7800000000021985, -0.37993853471556976 
4.790000000002175, -0.38136556174166414 
4.800000000002152, -0.383249976910938 
4.810000000002129, -0.38565577649217786 
4.820000000002105, -0.3885802883950355 
4.830000000002082, -0.3918993685601594 
4.840000000002059, -0.3953465119938978 
4.850000000002035, -0.3985758140078577 
4.860000000002012, -0.4012942111526227 
4.870000000001989, -0.4033646260013599 
4.880000000001965, -0.4048065900176897 
4.890000000001942, -0.4057255714870872 
4.900000000001919, -0.40624216273212743 
