t, s[1].omega / s[0].omega 
0, -1.0099975475032559 
0.009999999999999995, -1.0096683736774366 
0.019999999999999934, -1.0091712422139911 
0.029999999999999874, -1.0085049779936066 
0.04000000000000012, -1.0076785821349015 
0.050000000000000405, -1.0067202974679572 
0.06000000000000069, -1.0056823939506396 
0.07000000000000098, -1.0046403407607072 
0.08000000000000126, -1.0036847942010645 
0.09000000000000155, -1.0029059365219855 
0.10000000000000184, -1.0023747920161685 
0.11000000000000212, -1.0021290266436664 
0.12000000000000241, -1.002166325442624 
0.130000000000002, -1.0024441809084346 
0.1400000000000009, -1.0028870356404695 
0.1499999999999998, -1.0034020819293992 
0.1599999999999987, -1.0038987743967893 
0.1699999999999976, -1.0043038083879081 
0.1799999999999965, -1.0045680087661302 
0.1899999999999954, -1.0046665151683314 
0.1999999999999943, -1.0045937148898603 
0.2099999999999932, -1.0043539073327747 
0.2199999999999921, -1.0039514924439827 
0.229999999999991, -1.0033867645451084 
0.2399999999999899, -1.002660266045228 
0.2499999999999888, -1.0017824831446422 
0.2599999999999877, -1.0007829388443006 
0.2699999999999866, -0.9997148923019232 
0.2799999999999855, -0.9986541520148025 
0.2899999999999844, -0.9976905419995502 
0.2999999999999833, -0.9969121069779799 
0.3099999999999822, -0.996386983451145 
0.3199999999999811, -0.996149863134818 
0.32999999999998, -0.9961955526051263 
0.3399999999999789, -0.9964789057350874 
0.3499999999999778, -0.9969226299248293 
0.35999999999997667, -0.9974337434853242 
0.36999999999997557, -0.9979229853843439 
0.37999999999997447, -0.9983191190191748 
0.38999999999997337, -0.9985751976020769 
0.39999999999997227, -0.998668332657482 
0.40999999999997117, -0.9985942382944254 
0.41999999999997006, -0.9983575898533438 
0.42999999999996896, -0.9979622798273352 
0.43999999999996786, -0.9974077099912382 
0.44999999999996676, -0.9966937326723192 
0.45999999999996566, -0.9958306329344071 
0.46999999999996456, -0.9948481344477506 
0.47999999999996346, -0.9937998544350208 
0.48999999999996235, -0.992761927374913 
0.49999999999996125, -0.991824357980929 
0.5099999999999602, -0.9910750674287906 
0.519999999999959, -0.9905815292920062 
0.529999999999958, -0.990377217852321 
0.5399999999999568, -0.9904557424225782 
0.5499999999999557, -0.9907716979418536 
0.5599999999999546, -0.9912488916643509 
0.5699999999999535, -0.991796349126256 
0.5799999999999524, -0.9923269792345992 
0.5899999999999513, -0.9927714719083195 
0.5999999999999502, -0.9930844012148091 
0.6099999999999491, -0.9932436358785954 
0.619999999999948, -0.9932442945761466 
0.6299999999999469, -0.993088784915168 
0.6399999999999458, -0.992777479642146 
0.6499999999999447, -0.9923060573108824 
0.6599999999999436, -0.9916714905115246 
0.6699999999999425, -0.9908824602815833 
0.6799999999999414, -0.9899681063930995 
0.6899999999999403, -0.9889820659167061 
0.6999999999999392, -0.9880010939453371 
0.7099999999999381, -0.9871167453382069 
0.719999999999937, -0.9864192904067941 
0.7299999999999359, -0.9859783302528269 
0.7399999999999348, -0.9858283381778531 
0.7499999999999337, -0.9859633520164556 
0.7599999999999326, -0.9863393146658804 
0.7699999999999315, -0.9868827983464099 
0.7799999999999304, -0.9875059964076158 
0.7899999999999293, -0.9881242422162373 
0.7999999999999282, -0.988669629366257 
0.8099999999999271, -0.9890972220988005 
0.819999999999926, -0.9893841612565355 
0.8299999999999249, -0.9895229678430202 
0.8399999999999238, -0.9895113512914395 
0.8499999999999227, -0.989343633851599 
0.8599999999999216, -0.9890095919828878 
0.8699999999999205, -0.9885018589105053 
0.8799999999999194, -0.9878268426568019 
0.8899999999999183, -0.9870129761756914 
0.8999999999999172, -0.986114081964177 
0.9099999999999161, -0.9852081162483227 
0.919999999999915, -0.9843897090424317 
0.9299999999999139, -0.9837542740138143 
0.9399999999999128, -0.9833769995499587 
0.9499999999999117, -0.9832961677775133 
0.9599999999999106, -0.9835075623708291 
0.9699999999999095, -0.9839685861130969 
0.9799999999999084, -0.9846082444804868 
0.9899999999999073, -0.9853414854129682 
0.9999999999999062, -0.9860854832608569 
1.0099999999999052, -0.9867728481726153 
1.019999999999904, -0.9873579308504208 
1.029999999999903, -0.9878156623320133 
1.039999999999902, -0.988134271681367 
1.0499999999999008, -0.9883050000658733 
1.0599999999998997, -0.9883145073478643 
1.0699999999998986, -0.9881455223876514 
1.0799999999998975, -0.9877859085794484 
1.0899999999998964, -0.9872400678158859 
1.0999999999998953, -0.9865363697952457 
1.1099999999998942, -0.9857294844670731 
1.119999999999893, -0.9848992267666008 
1.129999999999892, -0.9841444274073116 
1.1399999999998909, -0.9835678470522324 
1.1499999999998898, -0.9832534387765914 
1.1599999999998887, -0.9832461941745159 
1.1699999999998876, -0.9835447954651493 
1.1799999999998865, -0.9841072157564261 
1.1899999999998854, -0.9848629530747092 
1.1999999999998843, -0.9857278425698073 
1.2099999999998832, -0.9866195001540857 
1.219999999999882, -0.9874699374178151 
1.229999999999881, -0.9882317253230649 
1.2399999999998799, -0.9888765239597739 
1.2499999999998788, -0.9893873116894187 
1.2599999999998777, -0.9897481330658587 
1.2699999999998766, -0.9899376164308474 
1.2799999999998755, -0.9899315724941555 
1.2899999999998744, -0.9897137867528052 
1.2999999999998733, -0.9892877632127 
1.3099999999998722, -0.9886830023737867 
1.319999999999871, -0.9879559733690311 
1.32999999999987, -0.9871889079720921 
1.3399999999998689, -0.986485162979371 
1.3499999999998678, -0.9859554319810442 
1.3599999999998666, -0.9856936721147113 
1.3699999999998655, -0.9857530543345794 
1.3799999999998644, -0.9861357058160696 
1.3899999999998633, -0.9867990659880093 
1.3999999999998622, -0.9876708589849251 
1.4099999999998611, -0.9886655062852963 
1.41999999999986, -0.9896994445192562 
1.429999999999859, -0.9907031516944029 
1.4399999999998578, -0.9916269101509876 
1.4499999999998567, -0.9924389167176553 
1.4599999999998556, -0.9931170982521536 
1.4699999999998545, -0.9936389914858872 
1.4799999999998534, -0.9939763816803163 
1.4899999999998523, -0.9940997370673124 
1.4999999999998512, -0.993990480375591 
1.5099999999998501, -0.9936527698862536 
1.519999999999849, -0.9931184447254211 
1.529999999999848, -0.9924466030077232 
1.5399999999998468, -0.991722240786696 
1.5499999999998457, -0.9910528075594158 
1.5599999999998446, -0.9905555370554067 
1.5699999999998435, -0.9903324196323654 
1.5799999999998424, -0.9904429924493314 
1.5899999999998413, -0.9908914852463303 
1.5999999999998402, -0.991633604597433 
1.6099999999998391, -0.9925939511330885 
1.619999999999838, -0.9936842707225049 
1.629999999999837, -0.9948190845182847 
1.6399999999998358, -0.9959272753264843 
1.6499999999998347, -0.9969573440056958 
1.6599999999998336, -0.9978750477051179 
1.6699999999998325, -0.9986548942655041 
1.6799999999998314, -0.9992702248795592 
1.6899999999998303, -0.9996888195694181 
1.6999999999998292, -0.9998787018167642 
1.709999999999828, -0.9998212614444861 
1.719999999999827, -0.9995226889146401 
1.729999999999826, -0.9990177504541087 
1.7399999999998248, -0.9983684305442078 
1.7499999999998237, -0.9976624904001964 
1.7599999999998226, -0.9970104740022105 
1.7699999999998215, -0.9965330929154804 
1.7799999999998204, -0.996335211051411 
1.7899999999998193, -0.9964771958693301 
1.7999999999998182, -0.9969616220286148 
1.809999999999817, -0.9977411080053292 
1.819999999999816, -0.9987372417284519 
1.8299999999998149, -0.9998596903374665 
1.8399999999998138, -1.0010219010740178 
1.8499999999998127, -1.0021523603461517 
1.8599999999998116, -1.0031994201063423 
1.8699999999998105, -1.0041285510326214 
1.8799999999998094, -1.0049136667758884 
1.8899999999998083, -1.0055274442823232 
1.8999999999998072, -1.0059375586736343 
1.909999999999806, -1.0061130852438667 
1.919999999999805, -1.0060376255375951 
1.9299999999998039, -1.0057201193754874 
1.9399999999998028, -1.0051980102226306 
1.9499999999998017, -1.0045357774945984 
1.9599999999998006, -1.003823527510733 
1.9699999999997995, -1.0031733463133412 
1.9799999999997984, -1.0027051828214537 
1.9899999999997973, -1.0025197917805935 
1.9999999999997962, -1.002671143473622 
2.0099999999998173, -1.003155776981492 
2.0199999999998384, -1.0039224720136368 
2.0299999999998595, -1.0048911367789013 
2.0399999999998806, -1.0059711549894508 
2.0499999999999017, -1.0070766584913717 
2.059999999999923, -1.0081375902982066 
2.069999999999944, -1.0091042677082505 
2.079999999999965, -1.0099444024421427 
2.089999999999986, -1.0106344107940939 
2.100000000000007, -1.0111499404104243 
2.1100000000000283, -1.0114622923816734 
2.1200000000000494, -1.0115446039694906 
2.1300000000000705, -1.0113842553363837 
2.1400000000000916, -1.0109930393270157 
2.1500000000001127, -1.0104104487982357 
2.160000000000134, -1.009702840071813 
2.170000000000155, -1.0089618931539737 
2.180000000000176, -1.008299063306198 
2.190000000000197, -1.0078288144494052 
2.2000000000002182, -1.007641339625474 
2.2100000000002393, -1.0077788572172257 
2.2200000000002604, -1.0082297482395597 
2.2300000000002815, -1.0089395238080636 
2.2400000000003026, -1.0098278216514125 
2.2500000000003237, -1.0108050021549766 
2.260000000000345, -1.0117870755349574 
2.270000000000366, -1.0127068155789885 
2.280000000000387, -1.0135181283591779 
2.290000000000408, -1.0141929024239178 
2.3000000000004293, -1.0147123805080192 
2.3100000000004504, -1.0150577878359035 
2.3200000000004715, -1.0152065366436829 
2.3300000000004926, -1.0151376252118554 
2.3400000000005137, -1.0148429857955759 
2.3500000000005348, -1.0143372060936942 
2.360000000000556, -1.01366147455476 
2.370000000000577, -1.012883612705732 
2.380000000000598, -1.0120958694570734 
2.390000000000619, -1.0114065786634838 
2.4000000000006403, -1.010920861876982 
2.4100000000006614, -1.0107149809943945 
2.4200000000006825, -1.0108183868286156 
2.4300000000007036, -1.0112122336765068 
2.4400000000007247, -1.0118396897412967 
2.450000000000746, -1.0126200895617408 
2.460000000000767, -1.0134643795254004 
2.470000000000788, -1.0142904360326865 
2.480000000000809, -1.0150343024937925 
2.49000000000083, -1.0156541677482924 
2.5000000000008513, -1.0161269907985102 
2.5100000000008724, -1.0164399349003588 
2.5200000000008935, -1.0165809587818004 
2.5300000000009146, -1.0165345380561366 
2.5400000000009357, -1.0162860792257538 
2.550000000000957, -1.0158322512038664 
2.560000000000978, -1.0151905033794941 
2.570000000000999, -1.014403805246811 
2.58000000000102, -1.013541257363465 
2.5900000000010412, -1.0126946382330213 
2.6000000000010624, -1.011967253342817 
2.6100000000010835, -1.0114534599436358 
2.6200000000011046, -1.011216344073417 
2.6300000000011257, -1.0112751502480042 
2.6400000000011468, -1.0116057019276237 
2.650000000001168, -1.0121484886119954 
2.660000000001189, -1.0128208872866815 
2.67000000000121, -1.0135330940817326 
2.680000000001231, -1.014204330398535 
2.6900000000012523, -1.014773796124971 
2.7000000000012734, -1.0152039196448366 
2.7100000000012945, -1.015476720663892 
2.7200000000013156, -1.0155852928345872 
2.7300000000013367, -1.0155242319475373 
2.740000000001358, -1.0152847727036673 
2.750000000001379, -1.0148583122064936 
2.7600000000014, -1.0142459886995225 
2.770000000001421, -1.0134681677655595 
2.780000000001442, -1.0125697890961325 
2.7900000000014633, -1.0116210763080329 
2.8000000000014844, -1.0107126387568424 
2.8100000000015055, -1.0099423275036055 
2.8200000000015266, -1.0093950876088327 
2.8300000000015477, -1.0091241960820982 
2.840000000001569, -1.0091419305669214 
2.85000000000159, -1.0094195909760446 
2.860000000001611, -1.0098935887810734 
2.870000000001632, -1.0104777093285322 
2.8800000000016532, -1.0110806590048407 
2.8900000000016743, -1.0116228242370426 
2.9000000000016954, -1.0120463335660073 
2.9100000000017165, -1.0123174184847221 
2.9200000000017377, -1.012422569834032 
2.9300000000017588, -1.0123600330391753 
2.94000000000178, -1.0121299876667642 
2.950000000001801, -1.0117291646747935 
2.960000000001822, -1.0111537685775631 
2.970000000001843, -1.0104086401271204 
2.9800000000018643, -1.0095167854147893 
2.9900000000018854, -1.0085250324870692 
3.0000000000019065, -1.0075045121959376 
3.0100000000019276, -1.006544571451411 
3.0200000000019487, -1.0057386250958518 
3.03000000000197, -1.0051649837926748 
3.040000000001991, -1.0048705830611169 
3.050000000002012, -1.0048628159261335 
3.060000000002033, -1.0051085195154479 
3.070000000002054, -1.0055394284947423 
3.0800000000020753, -1.006065768084766 
3.0900000000020964, -1.0065952735611339 
3.1000000000021175, -1.007049774785361 
3.1100000000021386, -1.0073741072255853 
3.1200000000021597, -1.0075377030419754 
3.130000000002181, -1.0075305727172195 
3.140000000002202, -1.0073547031474752 
3.150000000002223, -1.007013982599406 
3.160000000002244, -1.0065085504960378 
3.1700000000022652, -1.0058375428279003 
3.1800000000022863, -1.0050081749619622 
3.1900000000023074, -1.0040453210490485 
3.2000000000023285, -1.0029972229767752 
3.2100000000023496, -1.0019356526315675 
3.2200000000023707, -1.000949079984828 
3.230000000002392, -1.0001281284994545 
3.240000000002413, -0.9995471405081944 
3.250000000002434, -0.9992491233173719 
3.260000000002455, -0.9992378883959645 
3.2700000000024763, -0.9994766494840166 
3.2800000000024974, -0.9998938578974597 
3.2900000000025185, -1.0003979836403472 
3.3000000000025396, -1.0008970960905057 
3.3100000000025607, -1.0013148596301509 
3.3200000000025818, -1.001598540115383 
3.330000000002603, -1.0017200527113965 
3.340000000002624, -1.0016716578878662 
3.350000000002645, -1.001457096010431 
3.360000000002666, -1.0010813801520388 
3.3700000000026873, -1.000545313082317 
3.3800000000027084, -0.999848567180828 
3.3900000000027295, -0.99899899102984 
3.4000000000027506, -0.9980221986163563 
3.4100000000027717, -0.9969671340313729 
3.420000000002793, -0.9959059721344747 
3.430000000002814, -0.994926961677607 
3.440000000002835, -0.9941196941385269 
3.450000000002856, -0.9935567869161431 
3.460000000002877, -0.9932791383539344 
3.4700000000028983, -0.9932884302929719 
3.4800000000029194, -0.9935462427238203 
3.4900000000029405, -0.9939804791457091 
3.5000000000029616, -0.9945003515447457 
3.5100000000029827, -0.995015590363469 
3.520000000003004, -0.9954518784207188 
3.530000000003025, -0.99575844475007 
3.540000000003046, -0.9959087464539544 
3.550000000003067, -0.9958956798994443 
3.5600000000030882, -0.9957223242387986 
3.5700000000031094, -0.995391850976658 
3.5800000000031305, -0.994902740600617 
3.5900000000031516, -0.994252717964031 
3.6000000000031727, -0.9934485300104094 
3.6100000000031938, -0.9925154522080047 
3.620000000003215, -0.991502524385542 
3.630000000003236, -0.9904822979142678 
3.640000000003257, -0.9895437611378363 
3.650000000003278, -0.9887775232984163 
3.6600000000032993, -0.9882569359999944 
3.6700000000033204, -0.9880228276601439 
3.6800000000033415, -0.9880764403048087 
3.6900000000033626, -0.9883797547314904 
3.7000000000033837, -0.9888625378540222 
3.710000000003405, -0.989436686007602 
3.720000000003426, -0.9900144077618807 
3.730000000003447, -0.9905232187811095 
3.740000000003468, -0.9909135312825663 
3.750000000003489, -0.9911590885844431 
3.7600000000035103, -0.9912515581595386 
3.7700000000035314, -0.9911908706631044 
3.7800000000035525, -0.9909755441779291 
3.7900000000035736, -0.9905990977239896 
3.8000000000035947, -0.9900552937219379 
3.810000000003616, -0.9893485625116455 
3.820000000003637, -0.9885032668713318 
3.830000000003658, -0.9875683707675307 
3.840000000003679, -0.9866171157732676 
3.8500000000037002, -0.9857404913333259 
3.8600000000037213, -0.985032611011514 
3.8700000000037424, -0.9845707087774251 
3.8800000000037635, -0.9843982270929154 
3.8900000000037847, -0.9845175997611157 
3.9000000000038058, -0.9848921429247314 
3.910000000003827, -0.9854542215346156 
3.920000000003848, -0.9861189151224421 
3.930000000003869, -0.9868008866232711 
3.94000000000389, -0.9874288767190966 
3.9500000000039113, -0.9879534174011729 
3.9600000000039324, -0.9883470925356879 
3.9700000000039535, -0.9885985178839235 
3.9800000000039746, -0.9887023659952234 
3.9900000000039957, -0.9886503605099094 
4.000000000004016, -0.9884292592864361 
4.010000000003993, -0.988027744536284 
4.02000000000397, -0.987447588172318 
4.030000000003946, -0.9867124371239996 
4.040000000003923, -0.9858715783649501 
4.0500000000039, -0.9849995140574122 
4.0600000000038765, -0.9841904344729967 
4.070000000003853, -0.9835443423529501 
4.08000000000383, -0.9831457444101158 
4.090000000003807, -0.9830438561743143 
4.100000000003783, -0.9832438839996597 
4.11000000000376, -0.9837102580236321 
4.120000000003737, -0.9843767804965017 
4.130000000003713, -0.9851604973656904 
4.14000000000369, -0.9859775009485169 
4.150000000003667, -0.9867567565416049 
4.1600000000036434, -0.9874477778376841 
4.17000000000362, -0.9880206937500338 
4.180000000003597, -0.9884596953989153 
4.1900000000035735, -0.9887528763046183 
4.20000000000355, -0.9888840682429262 
4.210000000003527, -0.9888326178686601 
4.220000000003504, -0.9885821187092787 
4.23000000000348, -0.9881322972018 
4.240000000003457, -0.9875070197297878 
4.250000000003434, -0.98675677041381 
4.26000000000341, -0.9859579586676281 
4.270000000003387, -0.9852086553779443 
4.280000000003364, -0.9846160665419037 
4.2900000000033405, -0.984274240496771 
4.300000000003317, -0.9842406819983948 
4.310000000003294, -0.9845246854332798 
4.320000000003271, -0.9850910948163992 
4.330000000003247, -0.9858730254645154 
4.340000000003224, -0.9867871888961256 
4.350000000003201, -0.9877493804237201 
4.360000000003177, -0.9886876297163095 
4.370000000003154, -0.9895495591137324 
4.380000000003131, -0.9903021288982716 
4.390000000003107, -0.9909246161505516 
4.400000000003084, -0.9913983869864497 
4.410000000003061, -0.9916996558656214 
4.4200000000030375, -0.9918010954349568 
4.430000000003014, -0.9916823624605587 
4.440000000002991, -0.9913425072787321 
4.450000000002968, -0.9908069230327954 
4.460000000002944, -0.9901283064417028 
4.470000000002921, -0.9893855375202868 
4.480000000002898, -0.9886805925013608 
4.490000000002874, -0.9881275192341545 
4.500000000002851, -0.9878296000081542 
4.510000000002828, -0.9878526275076087 
4.520000000002804, -0.9882098652016319 
4.530000000002781, -0.988865640761024 
4.540000000002758, -0.9897505725495769 
4.5500000000027345, -0.9907790434074624 
4.560000000002711, -0.9918651019815551 
4.570000000002688, -0.9929351348808282 
4.580000000002665, -0.9939347321123231 
4.590000000002641, -0.9948279790007399 
4.600000000002618, -0.9955900191376026 
4.610000000002595, -0.9961968554097324 
4.620000000002571, -0.9966190041168315 
4.630000000002548, -0.9968247017647418 
4.640000000002525, -0.9967918079735766 
4.6500000000025015, -0.9965203431858992 
4.660000000002478, -0.9960382806293604 
4.670000000002455, -0.9954011729131587 
4.6800000000024315, -0.9946906611066364 
4.690000000002408, -0.9940121315973899 
4.700000000002385, -0.9934845289009278 
4.710000000002362, -0.9932169531822032 
4.720000000002338, -0.9932796903016763 
4.730000000002315, -0.9936871464207065 
4.740000000002292, -0.994401639583366 
4.750000000002268, -0.995350568352553 
4.760000000002245, -0.9964455679046015 
4.770000000002222, -0.9975988744411911 
4.7800000000021985, -0.9987356859214616 
4.790000000002175, -0.9998005431713919 
4.800000000002152, -1.000756163703985 
4.810000000002129, -1.0015756962945752 
4.820000000002105, -1.0022326376768853 
4.830000000002082, -1.0026952066101273 
4.840000000002059, -1.0029305818685705 
4.850000000002035, -1.002917405704702 
4.860000000002012, -1.0026579799844924 
4.870000000001989, -1.0021831391393172 
4.880000000001965, -1.0015512169783762 
4.890000000001942, -1.0008464724883983 
4.900000000001919, -1.0001767553757417 
4.9100000000018955, -0.9996627558665752 
4.920000000001872, -0.999413537685288 
4.930000000001849, -0.9994970512525251 
