t, s[1].omega / s[0].omega 
0, -0.6999976919985479 
0.009999999999999995, -0.69975547706415 
0.019999999999999934, -0.6994863397356645 
0.029999999999999874, -0.6991799359708974 
0.04000000000000012, -0.6988258993065289 
0.050000000000000405, -0.6984196488837081 
0.06000000000000069, -0.6979655217336461 
0.07000000000000098, -0.6974774512756687 
0.08000000000000126, -0.6969791218253814 
0.09000000000000155, -0.696505343937474 
0.10000000000000184, -0.6961052011971619 
0.11000000000000212, -0.6958463409590728 
0.12000000000000241, -0.6958189863351135 
0.130000000000002, -0.696137866888971 
0.1400000000000009, -0.6969403284475992 
0.1499999999999998, -0.6983792597940226 
0.1599999999999987, -0.7006096003266673 
0.1699999999999976, -0.703766296278069 
0.1799999999999965, -0.7079298410071126 
0.1899999999999954, -0.7130760502724182 
0.1999999999999943, -0.7190165914026508 
0.2099999999999932, -0.7253617381620552 
0.2199999999999921, -0.7315615649254352 
0.229999999999991, -0.7370563585003 
0.2399999999999899, -0.7414686188306188 
0.2499999999999888, -0.7447009614929747 
0.2599999999999877, -0.7468833103721503 
0.2699999999999866, -0.7482451597771818 
0.2799999999999855, -0.7490114736603236 
0.2899999999999844, -0.7493552620461744 
0.2999999999999833, -0.7493898925245027 
0.3099999999999822, -0.7491767323246521 
0.3199999999999811, -0.7487336337404944 
0.32999999999998, -0.7480384814763321 
0.3399999999999789, -0.7470259971696873 
0.3499999999999778, -0.7455771790218307 
0.35999999999997667, -0.7435014832981574 
0.36999999999997557, -0.7405147644256534 
0.37999999999997447, -0.7362260691319326 
0.38999999999997337, -0.7301721483393504 
0.39999999999997227, -0.7219774881070193 
0.40999999999997117, -0.7116982012808528 
0.41999999999997006, -0.7001803893570868 
0.42999999999996896, -0.6889641072035471 
0.43999999999996786, -0.6795611035878639 
0.44999999999996676, -0.672730950971488 
0.45999999999996566, -0.6683801137572213 
0.46999999999996456, -0.6659383966801777 
0.47999999999996346, -0.6647541157911059 
0.48999999999996235, -0.6642990774999884 
0.49999999999996125, -0.6642141216516465 
0.5099999999999602, -0.6642809134437071 
0.519999999999959, -0.6643766486044818 
0.529999999999958, -0.6644351249003193 
0.5399999999999568, -0.6644194480793931 
0.5499999999999557, -0.6643048696120901 
0.5599999999999546, -0.6640691075325765 
0.5699999999999535, -0.6636884891588941 
0.5799999999999524, -0.6631395640617008 
0.5899999999999513, -0.6624060999133807 
0.5999999999999502, -0.6614893799619714 
0.6099999999999491, -0.6604160243660767 
0.619999999999948, -0.6592363010850251 
0.6299999999999469, -0.6580113112680148 
0.6399999999999458, -0.6567961107983089 
0.6499999999999447, -0.6556285744030141 
0.6599999999999436, -0.6545282343165015 
0.6699999999999425, -0.6535023541932248 
0.6799999999999414, -0.6525539951763256 
0.6899999999999403, -0.6516884108505308 
0.6999999999999392, -0.650916705469324 
0.7099999999999381, -0.6502572816732903 
0.719999999999937, -0.6497359197499857 
0.7299999999999359, -0.6493850245541627 
0.7399999999999348, -0.6492422940035716 
0.7499999999999337, -0.6493490353292112 
0.7599999999999326, -0.6497484634760812 
0.7699999999999315, -0.6504843046662063 
0.7799999999999304, -0.6515996738062477 
0.7899999999999293, -0.6531353951542604 
0.7999999999999282, -0.6551257623222554 
0.8099999999999271, -0.6575885909623042 
0.819999999999926, -0.6605065076328936 
0.8299999999999249, -0.6638002692650761 
0.8399999999999238, -0.6673051238790022 
0.8499999999999227, -0.6707740401128086 
0.8599999999999216, -0.6739291363617113 
0.8699999999999205, -0.6765477202993688 
0.8799999999999194, -0.6785283957087225 
0.8899999999999183, -0.6798932465074985 
0.8999999999999172, -0.6807385558687862 
0.9099999999999161, -0.6811784112213404 
0.919999999999915, -0.6813092626400492 
0.9299999999999139, -0.6811964876693399 
0.9399999999999128, -0.6808727695908727 
0.9499999999999117, -0.6803393304306719 
0.9599999999999106, -0.6795650149420684 
0.9699999999999095, -0.6784806550872851 
0.9799999999999084, -0.6769668316268004 
0.9899999999999073, -0.6748331482874403 
0.9999999999999062, -0.6717889240645547 
1.0099999999999052, -0.6674162351887921 
1.019999999999904, -0.6611923889720468 
1.029999999999903, -0.6526700143783676 
1.039999999999902, -0.6418947651278565 
1.0499999999999008, -0.6298121888401509 
1.0599999999998997, -0.618077302441081 
1.0699999999998986, -0.6082056699290843 
1.0799999999998975, -0.60088557882773 
1.0899999999998964, -0.5959904687615081 
1.0999999999998953, -0.592984969594845 
1.1099999999998942, -0.5912779622191027 
1.119999999999893, -0.5903873430317181 
1.129999999999892, -0.5899730961899512 
1.1399999999998909, -0.5898148009102775 
1.1499999999998898, -0.5897768672741176 
1.1599999999998887, -0.5897782221018332 
1.1699999999998876, -0.589770303554189 
1.1799999999998865, -0.5897226690281274 
1.1899999999998854, -0.5896146319021807 
1.1999999999998843, -0.5894316820176647 
1.2099999999998832, -0.5891657752240972 
1.219999999999882, -0.5888181602671873 
1.229999999999881, -0.5884021599982033 
1.2399999999998799, -0.5879424533155927 
1.2499999999998788, -0.5874688980115768 
1.2599999999998777, -0.5870068503952519 
1.2699999999998766, -0.5865690408777053 
1.2799999999998755, -0.5861533260816676 
1.2899999999998744, -0.585746893385208 
1.2999999999998733, -0.5853339246923526 
1.3099999999998722, -0.5849026323327641 
1.319999999999871, -0.5844492004853409 
1.32999999999987, -0.583978863963664 
1.3399999999998689, -0.5835060691984185 
1.3499999999998678, -0.5830557503210657 
1.3599999999998666, -0.582667032101756 
1.3699999999998655, -0.5824000480942593 
1.3799999999998644, -0.5823462688126392 
1.3899999999998633, -0.5826424819396054 
1.3999999999998622, -0.5834877882652512 
1.4099999999998611, -0.5851606986794511 
1.41999999999986, -0.5880278442699953 
1.429999999999859, -0.5925244378812606 
1.4399999999998578, -0.5990697754671137 
1.4499999999998567, -0.6078750066135827 
1.4599999999998556, -0.6186566704754786 
1.4699999999998545, -0.6304374464332461 
1.4799999999998534, -0.6417505775679987 
1.4899999999998523, -0.6512867298716485 
1.4999999999998512, -0.6584592994287211 
1.5099999999998501, -0.6634110144437766 
1.519999999999849, -0.6666394701380814 
1.529999999999848, -0.6686639601521474 
1.5399999999998468, -0.6698852767984438 
1.5499999999998457, -0.6705724883940514 
1.5599999999998446, -0.6708919158805863 
1.5699999999998435, -0.6709374368740442 
1.5799999999998424, -0.6707508799779809 
1.5899999999998413, -0.6703320712666165 
1.5999999999998402, -0.6696404703897023 
1.6099999999998391, -0.668590996209045 
1.619999999999838, -0.667049079864773 
1.629999999999837, -0.664836257845099 
1.6399999999998358, -0.661765777343343 
1.6499999999998347, -0.6577241269774419 
1.6599999999998336, -0.652776979243306 
1.6699999999998325, -0.647220660709523 
1.6799999999998314, -0.641507941764145 
1.6899999999998303, -0.6360866917415426 
1.6999999999998292, -0.631270095532338 
1.709999999999828, -0.6272041127741853 
1.719999999999827, -0.6239055436751131 
1.729999999999826, -0.6213172265934328 
1.7399999999998248, -0.6193503347845433 
1.7499999999998237, -0.6179086690184519 
1.7599999999998226, -0.6169001516009412 
1.7699999999998215, -0.616241518543434 
1.7799999999998204, -0.6158600642187725 
1.7899999999998193, -0.6156942543422526 
1.7999999999998182, -0.6156938293670876 
1.809999999999817, -0.6158195569376306 
1.819999999999816, -0.6160427337759007 
1.8299999999998149, -0.6163445594998355 
1.8399999999998138, -0.6167153541994896 
1.8499999999998127, -0.6171531607741515 
1.8599999999998116, -0.617660744906867 
1.8699999999998105, -0.6182399586491218 
1.8799999999998094, -0.6188835833399777 
1.8899999999998083, -0.6195672103092383 
1.8999999999998072, -0.6202461228012118 
1.909999999999806, -0.6208617288829951 
1.919999999999805, -0.6213567985046666 
1.9299999999998039, -0.621691548002054 
1.9399999999998028, -0.6218511346874134 
1.9499999999998017, -0.6218419589845015 
1.9599999999998006, -0.6216819250851979 
1.9699999999997995, -0.6213913837011581 
1.9799999999997984, -0.6209882951617374 
1.9899999999997973, -0.6204881102462173 
1.9999999999997962, -0.6199080635327626 
2.0099999999998173, -0.6192763775345737 
2.0199999999998384, -0.6186480630724096 
2.0299999999998595, -0.6181292485318558 
2.0399999999998806, -0.6179087724526602 
2.0499999999999017, -0.6182840196191144 
2.059999999999923, -0.6196419225176675 
2.069999999999944, -0.6223265620753513 
2.079999999999965, -0.626361085771246 
2.089999999999986, -0.6311998320182265 
2.100000000000007, -0.6359013525608543 
2.1100000000000283, -0.6397466025061305 
2.1200000000000494, -0.6426192965968573 
2.1300000000000705, -0.6447718131511098 
2.1400000000000916, -0.6464525049876634 
2.1500000000001127, -0.6477864640504958 
2.160000000000134, -0.6488238433228866 
2.170000000000155, -0.6495953767566798 
2.180000000000176, -0.6501324325593097 
2.190000000000197, -0.6504663832289578 
2.2000000000002182, -0.6506229069035687 
2.2100000000002393, -0.6506171964898047 
2.2200000000002604, -0.6504508263698068 
2.2300000000002815, -0.6501098471136565 
2.2400000000003026, -0.6495644462029981 
2.2500000000003237, -0.6487721220668115 
2.260000000000345, -0.6476877126979533 
2.270000000000366, -0.6462824276051127 
2.280000000000387, -0.6445674273221478 
2.290000000000408, -0.6426079941525809 
2.3000000000004293, -0.6405138983874834 
2.3100000000004504, -0.6384079218215611 
2.3200000000004715, -0.6363924961577955 
2.3300000000004926, -0.634533025492382 
2.3400000000005137, -0.6328602485369792 
2.3500000000005348, -0.6313824523673588 
2.360000000000556, -0.6300981399478343 
2.370000000000577, -0.6290046715861111 
2.380000000000598, -0.6281024520382968 
2.390000000000619, -0.627395935111368 
2.4000000000006403, -0.6268928907576725 
2.4100000000006614, -0.6266030350566644 
2.4200000000006825, -0.6265367707398346 
2.4300000000007036, -0.6267045139597301 
2.4400000000007247, -0.6271168159666867 
2.450000000000746, -0.62778515312757 
2.460000000000767, -0.6287228189824668 
2.470000000000788, -0.6299447837699209 
2.480000000000809, -0.631464719972661 
2.49000000000083, -0.6332869329491804 
2.5000000000008513, -0.6353916547097982 
2.5100000000008724, -0.6377157983044872 
2.5200000000008935, -0.6401387625303381 
2.5300000000009146, -0.6424897094784174 
2.5400000000009357, -0.6445865180050996 
2.550000000000957, -0.64629149008582 
2.560000000000978, -0.6475479683551477 
2.570000000000999, -0.6483758494745371 
2.58000000000102, -0.6488384112041821 
2.5900000000010412, -0.6490072989399751 
2.6000000000010624, -0.6489406935688367 
2.6100000000010835, -0.64867438518761 
2.6200000000011046, -0.6482195554210028 
2.6300000000011257, -0.6475618429736513 
2.6400000000011468, -0.6466583908688354 
2.650000000001168, -0.6454306989755656 
2.660000000001189, -0.6437509347534459 
2.67000000000121, -0.6414185221181126 
2.680000000001231, -0.638125596166054 
2.6900000000012523, -0.6334265219749815 
2.7000000000012734, -0.6267815734508376 
2.7100000000012945, -0.6178167817222955 
2.7200000000013156, -0.6068255675248087 
2.7300000000013367, -0.5950608255435663 
2.740000000001358, -0.5842343250365791 
2.750000000001379, -0.5755789931697176 
2.7600000000014, -0.5694190960701616 
2.770000000001421, -0.5654179219713091 
2.780000000001442, -0.5630048285898139 
2.7900000000014633, -0.561645638569946 
2.8000000000014844, -0.5609363261785243 
2.8100000000015055, -0.560602999517945 
2.8200000000015266, -0.5604714426353937 
2.8300000000015477, -0.5604349327173437 
2.840000000001569, -0.5604291305020594 
2.85000000000159, -0.5604148619233887 
2.860000000001611, -0.5603673939618365 
2.870000000001632, -0.5602707336714916 
2.8800000000016532, -0.5601158562497143 
2.8900000000016743, -0.5599017537011177 
2.9000000000016954, -0.5596374540667455 
2.9100000000017165, -0.5593422179560135 
2.9200000000017377, -0.5590414631914066 
2.9300000000017588, -0.5587585697345638 
2.94000000000178, -0.5585060669102153 
2.950000000001801, -0.5582808582172989 
2.960000000001822, -0.5580660504105028 
2.970000000001843, -0.5578382402173746 
2.9800000000018643, -0.5575762370484753 
2.9900000000018854, -0.5572670635499924 
3.0000000000019065, -0.5569076718968934 
3.0100000000019276, -0.5565038341259081 
3.0200000000019487, -0.5560688975534666 
3.03000000000197, -0.555624589217133 
3.040000000001991, -0.5552051944155643 
3.050000000002012, -0.5548661318389765 
3.060000000002033, -0.5546981832300564 
3.070000000002054, -0.5548488221260055 
3.0800000000020753, -0.5555510521941828 
3.0900000000020964, -0.5571553743977817 
3.1000000000021175, -0.5601469232912385 
3.1100000000021386, -0.565101551158624 
3.1200000000021597, -0.5725007845226543 
3.130000000002181, -0.58235465830362 
3.140000000002202, -0.5938063601985114 
3.150000000002223, -0.6052175143732405 
3.160000000002244, -0.6149812683292657 
3.1700000000022652, -0.6223527198211295 
3.1800000000022863, -0.6274839526925826 
3.1900000000023074, -0.6309165412211009 
3.2000000000023285, -0.6331780378847036 
3.2100000000023496, -0.634652965291717 
3.2200000000023707, -0.6355941145252384 
3.230000000002392, -0.6361620952495234 
3.240000000002413, -0.6364564561467152 
3.250000000002434, -0.6365348552838577 
3.260000000002455, -0.6364236469979826 
3.2700000000024763, -0.6361229760636629 
3.2800000000024974, -0.6356087943016957 
3.2900000000025185, -0.6348346581424444 
3.3000000000025396, -0.6337377990695521 
3.3100000000025607, -0.6322553723891655 
3.3200000000025818, -0.6303538245016533 
3.330000000002603, -0.6280625991736416 
3.340000000002624, -0.6254891361499741 
3.350000000002645, -0.6227961476801565 
3.360000000002666, -0.6201514020959015 
3.3700000000026873, -0.6176832839777436 
3.3800000000027084, -0.6154647660920062 
3.3900000000027295, -0.6135224509701224 
3.4000000000027506, -0.6118551199518152 
3.4100000000027717, -0.6104500303588433 
3.420000000002793, -0.609292944032813 
3.430000000002814, -0.6083725764555248 
3.440000000002835, -0.6076815527254736 
3.450000000002856, -0.6072157381208788 
3.460000000002877, -0.606973199143724 
3.4700000000028983, -0.6069535188492206 
3.4800000000029194, -0.6071577976173359 
3.4900000000029405, -0.6075893538508772 
3.5000000000029616, -0.6082548301037036 
3.5100000000029827, -0.6091650392048248 
3.520000000003004, -0.6103343780940711 
3.530000000003025, -0.6117770163664045 
3.540000000003046, -0.6134977203241057 
3.550000000003067, -0.6154762127064279 
3.5600000000030882, -0.6176481249719237 
3.5700000000031094, -0.6198932085639086 
3.5800000000031305, -0.6220467538710257 
3.5900000000031516, -0.6239408194789002 
3.6000000000031727, -0.6254563096668248 
3.6100000000031938, -0.6265516576688803 
3.620000000003215, -0.6272527876208362 
3.630000000003236, -0.6276203513337159 
3.640000000003257, -0.6277185751073735 
3.650000000003278, -0.6275969164423852 
3.6600000000032993, -0.6272827005232573 
3.6700000000033204, -0.6267787593375556 
3.6800000000033415, -0.6260611333612192 
3.6900000000033626, -0.6250735275440712 
3.7000000000033837, -0.6237156777705624 
3.710000000003405, -0.621822126971477 
3.720000000003426, -0.6191279158652541 
3.730000000003447, -0.6152255946992657 
3.740000000003468, -0.6095529157155201 
3.750000000003489, -0.6015268807749639 
3.7600000000035103, -0.5909599833031408 
3.7700000000035314, -0.5785861982728178 
3.7800000000035525, -0.5660415884321853 
3.7900000000035736, -0.5550296794680849 
3.8000000000035947, -0.5464818298261795 
3.810000000003616, -0.5404457349042632 
3.820000000003637, -0.5364712924656121 
3.830000000003658, -0.5339914931103895 
3.840000000003679, -0.5325154907691642 
3.8500000000037002, -0.5316798052709787 
3.8600000000037213, -0.5312363026088732 
3.8700000000037424, -0.5310233056984429 
3.8800000000037635, -0.5309383409662725 
3.8900000000037847, -0.5309174345712526 
3.9000000000038058, -0.5309209379265528 
3.910000000003827, -0.5309246532675747 
3.920000000003848, -0.5309150543198629 
3.930000000003869, -0.530887543551943 
3.94000000000389, -0.5308464563506664 
3.9500000000039113, -0.5308049079890111 
3.9600000000039324, -0.5307822555874566 
3.9700000000039535, -0.5307979294091615 
3.9800000000039746, -0.5308628077412482 
3.9900000000039957, -0.5309717392043134 
4.000000000004016, -0.531101430790019 
4.010000000003993, -0.531215868227074 
4.02000000000397, -0.5312772602104819 
4.030000000003946, -0.5312568053242488 
4.040000000003923, -0.5311398979183424 
4.0500000000039, -0.5309247426034288 
4.0600000000038765, -0.53061744402789 
4.070000000003853, -0.5302273502860795 
4.08000000000383, -0.5297648102946264 
4.090000000003807, -0.5292419688966725 
4.100000000003783, -0.5286767475901886 
4.11000000000376, -0.5281003286178747 
4.120000000003737, -0.5275682227919434 
4.130000000003713, -0.5271724617830198 
4.14000000000369, -0.5270439083352757 
4.150000000003667, -0.5273147128235159 
4.1600000000036434, -0.5279903961183138 
4.17000000000362, -0.5287226636741493 
4.180000000003597, -0.5286924562967106 
4.1900000000035735, -0.5270334434195844 
4.20000000000355, -0.5236882528752492 
4.210000000003527, -0.5196111824814464 
4.220000000003504, -0.5159432674711525 
4.23000000000348, -0.513268749447171 
4.240000000003457, -0.5115983563718941 
4.250000000003434, -0.5106832480658183 
4.26000000000341, -0.5102498457110083 
4.270000000003387, -0.510088456234578 
4.280000000003364, -0.5100613480177001 
4.2900000000033405, -0.5100850662505926 
4.300000000003317, -0.5101109209098424 
4.310000000003294, -0.5101103667579486 
4.320000000003271, -0.5100657227908577 
4.330000000003247, -0.5099652669961915 
4.340000000003224, -0.5098018503886623 
4.350000000003201, -0.5095743036268302 
4.360000000003177, -0.5092903732188582 
4.370000000003154, -0.5089687868911651 
4.380000000003131, -0.5086374981846296 
4.390000000003107, -0.5083267787120402 
4.400000000003084, -0.5080593154690229 
4.410000000003061, -0.5078420307605781 
4.4200000000030375, -0.5076637630221805 
4.430000000003014, -0.5074998938805713 
4.440000000002991, -0.5073214748196487 
4.450000000002968, -0.507104264743057 
4.460000000002944, -0.5068338032626979 
4.470000000002921, -0.5065057477565423 
4.480000000002898, -0.506123551946972 
4.490000000002874, -0.5056962656211376 
4.500000000002851, -0.5052383741798813 
4.510000000002828, -0.504772691962779 
4.520000000002804, -0.5043370995513881 
4.530000000002781, -0.5039961409763783 
4.540000000002758, -0.5038582732227281 
4.5500000000027345, -0.5040968742369085 
4.560000000002711, -0.5049635264254182 
4.570000000002688, -0.5067588480865401 
4.580000000002665, -0.5096929769697561 
4.590000000002641, -0.5135870605844771 
4.600000000002618, -0.5175905526016306 
4.610000000002595, -0.5204373778902698 
4.620000000002571, -0.5213949063359669 
4.630000000002548, -0.5208536412839471 
4.640000000002525, -0.5197693653971968 
4.6500000000025015, -0.5188419589671801 
4.660000000002478, -0.5182994113113656 
4.670000000002455, -0.5180914991858547 
4.6800000000024315, -0.5180910634228317 
4.690000000002408, -0.5181869393321443 
4.700000000002385, -0.5183047944981269 
4.710000000002362, -0.5184007971928523 
4.720000000002338, -0.5184502476707451 
4.730000000002315, -0.5184383533458409 
4.740000000002292, -0.5183544314369325 
4.750000000002268, -0.5181893387758543 
4.760000000002245, -0.5179359060671505 
4.770000000002222, -0.51759210072304 
4.7800000000021985, -0.5171657487345698 
4.790000000002175, -0.5166779877544788 
4.800000000002152, -0.5161618105370401 
4.810000000002129, -0.5156542026461184 
4.820000000002105, -0.5151848592897005 
4.830000000002082, -0.5147672833580907 
4.840000000002059, -0.5143965850515093 
4.850000000002035, -0.5140542872772382 
4.860000000002012, -0.5137170143595523 
4.870000000001989, -0.5133647348197037 
4.880000000001965, -0.5129855304351417 
4.890000000001942, -0.5125766115849559 
4.900000000001919, -0.5121434608068415 
4.9100000000018955, -0.5116994551043068 
4.920000000001872, -0.5112677110969363 
