t, s[1].omega / s[0].omega 
0, -0.6201059107681318 
0.009999999999999995, -0.6299008746602651 
0.019999999999999934, -0.637488605651545 
0.029999999999999874, -0.6428453375829472 
0.04000000000000012, -0.6465520797142931 
0.050000000000000405, -0.649157663175257 
0.06000000000000069, -0.6510094112419457 
0.07000000000000098, -0.6523134709971655 
0.08000000000000126, -0.6532037524746024 
0.09000000000000155, -0.6537745163895982 
0.10000000000000184, -0.6540917256945316 
0.11000000000000212, -0.654196863393321 
0.12000000000000241, -0.6541083453821722 
0.130000000000002, -0.653821731173993 
0.1400000000000009, -0.6533094516802953 
0.1499999999999998, -0.6525221207587164 
0.1599999999999987, -0.651395821426468 
0.1699999999999976, -0.6498710460314794 
0.1799999999999965, -0.6479244667311381 
0.1899999999999954, -0.645601118449866 
0.1999999999999943, -0.6430221100594737 
0.2099999999999932, -0.6403535972573986 
0.2199999999999921, -0.6377548904503284 
0.229999999999991, -0.6353399233550628 
0.2399999999999899, -0.6331686825713929 
0.2499999999999888, -0.6312603323655914 
0.2599999999999877, -0.6296121637611247 
0.2699999999999866, -0.6282144446201721 
0.2799999999999855, -0.6270586443561761 
0.2899999999999844, -0.6261403418551441 
0.2999999999999833, -0.6254590046927985 
0.3099999999999822, -0.6250164543305734 
0.3199999999999811, -0.6248152422256561 
0.32999999999998, -0.6248576811260569 
0.3399999999999789, -0.6251458882608698 
0.3499999999999778, -0.6256828288583323 
0.35999999999997667, -0.6264739591735002 
0.36999999999997557, -0.6275286172889397 
0.37999999999997447, -0.628859731819787 
0.38999999999997337, -0.6304797437403975 
0.39999999999997227, -0.6323903243170281 
0.40999999999997117, -0.6345648276879612 
0.41999999999997006, -0.6369274172461559 
0.42999999999996896, -0.6393415798265384 
0.43999999999996786, -0.6416259573380486 
0.44999999999996676, -0.6436027836140606 
0.45999999999996566, -0.6451543888326293 
0.46999999999996456, -0.6462494177002573 
0.47999999999996346, -0.6469261437775022 
0.48999999999996235, -0.6472544960272325 
0.49999999999996125, -0.6473033076058216 
0.5099999999999602, -0.6471226493036875 
0.519999999999959, -0.6467376673600942 
0.529999999999958, -0.6461472306400022 
0.5399999999999568, -0.6453225746747675 
0.5499999999999557, -0.6442031599439156 
0.5599999999999546, -0.6426874321803071 
0.5699999999999535, -0.6406145194034838 
0.5799999999999524, -0.637728909467391 
0.5899999999999513, -0.6336187201625856 
0.5999999999999502, -0.6276467956115739 
0.6099999999999491, -0.6190120922079122 
0.619999999999948, -0.6072283236691105 
0.6299999999999469, -0.5929836163684657 
0.6399999999999458, -0.5783725837369116 
0.6499999999999447, -0.565732750948561 
0.6599999999999436, -0.5562941427908299 
0.6699999999999425, -0.5500046569962245 
0.6799999999999414, -0.5461591847387084 
0.6899999999999403, -0.5439684489894396 
0.6999999999999392, -0.5428051062547571 
0.7099999999999381, -0.5422400735586184 
0.719999999999937, -0.5420024131405642 
0.7299999999999359, -0.5419286943890597 
0.7399999999999348, -0.5419226609059475 
0.7499999999999337, -0.5419277396334132 
0.7599999999999326, -0.5419098681819553 
0.7699999999999315, -0.5418477972318896 
0.7799999999999304, -0.5417288600548484 
0.7899999999999293, -0.5415487766176239 
0.7999999999999282, -0.5413137517556831 
0.8099999999999271, -0.5410420542812383 
0.819999999999926, -0.5407617482247741 
0.8299999999999249, -0.5405030479679107 
0.8399999999999238, -0.540287596388715 
0.8499999999999227, -0.5401197922115069 
0.8599999999999216, -0.5399847088462838 
0.8699999999999205, -0.5398537707041543 
0.8799999999999194, -0.539695274488459 
0.8899999999999183, -0.5394843656908781 
0.8999999999999172, -0.5392081528059376 
0.9099999999999161, -0.5388655214937945 
0.919999999999915, -0.5384644728304453 
0.9299999999999139, -0.5380203641978152 
0.9399999999999128, -0.5375573254869888 
0.9499999999999117, -0.5371142557372635 
0.9599999999999106, -0.5367569432356563 
0.9699999999999095, -0.5365986966032554 
0.9799999999999084, -0.5368324776073432 
0.9899999999999073, -0.5377756149192363 
0.9999999999999062, -0.5399178808788457 
1.0099999999999052, -0.5439328467345932 
1.019999999999904, -0.5505503509609249 
1.029999999999903, -0.5601420310392575 
1.039999999999902, -0.5720611656801514 
1.0499999999999008, -0.5843885801009658 
1.0599999999998997, -0.5949008354423789 
1.0699999999998986, -0.6025327903083582 
1.0799999999998975, -0.607605490093494 
1.0899999999998964, -0.6109446117781248 
1.0999999999998953, -0.613210901174024 
1.1099999999998942, -0.6147890584273865 
1.119999999999893, -0.6158892751497784 
1.129999999999892, -0.6166358683177057 
1.1399999999998909, -0.6171095900927696 
1.1499999999998898, -0.6173637188804199 
1.1599999999998887, -0.6174298093601865 
1.1699999999998876, -0.6173197598745629 
1.1799999999998865, -0.617026559242407 
1.1899999999998854, -0.6165252808362932 
1.1999999999998843, -0.6157768343673221 
1.2099999999998832, -0.6147382156661213 
1.219999999999882, -0.6133819132651741 
1.229999999999881, -0.6117204400916941 
1.2399999999998799, -0.6098215907065927 
1.2499999999998788, -0.6077985894399791 
1.2599999999998777, -0.6057764726762266 
1.2699999999998766, -0.6038562797515945 
1.2799999999998755, -0.6020976871533723 
1.2899999999998744, -0.6005227096462 
1.2999999999998733, -0.599130153706471 
1.3099999999998722, -0.5979103635379046 
1.319999999999871, -0.5968553534524941 
1.32999999999987, -0.5959639651374573 
1.3399999999998689, -0.5952435806670225 
1.3499999999998678, -0.5947100236107107 
1.3599999999998666, -0.5943867468273654 
1.3699999999998655, -0.5943039284447291 
1.3799999999998644, -0.5944978603368875 
1.3899999999998633, -0.5950109025617046 
1.3999999999998622, -0.595892088731974 
1.4099999999998611, -0.5971980001799534 
1.41999999999986, -0.5989925877026344 
1.429999999999859, -0.601343049117507 
1.4399999999998578, -0.6043068218255894 
1.4499999999998567, -0.6079036104469921 
1.4599999999998556, -0.6120703986399649 
1.4699999999998545, -0.6166133502637632 
1.4799999999998534, -0.6211967350376945 
1.4899999999998523, -0.6254141975628007 
1.4999999999998512, -0.6289290503534262 
1.5099999999998501, -0.6315879242614854 
1.519999999999849, -0.6334257138331862 
1.529999999999848, -0.6345850977133837 
1.5399999999998468, -0.6352292764558548 
1.5499999999998457, -0.6354919169518453 
1.5599999999998446, -0.6354613124239437 
1.5699999999998435, -0.6351804435392363 
1.5799999999998424, -0.6346490193723122 
1.5899999999998413, -0.633820071396253 
1.5999999999998402, -0.6325866114342676 
1.6099999999998391, -0.630754217394493 
1.619999999999838, -0.6279970406273041 
1.629999999999837, -0.6238070741137893 
1.6399999999998358, -0.6174885199663833 
1.6499999999998347, -0.6083261751557083 
1.6599999999998336, -0.5960577708666008 
1.6699999999998325, -0.5814470672921823 
1.6799999999998314, -0.5662769722634685 
1.6899999999998303, -0.5524830921958345 
1.6999999999998292, -0.5412424210993397 
1.709999999999828, -0.5327905896548286 
1.719999999999827, -0.5267783928434431 
1.729999999999826, -0.5226637634329604 
1.7399999999998248, -0.5199316131114544 
1.7499999999998237, -0.5181697447841417 
1.7599999999998226, -0.5170738927890547 
1.7699999999998215, -0.5164288313002291 
1.7799999999998204, -0.5160861561424251 
1.7899999999998193, -0.5159455061648649 
1.7999999999998182, -0.5159404775550597 
1.809999999999817, -0.5160287799690197 
1.819999999999816, -0.5161858678651441 
1.8299999999998149, -0.5164012766078848 
1.8399999999998138, -0.5166767231538408 
1.8499999999998127, -0.5170245465164811 
1.8599999999998116, -0.5174645126405721 
1.8699999999998105, -0.5180170662420289 
1.8799999999998094, -0.5186924754738678 
1.8899999999998083, -0.5194781265336512 
1.8999999999998072, -0.5203297506746348 
1.909999999999806, -0.5211741893332487 
1.919999999999805, -0.5219271087131984 
1.9299999999998039, -0.5225182248126313 
1.9399999999998028, -0.5229089136295796 
1.9499999999998017, -0.5230929514962207 
1.9599999999998006, -0.5230843595192732 
1.9699999999997995, -0.522902432966404 
1.9799999999997984, -0.5225604319871897 
1.9899999999997973, -0.5220585934632566 
1.9999999999997962, -0.521378984066131 
2.0099999999998173, -0.5204787528146759 
2.0199999999998384, -0.5192773154904474 
2.0299999999998595, -0.5176300407349684 
2.0399999999998806, -0.5152754814051367 
2.0499999999999017, -0.5117410935901414 
2.059999999999923, -0.5062255236943628 
2.069999999999944, -0.4976180487272475 
2.079999999999965, -0.48503165220288064 
2.089999999999986, -0.4689214497268005 
2.100000000000007, -0.4515915068339974 
2.1100000000000283, -0.4358980317888017 
2.1200000000000494, -0.42351451557522896 
2.1300000000000705, -0.4146081982229074 
2.1400000000000916, -0.40854317557240655 
2.1500000000001127, -0.4045329590386248 
2.160000000000134, -0.40192468854058383 
2.170000000000155, -0.4002508375856012 
2.180000000000176, -0.39919797747685476 
2.190000000000197, -0.39856257374098614 
2.2000000000002182, -0.3982151076627757 
2.2100000000002393, -0.39807531106969446 
2.2200000000002604, -0.398096383526852 
2.2300000000002815, -0.39825562761895106 
2.2400000000003026, -0.3985495214870475 
2.2500000000003237, -0.398991730525566 
2.260000000000345, -0.3996126054764143 
2.270000000000366, -0.40045824397827906 
2.280000000000387, -0.40158628175551947 
2.290000000000408, -0.40305452585044244 
2.3000000000004293, -0.40489840750483613 
2.3100000000004504, -0.40709715339308633 
2.3200000000004715, -0.409541032093403 
2.3300000000004926, -0.4120288103061184 
2.3400000000005137, -0.4143201409320224 
2.3500000000005348, -0.4162222637984219 
2.360000000000556, -0.41764873370619304 
2.370000000000577, -0.4186137066058267 
2.380000000000598, -0.41918539196282667 
2.390000000000619, -0.4194403723005503 
2.4000000000006403, -0.419437269182051 
2.4100000000006614, -0.419206271938742 
2.4200000000006825, -0.41874528585616827 
2.4300000000007036, -0.41801619670703294 
2.4400000000007247, -0.4169390964310332 
2.450000000000746, -0.41538769845896073 
2.460000000000767, -0.4131978563961133 
2.470000000000788, -0.41021125294016925 
2.480000000000809, -0.40637004722170805 
2.49000000000083, -0.4018262045416874 
2.5000000000008513, -0.3969597933312499 
2.5100000000008724, -0.39224145395349497 
2.5200000000008935, -0.3880382422373091 
2.5300000000009146, -0.38451807723966835 
2.5400000000009357, -0.38168021632461274 
2.550000000000957, -0.37943481792412226 
2.560000000000978, -0.37766785818375 
2.570000000000999, -0.37627587616205527 
2.58000000000102, -0.3751789178423206 
2.5900000000010412, -0.37432258749792263 
2.6000000000010624, -0.37367633430242914 
2.6100000000010835, -0.37323172383279735 
2.6200000000011046, -0.37300256982951935 
2.6300000000011257, -0.37302805824718865 
2.6400000000011468, -0.3733799655011295 
2.650000000001168, -0.3741754551516907 
2.660000000001189, -0.3755973590934916 
2.67000000000121, -0.37792335601220517 
2.680000000001231, -0.38156124344077763 
2.6900000000012523, -0.38707237605673994 
2.7000000000012734, -0.3951264264404472 
2.7100000000012945, -0.40626719282438745 
2.7200000000013156, -0.4203757435735508 
2.7300000000013367, -0.43606515716584937 
2.740000000001358, -0.45086825075394515 
2.750000000001379, -0.46263804747519294 
2.7600000000014, -0.4707610480583675 
2.770000000001421, -0.47589383170566446 
2.780000000001442, -0.4790229983158456 
2.7900000000014633, -0.4809245897438347 
2.8000000000014844, -0.4820846934265687 
2.8100000000015055, -0.48278212049942815 
2.8200000000015266, -0.4831725099388938 
2.8300000000015477, -0.4833411276588073 
2.840000000001569, -0.48333144904209424 
2.85000000000159, -0.48316009139150323 
2.860000000001611, -0.4828254087274817 
2.870000000001632, -0.48231468519403214 
2.8800000000016532, -0.48161356599427646 
2.8900000000016743, -0.4807193290015306 
2.9000000000016954, -0.4796550447850005 
2.9100000000017165, -0.4784761768562181 
2.9200000000017377, -0.4772615209155724 
2.9300000000017588, -0.4760906707335864 
2.94000000000178, -0.4750212692187451 
2.950000000001801, -0.4740783710228529 
2.960000000001822, -0.473257809697379 
2.970000000001843, -0.472537593040662 
2.9800000000018643, -0.47189043179222245 
2.9900000000018854, -0.4712931410748215 
3.0000000000019065, -0.4707317037018138 
3.0100000000019276, -0.47020310219792616 
3.0200000000019487, -0.4697161111017145 
3.03000000000197, -0.469293196181744 
3.040000000001991, -0.4689752201679738 
3.050000000002012, -0.46883049819784234 
3.060000000002033, -0.4689701038268458 
3.070000000002054, -0.46957194880599606 
3.0800000000020753, -0.47091611649439935 
3.0900000000020964, -0.4734304595531043 
3.1000000000021175, -0.4777312857608048 
3.1100000000021386, -0.4846047231610752 
3.1200000000021597, -0.49480221939277635 
3.130000000002181, -0.5084953245359285 
3.140000000002202, -0.5245327592190818 
3.150000000002223, -0.5403711273421774 
3.160000000002244, -0.5534385744169197 
3.1700000000022652, -0.5627129354238112 
3.1800000000022863, -0.5687230030655677 
3.1900000000023074, -0.5725059569516555 
3.2000000000023285, -0.5749073897523722 
3.2100000000023496, -0.5764559913441272 
3.2200000000023707, -0.5774559848794233 
3.230000000002392, -0.5780825456302909 
3.240000000002413, -0.5784383608235241 
3.250000000002434, -0.578582289407269 
3.260000000002455, -0.5785432666062 
3.2700000000024763, -0.5783270184366177 
3.2800000000024974, -0.5779198088635031 
3.2900000000025185, -0.5772926171262619 
3.3000000000025396, -0.5764095442989635 
3.3100000000025607, -0.5752436715463192 
3.3200000000025818, -0.5737988765934475 
3.330000000002603, -0.5721269911832195 
3.340000000002624, -0.5703249866149552 
3.350000000002645, -0.568508160822536 
3.360000000002666, -0.5667753409672865 
3.3700000000026873, -0.5651874895891846 
3.3800000000027084, -0.5637669890111204 
3.3900000000027295, -0.5625101440578499 
3.4000000000027506, -0.5614023075976898 
3.4100000000027717, -0.5604294323801384 
3.420000000002793, -0.5595847078458409 
3.430000000002814, -0.5588715390838506 
3.440000000002835, -0.5583046989277822 
3.450000000002856, -0.5579110253132512 
3.460000000002877, -0.5577303885044463 
3.4700000000028983, -0.5578172301545974 
3.4800000000029194, -0.5582428071259926 
3.4900000000029405, -0.55909817050431 
3.5000000000029616, -0.560497564485081 
3.5100000000029827, -0.5625808798250386 
3.520000000003004, -0.5655113696422169 
3.530000000003025, -0.5694603601624595 
3.540000000003046, -0.574564912621508 
3.550000000003067, -0.580843800421976 
3.5600000000030882, -0.5880796302181817 
3.5700000000031094, -0.5957373639805352 
3.5800000000031305, -0.603045919078269 
3.5900000000031516, -0.6092820164946254 
3.6000000000031727, -0.6140642063614686 
3.6100000000031938, -0.6174142159772849 
3.620000000003215, -0.6195960769451284 
3.630000000003236, -0.6209246121305888 
3.640000000003257, -0.6216597580282135 
3.650000000003278, -0.6219799281991246 
3.6600000000032993, -0.6219905880960607 
3.6700000000033204, -0.6217386015292236 
3.6800000000033415, -0.621220477131367 
3.6900000000033626, -0.6203810757958056 
3.7000000000033837, -0.6191021524415663 
3.710000000003405, -0.6171828934112693 
3.720000000003426, -0.6143236813424161 
3.730000000003447, -0.6101457843830598 
3.740000000003468, -0.6043040600184232 
3.750000000003489, -0.5967194876961833 
3.7600000000035103, -0.5878062434365514 
3.7700000000035314, -0.578433511216242 
3.7800000000035525, -0.5695619912038413 
3.7900000000035736, -0.5618618522971446 
3.8000000000035947, -0.5555937100597428 
3.810000000003616, -0.5507147047368529 
3.820000000003637, -0.5470355824019746 
3.830000000003658, -0.544330810043596 
3.840000000003679, -0.5423920051155029 
3.8500000000037002, -0.5410456423665728 
3.8600000000037213, -0.5401542008428603 
3.8700000000037424, -0.5396115844939124 
3.8800000000037635, -0.5393376027850854 
3.8900000000037847, -0.5392731880054581 
3.9000000000038058, -0.5393767394074639 
3.910000000003827, -0.5396215663521823 
3.920000000003848, -0.5399942701080943 
3.930000000003869, -0.5404937095863346 
3.94000000000389, -0.5411297474202139 
3.9500000000039113, -0.541920295519903 
3.9600000000039324, -0.5428846692842509 
3.9700000000039535, -0.5440317306105253 
3.9800000000039746, -0.545343784328439 
3.9900000000039957, -0.5467622028607895 
4.000000000004016, -0.5481859905904659 
4.010000000003993, -0.5494925154904451 
4.02000000000397, -0.5505745761254638 
4.030000000003946, -0.5513712733191747 
4.040000000003923, -0.5518736524413368 
4.0500000000039, -0.5521076007365122 
4.0600000000038765, -0.5521103031685834 
4.070000000003853, -0.5519124304490867 
4.08000000000383, -0.5515281307193459 
4.090000000003807, -0.5509492300652252 
4.100000000003783, -0.5501389606870439 
4.11000000000376, -0.5490205413985172 
4.120000000003737, -0.5474546967684935 
4.130000000003713, -0.5451973112830483 
4.14000000000369, -0.5418278913335897 
4.150000000003667, -0.5366605140544803 
4.1600000000036434, -0.5287388169084895 
4.17000000000362, -0.517180226816584 
4.180000000003597, -0.5020416384324728 
4.1900000000035735, -0.48501829747794317 
4.20000000000355, -0.4687645630070139 
4.210000000003527, -0.4552926306896957 
4.220000000003504, -0.4452160343179713 
4.23000000000348, -0.4381544356371122 
4.240000000003457, -0.4333899244676439 
4.250000000003434, -0.43024590938882507 
4.26000000000341, -0.4282047206677081 
4.270000000003387, -0.42690458035447243 
4.280000000003364, -0.42610331090772596 
4.2900000000033405, -0.4256424994452 
4.300000000003317, -0.42542051931909314 
4.310000000003294, -0.42537427772869113 
4.320000000003271, -0.425467667927553 
4.330000000003247, -0.42568482308106903 
4.340000000003224, -0.42602669793693826 
4.350000000003201, -0.4265096720964821 
4.360000000003177, -0.4271646014897459 
4.370000000003154, -0.42803409775666046 
4.380000000003131, -0.42916508547959314 
4.390000000003107, -0.4305935373459649 
4.400000000003084, -0.4323202885288868 
4.410000000003061, -0.434283757612287 
4.4200000000030375, -0.4363472280165467 
4.430000000003014, -0.43832277207680004 
4.440000000002991, -0.44003163881688795 
4.450000000002968, -0.44136366066927274 
4.460000000002944, -0.4422948192673246 
4.470000000002921, -0.4428618843343878 
4.480000000002898, -0.4431236121423871 
4.490000000002874, -0.44313182329475787 
4.500000000002851, -0.4429164130854845 
4.510000000002828, -0.44247816799213313 
4.520000000002804, -0.441782493772848 
4.530000000002781, -0.44074962700158854 
4.540000000002758, -0.43924046191755267 
4.5500000000027345, -0.4370444799793744 
4.560000000002711, -0.4338922665297031 
4.570000000002688, -0.42953505434588085 
4.580000000002665, -0.42391682590197455 
4.590000000002641, -0.4173514346248387 
4.600000000002618, -0.4104985972768162 
4.610000000002595, -0.40407642645902914 
4.620000000002571, -0.3985582471448772 
4.630000000002548, -0.3940914730350236 
4.640000000002525, -0.3905997344544083 
4.6500000000025015, -0.38791535319982107 
4.660000000002478, -0.38586400788747277 
4.670000000002455, -0.3843006181609726 
4.6800000000024315, -0.38311763269387644 
4.690000000002408, -0.3822422447655514 
4.700000000002385, -0.38163108288680114 
4.710000000002362, -0.3812659688887734 
4.720000000002338, -0.3811520723236571 
4.730000000002315, -0.38131901551302744 
4.740000000002292, -0.3818254070767762 
4.750000000002268, -0.3827674426970507 
4.760000000002245, -0.38429217184407993 
4.770000000002222, -0.38661492323702673 
4.7800000000021985, -0.39003612736537807 
4.790000000002175, -0.39494106191660994 
4.800000000002152, -0.4017418566808332 
4.810000000002129, -0.4106940740230572 
4.820000000002105, -0.42155823006989357 
4.830000000002082, -0.4333021381418461 
4.840000000002059, -0.4443125412904349 
4.850000000002035, -0.4532263737922593 
4.860000000002012, -0.459600069255937 
4.870000000001989, -0.4637846366726034 
4.880000000001965, -0.4664026913335212 
4.890000000001942, -0.46799743896915924 
4.900000000001919, -0.46894072078064736 
