t, s[1].omega / s[0].omega 
0, -0.6699977033169543 
0.009999999999999995, -0.669763317431918 
0.019999999999999934, -0.6695140915834411 
0.029999999999999874, -0.669236541754897 
0.04000000000000012, -0.6689161303342279 
0.050000000000000405, -0.6685440788710726 
0.06000000000000069, -0.6681210880250009 
0.07000000000000098, -0.6676580162571144 
0.08000000000000126, -0.6671756974778321 
0.09000000000000155, -0.6667061224554754 
0.10000000000000184, -0.6662960704345933 
0.11000000000000212, -0.6660131197833785 
0.12000000000000241, -0.6659531370399265 
0.130000000000002, -0.6662476838421717 
0.1400000000000009, -0.6670691335700327 
0.1499999999999998, -0.6686305234141449 
0.1599999999999987, -0.6711758684246113 
0.1699999999999976, -0.6749540922324989 
0.1799999999999965, -0.6801660651863926 
0.1899999999999954, -0.686874241444847 
0.1999999999999943, -0.6948819695716704 
0.2099999999999932, -0.7036404103934997 
0.2199999999999921, -0.7122987985893032 
0.229999999999991, -0.7199684888204932 
0.2399999999999899, -0.7260666137451176 
0.2499999999999888, -0.7304737156394285 
0.2599999999999877, -0.7334199152424092 
0.2699999999999866, -0.7352642894811776 
0.2799999999999855, -0.7363377120727532 
0.2899999999999844, -0.7368843535503486 
0.2999999999999833, -0.7370611390505398 
0.3099999999999822, -0.7369548685691321 
0.3199999999999811, -0.7365972203045656 
0.32999999999998, -0.7359711283581098 
0.3399999999999789, -0.7350066778134033 
0.3499999999999778, -0.7335651536486947 
0.35999999999997667, -0.731410117921259 
0.36999999999997557, -0.7281693358596633 
0.37999999999997447, -0.7233106576049436 
0.38999999999997337, -0.7161993842086469 
0.39999999999997227, -0.7063484412633445 
0.40999999999997117, -0.693882104034731 
0.41999999999997006, -0.6798904470880058 
0.42999999999996896, -0.6661547906975902 
0.43999999999996786, -0.6543054140867385 
0.44999999999996676, -0.6451678505596817 
0.45999999999996566, -0.6387417580094936 
0.46999999999996456, -0.6345550668357234 
0.47999999999996346, -0.6320079643182152 
0.48999999999996235, -0.6305632718737162 
0.49999999999996125, -0.6298102043138065 
0.5099999999999602, -0.6294623680304472 
0.519999999999959, -0.6293319496616484 
0.529999999999958, -0.6293006809541704 
0.5399999999999568, -0.6292954293251022 
0.5499999999999557, -0.6292703038844596 
0.5599999999999546, -0.6291949403727678 
0.5699999999999535, -0.6290481552582923 
0.5799999999999524, -0.628816207691839 
0.5899999999999513, -0.6284945608175168 
0.5999999999999502, -0.628090835944901 
0.6099999999999491, -0.6276253800629312 
0.619999999999948, -0.6271265748393261 
0.6299999999999469, -0.626621649033915 
0.6399999999999458, -0.6261276655945311 
0.6499999999999447, -0.6256476950003853 
0.6599999999999436, -0.6251737090667461 
0.6699999999999425, -0.6246936895320994 
0.6799999999999414, -0.6241988201665446 
0.6899999999999403, -0.6236879923828509 
0.6999999999999392, -0.6231695465975544 
0.7099999999999381, -0.6226619865190879 
0.719999999999937, -0.6221955331968065 
0.7299999999999359, -0.6218155560942009 
0.7399999999999348, -0.6215880548246435 
0.7499999999999337, -0.621606785441163 
0.7599999999999326, -0.622001194743564 
0.7699999999999315, -0.6229437693586626 
0.7799999999999304, -0.6246543017438582 
0.7899999999999293, -0.6273961458529331 
0.7999999999999282, -0.6314547420484545 
0.8099999999999271, -0.6370817972057539 
0.819999999999926, -0.6443861454647244 
0.8299999999999249, -0.6531751648264381 
0.8399999999999238, -0.6628240206260956 
0.8499999999999227, -0.6723353311657294 
0.8599999999999216, -0.6806817660511728 
0.8699999999999205, -0.6872310130476177 
0.8799999999999194, -0.6919039999326675 
0.8899999999999183, -0.6950017289735402 
0.8999999999999172, -0.6969390797193058 
0.9099999999999161, -0.6980783554802356 
0.919999999999915, -0.6986786076468228 
0.9299999999999139, -0.6989035590070244 
0.9399999999999128, -0.6988435860321711 
0.9499999999999117, -0.6985329024276616 
0.9599999999999106, -0.697956865690116 
0.9699999999999095, -0.6970485729433784 
0.9799999999999084, -0.6956745900522704 
0.9899999999999073, -0.6936114810938091 
0.9999999999999062, -0.6905234365917585 
1.0099999999999052, -0.6859737029088857 
1.019999999999904, -0.679533008128262 
1.029999999999903, -0.6710317849495727 
1.039999999999902, -0.6608517861574341 
1.0499999999999008, -0.6499635277003436 
1.0599999999998997, -0.6395557674630405 
1.0699999999998986, -0.6305431252165208 
1.0799999999998975, -0.6233373594082078 
1.0899999999998964, -0.6179252796902582 
1.0999999999998953, -0.6140605055873304 
1.1099999999998942, -0.6114211421591549 
1.119999999999893, -0.6096977004598256 
1.129999999999892, -0.6086291314313395 
1.1399999999998909, -0.6080107943971629 
1.1499999999998898, -0.60768991560522 
1.1599999999998887, -0.6075565582908411 
1.1699999999998876, -0.6075338709982406 
1.1799999999998865, -0.6075693760851225 
1.1899999999998854, -0.6076281563996734 
1.1999999999998843, -0.607688318805058 
1.2099999999998832, -0.6077386600560546 
1.219999999999882, -0.6077777707273687 
1.229999999999881, -0.6078129422054945 
1.2399999999998799, -0.6078568670770428 
1.2499999999998788, -0.6079212066338676 
1.2599999999998777, -0.608008626830463 
1.2699999999998766, -0.6081071911444706 
1.2799999999998755, -0.6081909279089246 
1.2899999999998744, -0.6082272681779625 
1.2999999999998733, -0.6081876110593674 
1.3099999999998722, -0.6080551998835315 
1.319999999999871, -0.6078270053720476 
1.32999999999987, -0.6075109423369749 
1.3399999999998689, -0.6071222395126032 
1.3499999999998678, -0.6066822015378714 
1.3599999999998666, -0.6062210595596558 
1.3699999999998655, -0.6057858714801508 
1.3799999999998644, -0.6054546735898367 
1.3899999999998633, -0.6053585808193472 
1.3999999999998622, -0.6057131393795296 
1.4099999999998611, -0.6068568895831739 
1.41999999999986, -0.6092846899822311 
1.429999999999859, -0.6136396603549774 
1.4399999999998578, -0.6205903808475606 
1.4499999999998567, -0.6305071287030922 
1.4599999999998556, -0.6429802231062729 
1.4699999999998545, -0.6565660957029132 
1.4799999999998534, -0.6692810983356137 
1.4899999999998523, -0.6796331151940919 
1.4999999999998512, -0.687197860826614 
1.5099999999998501, -0.6923500115148993 
1.519999999999849, -0.6957203001333424 
1.529999999999848, -0.6978703723452879 
1.5399999999998468, -0.699205951703871 
1.5499999999998457, -0.6999943207692949 
1.5599999999998446, -0.700402267254576 
1.5699999999998435, -0.7005268738326247 
1.5799999999998424, -0.7004148932169519 
1.5899999999998413, -0.7000723200187824 
1.5999999999998402, -0.699466357542929 
1.6099999999998391, -0.6985222365201242 
1.619999999999838, -0.6971195505907901 
1.629999999999837, -0.6950982829782275 
1.6399999999998358, -0.6922913345101839 
1.6499999999998347, -0.6885962085685946 
1.6599999999998336, -0.6840660550939257 
1.6699999999998325, -0.6789536680788557 
1.6799999999998314, -0.6736506429438864 
1.6899999999998303, -0.6685535161212929 
1.6999999999998292, -0.6639530345124028 
1.709999999999828, -0.6600014351304072 
1.719999999999827, -0.6567388787214437 
1.729999999999826, -0.6541365903193378 
1.7399999999998248, -0.6521313863057823 
1.7499999999998237, -0.6506463268338342 
1.7599999999998226, -0.6496012594918266 
1.7699999999998215, -0.6489181134230316 
1.7799999999998204, -0.6485240847837919 
1.7899999999998193, -0.648354011801539 
1.7999999999998182, -0.648352132815553 
1.809999999999817, -0.6484730865031741 
1.819999999999816, -0.6486821532844351 
1.8299999999998149, -0.6489549619071965 
1.8399999999998138, -0.6492768638149495 
1.8499999999998127, -0.6496417592804751 
1.8599999999998116, -0.6500495357456939 
1.8699999999998105, -0.6505010988496492 
1.8799999999998094, -0.6509910284149477 
1.8899999999998083, -0.6515002049782337 
1.8999999999998072, -0.6519928535001152 
1.909999999999806, -0.6524218142234665 
1.919999999999805, -0.6527411399805869 
1.9299999999998039, -0.6529192794682999 
1.9399999999998028, -0.6529452436045367 
1.9499999999998017, -0.6528258607354445 
1.9599999999998006, -0.6525784630094053 
1.9699999999997995, -0.6522246582151182 
1.9799999999997984, -0.6517884500074798 
1.9899999999997973, -0.65129974007782 
1.9999999999997962, -0.6508038211149422 
2.0099999999998173, -0.6503782634525386 
2.0199999999998384, -0.6501593718552955 
2.0299999999998595, -0.6503795789276008 
2.0399999999998806, -0.6514120419744157 
2.0499999999999017, -0.6538045108453644 
2.059999999999923, -0.6582558497324508 
2.069999999999944, -0.6654521565795386 
2.079999999999965, -0.6756902930861808 
2.089999999999986, -0.6883965911279522 
2.100000000000007, -0.7019876279173344 
2.1100000000000283, -0.7144956799538342 
2.1200000000000494, -0.7245628345450813 
2.1300000000000705, -0.7318716163139077 
2.1400000000000916, -0.7368234902557473 
2.1500000000001127, -0.7400365491703509 
2.160000000000134, -0.7420572156982599 
2.170000000000155, -0.743281961948161 
2.180000000000176, -0.7439721015859704 
2.190000000000197, -0.7442887444757891 
2.2000000000002182, -0.7443219221676143 
2.2100000000002393, -0.7441085952268132 
2.2200000000002604, -0.7436401084044977 
2.2300000000002815, -0.742860432455025 
2.2400000000003026, -0.7416568801453416 
2.2500000000003237, -0.7398479455106559 
2.260000000000345, -0.7371816367590488 
2.270000000000366, -0.7333719110552268 
2.280000000000387, -0.7282044731319396 
2.290000000000408, -0.7216990378747468 
2.3000000000004293, -0.7142215981776147 
2.3100000000004504, -0.7064159427303764 
2.3200000000004715, -0.6989721250421171 
2.3300000000004926, -0.692405679167537 
2.3400000000005137, -0.6869757677408572 
2.3500000000005348, -0.6827240865200215 
2.360000000000556, -0.6795552922233942 
2.370000000000577, -0.6773069688757718 
2.380000000000598, -0.675795867718534 
2.390000000000619, -0.6748448964157996 
2.4000000000006403, -0.6742976665664753 
2.4100000000006614, -0.6740250386538406 
2.4200000000006825, -0.6739261529797823 
2.4300000000007036, -0.6739257652938424 
2.4400000000007247, -0.6739696580955734 
2.450000000000746, -0.6740198241615014 
2.460000000000767, -0.674050766068605 
2.470000000000788, -0.6740475675253559 
2.480000000000809, -0.6740053332826034 
2.49000000000083, -0.6739283977277337 
2.5000000000008513, -0.6738272595834665 
2.5100000000008724, -0.6737125548770966 
2.5200000000008935, -0.6735881310833738 
2.5300000000009146, -0.6734471088376852 
2.5400000000009357, -0.6732736594151251 
2.550000000000957, -0.6730496447440915 
2.560000000000978, -0.6727621753303092 
2.570000000000999, -0.6724082429698243 
2.58000000000102, -0.6719955789066905 
2.5900000000010412, -0.6715417897470445 
2.6000000000010624, -0.6710745009967387 
2.6100000000010835, -0.6706342021111491 
2.6200000000011046, -0.6702801889745753 
2.6300000000011257, -0.6700990626770326 
2.6400000000011468, -0.6702144820926443 
2.650000000001168, -0.6707959842333107 
2.660000000001189, -0.6720635480293924 
2.67000000000121, -0.6742829779159296 
2.680000000001231, -0.6777445472728603 
2.6900000000012523, -0.682713389604285 
2.7000000000012734, -0.6893381143785038 
2.7100000000012945, -0.6975167581670102 
2.7200000000013156, -0.7067670832280057 
2.7300000000013367, -0.71622205376886 
2.740000000001358, -0.7248663261121536 
2.750000000001379, -0.7319309778408783 
2.7600000000014, -0.7371498830428911 
2.770000000001421, -0.7406997084678008 
2.780000000001442, -0.742959772285354 
2.7900000000014633, -0.7443098861052484 
2.8000000000014844, -0.7450420170363234 
2.8100000000015055, -0.7453498630853888 
2.8200000000015266, -0.7453466301866368 
2.8300000000015477, -0.7450839180432047 
2.840000000001569, -0.7445623230037668 
2.85000000000159, -0.7437314464241512 
2.860000000001611, -0.7424782479614392 
2.870000000001632, -0.7406025026677372 
2.8800000000016532, -0.7377807736087505 
2.8900000000016743, -0.7335335261878864 
2.9000000000016954, -0.7272455417993317 
2.9100000000017165, -0.7183409209834275 
2.9200000000017377, -0.7066879958219155 
2.9300000000017588, -0.6930451590877078 
2.94000000000178, -0.6790341528465091 
2.950000000001801, -0.6664305503977086 
2.960000000001822, -0.6563658249651313 
2.970000000001843, -0.6490915317930495 
2.9800000000018643, -0.6442514140055531 
2.9900000000018854, -0.6412566357687612 
3.0000000000019065, -0.6395320497709345 
3.0100000000019276, -0.6386180635236265 
3.0200000000019487, -0.6381860445335052 
3.03000000000197, -0.6380173487604774 
3.040000000001991, -0.6379734733447625 
3.050000000002012, -0.6379690290805499 
3.060000000002033, -0.6379511121923465 
3.070000000002054, -0.6378852696114191 
3.0800000000020753, -0.6377472864336857 
3.0900000000020964, -0.6375200257082653 
3.1000000000021175, -0.6371944540592298 
3.1100000000021386, -0.636773034074333 
3.1200000000021597, -0.6362720839489271 
3.130000000002181, -0.6357193612250903 
3.140000000002202, -0.6351459507716009 
3.150000000002223, -0.6345761345875969 
3.160000000002244, -0.6340209347197574 
3.1700000000022652, -0.6334784694157463 
3.1800000000022863, -0.6329398243950499 
3.1900000000023074, -0.6323965043791542 
3.2000000000023285, -0.6318460398168215 
3.2100000000023496, -0.6312947718224609 
3.2200000000023707, -0.6307589945657559 
3.230000000002392, -0.6302662227432193 
3.240000000002413, -0.6298577184474486 
3.250000000002434, -0.629592500377533 
3.260000000002455, -0.6295523942366188 
3.2700000000024763, -0.6298472943888433 
3.2800000000024974, -0.6306195193121134 
3.2900000000025185, -0.6320456617350881 
3.3000000000025396, -0.6343331043866 
3.3100000000025607, -0.6377055778601899 
3.3200000000025818, -0.6423674822616217 
3.330000000002603, -0.648433107993524 
3.340000000002624, -0.6558156136526315 
3.350000000002645, -0.6641110369529767 
3.360000000002666, -0.6725808100899043 
3.3700000000026873, -0.6803428248166028 
3.3800000000027084, -0.6867135889968109 
3.3900000000027295, -0.6914438812219903 
3.4000000000027506, -0.6946780035505868 
3.4100000000027717, -0.6967462701802227 
3.420000000002793, -0.6979846210319495 
3.430000000002814, -0.6986533771791313 
3.440000000002835, -0.698925774136228 
3.450000000002856, -0.6989023885706398 
3.460000000002877, -0.6986269198493662 
3.4700000000028983, -0.6980944760373222 
3.4800000000029194, -0.6972499010395206 
3.4900000000029405, -0.6959750161528067 
3.5000000000029616, -0.6940643881955557 
3.5100000000029827, -0.6911945247471278 
3.520000000003004, -0.6869096070654099 
3.530000000003025, -0.6806836825627122 
3.540000000003046, -0.6721427668755015 
3.550000000003067, -0.6614306391972775 
3.5600000000030882, -0.6494380830054055 
3.5700000000031094, -0.6375462217597863 
3.5800000000031305, -0.627007928579002 
3.5900000000031516, -0.618503615823591 
3.6000000000031727, -0.6121272031656304 
3.6100000000031938, -0.6076150462755809 
3.620000000003215, -0.6045737786097721 
3.630000000003236, -0.6026162491834415 
3.640000000003257, -0.6014181803794957 
3.650000000003278, -0.6007303246456169 
3.6600000000032993, -0.6003712285482369 
3.6700000000033204, -0.6002137712430515 
3.6800000000033415, -0.600171362168741 
3.6900000000033626, -0.60018615445602 
3.7000000000033837, -0.6002201010927727 
3.710000000003405, -0.6002490414687225 
3.720000000003426, -0.6002596293044865 
3.730000000003447, -0.6002483784709282 
3.740000000003468, -0.6002212655030184 
3.750000000003489, -0.600191673205912 
3.7600000000035103, -0.6001750523726248 
3.7700000000035314, -0.6001809893423685 
3.7800000000035525, -0.6002060726578711 
3.7900000000035736, -0.6002317653802333 
3.8000000000035947, -0.6002292696740917 
3.810000000003616, -0.6001691832640034 
3.820000000003637, -0.6000306470866466 
3.830000000003658, -0.5998055673040883 
3.840000000003679, -0.5994975925062175 
3.8500000000037002, -0.5991189065735043 
3.8600000000037213, -0.598688311777851 
3.8700000000037424, -0.5982327612421776 
3.8800000000037635, -0.5977934699031132 
3.8900000000037847, -0.5974376691748928 
3.9000000000038058, -0.5972775250513183 
3.910000000003827, -0.597497777826402 
3.920000000003848, -0.5983916875494601 
3.930000000003869, -0.6003976400884734 
3.94000000000389, -0.6041105223621815 
3.9500000000039113, -0.6102082035199211 
3.9600000000039324, -0.6192030417001169 
3.9700000000039535, -0.6309913409291108 
3.9800000000039746, -0.6444572232996468 
3.9900000000039957, -0.6576852669997558 
4.000000000004016, -0.6689119487607652 
4.010000000003993, -0.6773610835441524 
4.02000000000397, -0.6832170500045468 
4.030000000003946, -0.6870855309931914 
4.040000000003923, -0.689572545429926 
4.0500000000039, -0.6911352688743471 
4.0600000000038765, -0.6920806255110815 
4.070000000003853, -0.6926029432279676 
4.08000000000383, -0.6928186380930851 
4.090000000003807, -0.6927893455149745 
4.100000000003783, -0.6925345255804916 
4.11000000000376, -0.6920359325564587 
4.120000000003737, -0.6912363400656083 
4.130000000003713, -0.6900362421945769 
4.14000000000369, -0.6882964005681516 
4.150000000003667, -0.6858603177964506 
4.1600000000036434, -0.6826108665835695 
4.17000000000362, -0.6785532002526209 
4.180000000003597, -0.6738729187589158 
4.1900000000035735, -0.668906926275084 
4.20000000000355, -0.6640311967282677 
4.210000000003527, -0.6595460542367226 
4.220000000003504, -0.6556264347715397 
4.23000000000348, -0.6523354244973927 
4.240000000003457, -0.649663031646666 
4.250000000003434, -0.6475611771431382 
4.26000000000341, -0.6459657883217786 
4.270000000003387, -0.6448080889095144 
4.280000000003364, -0.6440197943307161 
4.2900000000033405, -0.643535802111841 
4.300000000003317, -0.6432961770288271 
4.310000000003294, -0.6432479169478333 
4.320000000003271, -0.6433463709261648 
4.330000000003247, -0.6435561158503331 
4.340000000003224, -0.6438512761678508 
4.350000000003201, -0.6442153595481375 
4.360000000003177, -0.6446404464287585 
4.370000000003154, -0.6451250493065073 
4.380000000003131, -0.6456696213377958 
4.390000000003107, -0.6462693400378081 
4.400000000003084, -0.6469058509991623 
4.410000000003061, -0.6475422470945386 
4.4200000000030375, -0.6481262117526703 
4.430000000003014, -0.648602456231673 
4.440000000002991, -0.6489285981492497 
4.450000000002968, -0.6490850955888249 
4.460000000002944, -0.6490745132997113 
4.470000000002921, -0.6489134363012662 
4.480000000002898, -0.6486237363851763 
4.490000000002874, -0.6482277619789828 
4.500000000002851, -0.6477488829286929 
4.510000000002828, -0.6472176498252209 
4.520000000002804, -0.6466845162735784 
4.530000000002781, -0.6462413976475448 
4.540000000002758, -0.6460549041668971 
4.5500000000027345, -0.6464115717679294 
4.560000000002711, -0.6477650787601926 
4.570000000002688, -0.6507498652699824 
4.580000000002665, -0.6560832631104712 
4.590000000002641, -0.664257709075461 
4.600000000002618, -0.675049041669006 
4.610000000002595, -0.6872156899439227 
4.620000000002571, -0.6989185489946399 
4.630000000002548, -0.7086920853520232 
4.640000000002525, -0.7160245975964572 
4.6500000000025015, -0.7211555856965218 
4.660000000002478, -0.7245998439769641 
4.670000000002455, -0.7268482573901198 
4.6800000000024315, -0.7282743426882848 
4.690000000002408, -0.7291359244401346 
4.700000000002385, -0.7296007232250316 
4.710000000002362, -0.729770358021354 
4.720000000002338, -0.729696795490851 
4.730000000002315, -0.7293909245009917 
4.740000000002292, -0.7288240889830726 
4.750000000002268, -0.7279239456520454 
4.760000000002245, -0.7265680413970557 
4.770000000002222, -0.7245839281894587 
4.7800000000021985, -0.7217731394250252 
4.790000000002175, -0.7179784988911689 
4.800000000002152, -0.7131886921943875 
4.810000000002129, -0.7076182747948813 
4.820000000002105, -0.7016802386643091 
4.830000000002082, -0.6958487476980523 
4.840000000002059, -0.6905111447935102 
4.850000000002035, -0.6858982749498367 
4.860000000002012, -0.6820954781784437 
4.870000000001989, -0.6790881112561241 
4.880000000001965, -0.6768050546421257 
4.890000000001942, -0.6751482262473247 
4.900000000001919, -0.6740100640817566 
4.9100000000018955, -0.6732839790613763 
4.920000000001872, -0.6728711859810075 
