t, s[1].omega / s[0].omega 
0, -0.19999782035808222 
0.009999999999999995, -0.19988667459096024 
0.019999999999999934, -0.1999703529448993 
0.029999999999999874, -0.2002011889284255 
0.04000000000000012, -0.20050869970616358 
0.050000000000000405, -0.2008150845506957 
0.06000000000000069, -0.20105312717529147 
0.07000000000000098, -0.2011772356335269 
0.08000000000000126, -0.20116273913621036 
0.09000000000000155, -0.2009963501887499 
0.10000000000000184, -0.20066353367080275 
0.11000000000000212, -0.20013598669131616 
0.12000000000000241, -0.19935916424194922 
0.130000000000002, -0.19823916910014777 
0.1400000000000009, -0.19663239984014277 
0.1499999999999998, -0.19435264726058976 
0.1599999999999987, -0.19122606409426737 
0.1699999999999976, -0.18721654055584797 
0.1799999999999965, -0.18256297233529817 
0.1899999999999954, -0.1777678884697026 
0.1999999999999943, -0.17337256507637636 
0.2099999999999932, -0.16971346322621778 
0.2199999999999921, -0.16686405201475296 
0.229999999999991, -0.1647279609734444 
0.2399999999999899, -0.16314897560502717 
0.2499999999999888, -0.1619749750418367 
0.2599999999999877, -0.161081353725339 
0.2699999999999866, -0.1603744016121231 
0.2799999999999855, -0.15978754766304754 
0.2899999999999844, -0.15927571614123462 
0.2999999999999833, -0.15880952852209923 
0.3099999999999822, -0.15836978660254677 
0.3199999999999811, -0.15794166987477928 
0.32999999999998, -0.1575062135946176 
0.3399999999999789, -0.15702234032965004 
0.3499999999999778, -0.1563826077005068 
0.35999999999997667, -0.1553054542712484 
0.36999999999997557, -0.1531078700837391 
0.37999999999997447, -0.14839306112399567 
0.38999999999997337, -0.139179037559918 
0.39999999999997227, -0.12455318226515995 
0.40999999999997117, -0.10690030109234032 
0.41999999999997006, -0.09058725977843846 
0.42999999999996896, -0.07821216273007277 
0.43999999999996786, -0.06980145432017376 
0.44999999999996676, -0.06431808381247854 
0.45999999999996566, -0.060746713196739854 
0.46999999999996456, -0.058376510043653386 
0.47999999999996346, -0.05676275686041078 
0.48999999999996235, -0.05563842884692153 
0.49999999999996125, -0.054847227527193676 
0.5099999999999602, -0.054302759746904475 
0.519999999999959, -0.053966400227040204 
0.529999999999958, -0.05383768419631629 
0.5399999999999568, -0.053953832076471586 
0.5499999999999557, -0.05439619519006642 
0.5599999999999546, -0.05529785512270376 
0.5699999999999535, -0.05682729966597183 
0.5799999999999524, -0.059055406999781415 
0.5899999999999513, -0.06144894872836852 
0.5999999999999502, -0.061683307043864065 
0.6099999999999491, -0.054946676836901395 
0.619999999999948, -0.03809181144307586 
0.6299999999999469, -0.016042500651240636 
0.6399999999999458, 0.0029765168122523 
0.6499999999999447, 0.015622798008964458 
0.6599999999999436, 0.023315532636290846 
0.6699999999999425, 0.027842167453259382 
0.6799999999999414, 0.030493866310234125 
0.6899999999999403, 0.03203917605690746 
0.6999999999999392, 0.03291117540023911 
0.7099999999999381, 0.03335006452810467 
0.719999999999937, 0.03348507867093691 
0.7299999999999359, 0.0333770486439924 
0.7399999999999348, 0.033038098597166644 
0.7499999999999337, 0.032437689454645445 
0.7599999999999326, 0.03150128022766524 
0.7699999999999315, 0.03011366746814228 
0.7799999999999304, 0.028169281753064972 
0.7899999999999293, 0.02580745971486407 
0.7999999999999282, 0.02414160012153837 
0.8099999999999271, 0.02647387524121404 
0.819999999999926, 0.03739482224010185 
0.8299999999999249, 0.05642019220592844 
0.8399999999999238, 0.07596841791614607 
0.8499999999999227, 0.09032568422366703 
0.8599999999999216, 0.099219536773519 
0.8699999999999205, 0.1043942451213146 
0.8799999999999194, 0.10736513981495097 
0.8899999999999183, 0.10906754336191174 
0.8999999999999172, 0.11002886817390267 
0.9099999999999161, 0.11054287698433987 
0.919999999999915, 0.11077518672591538 
0.9299999999999139, 0.11082066496454268 
0.9399999999999128, 0.11073530104224716 
0.9499999999999117, 0.11055753137404838 
0.9599999999999106, 0.11033145363796193 
0.9699999999999095, 0.11014986195521717 
0.9799999999999084, 0.11025035871901363 
0.9899999999999073, 0.11120710727056067 
0.9999999999999062, 0.11415510777545756 
1.0099999999999052, 0.12052917595210359 
1.019999999999904, 0.13055170984830564 
1.029999999999903, 0.14191326573225324 
1.039999999999902, 0.15159090575502224 
1.0499999999999008, 0.15835332574599864 
1.0599999999998997, 0.16258255997320076 
1.0699999999998986, 0.16508194754236652 
1.0799999999998975, 0.1665025129984197 
1.0899999999998964, 0.16726830302702242 
1.0999999999998953, 0.16764079106701255 
1.1099999999998942, 0.16778365029499615 
1.119999999999893, 0.16780465586878437 
1.129999999999892, 0.16778072675300587 
1.1399999999998909, 0.16777454534519826 
1.1499999999998898, 0.167848530617229 
1.1599999999998887, 0.16807920419158454 
1.1699999999998876, 0.16857172933212208 
1.1799999999998865, 0.16946745357451062 
1.1899999999998854, 0.1709239096445727 
1.1999999999998843, 0.17303801548650594 
1.2099999999998832, 0.17572167574974884 
1.219999999999882, 0.1786415753498154 
1.229999999999881, 0.18134799453008751 
1.2399999999998799, 0.1835043340298525 
1.2499999999998788, 0.18499464676434083 
1.2599999999998777, 0.18586564296994856 
1.2699999999998766, 0.18622516001178827 
1.2799999999998755, 0.18618210742691585 
1.2899999999998744, 0.1858320961018361 
1.2999999999998733, 0.18526457254628254 
1.3099999999998722, 0.1845704582612746 
1.319999999999871, 0.1838398244933726 
1.32999999999987, 0.18315110655112818 
1.3399999999998689, 0.18256117792464227 
1.3499999999998678, 0.18210355358745225 
1.3599999999998666, 0.18179398322149615 
1.3699999999998655, 0.18163763707118574 
1.3799999999998644, 0.18163263468688656 
1.3899999999998633, 0.18176775242226778 
1.3999999999998622, 0.18201552973595947 
1.4099999999998611, 0.18232539164999664 
1.41999999999986, 0.18262314690881357 
1.429999999999859, 0.1828196884144496 
1.4399999999998578, 0.1828234169429328 
1.4499999999998567, 0.1825462401207762 
1.4599999999998556, 0.18189865569777053 
1.4699999999998545, 0.18078122709203265 
1.4799999999998534, 0.1790904877533536 
1.4899999999998523, 0.17676247791311975 
1.4999999999998512, 0.17386047348147857 
1.5099999999998501, 0.1706497905304847 
1.519999999999849, 0.16754376174037183 
1.529999999999848, 0.16490576519257366 
1.5399999999998468, 0.16288708371063557 
1.5499999999998457, 0.16143866346385746 
1.5599999999998446, 0.16042204487774564 
1.5699999999998435, 0.15969729155650975 
1.5799999999998424, 0.15915524493520594 
1.5899999999998413, 0.15871620774147027 
1.5999999999998402, 0.15831755869467942 
1.6099999999998391, 0.15790017466427014 
1.619999999999838, 0.15739558430067208 
1.629999999999837, 0.15671215361634766 
1.6399999999998358, 0.15571616980276565 
1.6499999999998347, 0.154201331207275 
1.6599999999998336, 0.1518405185962053 
1.6699999999998325, 0.14812898521639298 
1.6799999999998314, 0.14239387749254168 
1.6899999999998303, 0.13410030276778168 
1.6999999999998292, 0.12369898627868856 
1.709999999999828, 0.11330051513739436 
1.719999999999827, 0.10540959229609304 
1.729999999999826, 0.10077598892772019 
1.7399999999998248, 0.09850025430215505 
1.7499999999998237, 0.09745403921286035 
1.7599999999998226, 0.09692788106946636 
1.7699999999998215, 0.09657997398214499 
1.7799999999998204, 0.09626112544870892 
1.7899999999998193, 0.09590209106448712 
1.7999999999998182, 0.09545795736796583 
1.809999999999817, 0.09488001673921764 
1.819999999999816, 0.09409600147789218 
1.8299999999998149, 0.09298698538448477 
1.8399999999998138, 0.09135019876557017 
1.8499999999998127, 0.08883308142729426 
1.8599999999998116, 0.0848206074002617 
1.8699999999998105, 0.07828430198452774 
1.8799999999998094, 0.06777172097405283 
1.8899999999998083, 0.052227792511013095 
1.8999999999998072, 0.03344285729053805 
1.909999999999806, 0.017264328585478914 
1.919999999999805, 0.00829095756834248 
1.9299999999998039, 0.0054020214947784854 
1.9399999999998028, 0.0052891589175982235 
1.9499999999998017, 0.0058813813013515685 
1.9599999999998006, 0.006418056755814344 
1.9699999999997995, 0.0067245438182008885 
1.9799999999997984, 0.006803733923250227 
1.9899999999997973, 0.006688837266830087 
1.9999999999997962, 0.006400679153689913 
2.0099999999998173, 0.005936137819594355 
2.0199999999998384, 0.005261754686172184 
2.0299999999998595, 0.00430297074831917 
2.0399999999998806, 0.0029228765128642897 
2.0499999999999017, 0.0008824749167911795 
2.059999999999923, -0.0019379290870582756 
2.069999999999944, -0.006377585103586757 
2.079999999999965, -0.013663958793445698 
2.089999999999986, -0.025135436891420636 
2.100000000000007, -0.04134868177581906 
2.1100000000000283, -0.05992653025264175 
2.1200000000000494, -0.07546870832122733 
2.1300000000000705, -0.08442726428527372 
2.1400000000000916, -0.08790437357424039 
2.1500000000001127, -0.08862699574383043 
2.160000000000134, -0.08839519449504923 
2.170000000000155, -0.08796844540089777 
2.180000000000176, -0.08758817921788081 
2.190000000000197, -0.08730808783777635 
2.2000000000002182, -0.0871294006031241 
2.2100000000002393, -0.08704725627326614 
2.2200000000002604, -0.0870657600634465 
2.2300000000002815, -0.08720431290043666 
2.2400000000003026, -0.08750338862326727 
2.2500000000003237, -0.08803312309763106 
2.260000000000345, -0.08890688533739981 
2.270000000000366, -0.09030176760733716 
2.280000000000387, -0.09248595664435275 
2.290000000000408, -0.09584266139507541 
2.3000000000004293, -0.10084787009822745 
2.3100000000004504, -0.1078980487766346 
2.3200000000004715, -0.11688160131761613 
2.3300000000004926, -0.12671861085633784 
2.3400000000005137, -0.13563399615723035 
2.3500000000005348, -0.1423172002315328 
2.360000000000556, -0.14662494859374425 
2.370000000000577, -0.14915241026031534 
2.380000000000598, -0.15056994873833157 
2.390000000000619, -0.15134911216296315 
2.4000000000006403, -0.1517658621801821 
2.4100000000006614, -0.15197081560658873 
2.4200000000006825, -0.15204579932837867 
2.4300000000007036, -0.1520379507953758 
2.4400000000007247, -0.1519792978289829 
2.450000000000746, -0.15189893733754697 
2.460000000000767, -0.15183157715315004 
2.470000000000788, -0.15182353823116496 
2.480000000000809, -0.15193584440746005 
2.49000000000083, -0.15224382532953867 
2.5000000000008513, -0.15283278452397445 
2.5100000000008724, -0.15378777344183114 
2.5200000000008935, -0.15517219175543603 
2.5300000000009146, -0.15699051695240385 
2.5400000000009357, -0.1591454401562849 
2.550000000000957, -0.16142685730799425 
2.560000000000978, -0.1635703858800031 
2.570000000000999, -0.16536140768037313 
2.58000000000102, -0.16670344606686846 
2.5900000000010412, -0.16760833598415575 
2.6000000000010624, -0.1681426967489723 
2.6100000000010835, -0.1683801802676247 
2.6200000000011046, -0.16837723482265482 
2.6300000000011257, -0.1681668355346157 
2.6400000000011468, -0.16776133223066148 
2.650000000001168, -0.16716017477130335 
2.660000000001189, -0.16636218898532465 
2.67000000000121, -0.16538215256062705 
2.680000000001231, -0.1642667882431041 
2.6900000000012523, -0.1630994506416034 
2.7000000000012734, -0.1619851356631264 
2.7100000000012945, -0.1610217809243572 
2.7200000000013156, -0.16027558587769902 
2.7300000000013367, -0.15977202478926783 
2.740000000001358, -0.15949948330718805 
2.750000000001379, -0.15941706878836207 
2.7600000000014, -0.15946328974214902 
2.770000000001421, -0.15956713541269926 
2.780000000001442, -0.15966133297316215 
2.7900000000014633, -0.15969299145998866 
2.8000000000014844, -0.15962657967508537 
2.8100000000015055, -0.159438770081772 
2.8200000000015266, -0.159108457256825 
2.8300000000015477, -0.15860502543082838 
2.840000000001569, -0.1578756358725987 
2.85000000000159, -0.15683119847590926 
2.860000000001611, -0.15533356526860018 
2.870000000001632, -0.15319663978597914 
2.8800000000016532, -0.15023124392265308 
2.8900000000016743, -0.14636424596790598 
2.9000000000016954, -0.14179102565584867 
2.9100000000017165, -0.13699935249735412 
2.9200000000017377, -0.1325584333625921 
2.9300000000017588, -0.12884754917698313 
2.94000000000178, -0.12596721451258103 
2.950000000001801, -0.1238276627975233 
2.960000000001822, -0.1222684170623233 
2.970000000001843, -0.12113010456485074 
2.9800000000018643, -0.12028081031934476 
2.9900000000018854, -0.1196198714686068 
3.0000000000019065, -0.11907396523846672 
3.0100000000019276, -0.11859116318618643 
3.0200000000019487, -0.11813436758726574 
3.03000000000197, -0.11767416879894399 
3.040000000001991, -0.11718018851131702 
3.050000000002012, -0.11660802411829954 
3.060000000002033, -0.11587491944270119 
3.070000000002054, -0.1148101051923173 
3.0800000000020753, -0.11305821100306328 
3.0900000000020964, -0.10993315618074258 
3.1000000000021175, -0.10435727162456612 
3.1100000000021386, -0.09532777678129724 
3.1200000000021597, -0.08316620927436108 
3.130000000002181, -0.07013815355858977 
3.140000000002202, -0.058850662006453204 
3.150000000002223, -0.05044083607047345 
3.160000000002244, -0.04466634423463559 
3.1700000000022652, -0.04081482544702288 
3.1800000000022863, -0.03823800511718743 
3.1900000000023074, -0.03647822100908955 
3.2000000000023285, -0.035240304644175414 
3.2100000000023496, -0.03433991504506531 
3.2200000000023707, -0.03366366461220031 
3.230000000002392, -0.03314337522077743 
3.240000000002413, -0.032740150758426755 
3.250000000002434, -0.0324339451775026 
3.260000000002455, -0.03221425169724262 
3.2700000000024763, -0.032064498051486666 
3.2800000000024974, -0.03192245301642059 
3.2900000000025185, -0.031573947930607756 
3.3000000000025396, -0.03040183278957336 
3.3100000000025607, -0.026980452170348723 
3.3200000000025818, -0.019084088472738358 
3.330000000002603, -0.005545672472891581 
3.340000000002624, 0.010752626256609584 
3.350000000002645, 0.02527837233982938 
3.360000000002666, 0.03575397570221607 
3.3700000000026873, 0.0424543710026727 
3.3800000000027084, 0.046528865583101695 
3.3900000000027295, 0.04896493890645066 
3.4000000000027506, 0.0504084143353143 
3.4100000000027717, 0.0512478239968416 
3.420000000002793, 0.05171294301244944 
3.430000000002814, 0.05194054626208198 
3.440000000002835, 0.05201325833244151 
3.450000000002856, 0.05198286223115336 
3.460000000002877, 0.05188690624606832 
3.4700000000028983, 0.051766725855828435 
3.4800000000029194, 0.05169902166088358 
3.4900000000029405, 0.05186417697210487 
3.5000000000029616, 0.052687243963395636 
3.5100000000029827, 0.05504705189851604 
3.520000000003004, 0.0602790839360263 
3.530000000003025, 0.06925240253438929 
3.540000000003046, 0.08073076083866679 
3.550000000003067, 0.09172890006864569 
3.5600000000030882, 0.10013151123295068 
3.5700000000031094, 0.10570750328352126 
3.5800000000031305, 0.10914674771799818 
3.5900000000031516, 0.11118943888327364 
3.6000000000031727, 0.11236608802729511 
3.6100000000031938, 0.11301385624869405 
3.620000000003215, 0.11334223842201849 
3.630000000003236, 0.11348429237605762 
3.640000000003257, 0.11352898402769744 
3.650000000003278, 0.11354198001891717 
3.6600000000032993, 0.11358176152497616 
3.6700000000033204, 0.11371625052826259 
3.6800000000033415, 0.11404420101400825 
3.6900000000033626, 0.1147232841546512 
3.7000000000033837, 0.11599568010809407 
3.710000000003405, 0.11816999042820664 
3.720000000003426, 0.12147909876087662 
3.730000000003447, 0.1258028182146768 
3.740000000003468, 0.1305205957642869 
3.750000000003489, 0.13481435469546083 
3.7600000000035103, 0.1381569134220792 
3.7700000000035314, 0.14045785121870083 
3.7800000000035525, 0.14188282268187435 
3.7900000000035736, 0.1426561283579936 
3.8000000000035947, 0.14297140180770168 
3.810000000003616, 0.14297727207126426 
3.820000000003637, 0.1427882052414321 
3.830000000003658, 0.14249568656297934 
3.840000000003679, 0.14217369421406348 
3.8500000000037002, 0.14188097755245038 
3.8600000000037213, 0.14166409633767515 
3.8700000000037424, 0.14156276823482072 
3.8800000000037635, 0.14161615717951126 
3.8900000000037847, 0.14186683719223311 
3.9000000000038058, 0.1423578168428022 
3.910000000003827, 0.14311760683354363 
3.920000000003848, 0.1441329171816109 
3.930000000003869, 0.14532249815488524 
3.94000000000389, 0.14653907828751175 
3.9500000000039113, 0.14761247884967338 
3.9600000000039324, 0.14840636617642014 
3.9700000000039535, 0.1488461150710382 
3.9800000000039746, 0.14890857721529802 
3.9900000000039957, 0.14859814136642382 
4.000000000004016, 0.14793385839300704 
4.010000000003993, 0.1469552318890238 
4.02000000000397, 0.14573764376579357 
4.030000000003946, 0.1443974755977562 
4.040000000003923, 0.14307103604231478 
4.0500000000039, 0.14187541844767604 
4.0600000000038765, 0.14087945780885117 
4.070000000003853, 0.14010214640672258 
4.08000000000383, 0.13953022408912014 
4.090000000003807, 0.13913730990124745 
4.100000000003783, 0.1388946945644315 
4.11000000000376, 0.1387730516641267 
4.120000000003737, 0.13873826795018449 
4.130000000003713, 0.1387454188447643 
4.14000000000369, 0.13873470552791017 
4.150000000003667, 0.13863140783620204 
4.1600000000036434, 0.138348131193403 
4.17000000000362, 0.13778450333006168 
4.180000000003597, 0.13682128317111134 
4.1900000000035735, 0.1353142519975558 
4.20000000000355, 0.133107150709234 
4.210000000003527, 0.13009593204974906 
4.220000000003504, 0.1263582336497638 
4.23000000000348, 0.12226384639372186 
4.240000000003457, 0.11838454665998521 
4.250000000003434, 0.1151909619642189 
4.26000000000341, 0.11283436624439525 
4.270000000003387, 0.11120104104803583 
4.280000000003364, 0.11008542634525971 
4.2900000000033405, 0.10930362228345089 
4.300000000003317, 0.10872402190079353 
4.310000000003294, 0.10825802660658532 
4.320000000003271, 0.10784183828377596 
4.330000000003247, 0.10742000531865423 
4.340000000003224, 0.10693179754920343 
4.350000000003201, 0.10629849365531963 
4.360000000003177, 0.10540838427719967 
4.370000000003154, 0.10409496736778419 
4.380000000003131, 0.10210396796598784 
4.390000000003107, 0.09905365640996 
4.400000000003084, 0.09442977052266754 
4.410000000003061, 0.08774563667740745 
4.4200000000030375, 0.07905187782874326 
4.430000000003014, 0.06956297113352636 
4.440000000002991, 0.06130169489777211 
4.450000000002968, 0.05555649034332562 
4.460000000002944, 0.05217375668047404 
4.470000000002921, 0.0503260570627316 
4.480000000002898, 0.049290681130686353 
4.490000000002874, 0.04863813383920866 
4.500000000002851, 0.04814934292688815 
4.510000000002828, 0.04771506896074734 
4.520000000002804, 0.04727388940075883 
4.530000000002781, 0.04677898688873537 
4.540000000002758, 0.046178671091959854 
4.5500000000027345, 0.04540078136560526 
4.560000000002711, 0.044334372342031914 
4.570000000002688, 0.0428024473697539 
4.580000000002665, 0.040518701178120155 
4.590000000002641, 0.037025454432685304 
4.600000000002618, 0.03164055296305994 
4.610000000002595, 0.023548560391604953 
4.620000000002571, 0.01235679173658321 
4.630000000002548, -0.0007671829640982975 
4.640000000002525, -0.01249527037780195 
4.6500000000025015, -0.020678369847993046 
4.660000000002478, -0.02512466523328994 
4.670000000002455, -0.02711848759752805 
4.6800000000024315, -0.02788047213527543 
4.690000000002408, -0.02811213096255929 
4.700000000002385, -0.028140220635272255 
4.710000000002362, -0.028105495063328843 
4.720000000002338, -0.028070840014470227 
4.730000000002315, -0.028071783919417774 
4.740000000002292, -0.02813994286595045 
4.750000000002268, -0.028316279953916158 
4.760000000002245, -0.028662267638690973 
4.770000000002222, -0.02927338802478724 
4.7800000000021985, -0.030298477577876886 
4.790000000002175, -0.031967897124605835 
4.800000000002152, -0.03462856535962584 
4.810000000002129, -0.038761933766079275 
4.820000000002105, -0.0449008330614442 
4.830000000002082, -0.0532849510684281 
4.840000000002059, -0.06324600365351696 
4.850000000002035, -0.0730045448484603 
4.860000000002012, -0.08071529733074939 
