t, s[1].omega / s[0].omega 
0, -0.49998301494643255 
0.009999999999999995, -0.49836600693734345 
0.019999999999999934, -0.49693116898761047 
0.029999999999999874, -0.49568177351202547 
0.04000000000000012, -0.49459809974779134 
0.050000000000000405, -0.49365333049606275 
0.06000000000000069, -0.49282447641136073 
0.07000000000000098, -0.49209817219158075 
0.08000000000000126, -0.49147320393829946 
0.09000000000000155, -0.49096196827015204 
0.10000000000000184, -0.490592591819735 
0.11000000000000212, -0.4904128573582744 
0.12000000000000241, -0.4904967655240141 
0.130000000000002, -0.490954530180492 
0.1400000000000009, -0.49194680951777314 
0.1499999999999998, -0.49370341195315826 
0.1599999999999987, -0.4965441778803057 
0.1699999999999976, -0.5008921402647901 
0.1799999999999965, -0.5072513180887843 
0.1899999999999954, -0.516092076613117 
0.1999999999999943, -0.5275736318216884 
0.2099999999999932, -0.5411352992261312 
0.2199999999999921, -0.5552897093218521 
0.229999999999991, -0.5681058843253776 
0.2399999999999899, -0.5782099443863272 
0.2499999999999888, -0.5853310994714676 
0.2599999999999877, -0.5899870959234657 
0.2699999999999866, -0.5929027536806417 
0.2799999999999855, -0.5946793154163416 
0.2899999999999844, -0.5957246745572939 
0.2999999999999833, -0.5962901721406741 
0.3099999999999822, -0.5965209333625416 
0.3199999999999811, -0.5964921063831375 
0.32999999999998, -0.5962295203292991 
0.3399999999999789, -0.5957190726056047 
0.3499999999999778, -0.5949096219077898 
0.35999999999997667, -0.5937153320212724 
0.36999999999997557, -0.5920268505898874 
0.37999999999997447, -0.589743492693153 
0.38999999999997337, -0.5868305588565945 
0.39999999999997227, -0.5833778226610848 
0.40999999999997117, -0.5796081889428883 
0.41999999999997006, -0.5758102643756141 
0.42999999999996896, -0.5722385508332579 
0.43999999999996786, -0.5690511236215777 
0.44999999999996676, -0.5663075297719715 
0.45999999999996566, -0.564001020198529 
0.46999999999996456, -0.5620938289672163 
0.47999999999996346, -0.5605412501029233 
0.48999999999996235, -0.5593037783429865 
0.49999999999996125, -0.5583513037322979 
0.5099999999999602, -0.5576632841401135 
0.519999999999959, -0.5572274786790397 
0.529999999999958, -0.5570386437292236 
0.5399999999999568, -0.5570978506262024 
0.5499999999999557, -0.5574126645949724 
0.5599999999999546, -0.5579981475247633 
0.5699999999999535, -0.5588783454972565 
0.5799999999999524, -0.5600874217326737 
0.5899999999999513, -0.5616687120271733 
0.5999999999999502, -0.5636686509443062 
0.6099999999999491, -0.5661212508195619 
0.619999999999948, -0.5690196182489267 
0.6299999999999469, -0.5722780953644954 
0.6399999999999458, -0.5757050371368839 
0.6499999999999447, -0.5790210142683413 
0.6599999999999436, -0.5819392548676194 
0.6699999999999425, -0.5842668198570747 
0.6799999999999414, -0.5859528647567338 
0.6899999999999403, -0.5870595517981663 
0.6999999999999392, -0.5876975715985965 
0.7099999999999381, -0.5879740361412419 
0.719999999999937, -0.5879670935184843 
0.7299999999999359, -0.5877185322702105 
0.7399999999999348, -0.587232167889266 
0.7499999999999337, -0.5864696681616869 
0.7599999999999326, -0.5853384676296878 
0.7699999999999315, -0.5836673597565601 
0.7799999999999304, -0.5811672239958258 
0.7899999999999293, -0.5773857104118982 
0.7999999999999282, -0.5717025208016284 
0.8099999999999271, -0.5634801946920279 
0.819999999999926, -0.552483540550172 
0.8299999999999249, -0.5393828656060241 
0.8399999999999238, -0.5257412052170455 
0.8499999999999227, -0.513252627591974 
0.8599999999999216, -0.5029525321011096 
0.8699999999999205, -0.4950642378533745 
0.8799999999999194, -0.48930744468237186 
0.8899999999999183, -0.48523354431531074 
0.8999999999999172, -0.48241274137129925 
0.9099999999999161, -0.4804987878763649 
0.919999999999915, -0.4792338847341747 
0.9299999999999139, -0.47843354819338924 
0.9399999999999128, -0.4779688066029341 
0.9499999999999117, -0.4777513692354301 
0.9599999999999106, -0.4777227474614669 
0.9699999999999095, -0.47784687378493507 
0.9799999999999084, -0.47810550639202976 
0.9899999999999073, -0.47849570922119045 
0.9999999999999062, -0.47902854918519455 
1.0099999999999052, -0.4797276827671423 
1.019999999999904, -0.4806257829522866 
1.029999999999903, -0.48175619105273626 
1.039999999999902, -0.4831376186446897 
1.0499999999999008, -0.4847526519225669 
1.0599999999998997, -0.48652774107393126 
1.0699999999998986, -0.4883307371310258 
1.0799999999998975, -0.4900000170022295 
1.0899999999998964, -0.49139654909598696 
1.0999999999998953, -0.49244539439813534 
1.1099999999998942, -0.49314047879828504 
1.119999999999893, -0.4935191966669209 
1.129999999999892, -0.4936309450272164 
1.1399999999998909, -0.4935150122165955 
1.1499999999998898, -0.49318880616372374 
1.1599999999998887, -0.4926407156339706 
1.1699999999998876, -0.49182139473728864 
1.1799999999998865, -0.4906282446379155 
1.1899999999998854, -0.4888790328057245 
1.1999999999998843, -0.48627550151958826 
1.2099999999998832, -0.4823770571881331 
1.219999999999882, -0.476651144435367 
1.229999999999881, -0.4687099788946578 
1.2399999999998799, -0.45872885131007574 
1.2499999999998788, -0.44768272062341613 
1.2599999999998777, -0.4369695818942964 
1.2699999999998766, -0.4276902359629625 
1.2799999999998755, -0.4202846132310564 
1.2899999999998744, -0.414668887066538 
1.2999999999998733, -0.41052777948417746 
1.3099999999998722, -0.4075163037943586 
1.319999999999871, -0.4053443058753478 
1.32999999999987, -0.40379383269620817 
1.3399999999998689, -0.40271069375475044 
1.3499999999998678, -0.4019904352823052 
1.3599999999998666, -0.4015660811125377 
1.3699999999998655, -0.4013994577126261 
1.3799999999998644, -0.40147605977731865 
1.3899999999998633, -0.4018030082006546 
1.3999999999998622, -0.4024096784130854 
1.4099999999998611, -0.40335054074186855 
1.41999999999986, -0.40470926736795193 
1.429999999999859, -0.40660167082946314 
1.4399999999998578, -0.4091717056227978 
1.4499999999998567, -0.4125690126245532 
1.4599999999998556, -0.4168911334306653 
1.4699999999998545, -0.42208221954529723 
1.4799999999998534, -0.4278273359138153 
1.4899999999998523, -0.43355452396632616 
1.4999999999998512, -0.4386329388219131 
1.5099999999998501, -0.44265195587928396 
1.519999999999849, -0.445539036589929 
1.529999999999848, -0.4474599259903795 
1.5399999999998468, -0.4486546625326798 
1.5499999999998457, -0.4493341949529078 
1.5599999999998446, -0.4496477772528052 
1.5699999999998435, -0.4496858167283538 
1.5799999999998424, -0.4494912903600313 
1.5899999999998413, -0.44906890041674297 
1.5999999999998402, -0.4483903979038211 
1.6099999999998391, -0.4473991952070536 
1.619999999999838, -0.4460210556591505 
1.629999999999837, -0.44418985469088323 
1.6399999999998358, -0.4418915385101848 
1.6499999999998347, -0.43920847917352085 
1.6599999999998336, -0.4363249558664851 
1.6699999999998325, -0.4334718744628308 
1.6799999999998314, -0.4308447814863999 
1.6899999999998303, -0.42855335832362024 
1.6999999999998292, -0.42662243109616965 
1.709999999999828, -0.42502220859150075 
1.719999999999827, -0.4237004341977844 
1.729999999999826, -0.42260427751595114 
1.7399999999998248, -0.42169161635812263 
1.7499999999998237, -0.42093538977062706 
1.7599999999998226, -0.4203247500694041 
1.7699999999998215, -0.4198657418478617 
1.7799999999998204, -0.419583306663511 
1.7899999999998193, -0.41952589539279206 
1.7999999999998182, -0.4197739221234803 
1.809999999999817, -0.42045359698299933 
1.819999999999816, -0.4217579841287556 
1.8299999999998149, -0.4239764696165557 
1.8399999999998138, -0.427529438252662 
1.8499999999998127, -0.4329901109435573 
1.8599999999998116, -0.44103871730043454 
1.8699999999998105, -0.4522361497224859 
1.8799999999998094, -0.46651100031254167 
1.8899999999998083, -0.48256672119748545 
1.8999999999998072, -0.49799676252074054 
1.909999999999806, -0.5105702265167424 
1.919999999999805, -0.5194844906792302 
1.9299999999998039, -0.5252573203858916 
1.9399999999998028, -0.5288435752663825 
1.9499999999998017, -0.5310490201877053 
1.9599999999998006, -0.5324024593411347 
1.9699999999997995, -0.533218155709551 
1.9799999999997984, -0.533676407516602 
1.9899999999997973, -0.5338779914045848 
1.9999999999997962, -0.5338747913876448 
2.0099999999998173, -0.5336858331408652 
2.0199999999998384, -0.5333058048126071 
2.0299999999998595, -0.5327112714039968 
2.0399999999998806, -0.5318693253665064 
2.0499999999999017, -0.5307527409619994 
2.059999999999923, -0.5293616156212789 
2.069999999999944, -0.5277425351306023 
2.079999999999965, -0.5259895825618025 
2.089999999999986, -0.524219918195553 
2.100000000000007, -0.5225374526482343 
2.1100000000000283, -0.5210075903204089 
2.1200000000000494, -0.519653609034659 
2.1300000000000705, -0.5184685673603978 
2.1400000000000916, -0.5174314751547724 
2.1500000000001127, -0.516520401002074 
2.160000000000134, -0.5157204124033954 
2.170000000000155, -0.515027378774146 
2.180000000000176, -0.5144497034406581 
2.190000000000197, -0.514009828966602 
2.2000000000002182, -0.5137467191131112 
2.2100000000002393, -0.5137200070233331 
2.2200000000002604, -0.5140162698047166 
2.2300000000002815, -0.514757808300016 
2.2400000000003026, -0.5161140178649632 
2.2500000000003237, -0.5183142018763514 
2.260000000000345, -0.5216570106208909 
2.270000000000366, -0.5265029996573526 
2.280000000000387, -0.5332209577799618 
2.290000000000408, -0.5420430965612362 
2.3000000000004293, -0.5528084349851655 
2.3100000000004504, -0.5647093491676276 
2.3200000000004715, -0.5763540879551697 
2.3300000000004926, -0.5863380856809866 
2.3400000000005137, -0.5939143280380079 
2.3500000000005348, -0.5991387734139384 
2.360000000000556, -0.6025138272747215 
2.370000000000577, -0.6046002631805416 
2.380000000000598, -0.6058362330242291 
2.390000000000619, -0.60651306631575 
2.4000000000006403, -0.6068067997128992 
2.4100000000006614, -0.6068128913055532 
2.4200000000006825, -0.6065693377402417 
2.4300000000007036, -0.6060677142279844 
2.4400000000007247, -0.6052550705017413 
2.450000000000746, -0.6040311289566904 
2.460000000000767, -0.6022493126852078 
2.470000000000788, -0.5997377455127674 
2.480000000000809, -0.5963598427896047 
2.49000000000083, -0.5921122211825194 
2.5000000000008513, -0.5872018865008211 
2.5100000000008724, -0.5820167894687595 
2.5200000000008935, -0.576984650344379 
2.5300000000009146, -0.5724271479728908 
2.5400000000009357, -0.5685043408475675 
2.550000000000957, -0.5652438741399612 
2.560000000000978, -0.5625986122074838 
2.570000000000999, -0.5604935082783052 
2.58000000000102, -0.5588521703549457 
2.5900000000010412, -0.5576079519581979 
2.6000000000010624, -0.556706561667736 
2.6100000000010835, -0.5561051554326899 
2.6200000000011046, -0.5557706188021192 
2.6300000000011257, -0.5556782482005252 
2.6400000000011468, -0.5558112247315912 
2.650000000001168, -0.5561608729738101 
2.660000000001189, -0.5567274760275337 
2.67000000000121, -0.5575211748866202 
2.680000000001231, -0.5585620269175046 
2.6900000000012523, -0.5598775257651747 
2.7000000000012734, -0.5614949765855093 
2.7100000000012945, -0.5634259377422817 
2.7200000000013156, -0.5656424469966244 
2.7300000000013367, -0.5680523986897568 
2.740000000001358, -0.57049259667128 
2.750000000001379, -0.5727595005910786 
2.7600000000014, -0.5746731011445736 
2.770000000001421, -0.5761341396019362 
2.780000000001442, -0.5771358564341034 
2.7900000000014633, -0.5777329457490339 
2.8000000000014844, -0.5779994608907968 
2.8100000000015055, -0.5779991571271521 
2.8200000000015266, -0.5777714408310397 
2.8300000000015477, -0.5773258775787219 
2.840000000001569, -0.5766376088287204 
2.85000000000159, -0.5756378356577275 
2.860000000001611, -0.574194054607025 
2.870000000001632, -0.5720740651734506 
2.8800000000016532, -0.5688902109434514 
2.8900000000016743, -0.564040170471023 
2.9000000000016954, -0.5567260271346368 
2.9100000000017165, -0.5462349143079857 
2.9200000000017377, -0.5325854456014357 
2.9300000000017588, -0.5170750303375088 
2.94000000000178, -0.5018687455449319 
2.950000000001801, -0.4888022909103974 
2.960000000001822, -0.4786417426323421 
2.970000000001843, -0.47125060840685074 
2.9800000000018643, -0.46609150986326514 
2.9900000000018854, -0.4625821437957692 
3.0000000000019065, -0.46024039227397073 
3.0100000000019276, -0.4587094800822646 
3.0200000000019487, -0.4577391712998359 
3.03000000000197, -0.4571588169140296 
3.040000000001991, -0.4568542849284726 
3.050000000002012, -0.45675107516910235 
3.060000000002033, -0.456802905514491 
3.070000000002054, -0.45698452189688393 
3.0800000000020753, -0.4572876177235628 
3.0900000000020964, -0.4577188401241695 
3.1000000000021175, -0.4582986331277614 
3.1100000000021386, -0.4590590902328615 
3.1200000000021597, -0.4600383101266964 
3.130000000002181, -0.46126856120376897 
3.140000000002202, -0.4627569734812691 
3.150000000002223, -0.46446231989362224 
3.160000000002244, -0.4662803095662869 
3.1700000000022652, -0.4680556243033219 
3.1800000000022863, -0.4696265835402967 
3.1900000000023074, -0.47087868910760033 
3.2000000000023285, -0.4717705654841208 
3.2100000000023496, -0.4723210654863913 
3.2200000000023707, -0.47257720470315334 
3.230000000002392, -0.47258573893279177 
3.240000000002413, -0.47237629924576713 
3.250000000002434, -0.4719525595715462 
3.260000000002455, -0.47128497354546023 
3.2700000000024763, -0.4702995513398115 
3.2800000000024974, -0.46885878908186546 
3.2900000000025185, -0.46673466222243903 
3.3000000000025396, -0.46358644109972974 
3.3100000000025607, -0.45898767754691494 
3.3200000000025818, -0.45258284973215346 
3.330000000002603, -0.44439879730956944 
3.340000000002624, -0.4350913730081011 
3.350000000002645, -0.42576362586200467 
3.360000000002666, -0.41741655803320155 
3.3700000000026873, -0.4105589818789327 
3.3800000000027084, -0.40522774757262753 
3.3900000000027295, -0.4012084491878195 
3.4000000000027506, -0.3982224800141751 
3.4100000000027717, -0.3960196122728735 
3.420000000002793, -0.39440565716134207 
3.430000000002814, -0.39324119124185153 
3.440000000002835, -0.3924317510839286 
3.450000000002856, -0.3919179723941264 
3.460000000002877, -0.39166836752714046 
3.4700000000028983, -0.39167524624278516 
3.4800000000029194, -0.39195368688010135 
3.4900000000029405, -0.392543436847163 
3.5000000000029616, -0.39351364504250474 
3.5100000000029827, -0.3949699745593826 
3.520000000003004, -0.3970622129639174 
3.530000000003025, -0.3999866599147239 
3.540000000003046, -0.4039694683189893 
3.550000000003067, -0.4092053524938283 
3.5600000000030882, -0.4157248606572737 
3.5700000000031094, -0.42321418224505436 
3.5800000000031305, -0.4309375343748504 
3.5900000000031516, -0.4379604914631419 
3.6000000000031727, -0.4435946015998328 
3.6100000000031938, -0.4476596678508815 
3.620000000003215, -0.450371820155436 
3.630000000003236, -0.4520824859112487 
3.640000000003257, -0.4531052457169018 
3.650000000003278, -0.453662832019854 
3.6600000000032993, -0.4538944312236007 
3.6700000000033204, -0.4538769203609191 
3.6800000000033415, -0.45364231660101684 
3.6900000000033626, -0.45318873230254597 
3.7000000000033837, -0.45248758353637986 
3.710000000003405, -0.451492198774201 
3.720000000003426, -0.45015435028120593 
3.730000000003447, -0.4484527902252761 
3.740000000003468, -0.4464266557390088 
3.750000000003489, -0.4441906740156315 
3.7600000000035103, -0.4419104044577732 
3.7700000000035314, -0.43974703521519604 
3.7800000000035525, -0.4378095980135349 
3.7900000000035736, -0.4361410354464432 
3.8000000000035947, -0.43473297309417236 
3.810000000003616, -0.43354995857998835 
3.820000000003637, -0.43254979225788864 
3.830000000003658, -0.43169605413706663 
3.840000000003679, -0.4309640823893999 
3.8500000000037002, -0.4303431624498958 
3.8600000000037213, -0.429837568753863 
3.8700000000037424, -0.42946848774123125 
3.8800000000037635, -0.42927832529213655 
3.8900000000037847, -0.42933876382971325 
3.9000000000038058, -0.42976422244817414 
3.910000000003827, -0.4307328573583774 
3.920000000003848, -0.4325171558838348 
3.930000000003869, -0.43552323325178016 
3.94000000000389, -0.44032602886737127 
3.9500000000039113, -0.4476543322760927 
3.9600000000039324, -0.4582158683068604 
3.9700000000039535, -0.47221577822710703 
3.9800000000039746, -0.48865251086911404 
3.9900000000039957, -0.505135212242217 
4.000000000004016, -0.5190410980142984 
4.010000000003993, -0.5291121053226636 
4.02000000000397, -0.5356915066531156 
4.030000000003946, -0.5397915383479513 
4.040000000003923, -0.542326429397859 
4.0500000000039, -0.5439033063346697 
4.0600000000038765, -0.5448811889781415 
4.070000000003853, -0.5454655713608989 
4.08000000000383, -0.5457730936412758 
4.090000000003807, -0.5458674237255927 
4.100000000003783, -0.5457777357812197 
4.11000000000376, -0.5455081138986334 
4.120000000003737, -0.5450432345130296 
4.130000000003713, -0.5443546553463001 
4.14000000000369, -0.5434118482278435 
4.150000000003667, -0.542200180486851 
4.1600000000036434, -0.5407416243721974 
4.17000000000362, -0.5391053826375994 
4.180000000003597, -0.5373958684760523 
4.1900000000035735, -0.5357213417206602 
4.20000000000355, -0.5341630153045218 
4.210000000003527, -0.5327618187878426 
4.220000000003504, -0.5315238300288232 
4.23000000000348, -0.5304347695060264 
4.240000000003457, -0.5294743516092854 
4.250000000003434, -0.528626218716776 
4.26000000000341, -0.527883248134318 
4.270000000003387, -0.5272499296273183 
4.280000000003364, -0.5267437626934985 
4.2900000000033405, -0.5263970802318171 
4.300000000003317, -0.5262600837387373 
4.310000000003294, -0.5264055056832281 
4.320000000003271, -0.5269351741727036 
4.330000000003247, -0.5279885933910468 
4.340000000003224, -0.529752982012835 
4.350000000003201, -0.5324720778143344 
4.360000000003177, -0.5364456929100114 
4.370000000003154, -0.5420013984802947 
4.380000000003131, -0.5494054837150182 
4.390000000003107, -0.5586812801078607 
4.400000000003084, -0.5693698339244117 
4.410000000003061, -0.5804281154973617 
4.4200000000030375, -0.5905270136496984 
4.430000000003014, -0.5986629829103409 
4.440000000002991, -0.604547692903312 
4.450000000002968, -0.6084760887843285 
4.460000000002944, -0.6109569581918326 
4.470000000002921, -0.61245357827139 
4.480000000002898, -0.6132992624400891 
4.490000000002874, -0.6137056525436999 
4.500000000002851, -0.613793924142165 
4.510000000002828, -0.6136205248186113 
4.520000000002804, -0.6131913724629381 
4.530000000002781, -0.6124655192572415 
4.540000000002758, -0.6113512140152018 
4.5500000000027345, -0.6097003019604075 
4.560000000002711, -0.6073145685049997 
4.570000000002688, -0.603988172873499 
4.580000000002665, -0.5996061678597014 
4.590000000002641, -0.5942700017696955 
4.600000000002618, -0.5883467683034581 
4.610000000002595, -0.582358690316732 
4.620000000002571, -0.5767815874066877 
4.630000000002548, -0.5719084005031332 
4.640000000002525, -0.5678397932761292 
4.6500000000025015, -0.5645480358552052 
4.660000000002478, -0.561945897721886 
4.670000000002455, -0.5599316663870775 
4.6800000000024315, -0.55841075451934 
4.690000000002408, -0.5573029102773395 
4.700000000002385, -0.5565427099347855 
4.710000000002362, -0.5560778238730248 
4.720000000002338, -0.5558671591876337 
4.730000000002315, -0.5558796380941063 
4.740000000002292, -0.5560937359091319 
4.750000000002268, -0.5564976381199516 
4.760000000002245, -0.5570897186110682 
4.770000000002222, -0.5578787691195896 
4.7800000000021985, -0.5588828654810116 
4.790000000002175, -0.5601249805552233 
4.800000000002152, -0.5616229338428295 
4.810000000002129, -0.5633722039186493 
4.820000000002105, -0.5653243637063484 
4.830000000002082, -0.5673720690308028 
4.840000000002059, -0.5693578982327767 
4.850000000002035, -0.5711152907086343 
4.860000000002012, -0.5725224682280611 
4.870000000001989, -0.5735331149785774 
4.880000000001965, -0.5741673134968147 
4.890000000001942, -0.5744791424966272 
