t, s[1].omega / s[0].omega 
0, -0.6299977171613814 
0.009999999999999995, -0.629768556520952 
0.019999999999999934, -0.62953256880504 
0.029999999999999874, -0.6292770806721479 
0.04000000000000012, -0.6289878440807433 
0.050000000000000405, -0.6286550175357868 
0.06000000000000069, -0.6282764820119394 
0.07000000000000098, -0.6278583551653749 
0.08000000000000126, -0.6274144661699358 
0.09000000000000155, -0.6269667902826789 
0.10000000000000184, -0.6265480840797071 
0.11000000000000212, -0.6262071918931816 
0.12000000000000241, -0.626017022213817 
0.130000000000002, -0.6260847731155661 
0.1400000000000009, -0.6265631924881638 
0.1499999999999998, -0.6276599816057967 
0.1599999999999987, -0.6296391765240599 
0.1699999999999976, -0.6328027243435927 
0.1799999999999965, -0.6374334590839756 
0.1899999999999954, -0.6436802629860257 
0.1999999999999943, -0.6513941074916967 
0.2099999999999932, -0.6600006937158786 
0.2199999999999921, -0.668569713459529 
0.229999999999991, -0.6761492035698663 
0.2399999999999899, -0.6821541594144517 
0.2499999999999888, -0.6864976610945775 
0.2599999999999877, -0.689431267574081 
0.2699999999999866, -0.6913120309103173 
0.2799999999999855, -0.6924577387431892 
0.2899999999999844, -0.6931010212245843 
0.2999999999999833, -0.6933940256677064 
0.3099999999999822, -0.6934264323800596 
0.3199999999999811, -0.6932408413234851 
0.32999999999998, -0.6928412370411677 
0.3399999999999789, -0.6921942833902974 
0.3499999999999778, -0.6912243354845937 
0.35999999999997667, -0.689804615238303 
0.36999999999997557, -0.6877517251216995 
0.37999999999997447, -0.6848402138398068 
0.38999999999997337, -0.6808626107692392 
0.39999999999997227, -0.67574568080927 
0.40999999999997117, -0.6696727890032259 
0.41999999999997006, -0.6631015333697579 
0.42999999999996896, -0.656620337545263 
0.43999999999996786, -0.6507394660732444 
0.44999999999996676, -0.6457628582890048 
0.45999999999996566, -0.6417839565335514 
0.46999999999996456, -0.6387503302442032 
0.47999999999996346, -0.6365346620934899 
0.48999999999996235, -0.6349849946716453 
0.49999999999996125, -0.6339530983689368 
0.5099999999999602, -0.6333079715616393 
0.519999999999959, -0.6329408231162295 
0.529999999999958, -0.6327654449595453 
0.5399999999999568, -0.6327161403906242 
0.5499999999999557, -0.6327445230061965 
0.5599999999999546, -0.6328161365942107 
0.5699999999999535, -0.6329076112188734 
0.5799999999999524, -0.6330047473789742 
0.5899999999999513, -0.633101383924163 
0.5999999999999502, -0.6331982020683783 
0.6099999999999491, -0.6333001668322914 
0.619999999999948, -0.6334118196158338 
0.6299999999999469, -0.6335313549647833 
0.6399999999999458, -0.6336463209592529 
0.6499999999999447, -0.6337340422744979 
0.6599999999999436, -0.6337674990275233 
0.6699999999999425, -0.6337237360069652 
0.6799999999999414, -0.6335901143369996 
0.6899999999999403, -0.6333657110607421 
0.6999999999999392, -0.6330589109323436 
0.7099999999999381, -0.6326842920905318 
0.719999999999937, -0.632261467136724 
0.7299999999999359, -0.6318172320769484 
0.7399999999999348, -0.6313916169382103 
0.7499999999999337, -0.6310483624250833 
0.7599999999999326, -0.6308903593061808 
0.7699999999999315, -0.6310798121797051 
0.7799999999999304, -0.6318601080832444 
0.7899999999999293, -0.6335697465202985 
0.7999999999999282, -0.6366263945542616 
0.8099999999999271, -0.6414438174954629 
0.819999999999926, -0.6482458622849662 
0.8299999999999249, -0.6568073090499041 
0.8399999999999238, -0.6663024472484227 
0.8499999999999227, -0.6755149733231004 
0.8599999999999216, -0.6833788523821132 
0.8699999999999205, -0.6894052895017658 
0.8799999999999194, -0.6936703730100957 
0.8899999999999183, -0.6965315491913844 
0.8999999999999172, -0.6983795105417394 
0.9099999999999161, -0.6995283410853415 
0.919999999999915, -0.7001980704171141 
0.9299999999999139, -0.700530908879544 
0.9399999999999128, -0.7006114406562398 
0.9499999999999117, -0.7004813558192783 
0.9599999999999106, -0.7001473265858691 
0.9699999999999095, -0.6995828183709456 
0.9799999999999084, -0.6987253545230443 
0.9899999999999073, -0.6974724117820371 
0.9999999999999062, -0.6956832607107142 
1.0099999999999052, -0.6932001326626198 
1.019999999999904, -0.689902743203288 
1.029999999999903, -0.6857901968661863 
1.039999999999902, -0.6810428974639235 
1.0499999999999008, -0.6760014229115986 
1.0599999999998997, -0.6710584139080138 
1.0699999999998986, -0.666537903365841 
1.0799999999998975, -0.6626343731309666 
1.0899999999998964, -0.6594185125445088 
1.0999999999998953, -0.6568746785790462 
1.1099999999998942, -0.6549389851682044 
1.119999999999893, -0.6535260997956216 
1.129999999999892, -0.6525451293369456 
1.1399999999998909, -0.6519084618581943 
1.1499999999998898, -0.6515367144041438 
1.1599999999998887, -0.6513614320983343 
1.1699999999998876, -0.6513262060227133 
1.1799999999998865, -0.6513865647908859 
1.1899999999998854, -0.651509054752822 
1.1999999999998843, -0.6516700160940099 
1.2099999999998832, -0.651854444638543 
1.219999999999882, -0.6520549005974071 
1.229999999999881, -0.6522698134247 
1.2399999999998799, -0.6525002195806432 
1.2499999999998788, -0.6527446214398639 
1.2599999999998777, -0.6529933784149464 
1.2699999999998766, -0.6532257095396262 
1.2799999999998755, -0.6534121325254963 
1.2899999999998744, -0.6535221605770194 
1.2999999999998733, -0.6535332401070455 
1.3099999999998722, -0.6534359376339232 
1.319999999999871, -0.653233517468078 
1.32999999999987, -0.6529380978582431 
1.3399999999998689, -0.6525670149651417 
1.3499999999998678, -0.6521419345144921 
1.3599999999998666, -0.6516917751392469 
1.3699999999998655, -0.6512598931637571 
1.3799999999998644, -0.6509160378579433 
1.3899999999998633, -0.650773516026362 
1.3999999999998622, -0.6510108172971344 
1.4099999999998611, -0.6518933326750946 
1.41999999999986, -0.6537829990609164 
1.429999999999859, -0.657110722536898 
1.4399999999998578, -0.6622735613276876 
1.4499999999998567, -0.6694300871319405 
1.4599999999998556, -0.6782489327283379 
1.4699999999998545, -0.6878126735439621 
1.4799999999998534, -0.6968967957085048 
1.4899999999998523, -0.7045138482247302 
1.4999999999998512, -0.7102711499289568 
1.5099999999998501, -0.7143015196984839 
1.519999999999849, -0.7169773259839032 
1.529999999999848, -0.7186835929155356 
1.5399999999998468, -0.7197235428370459 
1.5499999999998457, -0.7203069164409333 
1.5599999999998446, -0.720567177937207 
1.5699999999998435, -0.720581130206117 
1.5799999999998424, -0.720382597453414 
1.5899999999998413, -0.7199689081865599 
1.5999999999998402, -0.7193008011402473 
1.6099999999998391, -0.7182971026950282 
1.619999999999838, -0.7168275928037458 
1.629999999999837, -0.714712942713152 
1.6399999999998358, -0.7117492693940483 
1.6499999999998347, -0.7077774460116072 
1.6599999999998336, -0.7027921195780836 
1.6699999999998325, -0.6970277042202782 
1.6799999999998314, -0.690932444177036 
1.6899999999998303, -0.6850214760247483 
1.6999999999998292, -0.679711669377027 
1.709999999999828, -0.6752396179121407 
1.719999999999827, -0.6716720479287871 
1.729999999999826, -0.6689594777517567 
1.7399999999998248, -0.6669903940564278 
1.7499999999998237, -0.665629875141901 
1.7599999999998226, -0.664742970589914 
1.7699999999998215, -0.6642075114581 
1.7799999999998204, -0.6639201959412234 
1.7899999999998193, -0.6637982822189613 
1.7999999999998182, -0.6637783979964145 
1.809999999999817, -0.6638137271465043 
1.819999999999816, -0.6638707418103292 
1.8299999999998149, -0.6639264472748257 
1.8399999999998138, -0.6639666779051099 
1.8499999999998127, -0.6639852743715446 
1.8599999999998116, -0.663983128878311 
1.8699999999998105, -0.6639656850078473 
1.8799999999998094, -0.6639382924537109 
1.8899999999998083, -0.6639007823416774 
1.8999999999998072, -0.6638442307141206 
1.909999999999806, -0.6637523224395465 
1.919999999999805, -0.6636069409755025 
1.9299999999998039, -0.6633947719771146 
1.9399999999998028, -0.6631114099927587 
1.9499999999998017, -0.6627618950615076 
1.9599999999998006, -0.6623593145940085 
1.9699999999997995, -0.6619239711016253 
1.9799999999997984, -0.6614848613659217 
1.9899999999997973, -0.6610841520309841 
1.9999999999997962, -0.6607846438177165 
2.0099999999998173, -0.6606797149310698 
2.0199999999998384, -0.660904464096319 
2.0299999999998595, -0.6616453398978948 
2.0399999999998806, -0.6631431064586322 
2.0499999999999017, -0.665680223338911 
2.059999999999923, -0.6695389488294069 
2.069999999999944, -0.6749145634486803 
2.079999999999965, -0.681781643484998 
2.089999999999986, -0.6897592750161541 
2.100000000000007, -0.6980919498089834 
2.1100000000000283, -0.7058567079758108 
2.1200000000000494, -0.7123229620382856 
2.1300000000000705, -0.7171973866596808 
2.1400000000000916, -0.7205890743948191 
2.1500000000001127, -0.7228066900335002 
2.160000000000134, -0.7241781305493824 
2.170000000000155, -0.7249654423020325 
2.180000000000176, -0.7253493046079573 
2.190000000000197, -0.7254413538935413 
2.2000000000002182, -0.7253001477658161 
2.2100000000002393, -0.7249418188270287 
2.2200000000002604, -0.7243432756312008 
2.2300000000002815, -0.723437737392602 
2.2400000000003026, -0.7221031064320205 
2.2500000000003237, -0.7201462803776211 
2.260000000000345, -0.7172947579480445 
2.270000000000366, -0.713223327897049 
2.280000000000387, -0.7076573102750858 
2.290000000000408, -0.7005628328939671 
2.3000000000004293, -0.6923234033076019 
2.3100000000004504, -0.6837137793365485 
2.3200000000004715, -0.6756176952436829 
2.3300000000004926, -0.6686969939815144 
2.3400000000005137, -0.6632433333289731 
2.3500000000005348, -0.659231275276836 
2.360000000000556, -0.6564528765083495 
2.370000000000577, -0.6546363510165077 
2.380000000000598, -0.6535185523489291 
2.390000000000619, -0.652878176721919 
2.4000000000006403, -0.6525445636977503 
2.4100000000006614, -0.6523938789990738 
2.4200000000006825, -0.6523400751083688 
2.4300000000007036, -0.6523248480243075 
2.4400000000007247, -0.6523088297686839 
2.450000000000746, -0.6522651020481393 
2.460000000000767, -0.6521754585053192 
2.470000000000788, -0.6520293134073429 
2.480000000000809, -0.6518243851291293 
2.49000000000083, -0.6515672915513275 
2.5000000000008513, -0.6512718105835873 
2.5100000000008724, -0.6509538800322515 
2.5200000000008935, -0.650625107199929 
2.5300000000009146, -0.650288356481905 
2.5400000000009357, -0.6499379944054172 
2.550000000000957, -0.6495643578503365 
2.560000000000978, -0.6491595557172735 
2.570000000000999, -0.6487216893012501 
2.58000000000102, -0.6482565696851994 
2.5900000000010412, -0.6477780255208111 
2.6000000000010624, -0.6473085249282414 
2.6100000000010835, -0.6468812834745056 
2.6200000000011046, -0.6465441786711117 
2.6300000000011257, -0.6463651285477731 
2.6400000000011468, -0.64643809983746 
2.650000000001168, -0.646888403758266 
2.660000000001189, -0.6478752162115744 
2.67000000000121, -0.6495880246823844 
2.680000000001231, -0.6522315311981701 
2.6900000000012523, -0.6559905384342529 
2.7000000000012734, -0.660965356458429 
2.7100000000012945, -0.6670782392023684 
2.7200000000013156, -0.6739848150326296 
2.7300000000013367, -0.681072024729171 
2.740000000001358, -0.6876172552390066 
2.750000000001379, -0.6930546625634095 
2.7600000000014, -0.6971578064253674 
2.770000000001421, -0.7000158858276861 
2.780000000001442, -0.7018795224058128 
2.7900000000014633, -0.7030181368716659 
2.8000000000014844, -0.7036491387558254 
2.8100000000015055, -0.7039227507828423 
2.8200000000015266, -0.7039303675225519 
2.8300000000015477, -0.703716484213266 
2.840000000001569, -0.7032861992494625 
2.85000000000159, -0.7026059642795228 
2.860000000001611, -0.7015970119072896 
2.870000000001632, -0.7001218735524071 
2.8800000000016532, -0.697967824519205 
2.8900000000016743, -0.6948411784250459 
2.9000000000016954, -0.6904050817050458 
2.9100000000017165, -0.684404873260429 
2.9200000000017377, -0.6768782847171223 
2.9300000000017588, -0.6683168544146876 
2.94000000000178, -0.6595788843258227 
2.950000000001801, -0.6515530729896691 
2.960000000001822, -0.6448352841340059 
2.970000000001843, -0.6396307203933747 
2.9800000000018643, -0.6358483106264611 
2.9900000000018854, -0.6332475508740302 
3.0000000000019065, -0.631550585585937 
3.0100000000019276, -0.6305031390201165 
3.0200000000019487, -0.6298982320864545 
3.03000000000197, -0.6295792516767208 
3.040000000001991, -0.629433594699689 
3.050000000002012, -0.6293831687198213 
3.060000000002033, -0.6293749668562415 
3.070000000002054, -0.6293732628911979 
3.0800000000020753, -0.6293541040818139 
3.0900000000020964, -0.629302283421189 
3.1000000000021175, -0.6292104778880631 
3.1100000000021386, -0.6290794923649086 
3.1200000000021597, -0.6289177641020526 
3.130000000002181, -0.6287383339902424 
3.140000000002202, -0.6285531316742394 
3.150000000002223, -0.6283668882720148 
3.160000000002244, -0.6281741384222844 
3.1700000000022652, -0.6279612717485668 
3.1800000000022863, -0.6277124527576736 
3.1900000000023074, -0.6274159625220438 
3.2000000000023285, -0.6270679461209974 
3.2100000000023496, -0.6266730433261244 
3.2200000000023707, -0.6262435854827637 
3.230000000002392, -0.6257995305029111 
3.240000000002413, -0.6253705917901611 
3.250000000002434, -0.625001196377895 
3.260000000002455, -0.6247584291020926 
3.2700000000024763, -0.6247427639422719 
3.2800000000024974, -0.625100680445987 
3.2900000000025185, -0.6260366383778944 
3.3000000000025396, -0.6278185433839966 
3.3100000000025607, -0.6307648435187243 
3.3200000000025818, -0.6351931851649499 
3.330000000002603, -0.6413072651192436 
3.340000000002624, -0.6490223584735008 
3.350000000002645, -0.6578083880190202 
3.360000000002666, -0.6667224123319566 
3.3700000000026873, -0.6747362740189987 
3.3800000000027084, -0.6811680781760913 
3.3900000000027295, -0.6858660367769078 
3.4000000000027506, -0.6890640229343938 
3.4100000000027717, -0.6911310975490508 
3.420000000002793, -0.6924059774964001 
3.430000000002814, -0.6931403979324331 
3.440000000002835, -0.6935010735031094 
3.450000000002856, -0.6935884039281179 
3.460000000002877, -0.6934534066510767 
3.4700000000028983, -0.6931077655373068 
3.4800000000029194, -0.6925266573836691 
3.4900000000029405, -0.6916452881786002 
3.5000000000029616, -0.6903513490173023 
3.5100000000029827, -0.6884795097701206 
3.520000000003004, -0.685822289758782 
3.530000000003025, -0.6821800654256631 
3.540000000003046, -0.6774629913911699 
3.550000000003067, -0.6718068968203335 
3.5600000000030882, -0.665605977058512 
3.5700000000031094, -0.659399022507899 
3.5800000000031305, -0.6536793459995742 
3.5900000000031516, -0.6487630782104532 
3.6000000000031727, -0.6447701641223816 
3.6100000000031938, -0.6416764657261402 
3.620000000003215, -0.6393785303703143 
3.630000000003236, -0.6377420300448865 
3.640000000003257, -0.6366303363568326 
3.650000000003278, -0.635918967189707 
3.6600000000032993, -0.6355017701441554 
3.6700000000033204, -0.6352925428529639 
3.6800000000033415, -0.6352240967261495 
3.6900000000033626, -0.6352459444733687 
3.7000000000033837, -0.6353214867387087 
3.710000000003405, -0.6354254162579077 
3.720000000003426, -0.6355418102641627 
3.730000000003447, -0.6356629111397167 
3.740000000003468, -0.6357879213659507 
3.750000000003489, -0.6359206160444691 
3.7600000000035103, -0.6360648887994511 
3.7700000000035314, -0.6362188769321336 
3.7800000000035525, -0.6363702806807776 
3.7900000000035736, -0.6364961153718705 
3.8000000000035947, -0.6365681288383588 
3.810000000003616, -0.6365613835349386 
3.820000000003637, -0.636461194648884 
3.830000000003658, -0.6362651557587916 
3.840000000003679, -0.6359808510264805 
3.8500000000037002, -0.6356223644981378 
3.8600000000037213, -0.6352085036648925 
3.8700000000037424, -0.6347642815856598 
3.8800000000037635, -0.6343262974208679 
3.8900000000037847, -0.6339525329641422 
3.9000000000038058, -0.6337371745168615 
3.910000000003827, -0.6338305116819566 
3.920000000003848, -0.6344615784606948 
3.930000000003869, -0.6359551964336161 
3.94000000000389, -0.6387234336709235 
3.9500000000039113, -0.643195624587044 
3.9600000000039324, -0.649647391970621 
3.9700000000039535, -0.6579423514748168 
3.9800000000039746, -0.6673443998474016 
3.9900000000039957, -0.6766638819499169 
4.000000000004016, -0.6847729942959477 
4.010000000003993, -0.6910832486500191 
4.02000000000397, -0.6955988960852155 
4.030000000003946, -0.6986518578087854 
4.040000000003923, -0.7006363801272413 
4.0500000000039, -0.7018798115805641 
4.0600000000038765, -0.7026154323133044 
4.070000000003853, -0.70299593241162 
4.08000000000383, -0.7031137248994852 
4.090000000003807, -0.7030165799641999 
4.100000000003783, -0.7027164626501977 
4.11000000000376, -0.7021921608710688 
4.120000000003737, -0.7013870560315942 
4.130000000003713, -0.700204776708439 
4.14000000000369, -0.6985091699947897 
4.150000000003667, -0.6961410891462363 
4.1600000000036434, -0.6929670802096287 
4.17000000000362, -0.6889594435919186 
4.180000000003597, -0.6842671685498012 
4.1900000000035735, -0.6792119571534948 
4.20000000000355, -0.674190534293164 
4.210000000003527, -0.6695485548515921 
4.220000000003504, -0.6655061907995561 
4.23000000000348, -0.662154176152218 
4.240000000003457, -0.659488643638565 
4.250000000003434, -0.6574507384474932 
4.26000000000341, -0.6559558621421245 
4.270000000003387, -0.6549114928353282 
4.280000000003364, -0.6542272499285451 
4.2900000000033405, -0.6538205653580894 
4.300000000003317, -0.6536198176660252 
4.310000000003294, -0.6535657075223168 
4.320000000003271, -0.6536112693407898 
4.330000000003247, -0.6537209537494321 
4.340000000003224, -0.6538693254094821 
4.350000000003201, -0.6540398400149491 
4.360000000003177, -0.6542237702713354 
4.370000000003154, -0.6544187263278187 
4.380000000003131, -0.6546257890877982 
4.390000000003107, -0.654844724571357 
4.400000000003084, -0.6550683349683094 
4.410000000003061, -0.6552787951501828 
4.4200000000030375, -0.6554489840306041 
4.430000000003014, -0.6555492571024679 
4.440000000002991, -0.6555562661996005 
4.450000000002968, -0.6554588538720825 
4.460000000002944, -0.6552585600828507 
4.470000000002921, -0.6549663321645626 
4.480000000002898, -0.6545989304094884 
4.490000000002874, -0.6541777542048473 
4.500000000002851, -0.6537313323188598 
4.510000000002828, -0.6533019576408605 
4.520000000002804, -0.6529568892495635 
4.530000000002781, -0.6528044582909825 
4.540000000002758, -0.6530143775483077 
4.5500000000027345, -0.653838419335076 
4.560000000002711, -0.6556208941030135 
4.570000000002688, -0.6587769938146083 
4.580000000002665, -0.6637046933127545 
4.590000000002641, -0.6706014889835032 
4.600000000002618, -0.679221559999705 
4.610000000002595, -0.6887437864524757 
4.620000000002571, -0.697977358235849 
4.630000000002548, -0.7058727435276497 
4.640000000002525, -0.7119332240955203 
4.6500000000025015, -0.7162183402527534 
4.660000000002478, -0.7190781026348134 
4.670000000002455, -0.7209061937670623 
4.6800000000024315, -0.7220234228027501 
4.690000000002408, -0.7226553303064038 
4.700000000002385, -0.7229468490441995 
4.710000000002362, -0.7229825722625918 
4.720000000002338, -0.7228017377307554 
4.730000000002315, -0.7224058184280614 
4.740000000002292, -0.7217591194553783 
4.750000000002268, -0.7207834991076506 
4.760000000002245, -0.7193500354493292 
4.770000000002222, -0.7172755023023535 
4.7800000000021985, -0.7143407721964674 
4.790000000002175, -0.7103546028007278 
4.800000000002152, -0.7052674065053566 
4.810000000002129, -0.6992800238464757 
4.820000000002105, -0.6928457339086473 
4.830000000002082, -0.6865277380845296 
4.840000000002059, -0.6808083720071962 
4.850000000002035, -0.6759766437210566 
4.860000000002012, -0.6721252707984211 
4.870000000001989, -0.6692075721824379 
4.880000000001965, -0.6671010912993605 
4.890000000001942, -0.6656546767206499 
4.900000000001919, -0.6647172085574009 
4.9100000000018955, -0.6641530152222221 
4.920000000001872, -0.6638487489045666 
4.930000000001849, -0.6637148444870141 
