t, s[1].omega / s[0].omega 
0, -0.699939562054233 
0.009999999999999995, -0.6940697186603348 
0.019999999999999934, -0.6892463937702287 
0.029999999999999874, -0.6861362081801364 
0.04000000000000012, -0.6846909113004827 
0.050000000000000405, -0.6844088548809676 
0.06000000000000069, -0.6847388581416463 
0.07000000000000098, -0.6852840122326802 
0.08000000000000126, -0.685820716011198 
0.09000000000000155, -0.6862464519178335 
0.10000000000000184, -0.6865244792504678 
0.11000000000000212, -0.6866454657327605 
0.12000000000000241, -0.6866049480919483 
0.130000000000002, -0.6863909100811771 
0.1400000000000009, -0.6859772151211854 
0.1499999999999998, -0.6853216309978236 
0.1599999999999987, -0.6843703190812477 
0.1699999999999976, -0.6830723955856953 
0.1799999999999965, -0.681405110523409 
0.1899999999999954, -0.6794000569834027 
0.1999999999999943, -0.6771511876121019 
0.2099999999999932, -0.6747926276082045 
0.2199999999999921, -0.6724583534630009 
0.229999999999991, -0.6702499303311943 
0.2399999999999899, -0.6682270287133558 
0.2499999999999888, -0.666416112019055 
0.2599999999999877, -0.6648251199515658 
0.2699999999999866, -0.6634555483830793 
0.2799999999999855, -0.6623091596150659 
0.2899999999999844, -0.6613900312448101 
0.2999999999999833, -0.6607037145292511 
0.3099999999999822, -0.6602551734055954 
0.3199999999999811, -0.6600467800892447 
0.32999999999998, -0.6600772259947622 
0.3399999999999789, -0.6603417606319494 
0.3499999999999778, -0.6608336882839236 
0.35999999999997667, -0.6615465898326212 
0.36999999999997557, -0.6624763337769891 
0.37999999999997447, -0.6636215562940869 
0.38999999999997337, -0.6649809250044996 
0.39999999999997227, -0.6665455092677128 
0.40999999999997117, -0.6682859355300244 
0.41999999999997006, -0.6701379063972713 
0.42999999999996896, -0.6719955414195623 
0.43999999999996786, -0.6737243448019575 
0.44999999999996676, -0.675195798484383 
0.45999999999996566, -0.6763260052376215 
0.46999999999996456, -0.6770930410382859 
0.47999999999996346, -0.677525061694787 
0.48999999999996235, -0.6776735802259147 
0.49999999999996125, -0.6775899996867832 
0.5099999999999602, -0.6773129057082921 
0.519999999999959, -0.6768646035387165 
0.529999999999958, -0.6762533124600073 
0.5399999999999568, -0.6754793936483157 
0.5499999999999557, -0.6745468926538596 
0.5599999999999546, -0.6734841715941127 
0.5699999999999535, -0.6723778561894895 
0.5799999999999524, -0.6714177474606426 
0.5899999999999513, -0.670926634985803 
0.5999999999999502, -0.6713038266489437 
0.6099999999999491, -0.6727956866264042 
0.619999999999948, -0.6751729972438059 
0.6299999999999469, -0.67773331029699 
0.6399999999999458, -0.6798754547403482 
0.6499999999999447, -0.681571333719231 
0.6599999999999436, -0.683106887589614 
0.6699999999999425, -0.684631824308051 
0.6799999999999414, -0.686088732448225 
0.6899999999999403, -0.68736197992856 
0.6999999999999392, -0.6883797067533718 
0.7099999999999381, -0.6891273981841983 
0.719999999999937, -0.6896245195217858 
0.7299999999999359, -0.6899000898761518 
0.7399999999999348, -0.6899769320454159 
0.7499999999999337, -0.6898630050238435 
0.7599999999999326, -0.6895464154303628 
0.7699999999999315, -0.6889923156432548 
0.7799999999999304, -0.6881426711033772 
0.7899999999999293, -0.6869232010821849 
0.7999999999999282, -0.6852637075166463 
0.8099999999999271, -0.6831332530416419 
0.819999999999926, -0.6805764713596456 
0.8299999999999249, -0.6777232193004996 
0.8399999999999238, -0.6747554955018629 
0.8499999999999227, -0.6718510692792441 
0.8599999999999216, -0.6691411089363065 
0.8699999999999205, -0.6666998026812695 
0.8799999999999194, -0.6645571274004525 
0.8899999999999183, -0.6627178508122398 
0.8999999999999172, -0.6611762605582883 
0.9099999999999161, -0.6599239988843 
0.919999999999915, -0.6589524726928427 
0.9299999999999139, -0.6582522928184698 
0.9399999999999128, -0.6578118293613824 
0.9499999999999117, -0.6576162649098978 
0.9599999999999106, -0.6576478220008349 
0.9699999999999095, -0.6578872239055752 
0.9799999999999084, -0.6583159859524509 
0.9899999999999073, -0.6589188655625732 
0.9999999999999062, -0.6596856486374885 
1.0099999999999052, -0.6606112558716966 
1.019999999999904, -0.6616928810397714 
1.029999999999903, -0.6629229300898082 
1.039999999999902, -0.6642778403784867 
1.0499999999999008, -0.6657062378717843 
1.0599999999998997, -0.6671243315193874 
1.0699999999998986, -0.6684272406007342 
1.0799999999998975, -0.6695163110909335 
1.0899999999998964, -0.6703280216700855 
1.0999999999998953, -0.670846000746838 
1.1099999999998942, -0.6710914486141456 
1.119999999999893, -0.6711030872962978 
1.129999999999892, -0.670919838718764 
1.1399999999998909, -0.6705718239437576 
1.1499999999998898, -0.6700790367938897 
1.1599999999998887, -0.6694558534490099 
1.1699999999998876, -0.6687214288365936 
1.1799999999998865, -0.667918786800195 
1.1899999999998854, -0.6671476322229066 
1.1999999999998843, -0.6666150338112697 
1.2099999999998832, -0.6666972901835165 
1.219999999999882, -0.6679729930713025 
1.229999999999881, -0.6711277297445524 
1.2399999999998799, -0.6766093874115648 
1.2499999999998788, -0.6841183159334381 
1.2599999999998777, -0.6924636241055193 
1.2699999999998766, -0.7002290115365917 
1.2799999999998755, -0.7066154366854419 
1.2899999999998744, -0.7115409893493542 
1.2999999999998733, -0.7152301083630823 
1.3099999999998722, -0.7179305756843231 
1.319999999999871, -0.7198513339712012 
1.32999999999987, -0.7211673409739277 
1.3399999999998689, -0.7220217816057175 
1.3499999999998678, -0.7225239522127775 
1.3599999999998666, -0.7227487771947769 
1.3699999999998655, -0.7227381250183591 
1.3799999999998644, -0.7225016944966776 
1.3899999999998633, -0.7220157387728258 
1.3999999999998622, -0.7212195883281648 
1.4099999999998611, -0.7200129808848296 
1.41999999999986, -0.7182623495150852 
1.429999999999859, -0.7158293750223066 
1.4399999999998578, -0.7126305380056255 
1.4499999999998567, -0.7087096731042413 
1.4599999999998556, -0.7042708150573347 
1.4699999999998545, -0.6996291218767954 
1.4799999999998534, -0.6951070178191159 
1.4899999999998523, -0.6909487358758128 
1.4999999999998512, -0.6872939282046241 
1.5099999999998501, -0.6841961519026172 
1.519999999999849, -0.6816543689953238 
1.529999999999848, -0.6796380411053027 
1.5399999999998468, -0.67810155862958 
1.5499999999998457, -0.6769910139440545 
1.5599999999998446, -0.676247499352824 
1.5699999999998435, -0.6758097765857226 
1.5799999999998424, -0.6756174077465091 
1.5899999999998413, -0.6756141547086776 
1.5999999999998402, -0.6757509454036225 
1.6099999999998391, -0.6759878746750527 
1.619999999999838, -0.6762951650823863 
1.629999999999837, -0.6766532795700246 
1.6399999999998358, -0.6770521421849456 
1.6499999999998347, -0.6774887996741382 
1.6599999999998336, -0.677962538566488 
1.6699999999998325, -0.6784674036747086 
1.6799999999998314, -0.6789844243589158 
1.6899999999998303, -0.6794781475810022 
1.6999999999998292, -0.6799015852223176 
1.709999999999828, -0.6802088841301511 
1.719999999999827, -0.6803688755808193 
1.729999999999826, -0.6803715779330868 
1.7399999999998248, -0.6802256034304512 
1.7499999999998237, -0.6799510193263135 
1.7599999999998226, -0.6795736910507734 
1.7699999999998215, -0.6791246854180656 
1.7799999999998204, -0.6786459906985043 
1.7899999999998193, -0.6782032764853886 
1.7999999999998182, -0.6779068766946519 
1.809999999999817, -0.6779421186161961 
1.819999999999816, -0.6786078768423753 
1.8299999999998149, -0.6803556531936159 
1.8399999999998138, -0.6838076500477706 
1.8499999999998127, -0.6897089905130573 
1.8599999999998116, -0.698743924087818 
1.8699999999998105, -0.7111613442172718 
1.8799999999998094, -0.726306011497018 
1.8899999999998083, -0.7424501231662644 
1.8999999999998072, -0.7573672055463566 
1.909999999999806, -0.7693971705238309 
1.919999999999805, -0.7780594297727146 
1.9299999999998039, -0.7838010658401451 
1.9399999999998028, -0.787399987972882 
1.9499999999998017, -0.789563106221914 
1.9599999999998006, -0.7907991568759289 
1.9699999999997995, -0.7914331572686512 
1.9799999999997984, -0.7916558174042531 
1.9899999999997973, -0.7915651145315883 
1.9999999999997962, -0.7911906506885487 
2.0099999999998173, -0.7905012971058516 
2.0199999999998384, -0.7893970441276884 
2.0299999999998595, -0.7876843441166531 
2.0399999999998806, -0.7850353016074154 
2.0499999999999017, -0.7809426492829277 
2.059999999999923, -0.7747179871110228 
2.069999999999944, -0.7656406988273571 
2.079999999999965, -0.753367601732549 
2.089999999999986, -0.7384733840445772 
2.100000000000007, -0.722590522446871 
2.1100000000000283, -0.7077665708700991 
2.1200000000000494, -0.69552317128285 
2.1300000000000705, -0.6864145621030888 
2.1400000000000916, -0.6802105695831936 
2.1500000000001127, -0.6763037979445257 
2.160000000000134, -0.6740272231680782 
2.170000000000155, -0.6728131666591957 
2.180000000000176, -0.672239364076902 
2.190000000000197, -0.6720182466042426 
2.2000000000002182, -0.6719659589704938 
2.2100000000002393, -0.6719696522156495 
2.2200000000002604, -0.6719605478354829 
2.2300000000002815, -0.6718946359224012 
2.2400000000003026, -0.6717406406156824 
2.2500000000003237, -0.6714744870774085 
2.260000000000345, -0.6710795510131967 
2.270000000000366, -0.6705511701766043 
2.280000000000387, -0.6699017820277074 
2.290000000000408, -0.6691613968165775 
2.3000000000004293, -0.668370228130786 
2.3100000000004504, -0.6675662740117521 
2.3200000000004715, -0.6667750098509845 
2.3300000000004926, -0.666006586973936 
2.3400000000005137, -0.665260403087722 
2.3500000000005348, -0.6645329648404291 
2.360000000000556, -0.6638248517610172 
2.370000000000577, -0.6631449543320365 
2.380000000000598, -0.6625124901134805 
2.390000000000619, -0.6619581155193492 
2.4000000000006403, -0.6615249383780155 
2.4100000000006614, -0.6612693767662223 
2.4200000000006825, -0.6612613167606909 
2.4300000000007036, -0.6615830722030586 
2.4400000000007247, -0.662327047572545 
2.450000000000746, -0.6635923189085631 
2.460000000000767, -0.6654800243304965 
2.470000000000788, -0.6680860471417339 
2.480000000000809, -0.6714870161007707 
2.49000000000083, -0.6757133700761246 
2.5000000000008513, -0.6807049404657912 
2.5100000000008724, -0.6862572874487041 
2.5200000000008935, -0.6919943163011234 
2.5300000000009146, -0.6974224521404528 
2.5400000000009357, -0.7020814827144279 
2.550000000000957, -0.7057067719767736 
2.560000000000978, -0.7082815454454274 
2.570000000000999, -0.7099611338627477 
2.58000000000102, -0.7109569501449435 
2.5900000000010412, -0.711457133042659 
2.6000000000010624, -0.7115965190613747 
2.6100000000010835, -0.7114550526337852 
2.6200000000011046, -0.7110643502415626 
2.6300000000011257, -0.7104116897595663 
2.6400000000011468, -0.7094368740209089 
2.650000000001168, -0.7080193138897337 
2.660000000001189, -0.7059523402765077 
2.67000000000121, -0.7029018930058956 
2.680000000001231, -0.6983538696984193 
2.6900000000012523, -0.6915864502530875 
2.7000000000012734, -0.681785692538282 
2.7100000000012945, -0.668497679952244 
2.7200000000013156, -0.6523703824651119 
2.7300000000013367, -0.6354407139328382 
2.740000000001358, -0.6202241996959519 
2.750000000001379, -0.6083503033622767 
2.7600000000014, -0.6000953349696807 
2.770000000001421, -0.5948551214695125 
2.780000000001442, -0.591770640720893 
2.7900000000014633, -0.5900824517866202 
2.8000000000014844, -0.5892350514045436 
2.8100000000015055, -0.5888612834244115 
2.8200000000015266, -0.5887329504158584 
2.8300000000015477, -0.5887135197820835 
2.840000000001569, -0.5887226091860475 
2.85000000000159, -0.5887121433881585 
2.860000000001611, -0.5886516723201909 
2.870000000001632, -0.5885205751400006 
2.8800000000016532, -0.5883056353852795 
2.8900000000016743, -0.5880026659714856 
2.9000000000016954, -0.5876199321849171 
2.9100000000017165, -0.5871796464308466 
2.9200000000017377, -0.5867139341568512 
2.9300000000017588, -0.5862550730482934 
2.94000000000178, -0.5858244567057918 
2.950000000001801, -0.5854262499121161 
2.960000000001822, -0.5850487735766691 
2.970000000001843, -0.5846720941911453 
2.9800000000018643, -0.5842773381880183 
2.9900000000018854, -0.583853446668779 
3.0000000000019065, -0.5833998723629004 
3.0100000000019276, -0.5829267219336868 
3.0200000000019487, -0.5824550377494322 
3.03000000000197, -0.5820194073907234 
3.040000000001991, -0.5816741916085676 
3.050000000002012, -0.5815041861697466 
3.060000000002033, -0.5816404275007815 
3.070000000002054, -0.5822815895761331 
3.0800000000020753, -0.5837200973555909 
3.0900000000020964, -0.5863679023232902 
3.1000000000021175, -0.5907662649456082 
3.1100000000021386, -0.597542132631879 
3.1200000000021597, -0.6072440448578236 
3.130000000002181, -0.6199949651543486 
3.140000000002202, -0.6350478604796911 
3.150000000002223, -0.650652536224846 
3.160000000002244, -0.6646867186093532 
3.1700000000022652, -0.6757204577786692 
3.1800000000022863, -0.6835071975404082 
3.1900000000023074, -0.6886112529389908 
3.2000000000023285, -0.6918079455054672 
3.2100000000023496, -0.6937462925714476 
3.2200000000023707, -0.6948733242742144 
3.230000000002392, -0.6954682523843623 
3.240000000002413, -0.6956933532274162 
3.250000000002434, -0.6956316525588472 
3.260000000002455, -0.695307956704881 
3.2700000000024763, -0.6946959688820222 
3.2800000000024974, -0.6937143408537938 
3.2900000000025185, -0.6922151205320568 
3.3000000000025396, -0.6899733304764104 
3.3100000000025607, -0.6866995501432757 
3.3200000000025818, -0.6821123564566787 
3.330000000002603, -0.6760918890266354 
3.340000000002624, -0.6688494695441213 
3.350000000002645, -0.6609542753628399 
3.360000000002666, -0.65313724174104 
3.3700000000026873, -0.6460161419939296 
3.3800000000027084, -0.6399444944220163 
3.3900000000027295, -0.6350245497234319 
3.4000000000027506, -0.6311964535354878 
3.4100000000027717, -0.6283232660814995 
3.420000000002793, -0.6262448800057654 
3.430000000002814, -0.6248052136634261 
3.440000000002835, -0.6238638274176534 
3.450000000002856, -0.6233001222049579 
3.460000000002877, -0.6230142719025614 
3.4700000000028983, -0.6229265434316366 
3.4800000000029194, -0.6229756402219438 
3.4900000000029405, -0.6231165236405705 
3.5000000000029616, -0.6233182319011169 
3.5100000000029827, -0.6235621286076026 
3.520000000003004, -0.6238405565720833 
3.530000000003025, -0.6241550734011236 
3.540000000003046, -0.6245127741232259 
3.550000000003067, -0.6249195550696997 
3.5600000000030882, -0.6253711255431434 
3.5700000000031094, -0.6258454036869876 
3.5800000000031305, -0.6263014870245506 
3.5900000000031516, -0.6266882047714285 
3.6000000000031727, -0.626959125270812 
3.6100000000031938, -0.6270855001478006 
3.620000000003215, -0.6270601315885524 
3.630000000003236, -0.6268924704579063 
3.640000000003257, -0.6266006935361614 
3.650000000003278, -0.6262062462327083 
3.6600000000032993, -0.625733435851033 
3.6700000000033204, -0.6252149056705629 
3.6800000000033415, -0.6247040784674048 
3.6900000000033626, -0.62429701924043 
3.7000000000033837, -0.6241673202696321 
3.710000000003405, -0.6246164474249529 
3.720000000003426, -0.6261337603246648 
3.730000000003447, -0.6294356770585232 
3.740000000003468, -0.6354021839999932 
3.750000000003489, -0.6447735498119945 
3.7600000000035103, -0.6575460955527301 
3.7700000000035314, -0.6724199111592227 
3.7800000000035525, -0.6870864233481122 
3.7900000000035736, -0.6994817565784366 
3.8000000000035947, -0.7087755773688393 
3.810000000003616, -0.7152284238176477 
3.820000000003637, -0.7195217995161202 
3.830000000003658, -0.7223090404616196 
3.840000000003679, -0.7240790790761877 
3.8500000000037002, -0.7251637044375592 
3.8600000000037213, -0.7257768144168837 
3.8700000000037424, -0.7260489861496302 
3.8800000000037635, -0.7260507465624919 
3.8900000000037847, -0.7258053542494773 
3.9000000000038058, -0.725292792527535 
3.910000000003827, -0.724446680362415 
3.920000000003848, -0.7231473033386753 
3.930000000003869, -0.7212190688961002 
3.94000000000389, -0.7184499860028222 
3.9500000000039113, -0.7146561522174438 
3.9600000000039324, -0.7097925197782939 
3.9700000000039535, -0.7040508961283775 
3.9800000000039746, -0.697849176016401 
3.9900000000039957, -0.691691643917902 
4.000000000004016, -0.6860026060818292 
4.010000000003993, -0.6810412772545561 
4.02000000000397, -0.6769093989473008 
4.030000000003946, -0.6736007858139026 
4.040000000003923, -0.6710494634168139 
4.0500000000039, -0.6691615294313757 
4.0600000000038765, -0.6678328405915217 
4.070000000003853, -0.6669586764199116 
4.08000000000383, -0.6664398517148471 
4.090000000003807, -0.6661871640978123 
4.100000000003783, -0.6661244180626024 
4.11000000000376, -0.6661898211009631 
4.120000000003737, -0.6663358669982171 
4.130000000003713, -0.6665282945823838 
4.14000000000369, -0.666744853518914 
4.150000000003667, -0.666974185168399 
4.1600000000036434, -0.6672142308787887 
4.17000000000362, -0.6674688187590216 
4.180000000003597, -0.6677414711970977 
4.1900000000035735, -0.6680275205763251 
4.20000000000355, -0.6683081975231219 
4.210000000003527, -0.6685510435566857 
4.220000000003504, -0.6687180484688299 
4.23000000000348, -0.6687776001637293 
4.240000000003457, -0.6687133343804785 
4.250000000003434, -0.6685257723200653 
4.26000000000341, -0.66822844677132 
4.270000000003387, -0.667843388433464 
4.280000000003364, -0.6673999936975374 
4.2900000000033405, -0.6669391854096789 
4.300000000003317, -0.6665236491003759 
4.310000000003294, -0.6662547955419371 
4.320000000003271, -0.6662968763248538 
4.330000000003247, -0.6669071162181517 
4.340000000003224, -0.6684664582244784 
4.350000000003201, -0.6714967025645601 
4.360000000003177, -0.6766343280351137 
4.370000000003154, -0.6845107429690145 
4.380000000003131, -0.6954840929008619 
4.390000000003107, -0.7092430775534859 
4.400000000003084, -0.7245212486009636 
4.410000000003061, -0.7393444787247178 
4.4200000000030375, -0.7518928324287196 
4.430000000003014, -0.7613018801087883 
4.440000000002991, -0.767722566124657 
4.450000000002968, -0.7718251577137317 
4.460000000002944, -0.7743269696505664 
4.470000000002921, -0.7757831837595625 
4.480000000002898, -0.7765626709562363 
4.490000000002874, -0.7768885657732645 
4.500000000002851, -0.7768820705699764 
4.510000000002828, -0.7765914373241012 
4.520000000002804, -0.7760043598010644 
4.530000000002781, -0.775044787274213 
4.540000000002758, -0.773553873051452 
4.5500000000027345, -0.7712545205471952 
4.560000000002711, -0.7677061519707842 
4.570000000002688, -0.7622828669959993 
4.580000000002665, -0.7542626403528845 
4.590000000002641, -0.743149582846206 
4.600000000002618, -0.7291995129328697 
4.610000000002595, -0.71372602692317 
4.620000000002571, -0.6986853157970461 
4.630000000002548, -0.6857659440497057 
4.640000000002525, -0.6757846129939553 
4.6500000000025015, -0.6687211438779549 
4.660000000002478, -0.6640828842892321 
4.670000000002455, -0.6612418782227447 
4.6800000000024315, -0.6596251136815654 
4.690000000002408, -0.6587846103406506 
4.700000000002385, -0.6584016769935807 
4.710000000002362, -0.6582640730378928 
4.720000000002338, -0.6582368463877156 
4.730000000002315, -0.6582361307821707 
4.740000000002292, -0.6582090806815354 
4.750000000002268, -0.6581203615015971 
4.760000000002245, -0.6579447324126246 
4.770000000002222, -0.6576650951843104 
4.7800000000021985, -0.6572748319660949 
4.790000000002175, -0.6567816798770443 
4.800000000002152, -0.6562087448791926 
4.810000000002129, -0.6555891704146474 
4.820000000002105, -0.6549555343456287 
4.830000000002082, -0.6543296701516288 
4.840000000002059, -0.6537185918209368 
4.850000000002035, -0.6531178188313433 
4.860000000002012, -0.6525189720052762 
4.870000000001989, -0.6519172272792847 
4.880000000001965, -0.6513160325616205 
4.890000000001942, -0.6507292331169949 
4.900000000001919, -0.6501822609770906 
4.9100000000018955, -0.649713848490582 
4.920000000001872, -0.6493787151950492 
