t, s[1].omega / s[0].omega 
0, -1.5299950963060647 
0.009999999999999995, -1.5292397400852022 
0.019999999999999934, -1.5279585437575804 
0.029999999999999874, -1.5261479446400859 
0.04000000000000012, -1.523802120800605 
0.050000000000000405, -1.5209134922363137 
0.06000000000000069, -1.517473449752993 
0.07000000000000098, -1.5134733829591767 
0.08000000000000126, -1.50890623864846 
0.09000000000000155, -1.5037692300478398 
0.10000000000000184, -1.4980689708731572 
0.11000000000000212, -1.4918309707900146 
0.12000000000000241, -1.48511535703728 
0.130000000000002, -1.4780387235221812 
0.1400000000000009, -1.4707972183921971 
0.1499999999999998, -1.4636790049659307 
0.1599999999999987, -1.4570490374483693 
0.1699999999999976, -1.4512931881319193 
0.1799999999999965, -1.446727928210814 
0.1899999999999954, -1.4435091597970096 
0.1999999999999943, -1.441586532409643 
0.2099999999999932, -1.440728691088344 
0.2199999999999921, -1.4406026238719314 
0.229999999999991, -1.4408625743286072 
0.2399999999999899, -1.4412105028951796 
0.2499999999999888, -1.4414163297800824 
0.2599999999999877, -1.4413072131229498 
0.2699999999999866, -1.440740850539226 
0.2799999999999855, -1.4395731852931142 
0.2899999999999844, -1.437623814590888 
0.2999999999999833, -1.4346368074818712 
0.3099999999999822, -1.43023087356703 
0.3199999999999811, -1.4238298834739291 
0.32999999999998, -1.4145619206497642 
0.3399999999999789, -1.4011129474424604 
0.3499999999999778, -1.3815232386156302 
0.35999999999997667, -1.3529304005760328 
0.36999999999997557, -1.3113123348580273 
0.37999999999997447, -1.25139920391669 
0.38999999999997337, -1.1671244105367902 
0.39999999999997227, -1.0531776924291893 
0.40999999999997117, -0.908028004709399 
0.41999999999997006, -0.737580616620856 
0.42999999999996896, -0.5565686024689898 
0.43999999999996786, -0.38446273955886234 
0.44999999999996676, -0.23725078669134092 
0.45999999999996566, -0.12171637542357915 
0.46999999999996456, -0.03618994651702857 
0.47999999999996346, 0.024731668769108765 
0.48999999999996235, 0.0673193082267856 
0.49999999999996125, 0.09733931207993227 
0.5099999999999602, 0.11864980949949055 
0.519999999999959, 0.13392947273621048 
0.529999999999958, 0.14499864296821727 
0.5399999999999568, 0.1530896121338877 
0.5499999999999557, 0.1590412567968819 
0.5599999999999546, 0.16343057602620162 
0.5699999999999535, 0.166659337312543 
0.5799999999999524, 0.16901073863114532 
0.5899999999999513, 0.1706865491822832 
0.5999999999999502, 0.17183163778821547 
0.6099999999999491, 0.1725503432682438 
0.619999999999948, 0.1729175454090357 
0.6299999999999469, 0.17298629117095327 
0.6399999999999458, 0.17279322070299763 
0.6499999999999447, 0.17236269790265765 
0.6599999999999436, 0.17171041874551554 
0.6699999999999425, 0.17084734001046997 
0.6799999999999414, 0.16978509286825325 
0.6899999999999403, 0.16854474950804982 
0.6999999999999392, 0.1671721367438353 
0.7099999999999381, 0.16576522017454198 
0.719999999999937, 0.16452289487166505 
0.7299999999999359, 0.16383001964165275 
0.7399999999999348, 0.16439924601686115 
0.7499999999999337, 0.16748886221965878 
0.7599999999999326, 0.17518519910780156 
0.7699999999999315, 0.19062859641209226 
0.7799999999999304, 0.21781433455724078 
0.7899999999999293, 0.2603089761390317 
0.7999999999999282, 0.3185344286121705 
0.8099999999999271, 0.387169265021914 
0.819999999999926, 0.45619516438737395 
0.8299999999999249, 0.5161892748188179 
0.8399999999999238, 0.5627228726972187 
0.8499999999999227, 0.5962033999342431 
0.8599999999999216, 0.6192975847718113 
0.8699999999999205, 0.6349038133443563 
0.8799999999999194, 0.6453395119572011 
0.8899999999999183, 0.6522392417496302 
0.8999999999999172, 0.6566914924502447 
0.9099999999999161, 0.6594012567409894 
0.919999999999915, 0.660817410053394 
0.9299999999999139, 0.6612205201494897 
0.9399999999999128, 0.6607809931510672 
0.9499999999999117, 0.6595980274929729 
0.9599999999999106, 0.6577273224121228 
0.9699999999999095, 0.6552028818804425 
0.9799999999999084, 0.6520560088030021 
0.9899999999999073, 0.6483324920994907 
0.9999999999999062, 0.6441069382452181 
1.0099999999999052, 0.6394915137127414 
1.019999999999904, 0.6346358414612553 
1.029999999999903, 0.6297162364012084 
1.039999999999902, 0.6249157975938937 
1.0499999999999008, 0.6204005832043276 
1.0599999999998997, 0.6162989006599782 
1.0699999999998986, 0.6126893459988806 
1.0799999999998975, 0.6095994576738275 
1.0899999999998964, 0.6070129820630435 
1.0999999999998953, 0.6048816606635986 
1.1099999999998942, 0.6031375047351982 
1.119999999999893, 0.601702874529968 
1.129999999999892, 0.6004972426970735 
1.1399999999998909, 0.5994406336388506 
1.1499999999998898, 0.5984542376677758 
1.1599999999998887, 0.5974587302099891 
1.1699999999998876, 0.5963705671571058 
1.1799999999998865, 0.5950960961775125 
1.1899999999998854, 0.5935227336689909 
1.1999999999998843, 0.5915056040196907 
1.2099999999998832, 0.5888466650013394 
1.219999999999882, 0.5852609378045955 
1.229999999999881, 0.5803200207475824 
1.2399999999998799, 0.5733546248199486 
1.2499999999998788, 0.5632816144743272 
1.2599999999998777, 0.5482900773580917 
1.2699999999998766, 0.5252656393403562 
1.2799999999998755, 0.48875384668838606 
1.2899999999998744, 0.4292531618131038 
1.2999999999998733, 0.3311660009421116 
1.3099999999998722, 0.1731986889682883 
1.319999999999871, -0.06123739659424357 
1.32999999999987, -0.3623348072430392 
1.3399999999998689, -0.6888267665325801 
1.3499999999998678, -0.9928943984882174 
1.3599999999998666, -1.244420703737196 
1.3699999999998655, -1.4329040798876131 
1.3799999999998644, -1.5629074793754882 
1.3899999999998633, -1.6473736410717361 
1.3999999999998622, -1.700407644002266 
1.4099999999998611, -1.7332378964521442 
1.41999999999986, -1.753506125364778 
1.429999999999859, -1.7660227531674486 
1.4399999999998578, -1.7737134894176974 
1.4499999999998567, -1.7783390558898857 
1.4599999999998556, -1.7809616889905922 
1.4699999999998545, -1.782230112283986 
1.4799999999998534, -1.782552502243662 
1.4899999999998523, -1.782205489236416 
1.4999999999998512, -1.7814078560715583 
1.5099999999998501, -1.7803718397781048 
1.519999999999849, -1.7793309818669987 
1.529999999999848, -1.7785340522276485 
1.5399999999998468, -1.7781994357562994 
1.5499999999998457, -1.7784491571055554 
1.5599999999998446, -1.7792673114300093 
1.5699999999998435, -1.7805183747286604 
1.5799999999998424, -1.7820149235205671 
1.5899999999998413, -1.7835884892633422 
1.5999999999998402, -1.785125118393226 
1.6099999999998391, -1.7865601933016741 
1.619999999999838, -1.7878514600751185 
1.629999999999837, -1.7889529998074722 
1.6399999999998358, -1.7898024949860432 
1.6499999999998347, -1.790320824039135 
1.6599999999998336, -1.7904156622305227 
1.6699999999998325, -1.7899815242994204 
1.6799999999998314, -1.7888933310603463 
1.6899999999998303, -1.7869941695253873 
1.6999999999998292, -1.7840788296231438 
1.709999999999828, -1.779873942388572 
1.719999999999827, -1.7740144609610717 
1.729999999999826, -1.766015531616496 
1.7399999999998248, -1.7552388700098907 
1.7499999999998237, -1.7408543024463718 
1.7599999999998226, -1.7218019239675755 
1.7699999999998215, -1.6967718199073563 
1.7799999999998204, -1.664241333816759 
1.7899999999998193, -1.6226461570350394 
1.7999999999998182, -1.5707938437787858 
1.809999999999817, -1.5085910447783994 
1.819999999999816, -1.4379351263136904 
1.8299999999998149, -1.3632148797000654 
1.8399999999998138, -1.2906852411459042 
1.8499999999998127, -1.226628755057825 
1.8599999999998116, -1.1753391422445703 
1.8699999999998105, -1.1381831715008126 
1.8799999999998094, -1.1140072934560585 
1.8899999999998083, -1.1002304720069969 
1.8999999999998072, -1.0938958690748735 
1.909999999999806, -1.092347635283921 
1.919999999999805, -1.0935251603116842 
1.9299999999998039, -1.0959958520972795 
1.9399999999998028, -1.098854675251717 
1.9499999999998017, -1.1015822659682168 
1.9599999999998006, -1.1039124892198182 
1.9699999999997995, -1.1057294078004292 
1.9799999999997984, -1.1069955328296064 
1.9899999999997973, -1.1077052849601838 
1.9999999999997962, -1.1078557387646253 
2.0099999999998173, -1.1074275900183952 
2.0199999999998384, -1.1063708457724197 
2.0299999999998595, -1.104591044091933 
2.0399999999998806, -1.1019325514306462 
2.0499999999999017, -1.0981556375190151 
2.059999999999923, -1.0929036875668614 
2.069999999999944, -1.0856562871618853 
2.079999999999965, -1.0756634773934524 
2.089999999999986, -1.0618573462200285 
2.100000000000007, -1.0427418225295195 
2.1100000000000283, -1.016275223471177 
2.1200000000000494, -0.9797917340356556 
2.1300000000000705, -0.9300686004388977 
2.1400000000000916, -0.863734481044668 
2.1500000000001127, -0.7782733798545299 
2.160000000000134, -0.6737175718876394 
2.170000000000155, -0.5544608132936858 
2.180000000000176, -0.4296414815473127 
2.190000000000197, -0.31067119382950065 
2.2000000000002182, -0.2069228032600155 
2.2100000000002393, -0.12281572661506664 
2.2200000000002604, -0.05804428356369714 
2.2300000000002815, -0.009650285722051403 
2.2400000000003026, 0.02532957315755503 
2.2500000000003237, 0.050671319037380015 
2.260000000000345, 0.06919494012341831 
2.270000000000366, 0.08281381421675424 
2.280000000000387, 0.09289499371626052 
2.290000000000408, 0.10040434024843328 
2.3000000000004293, 0.10602407340933356 
2.3100000000004504, 0.11023892069433856 
2.3200000000004715, 0.1133964681779728 
2.3300000000004926, 0.11574861166122491 
2.3400000000005137, 0.1174798517115653 
2.3500000000005348, 0.11872664568304372 
2.360000000000556, 0.11959074557255503 
2.370000000000577, 0.12014851355058304 
2.380000000000598, 0.12045756721566418 
2.390000000000619, 0.12056169089011463 
2.4000000000006403, 0.12049469921004075 
2.4100000000006614, 0.12028381953288352 
2.4200000000006825, 0.11995315923660915 
2.4300000000007036, 0.11952795846972525 
2.4400000000007247, 0.11904064743900535 
2.450000000000746, 0.11854032404852051 
2.460000000000767, 0.11810829381714291 
2.470000000000788, 0.11788396968065529 
2.480000000000809, 0.11810786801156781 
2.49000000000083, 0.11919139165475837 
2.5000000000008513, 0.1218247590568395 
2.5100000000008724, 0.12712876330780812 
2.5200000000008935, 0.13682771258133 
2.5300000000009146, 0.1533418577931406 
2.5400000000009357, 0.17954759367152837 
2.550000000000957, 0.21782212590232333 
2.560000000000978, 0.2682553039372347 
2.570000000000999, 0.3270184492906287 
2.58000000000102, 0.38692816849337774 
2.5900000000010412, 0.4407088555345714 
2.6000000000010624, 0.48418419770436805 
2.6100000000010835, 0.5168019117655664 
2.6200000000011046, 0.5401636119745223 
2.6300000000011257, 0.5564679835560957 
2.6400000000011468, 0.567682077381727 
2.650000000001168, 0.5753007720996275 
2.660000000001189, 0.580375651856242 
2.67000000000121, 0.5836181875765738 
2.680000000001231, 0.5854994437837792 
2.6900000000012523, 0.5863264610068925 
2.7000000000012734, 0.5862962416752449 
2.7100000000012945, 0.5855333042614296 
2.7200000000013156, 0.5841165672660803 
2.7300000000013367, 0.582099826217867 
2.740000000001358, 0.5795284561562047 
2.750000000001379, 0.5764534322591247 
2.7600000000014, 0.5729423725579758 
2.770000000001421, 0.5690862744077817 
2.780000000001442, 0.5650003225967334 
2.7900000000014633, 0.5608179227455633 
2.8000000000014844, 0.5566788563940165 
2.8100000000015055, 0.5527144169246 
2.8200000000015266, 0.5490334814782558 
2.8300000000015477, 0.5457130075139145 
2.840000000001569, 0.5427946502195357 
2.85000000000159, 0.5402870630418889 
2.860000000001611, 0.5381719667466955 
2.870000000001632, 0.5364116640422132 
2.8800000000016532, 0.5349561167276035 
2.8900000000016743, 0.5337484928335098 
2.9000000000016954, 0.5327288135071608 
2.9100000000017165, 0.5318357866611201 
2.9200000000017377, 0.5310070932873534 
2.9300000000017588, 0.5301783637808806 
2.94000000000178, 0.5292809226881954 
2.950000000001801, 0.5282381358548157 
2.960000000001822, 0.5269598640289349 
2.970000000001843, 0.5253340600093823 
2.9800000000018643, 0.5232138222546315 
2.9900000000018854, 0.5203970059766777 
3.0000000000019065, 0.5165933650763568 
3.0100000000019276, 0.5113703630810139 
3.0200000000019487, 0.5040618059218138 
3.03000000000197, 0.4936108360190765 
3.040000000001991, 0.4782970755341606 
3.050000000002012, 0.4552653118621901 
3.060000000002033, 0.4197476596158767 
3.070000000002054, 0.3639561298103839 
3.0800000000020753, 0.2761849929670652 
3.0900000000020964, 0.14239586356248657 
3.1000000000021175, -0.045259270121165936 
3.1100000000021386, -0.27467002243741456 
3.1200000000021597, -0.5139168408399365 
3.130000000002181, -0.7295424444034498 
3.140000000002202, -0.9045650491846974 
3.150000000002223, -1.0373540687902478 
3.160000000002244, -1.13374631735085 
3.1700000000022652, -1.20164900006816 
3.1800000000022863, -1.2485422909795643 
3.1900000000023074, -1.2805419465142196 
3.2000000000023285, -1.3022392117361767 
3.2100000000023496, -1.3168975812999366 
3.2200000000023707, -1.3267583813604813 
3.230000000002392, -1.3333295990705765 
3.240000000002413, -1.3376138191992932 
3.250000000002434, -1.340272466107144 
3.260000000002455, -1.3417385540174849 
3.2700000000024763, -1.3422925199578049 
3.2800000000024974, -1.3421137129606044 
3.2900000000025185, -1.341317522458711 
3.3000000000025396, -1.3399862732008656 
3.3100000000025607, -1.3382010175279035 
3.3200000000025818, -1.3360805369296496 
3.330000000002603, -1.3338315799933547 
3.340000000002624, -1.331807888769665 
3.350000000002645, -1.3305622771971297 
3.360000000002666, -1.3308575880176412 
3.3700000000026873, -1.3335911144812471 
3.3800000000027084, -1.3396060146433075 
3.3900000000027295, -1.3494259177512395 
3.4000000000027506, -1.363025887350252 
3.4100000000027717, -1.3797721891517012 
3.420000000002793, -1.3985804158749748 
3.430000000002814, -1.4182108122315151 
3.440000000002835, -1.4375522848585316 
3.450000000002856, -1.4557879926966721 
3.460000000002877, -1.472426927815817 
3.4700000000028983, -1.4872486132994829 
3.4800000000029194, -1.5002181156736298 
3.4900000000029405, -1.5114085439406026 
3.5000000000029616, -1.520945163049966 
3.5100000000029827, -1.528971038994753 
3.520000000003004, -1.5356287132691402 
3.530000000003025, -1.541051982218688 
3.540000000003046, -1.5453632581500356 
3.550000000003067, -1.5486735756521224 
3.5600000000030882, -1.5510835389366795 
3.5700000000031094, -1.5526843548111515 
3.5800000000031305, -1.553558664862289 
3.5900000000031516, -1.5537812566810734 
3.6000000000031727, -1.5534199199516536 
3.6100000000031938, -1.5525367113922524 
3.620000000003215, -1.5511897001124073 
3.630000000003236, -1.549434924083546 
3.640000000003257, -1.5473279411950618 
3.650000000003278, -1.5449242882247922 
3.6600000000032993, -1.5422787086225749 
3.6700000000033204, -1.5394442438284865 
3.6800000000033415, -1.536473563272519 
3.6900000000033626, -1.5334248981524061 
3.7000000000033837, -1.530372523517147 
3.710000000003405, -1.5274173143882788 
3.720000000003426, -1.5246889467406883 
3.730000000003447, -1.5223314732296045 
3.740000000003468, -1.5204709208817795 
3.750000000003489, -1.5191754670964772 
3.7600000000035103, -1.5184274902833963 
3.7700000000035314, -1.5181229597105494 
3.7800000000035525, -1.518097616481366 
3.7900000000035736, -1.5181639924196073 
3.8000000000035947, -1.5181405482528878 
3.810000000003616, -1.5178629865280648 
3.820000000003637, -1.5171781150633432 
3.830000000003658, -1.515925435466792 
3.840000000003679, -1.5139108489850899 
3.8500000000037002, -1.5108736816320032 
3.8600000000037213, -1.5064451237542185 
3.8700000000037424, -1.500094130256816 
3.8800000000037635, -1.4910562249008836 
3.8900000000037847, -1.478242459813386 
3.9000000000038058, -1.4601325602694175 
3.910000000003827, -1.4346730582638048 
3.920000000003848, -1.3992351737185325 
3.930000000003869, -1.3507422404082299 
3.94000000000389, -1.2861342185119584 
3.9500000000039113, -1.2033205618753993 
3.9600000000039324, -1.102538061099181 
3.9700000000039535, -0.9875195672743039 
3.9800000000039746, -0.8654719389577518 
3.9900000000039957, -0.7453201376074854 
4.000000000004016, -0.6350188240508752 
4.010000000003993, -0.5395601713481437 
4.02000000000397, -0.46059472987307354 
4.030000000003946, -0.3972867473045267 
4.040000000003923, -0.34750518814985293 
4.0500000000039, -0.30875300610681417 
4.0600000000038765, -0.27869064992214215 
4.070000000003853, -0.2553474293782448 
4.08000000000383, -0.2371560586242011 
4.090000000003807, -0.2229090765871916 
4.100000000003783, -0.2116919140559352 
4.11000000000376, -0.20281752641852294 
4.120000000003737, -0.195771436570188 
4.130000000003713, -0.1901686669977194 
4.14000000000369, -0.18572122206790428 
4.150000000003667, -0.1822140463232757 
4.1600000000036434, -0.17948748124229968 
4.17000000000362, -0.17742460120641954 
4.180000000003597, -0.17594219639847 
4.1900000000035735, -0.17498450640479096 
4.20000000000355, -0.1745190777698682 
4.210000000003527, -0.1745343296984555 
4.220000000003504, -0.17503857934767844 
4.23000000000348, -0.17606041700447744 
4.240000000003457, -0.17765044582852865 
4.250000000003434, -0.1798845230999282 
4.26000000000341, -0.18286877082585937 
4.270000000003387, -0.18674677158241143 
4.280000000003364, -0.19170953379535374 
4.2900000000033405, -0.19800898965058053 
4.300000000003317, -0.2059759388110931 
4.310000000003294, -0.21604336652540593 
4.320000000003271, -0.22877570395185798 
4.330000000003247, -0.2449033589608208 
4.340000000003224, -0.2653587739214662 
4.350000000003201, -0.2913037726907399 
4.360000000003177, -0.32412597278022554 
4.370000000003154, -0.3653635271161488 
4.380000000003131, -0.4164973093878673 
4.390000000003107, -0.4785483449849867 
4.400000000003084, -0.5514791060203773 
4.410000000003061, -0.6335612838218668 
4.4200000000030375, -0.7210862462729055 
4.430000000003014, -0.8088251327262892 
4.440000000002991, -0.8912613366867731 
4.450000000002968, -0.9640250620328629 
4.460000000002944, -1.0247714903504799 
4.470000000002921, -1.0731890064068386 
4.480000000002898, -1.1104023680130204 
4.490000000002874, -1.1382355129795403 
4.500000000002851, -1.158641572974378 
4.510000000002828, -1.1733801204953753 
4.520000000002804, -1.183891415041461 
4.530000000002781, -1.1912869752141504 
4.540000000002758, -1.1963928149821925 
4.5500000000027345, -1.1998076201300205 
4.560000000002711, -1.2019579217722194 
4.570000000002688, -1.2031439697442345 
4.580000000002665, -1.2035757860197325 
4.590000000002641, -1.2034013206675662 
4.600000000002618, -1.2027294695021493 
4.610000000002595, -1.201650870266386 
4.620000000002571, -1.2002592069544507 
4.630000000002548, -1.198675109665315 
4.640000000002525, -1.1970731802371761 
4.6500000000025015, -1.1957095926082306 
4.660000000002478, -1.194942911889348 
4.670000000002455, -1.195235489280622 
4.6800000000024315, -1.197120643395115 
4.690000000002408, -1.2011270377557768 
4.700000000002385, -1.2076688626330447 
4.710000000002362, -1.2169329493881056 
4.720000000002338, -1.2288070346896052 
4.730000000002315, -1.2428831292861457 
4.740000000002292, -1.2585377767228538 
4.750000000002268, -1.2750566275188546 
4.760000000002245, -1.2917564597367697 
4.770000000002222, -1.308069272005066 
4.7800000000021985, -1.3235774888066498 
4.790000000002175, -1.3380096238947161 
4.800000000002152, -1.351213916571012 
4.810000000002129, -1.363125569511923 
4.820000000002105, -1.3737371872281643 
4.830000000002082, -1.3830763332411118 
4.840000000002059, -1.3911905111807852 
4.850000000002035, -1.3981382118402557 
4.860000000002012, -1.403984220821787 
4.870000000001989, -1.408797502148246 
4.880000000001965, -1.412650300477123 
4.890000000001942, -1.4156175016180979 
4.900000000001919, -1.4177757174560413 
4.9100000000018955, -1.4192019785139194 
4.920000000001872, -1.4199722598393552 
4.930000000001849, -1.42016026320381 
4.940000000001826, -1.4198368889048327 
4.950000000001802, -1.4190706542156206 
