t, s[1].omega / s[0].omega 
0, -0.7599976683371406 
0.009999999999999995, -0.7597432890421201 
0.019999999999999934, -0.7594429479197294 
0.029999999999999874, -0.7590876124842463 
0.04000000000000012, -0.7586696672180254 
0.050000000000000405, -0.7581890906731606 
0.06000000000000069, -0.7576567778798315 
0.07000000000000098, -0.7570954779684331 
0.08000000000000126, -0.7565403338254195 
0.09000000000000155, -0.7560402441782659 
0.10000000000000184, -0.7556595069255077 
0.11000000000000212, -0.7554778834080871 
0.12000000000000241, -0.7555871150441937 
0.130000000000002, -0.7560832072549131 
0.1400000000000009, -0.757055882642733 
0.1499999999999998, -0.7585780510739435 
0.1599999999999987, -0.7606975333215351 
0.1699999999999976, -0.7634305764858549 
0.1799999999999965, -0.7667536412512209 
0.1899999999999954, -0.7705892604270184 
0.1999999999999943, -0.7747864333623451 
0.2099999999999932, -0.7791075113933714 
0.2199999999999921, -0.783245749711958 
0.229999999999991, -0.7868912033521792 
0.2399999999999899, -0.7898233961099704 
0.2499999999999888, -0.7919706481564154 
0.2599999999999877, -0.7933962134649627 
0.2699999999999866, -0.7942341327764909 
0.2799999999999855, -0.7946257514472113 
0.2899999999999844, -0.7946843443125602 
0.2999999999999833, -0.7944854834687599 
0.3099999999999822, -0.7940710769659158 
0.3199999999999811, -0.7934590888851788 
0.32999999999998, -0.7926580010008661 
0.3399999999999789, -0.791691454716506 
0.3499999999999778, -0.7906442113608112 
0.35999999999997667, -0.7897434327255983 
0.36999999999997557, -0.7894793402617064 
0.37999999999997447, -0.7907253717739974 
0.38999999999997337, -0.794722993307363 
0.39999999999997227, -0.8027056021137561 
0.40999999999997117, -0.8150735530660878 
0.41999999999997006, -0.8306142794764492 
0.42999999999996896, -0.8467376681171647 
0.43999999999996786, -0.8608640705272548 
0.44999999999996676, -0.8716616355054324 
0.45999999999996566, -0.8791287467545768 
0.46999999999996456, -0.8839504597981881 
0.47999999999996346, -0.8869167915115181 
0.48999999999996235, -0.8886608754429389 
0.49999999999996125, -0.8896143445648745 
0.5099999999999602, -0.8900438829386224 
0.519999999999959, -0.8900978206144192 
0.529999999999958, -0.8898391295596613 
0.5399999999999568, -0.8892605167776976 
0.5499999999999557, -0.8882816690294838 
0.5599999999999546, -0.8867277535146643 
0.5699999999999535, -0.8842876009227467 
0.5799999999999524, -0.8804562217923948 
0.5899999999999513, -0.8744926490865399 
0.5999999999999502, -0.8654873202820805 
0.6099999999999491, -0.8527078284995386 
0.619999999999948, -0.8363001896576568 
0.6299999999999469, -0.8179209211239968 
0.6399999999999458, -0.8004030109162615 
0.6499999999999447, -0.7863221519906387 
0.6599999999999436, -0.7767533812443628 
0.6699999999999425, -0.7712532810940418 
0.6799999999999414, -0.7686464802279922 
0.6899999999999403, -0.7677498855446868 
0.6999999999999392, -0.767697326004509 
0.7099999999999381, -0.7679651625378623 
0.719999999999937, -0.7682794940056896 
0.7299999999999359, -0.7685137949642724 
0.7399999999999348, -0.7686141993500955 
0.7499999999999337, -0.7685537226242549 
0.7599999999999326, -0.7683062659860689 
0.7699999999999315, -0.7678320573065649 
0.7799999999999304, -0.7670705218758347 
0.7899999999999293, -0.7659416836117141 
0.7999999999999282, -0.764361184371892 
0.8099999999999271, -0.762272321597251 
0.819999999999926, -0.7596859714656059 
0.8299999999999249, -0.7567026001985353 
0.8399999999999238, -0.7534935708954417 
0.8499999999999227, -0.7502503109775103 
0.8599999999999216, -0.7471358040507341 
0.8699999999999205, -0.7442632445492585 
0.8799999999999194, -0.7417000528871125 
0.8899999999999183, -0.7394820885146942 
0.8999999999999172, -0.7376260044257081 
0.9099999999999161, -0.7361355013154096 
0.919999999999915, -0.7350025052711304 
0.9299999999999139, -0.7342062354874886 
0.9399999999999128, -0.7337129920795691 
0.9499999999999117, -0.7334782788736536 
0.9599999999999106, -0.7334512812489354 
0.9699999999999095, -0.7335804585799682 
0.9799999999999084, -0.733818650465631 
0.9899999999999073, -0.73412664360038 
0.9999999999999062, -0.7344749999394101 
1.0099999999999052, -0.7348443574424541 
1.019999999999904, -0.7352240945254997 
1.029999999999903, -0.735608733591808 
1.039999999999902, -0.7359918615015879 
1.0499999999999008, -0.7363592381152196 
1.0599999999998997, -0.7366849405117569 
1.0699999999998986, -0.7369342533834052 
1.0799999999998975, -0.7370731516511767 
1.0899999999998964, -0.7370791337083074 
1.0999999999998953, -0.7369470520444263 
1.1099999999998942, -0.7366880890163895 
1.119999999999893, -0.7363254047618696 
1.129999999999892, -0.7358914489496078 
1.1399999999998909, -0.7354299896225666 
1.1499999999998898, -0.7350035294863382 
1.1599999999998887, -0.7347051785231185 
1.1699999999998876, -0.7346726243399508 
1.1799999999998865, -0.7350999551769754 
1.1899999999998854, -0.7362411644007257 
1.1999999999998843, -0.738398392613963 
1.2099999999998832, -0.7418888709452514 
1.219999999999882, -0.7469858993305502 
1.229999999999881, -0.7538303173076872 
1.2399999999998799, -0.7623159465282173 
1.2499999999998788, -0.7719810772073037 
1.2599999999998777, -0.7819920659804754 
1.2699999999998766, -0.7913239853885343 
1.2799999999998755, -0.7991177161667162 
1.2899999999998744, -0.8049817498997779 
1.2999999999998733, -0.8090125700110138 
1.3099999999998722, -0.8115813489127778 
1.319999999999871, -0.8131032111979313 
1.32999999999987, -0.81391370377634 
1.3399999999998689, -0.8142409196487211 
1.3499999999998678, -0.8142203254556362 
1.3599999999998666, -0.8139167077645588 
1.3699999999998655, -0.8133395295781766 
1.3799999999998644, -0.8124492240538144 
1.3899999999998633, -0.8111561562259046 
1.3999999999998622, -0.8093165057589318 
1.4099999999998611, -0.8067334325980362 
1.41999999999986, -0.8031779961241092 
1.429999999999859, -0.798447174994901 
1.4399999999998578, -0.7924649457538482 
1.4499999999998567, -0.7854083041924181 
1.4599999999998556, -0.7778299464354478 
1.4699999999998545, -0.7707050392336103 
1.4799999999998534, -0.7651784107150459 
1.4899999999998523, -0.7619559245233825 
1.4999999999998512, -0.7609047495673991 
1.5099999999998501, -0.7613020499947115 
1.519999999999849, -0.762358852456127 
1.529999999999848, -0.7635274295241057 
1.5399999999998468, -0.7645314461574644 
1.5499999999998457, -0.7652761300288433 
1.5599999999998446, -0.7657554709695861 
1.5699999999998435, -0.7659920748229225 
1.5799999999998424, -0.7660054591038655 
1.5899999999998413, -0.7657962953737996 
1.5999999999998402, -0.7653370647378597 
1.6099999999998391, -0.7645644522402876 
1.619999999999838, -0.7633739875521952 
1.629999999999837, -0.7616239202891545 
1.6399999999998358, -0.7591617320631084 
1.6499999999998347, -0.7558837486708802 
1.6599999999998336, -0.751812514361881 
1.6699999999998325, -0.7471393125744139 
1.6799999999998314, -0.7421840034335134 
1.6899999999998303, -0.7372922391338015 
1.6999999999998292, -0.7327427756263651 
1.709999999999828, -0.728711385008211 
1.719999999999827, -0.7252821235190849 
1.729999999999826, -0.7224749723068649 
1.7399999999998248, -0.7202693076672974 
1.7499999999998237, -0.7186181247629322 
1.7599999999998226, -0.7174559933599985 
1.7699999999998215, -0.7167050628601717 
1.7799999999998204, -0.7162815918398764 
1.7899999999998193, -0.7161030715057296 
1.7999999999998182, -0.7160945586792767 
1.809999999999817, -0.7161928363217402 
1.819999999999816, -0.7163480324618996 
1.8299999999998149, -0.7165234263313763 
1.8399999999998138, -0.7166945885622396 
1.8499999999998127, -0.7168484682460037 
1.8599999999998116, -0.7169818646836479 
1.8699999999998105, -0.7170978850972262 
1.8799999999998094, -0.7171997323382115 
1.8899999999998083, -0.7172836024287629 
1.8999999999998072, -0.717334636672793 
1.909999999999806, -0.7173291981189116 
1.919999999999805, -0.7172428708957934 
1.9299999999998039, -0.7170595180152383 
1.9399999999998028, -0.7167764458642504 
1.9499999999998017, -0.7164045559296389 
1.9599999999998006, -0.7159663343261361 
1.9699999999997995, -0.7154953972801961 
1.9799999999997984, -0.7150397106161369 
1.9899999999997973, -0.7146686241023652 
1.9999999999997962, -0.7144823602051693 
2.0099999999998173, -0.7146213489991216 
2.0199999999998384, -0.7152717174565042 
2.0299999999998595, -0.7166627595548652 
2.0399999999998806, -0.7190526182462096 
2.0499999999999017, -0.7226988836644328 
2.059999999999923, -0.7278098268948923 
2.069999999999944, -0.7344704458148217 
2.079999999999965, -0.7425436959356524 
2.089999999999986, -0.7515767814251901 
2.100000000000007, -0.7607951282275175 
2.1100000000000283, -0.7692787004381427 
2.1200000000000494, -0.7762878302634779 
2.1300000000000705, -0.7815173205414228 
2.1400000000000916, -0.7850896127705125 
2.1500000000001127, -0.7873531945305647 
2.160000000000134, -0.7886813661554781 
2.170000000000155, -0.7893702201906938 
2.180000000000176, -0.7896183254455931 
2.190000000000197, -0.7895408830144764 
2.2000000000002182, -0.7891883357937928 
2.2100000000002393, -0.7885580424236869 
2.2200000000002604, -0.787596598214751 
2.2300000000002815, -0.7861932541191917 
2.2400000000003026, -0.7841660840223277 
2.2500000000003237, -0.7812449441977091 
2.260000000000345, -0.7770609294650213 
2.270000000000366, -0.7711637276681254 
2.280000000000387, -0.76311274589076 
2.290000000000408, -0.7527242197153166 
2.3000000000004293, -0.7405059227422688 
2.3100000000004504, -0.727954859150021 
2.3200000000004715, -0.7170755126460715 
2.3300000000004926, -0.7092509387790479 
2.3400000000005137, -0.7046224507913412 
2.3500000000005348, -0.7024491339937019 
2.360000000000556, -0.7017824477720078 
2.370000000000577, -0.7018685728844452 
2.380000000000598, -0.7022358319642541 
2.390000000000619, -0.7026340511583234 
2.4000000000006403, -0.7029482221352297 
2.4100000000006614, -0.7031321005666279 
2.4200000000006825, -0.7031668978524225 
2.4300000000007036, -0.7030379674621448 
2.4400000000007247, -0.7027221594210074 
2.450000000000746, -0.7021817739922207 
2.460000000000767, -0.701364872081287 
2.470000000000788, -0.7002147888539073 
2.480000000000809, -0.6986914024500066 
2.49000000000083, -0.6967993820114381 
2.5000000000008513, -0.6946067721921112 
2.5100000000008724, -0.6922357152690363 
2.5200000000008935, -0.6898265986968448 
2.5300000000009146, -0.6874992169330775 
2.5400000000009357, -0.6853331653355438 
2.550000000000957, -0.6833701897438544 
2.560000000000978, -0.6816275937072185 
2.570000000000999, -0.6801117915181073 
2.58000000000102, -0.6788269434825482 
2.5900000000010412, -0.6777782949227474 
2.6000000000010624, -0.676971816747871 
2.6100000000010835, -0.6764120404803209 
2.6200000000011046, -0.6760996750840993 
2.6300000000011257, -0.676030143839703 
2.6400000000011468, -0.6761936510183224 
2.650000000001168, -0.6765768012974426 
2.660000000001189, -0.6771652561655663 
2.67000000000121, -0.6779465231453928 
2.680000000001231, -0.6789117108996688 
2.6900000000012523, -0.6800548421739636 
2.7000000000012734, -0.6813682001738048 
2.7100000000012945, -0.6828328339055545 
2.7200000000013156, -0.6844058297003913 
2.7300000000013367, -0.686010556933997 
2.740000000001358, -0.6875399081950296 
2.750000000001379, -0.6888787625196915 
2.7600000000014, -0.6899375039603713 
2.770000000001421, -0.6906757883132156 
2.780000000001442, -0.6911021755846488 
2.7900000000014633, -0.6912550139282513 
2.8000000000014844, -0.6911804279422793 
2.8100000000015055, -0.6909181027365887 
2.8200000000015266, -0.6904966295460004 
2.8300000000015477, -0.6899363580069069 
2.840000000001569, -0.6892587756356858 
2.85000000000159, -0.688504523205464 
2.860000000001611, -0.6877654270013995 
2.870000000001632, -0.687237579450775 
2.8800000000016532, -0.6872976454944224 
2.8900000000016743, -0.6885817448856366 
2.9000000000016954, -0.6919898117873496 
2.9100000000017165, -0.6984608730396296 
2.9200000000017377, -0.7083967320363369 
2.9300000000017588, -0.720997224534156 
2.94000000000178, -0.7342963780289845 
2.950000000001801, -0.7462264688679199 
2.960000000001822, -0.7556726399290581 
2.970000000001843, -0.7625528384121918 
2.9800000000018643, -0.7673069396866471 
2.9900000000018854, -0.7704756702805838 
3.0000000000019065, -0.7725224290653931 
3.0100000000019276, -0.7737929152091562 
3.0200000000019487, -0.7745250486202704 
3.03000000000197, -0.7748709367614357 
3.040000000001991, -0.774916619218528 
3.050000000002012, -0.7746946362702944 
3.060000000002033, -0.7741879008109236 
3.070000000002054, -0.7733245184154737 
3.0800000000020753, -0.7719645680852043 
3.0900000000020964, -0.7698846842136733 
3.1000000000021175, -0.7667786030876174 
3.1100000000021386, -0.7623099427066766 
3.1200000000021597, -0.756252404612574 
3.130000000002181, -0.7486849012500016 
3.140000000002202, -0.7400951873164884 
3.150000000002223, -0.7312546091229262 
3.160000000002244, -0.7229338805164561 
3.1700000000022652, -0.7156749700539231 
3.1800000000022863, -0.7097309845157943 
3.1900000000023074, -0.705124555279182 
3.2000000000023285, -0.7017361342646714 
3.2100000000023496, -0.6993756964977982 
3.2200000000023707, -0.6978303324223124 
3.230000000002392, -0.6968939253635782 
3.240000000002413, -0.6963848075838656 
3.250000000002434, -0.6961543903777546 
3.260000000002455, -0.6960885514519525 
3.2700000000024763, -0.6961038716121565 
3.2800000000024974, -0.6961413160148703 
3.2900000000025185, -0.6961598975761463 
3.3000000000025396, -0.6961322188209904 
3.3100000000025607, -0.6960426945747298 
3.3200000000025818, -0.6958877073867831 
3.330000000002603, -0.6956753069206708 
3.340000000002624, -0.695421674981861 
3.350000000002645, -0.6951437521406199 
3.360000000002666, -0.6948510642229173 
3.3700000000026873, -0.6945414976514073 
3.3800000000027084, -0.6942036051399028 
3.3900000000027295, -0.6938237740052062 
3.4000000000027506, -0.6933938762877481 
3.4100000000027717, -0.6929159235607287 
3.420000000002793, -0.6924034660934181 
3.430000000002814, -0.6918818894451821 
3.440000000002835, -0.6913898441434096 
3.450000000002856, -0.6909826637209409 
3.460000000002877, -0.690737143186639 
3.4700000000028983, -0.6907560590853703 
3.4800000000029194, -0.6911704120870263 
3.4900000000029405, -0.6921375954100417 
3.5000000000029616, -0.6938343361556191 
3.5100000000029827, -0.6964435189149362 
3.520000000003004, -0.700132695464333 
3.530000000003025, -0.7050189262165304 
3.540000000003046, -0.7111125553369224 
3.550000000003067, -0.7182403941145524 
3.5600000000030882, -0.7259784228734482 
3.5700000000031094, -0.7336675434119639 
3.5800000000031305, -0.7405798396526742 
3.5900000000031516, -0.746180325008354 
3.6000000000031727, -0.750295880261399 
3.6100000000031938, -0.7530727209472964 
3.620000000003215, -0.7548064490191766 
3.630000000003236, -0.755793211070223 
3.640000000003257, -0.7562606902957394 
3.650000000003278, -0.7563572888175838 
3.6600000000032993, -0.7561636142494136 
3.6700000000033204, -0.7557050824351246 
3.6800000000033415, -0.7549575727471836 
3.6900000000033626, -0.7538437958069093 
3.7000000000033837, -0.7522193363711535 
3.710000000003405, -0.749847396896698 
3.720000000003426, -0.7463629398686301 
3.730000000003447, -0.7412360003320471 
3.740000000003468, -0.7337756512012467 
3.750000000003489, -0.7232902267357245 
3.7600000000035103, -0.7095709111644608 
3.7700000000035314, -0.6935856961906616 
3.7800000000035525, -0.6775877236633423 
3.7900000000035736, -0.6640192104181069 
3.8000000000035947, -0.6541762249300234 
3.810000000003616, -0.6479522668588353 
3.820000000003637, -0.6444781700335852 
3.830000000003658, -0.6427826056352731 
3.840000000003679, -0.6421045253016724 
3.8500000000037002, -0.6419430140589053 
3.8600000000037213, -0.6420019187230139 
3.8700000000037424, -0.6421185383597107 
3.8800000000037635, -0.6422072603042196 
3.8900000000037847, -0.6422221546888653 
3.9000000000038058, -0.6421343921054335 
3.910000000003827, -0.6419198582591625 
3.920000000003848, -0.64155417685691 
3.930000000003869, -0.641014249240066 
3.94000000000389, -0.6402858765272492 
3.9500000000039113, -0.6393747687265897 
3.9600000000039324, -0.6383141299460557 
3.9700000000039535, -0.6371610677211719 
3.9800000000039746, -0.6359809125001668 
3.9900000000039957, -0.6348283236954412 
4.000000000004016, -0.633736152584717 
4.010000000003993, -0.6327159378998584 
4.02000000000397, -0.6317662033823559 
4.030000000003946, -0.6308824128803595 
4.040000000003923, -0.630064524930811 
4.0500000000039, -0.629321205218699 
4.0600000000038765, -0.6286716860589872 
4.070000000003853, -0.6281465735821132 
4.08000000000383, -0.6277883163444369 
4.090000000003807, -0.6276514317227174 
4.100000000003783, -0.6278023523000429 
4.11000000000376, -0.6283188625139329 
4.120000000003737, -0.629289254397284 
4.130000000003713, -0.6308111390581034 
4.14000000000369, -0.6329888854519152 
4.150000000003667, -0.6359265999561299 
4.1600000000036434, -0.6397105554356595 
4.17000000000362, -0.6443727833162634 
4.180000000003597, -0.6498318262310571 
4.1900000000035735, -0.6558272861061134 
4.20000000000355, -0.6619019849373344 
4.210000000003527, -0.6674977113966115 
4.220000000003504, -0.6721516890661383 
4.23000000000348, -0.6756587653022145 
4.240000000003457, -0.6780776089949593 
4.250000000003434, -0.6796139884667359 
4.26000000000341, -0.6804972542209748 
4.270000000003387, -0.6809130341504935 
4.280000000003364, -0.6809853365233123 
4.2900000000033405, -0.680780679586808 
4.300000000003317, -0.6803150643814408 
4.310000000003294, -0.679554823268487 
4.320000000003271, -0.6784069485216622 
4.330000000003247, -0.6766948495944339 
4.340000000003224, -0.6741149565474464 
4.350000000003201, -0.6701748914657204 
4.360000000003177, -0.6641422670727838 
4.370000000003154, -0.6551110085588329 
4.380000000003131, -0.6423842233076564 
4.390000000003107, -0.6262152414172243 
4.400000000003084, -0.608300512386347 
4.410000000003061, -0.5911622121790732 
4.4200000000030375, -0.5768000914060687 
4.430000000003014, -0.5659581647588231 
4.440000000002991, -0.5583730275396348 
4.450000000002968, -0.5533499803527511 
4.460000000002944, -0.5501636138815367 
4.470000000002921, -0.548221074138723 
4.480000000002898, -0.5470889900074234 
4.490000000002874, -0.5464689275110112 
4.500000000002851, -0.5461625495609261 
4.510000000002828, -0.5460410449062187 
4.520000000002804, -0.546022066614919 
4.530000000002781, -0.5460536792498731 
4.540000000002758, -0.5461040235618978 
4.5500000000027345, -0.5461554944159036 
4.560000000002711, -0.5462022827039458 
4.570000000002688, -0.5462497402907738 
4.580000000002665, -0.5463132967813671 
4.590000000002641, -0.5464144408713649 
4.600000000002618, -0.5465726460372872 
4.610000000002595, -0.5467949774278631 
4.620000000002571, -0.5470678054217232 
4.630000000002548, -0.5473556794398006 
4.640000000002525, -0.5476097800195819 
4.6500000000025015, -0.5477827331120877 
4.660000000002478, -0.5478417670397338 
4.670000000002455, -0.5477734862893351 
4.6800000000024315, -0.5475801344369968 
4.690000000002408, -0.5472723227798734 
4.700000000002385, -0.5468631825210651 
4.710000000002362, -0.5463662876809958 
4.720000000002338, -0.5457978935932563 
4.730000000002315, -0.5451839338070814 
4.740000000002292, -0.5445730209715569 
4.750000000002268, -0.5440569576552051 
4.760000000002245, -0.5437970242209578 
4.770000000002222, -0.5440405219833023 
4.7800000000021985, -0.5450761762159138 
4.790000000002175, -0.5470259046451571 
4.800000000002152, -0.5494197577595499 
4.810000000002129, -0.5509132010980412 
4.820000000002105, -0.5499974750867456 
4.830000000002082, -0.5465227758019602 
4.840000000002059, -0.5419685703542829 
4.850000000002035, -0.5379764011891838 
4.860000000002012, -0.535259901849055 
4.870000000001989, -0.5337358975367279 
4.880000000001965, -0.5330356472229761 
4.890000000001942, -0.5328107130724821 
4.900000000001919, -0.5328190970066664 
4.9100000000018955, -0.5329150255269178 
4.920000000001872, -0.5330172253620613 
