t, s[1].omega / s[0].omega 
0, -1.7599484278191444 
0.009999999999999995, -1.7534290983352736 
0.019999999999999934, -1.7441044632111413 
0.029999999999999874, -1.73372209438534 
0.04000000000000012, -1.72685745989953 
0.050000000000000405, -1.7258333932804373 
0.06000000000000069, -1.7276707771351696 
0.07000000000000098, -1.7293993267576198 
0.08000000000000126, -1.7302954347624666 
0.09000000000000155, -1.7305167762668383 
0.10000000000000184, -1.7302652169884738 
0.11000000000000212, -1.7296583066093691 
0.12000000000000241, -1.7288513891233683 
0.130000000000002, -1.7282769365105533 
0.1400000000000009, -1.7286598605329577 
0.1499999999999998, -1.7303104463672494 
0.1599999999999987, -1.7326317389720824 
0.1699999999999976, -1.7348246692199047 
0.1799999999999965, -1.736497349928007 
0.1899999999999954, -1.7375821466089594 
0.1999999999999943, -1.738122984509809 
0.2099999999999932, -1.7381734005840024 
0.2199999999999921, -1.7377652020279513 
0.229999999999991, -1.7369025115190933 
0.2399999999999899, -1.7355671101043189 
0.2499999999999888, -1.73373962120416 
0.2599999999999877, -1.7314616771038795 
0.2699999999999866, -1.7289780237583419 
0.2799999999999855, -1.7268624130424688 
0.2899999999999844, -1.7257106501153316 
0.2999999999999833, -1.7254860040054343 
0.3099999999999822, -1.7256170109388722 
0.3199999999999811, -1.7256391998559806 
0.32999999999998, -1.7253470186310575 
0.3399999999999789, -1.7246023917359548 
0.3499999999999778, -1.7231733657827573 
0.35999999999997667, -1.720733727405019 
0.36999999999997557, -1.7174389853588719 
0.37999999999997447, -1.7157099095665935 
0.38999999999997337, -1.7202272476218763 
0.39999999999997227, -1.7310701469619836 
0.40999999999997117, -1.7424235714738057 
0.41999999999997006, -1.7505723436581122 
0.42999999999996896, -1.7554319801993785 
0.43999999999996786, -1.7580194834821465 
0.44999999999996676, -1.7592111876687089 
0.45999999999996566, -1.7595605828839644 
0.46999999999996456, -1.759385630401336 
0.47999999999996346, -1.7588746458331848 
0.48999999999996235, -1.758167022815026 
0.49999999999996125, -1.7573930682530143 
0.5099999999999602, -1.7566726484247166 
0.519999999999959, -1.756114578535134 
0.529999999999958, -1.7557975206527794 
0.5399999999999568, -1.7556828100854105 
0.5499999999999557, -1.7555983271947195 
0.5599999999999546, -1.7553408137418276 
0.5699999999999535, -1.7547087110622575 
0.5799999999999524, -1.7533996546526633 
0.5899999999999513, -1.7508056532322247 
0.5999999999999502, -1.7457074649886486 
0.6099999999999491, -1.7361492161432523 
0.619999999999948, -1.721214487231317 
0.6299999999999469, -1.7070418476509512 
0.6399999999999458, -1.705642244498582 
0.6499999999999447, -1.715577193735524 
0.6599999999999436, -1.7255596789369894 
0.6699999999999425, -1.7314574282233401 
0.6799999999999414, -1.7342739869138246 
0.6899999999999403, -1.735412755099168 
0.6999999999999392, -1.7356809805475675 
0.7099999999999381, -1.735471590463359 
0.719999999999937, -1.7350053599918192 
0.7299999999999359, -1.7344981459540694 
0.7399999999999348, -1.7342081521725419 
0.7499999999999337, -1.7342931629696825 
0.7599999999999326, -1.734676188594856 
0.7699999999999315, -1.735160085542044 
0.7799999999999304, -1.735578436281695 
0.7899999999999293, -1.7358119371944372 
0.7999999999999282, -1.7357626114000824 
0.8099999999999271, -1.7353291997404767 
0.819999999999926, -1.7343724383604342 
0.8299999999999249, -1.7326752630623699 
0.8399999999999238, -1.729909329712796 
0.8499999999999227, -1.7256408436352664 
0.8599999999999216, -1.7195111080152272 
0.8699999999999205, -1.71190215313686 
0.8799999999999194, -1.7049246400935902 
0.8899999999999183, -1.7013986952818332 
0.8999999999999172, -1.7013626441020762 
0.9099999999999161, -1.7025235243833414 
0.919999999999915, -1.7034148577897958 
0.9299999999999139, -1.7037525991318667 
0.9399999999999128, -1.7036151249746545 
0.9499999999999117, -1.7030717660081218 
0.9599999999999106, -1.7021658926215693 
0.9699999999999095, -1.7011195659361544 
0.9799999999999084, -1.7006987136939276 
0.9899999999999073, -1.702021565093413 
0.9999999999999062, -1.7052071861554932 
1.0099999999999052, -1.7090247215112289 
1.019999999999904, -1.7123241922943144 
1.029999999999903, -1.7147111416625074 
1.039999999999902, -1.7162278893571983 
1.0499999999999008, -1.7170272696864477 
1.0599999999998997, -1.7172492240774073 
1.0699999999998986, -1.7169945737347354 
1.0799999999998975, -1.7163285394304073 
1.0899999999998964, -1.715295212463832 
1.0999999999998953, -1.713941794256692 
1.1099999999998942, -1.712359685349576 
1.119999999999893, -1.7107535761386234 
1.129999999999892, -1.7094707259208892 
1.1399999999998909, -1.7087935388168098 
1.1499999999998898, -1.708630909496566 
1.1599999999998887, -1.7086242215765786 
1.1699999999998876, -1.7084712569511507 
1.1799999999998865, -1.7079814035582952 
1.1899999999998854, -1.7069336287294359 
1.1999999999998843, -1.7049037594213605 
1.2099999999998832, -1.7011498552670061 
1.219999999999882, -1.6950916751493423 
1.229999999999881, -1.6889471301951193 
1.2399999999998799, -1.6904260378294296 
1.2499999999998788, -1.7033766251762443 
1.2599999999998777, -1.719343173000309 
1.2699999999998766, -1.7308222848564576 
1.2799999999998755, -1.737270110857132 
1.2899999999998744, -1.7404665727848716 
1.2999999999998733, -1.7418659093200717 
1.3099999999998722, -1.7422943031487599 
1.319999999999871, -1.7421772250807144 
1.32999999999987, -1.74174808370872 
1.3399999999998689, -1.7411815346635184 
1.3499999999998678, -1.7406440096843976 
1.3599999999998666, -1.7402549058417338 
1.3699999999998655, -1.7400477454037333 
1.3799999999998644, -1.7399974711923538 
1.3899999999998633, -1.7400291514902957 
1.3999999999998622, -1.7400113857891708 
1.4099999999998611, -1.7397898528819553 
1.41999999999986, -1.7391941913204438 
1.429999999999859, -1.7379708471285311 
1.4399999999998578, -1.7356562935977642 
1.4499999999998567, -1.7314029345852986 
1.4599999999998556, -1.723860553900153 
1.4699999999998545, -1.711709615531324 
1.4799999999998534, -1.6962795722335624 
1.4899999999998523, -1.6846075862147802 
1.4999999999998512, -1.6826994780043223 
1.5099999999998501, -1.6865895985919583 
1.519999999999849, -1.6904395615957675 
1.529999999999848, -1.692656583918437 
1.5399999999998468, -1.69361887567235 
1.5499999999998457, -1.6938293933882878 
1.5599999999998446, -1.6935787248323444 
1.5699999999998435, -1.6930331680362651 
1.5799999999998424, -1.6923980138781265 
1.5899999999998413, -1.692060311101703 
1.5999999999998402, -1.6924524093757274 
1.6099999999998391, -1.6936008730574585 
1.619999999999838, -1.6950740610480295 
1.629999999999837, -1.6964324099329608 
1.6399999999998358, -1.69745717899638 
1.6499999999998347, -1.6980807361416628 
1.6599999999998336, -1.6982897426087533 
1.6699999999998325, -1.6980763668424874 
1.6799999999998314, -1.6974175321087064 
1.6899999999998303, -1.6962673002635273 
1.6999999999998292, -1.6945596392203846 
1.709999999999828, -1.692232839139836 
1.719999999999827, -1.6893137689813233 
1.729999999999826, -1.6861119526596358 
1.7399999999998248, -1.6833813657724375 
1.7499999999998237, -1.681903802388646 
1.7599999999998226, -1.6816387399395456 
1.7699999999998215, -1.6818647687000492 
1.7799999999998204, -1.6820094527303435 
1.7899999999998193, -1.6818489399931398 
1.7999999999998182, -1.6812832860960167 
1.809999999999817, -1.6801601909956905 
1.819999999999816, -1.6782471067789237 
1.8299999999998149, -1.6755720947426702 
1.8399999999998138, -1.6736268041792908 
1.8499999999998127, -1.6760956767590964 
1.8599999999998116, -1.6846533938384347 
1.8699999999998105, -1.6954076927305508 
1.8799999999998094, -1.7041676172578413 
1.8899999999998083, -1.709891004424407 
1.8999999999998072, -1.7131943233947435 
1.909999999999806, -1.71489464225001 
1.919999999999805, -1.715589630566253 
1.9299999999998039, -1.7156510327493453 
1.9399999999998028, -1.7153008600786717 
1.9499999999998017, -1.714686944161733 
1.9599999999998006, -1.713937274121447 
1.9699999999997995, -1.7131761628341482 
1.9799999999997984, -1.712515581744536 
1.9899999999997973, -1.7120526187716483 
1.9999999999997962, -1.7118278855860853 
2.0099999999998173, -1.711753567096205 
2.0199999999998384, -1.7116467233041845 
2.0299999999998595, -1.7113189926142744 
2.0399999999998806, -1.710568486697012 
2.0499999999999017, -1.7090640713425913 
2.059999999999923, -1.7061460885688287 
2.069999999999944, -1.7005500488534797 
2.079999999999965, -1.6903631474335352 
2.089999999999986, -1.6747538204763495 
2.100000000000007, -1.659189770718265 
2.1100000000000283, -1.6546510055207198 
2.1200000000000494, -1.6614266906605757 
2.1300000000000705, -1.6698721515550172 
2.1400000000000916, -1.675301578603777 
2.1500000000001127, -1.6780216473980947 
2.160000000000134, -1.6791629368741354 
2.170000000000155, -1.6794546382111317 
2.180000000000176, -1.6792652622793387 
2.190000000000197, -1.6787984529704025 
2.2000000000002182, -1.6782582105765869 
2.2100000000002393, -1.6779378460251901 
2.2200000000002604, -1.6781000067102994 
2.2300000000002815, -1.6787313468009182 
2.2400000000003026, -1.6795718741013936 
2.2500000000003237, -1.6803626247778443 
2.260000000000345, -1.6809486069511803 
2.270000000000366, -1.6812449526480555 
2.280000000000387, -1.6811937960571182 
2.290000000000408, -1.6807354181434637 
2.3000000000004293, -1.6797875771033506 
2.3100000000004504, -1.67823308625196 
2.3200000000004715, -1.6759197563472934 
2.3300000000004926, -1.672694694389731 
2.3400000000005137, -1.668542309771054 
2.3500000000005348, -1.6639148772536358 
2.360000000000556, -1.660002345161717 
2.370000000000577, -1.6580089582650845 
2.380000000000598, -1.6577960483814944 
2.390000000000619, -1.658253966409824 
2.4000000000006403, -1.658603503712874 
2.4100000000006614, -1.6586054210527466 
2.4200000000006825, -1.6582136898261557 
2.4300000000007036, -1.6573625442067823 
2.4400000000007247, -1.6559436663082079 
2.450000000000746, -1.6540594303812317 
2.460000000000767, -1.6527870096824002 
2.470000000000788, -1.654569676472977 
2.480000000000809, -1.6606752288829512 
2.49000000000083, -1.6687904831041145 
2.5000000000008513, -1.6759233082168066 
2.5100000000008724, -1.680967151584121 
2.5200000000008935, -1.6841124414128728 
2.5300000000009146, -1.6858664916404091 
2.5400000000009357, -1.6866695076483018 
2.550000000000957, -1.6868286339641352 
2.560000000000978, -1.686542699656623 
2.570000000000999, -1.6859455394121183 
2.58000000000102, -1.685148138654028 
2.5900000000010412, -1.6842640203762174 
2.6000000000010624, -1.6834144528349764 
2.6100000000010835, -1.682730651438779 
2.6200000000011046, -1.682319235861955 
2.6300000000011257, -1.682161428267668 
2.6400000000011468, -1.6820904821784666 
2.650000000001168, -1.6819009156385032 
2.660000000001189, -1.6814062157031586 
2.67000000000121, -1.6803680262180425 
2.680000000001231, -1.67833976798572 
2.6900000000012523, -1.6744290748874975 
2.7000000000012734, -1.6670584720648052 
2.7100000000012945, -1.6544776295825385 
2.7200000000013156, -1.638186396416599 
2.7300000000013367, -1.6274580355953536 
2.740000000001358, -1.630153373188809 
2.750000000001379, -1.6398854614440879 
2.7600000000014, -1.6479963825489132 
2.770000000001421, -1.6526037466278267 
2.780000000001442, -1.6547957566814664 
2.7900000000014633, -1.6556582746192028 
2.8000000000014844, -1.6558019243749964 
2.8100000000015055, -1.6555305731133898 
2.8200000000015266, -1.6550309568965118 
2.8300000000015477, -1.6545191931332408 
2.840000000001569, -1.6542892153908977 
2.85000000000159, -1.6545518521669589 
2.860000000001611, -1.6552337555781016 
2.870000000001632, -1.6560713212991989 
2.8800000000016532, -1.6568321833680861 
2.8900000000016743, -1.6573791064461687 
2.9000000000016954, -1.657633871624577 
2.9100000000017165, -1.6575407182887687 
2.9200000000017377, -1.657041149391679 
2.9300000000017588, -1.6560563549506149 
2.94000000000178, -1.6544781220753808 
2.950000000001801, -1.6521724066696557 
2.960000000001822, -1.6490167008524252 
2.970000000001843, -1.645032224906269 
2.9800000000018643, -1.640674710303486 
2.9900000000018854, -1.6370326153899106 
3.0000000000019065, -1.635156218258625 
3.0100000000019276, -1.634907507915727 
3.0200000000019487, -1.6352954114536242 
3.03000000000197, -1.6356006616175018 
3.040000000001991, -1.635582261608794 
3.050000000002012, -1.6351791583936919 
3.060000000002033, -1.634308243002377 
3.070000000002054, -1.6328232528283224 
3.0800000000020753, -1.6307211969021935 
3.0900000000020964, -1.628911110042391 
3.1000000000021175, -1.6300137126247993 
3.1100000000021386, -1.636198898796896 
3.1200000000021597, -1.645518924551189 
3.130000000002181, -1.6542075315018478 
3.140000000002202, -1.660495457463977 
3.150000000002223, -1.664450007438648 
3.160000000002244, -1.6666881576968486 
3.1700000000022652, -1.667779229503422 
3.1800000000022863, -1.6681222519000642 
3.1900000000023074, -1.6679711137805888 
3.2000000000023285, -1.6674891338857758 
3.2100000000023496, -1.6668021586077757 
3.2200000000023707, -1.6660317986257749 
3.230000000002392, -1.6652959554281648 
3.240000000002413, -1.6646989514498274 
3.250000000002434, -1.6643210976929974 
3.260000000002455, -1.6641642716624552 
3.2700000000024763, -1.6641093526444422 
3.2800000000024974, -1.6639763974940345 
3.2900000000025185, -1.6635904924902447 
3.3000000000025396, -1.662749527898589 
3.3100000000025607, -1.6611101594605011 
3.3200000000025818, -1.6580091911110135 
3.330000000002603, -1.6522372390507543 
3.340000000002624, -1.6420483687885195 
3.350000000002645, -1.6265949454326574 
3.360000000002666, -1.6100532168329367 
3.3700000000026873, -1.6019334450987917 
3.3800000000027084, -1.6048192780374664 
3.3900000000027295, -1.6113695318298213 
3.4000000000027506, -1.616292781729045 
3.4100000000027717, -1.6189692163968825 
3.420000000002793, -1.6201648222887264 
3.430000000002814, -1.6205163486678 
3.440000000002835, -1.6203704174062767 
3.450000000002856, -1.6199108096257917 
3.460000000002877, -1.6193084873593988 
3.4700000000028983, -1.6188585887843832 
3.4800000000029194, -1.6189597731754 
3.4900000000029405, -1.6197988552872407 
3.5000000000029616, -1.6211323605959698 
3.5100000000029827, -1.622542321930253 
3.520000000003004, -1.6237391169091626 
3.530000000003025, -1.6245958708723311 
3.540000000003046, -1.6250720960261187 
3.550000000003067, -1.6251571128581932 
3.5600000000030882, -1.6248425841924987 
3.5700000000031094, -1.6241109875091362 
3.5800000000031305, -1.6229334539803566 
3.5900000000031516, -1.6212771207715755 
3.6000000000031727, -1.6191314944328448 
3.6100000000031938, -1.6165772870541386 
3.620000000003215, -1.6139118294326145 
3.630000000003236, -1.6117049416982379 
3.640000000003257, -1.610475397602885 
3.650000000003278, -1.6101715434361619 
3.6600000000032993, -1.6102765926337823 
3.6700000000033204, -1.6103400946441542 
3.6800000000033415, -1.6101440954021164 
3.6900000000033626, -1.60956060453114 
3.7000000000033837, -1.608394170806908 
3.710000000003405, -1.6062798402294738 
3.720000000003426, -1.6027539409755178 
3.730000000003447, -1.5980839987316626 
3.740000000003468, -1.595469563706525 
3.750000000003489, -1.600790951875243 
3.7600000000035103, -1.6144347289345529 
3.7700000000035314, -1.6292450422761877 
3.7800000000035525, -1.6400543963773189 
3.7900000000035736, -1.6464878152372564 
3.8000000000035947, -1.6498994274162524 
3.810000000003616, -1.6515200229681681 
3.820000000003637, -1.6521209955015048 
3.830000000003658, -1.6521309153088353 
3.840000000003679, -1.651789569566122 
3.8500000000037002, -1.6512638965080009 
3.8600000000037213, -1.6507135787400706 
3.8700000000037424, -1.6502821454318035 
3.8800000000037635, -1.6500411078315078 
3.8900000000037847, -1.649981142868377 
3.9000000000038058, -1.6500441871907596 
3.910000000003827, -1.6501306874591648 
3.920000000003848, -1.6501116509665947 
3.930000000003869, -1.6498529944369298 
3.94000000000389, -1.6492041760961 
3.9500000000039113, -1.6479449940749853 
3.9600000000039324, -1.645712401831874 
3.9700000000039535, -1.641928554626298 
3.9800000000039746, -1.635798806759055 
3.9900000000039957, -1.6266299159291973 
4.000000000004016, -1.6149722557967405 
4.010000000003993, -1.6041944791851073 
4.02000000000397, -1.5987594532132703 
4.030000000003946, -1.5988145134914649 
4.040000000003923, -1.6008506865757728 
4.0500000000039, -1.6025431445083353 
4.0600000000038765, -1.603432861951612 
4.070000000003853, -1.6036852042031804 
4.08000000000383, -1.603479645612826 
4.090000000003807, -1.6029088439940515 
4.100000000003783, -1.6020558346831677 
4.11000000000376, -1.6011973256283707 
4.120000000003737, -1.601036111285658 
4.130000000003713, -1.6024134765017268 
4.14000000000369, -1.6053473413635857 
4.150000000003667, -1.6088885085410412 
4.1600000000036434, -1.6120981297901094 
4.17000000000362, -1.6145678792942266 
4.180000000003597, -1.616258916250549 
4.1900000000035735, -1.6172655222670482 
4.20000000000355, -1.6177015367911363 
4.210000000003527, -1.617664574605494 
4.220000000003504, -1.6172300146368497 
4.23000000000348, -1.616457000747759 
4.240000000003457, -1.6154026781757227 
4.250000000003434, -1.614142682575529 
4.26000000000341, -1.6127977136355771 
4.270000000003387, -1.6115614706250245 
4.280000000003364, -1.6106688291407365 
4.2900000000033405, -1.6102328992805799 
4.300000000003317, -1.6101182423020763 
4.310000000003294, -1.6100606232630448 
4.320000000003271, -1.6098379551360562 
4.330000000003247, -1.6092745908500412 
4.340000000003224, -1.6081295894021594 
4.350000000003201, -1.605933783634092 
4.360000000003177, -1.6017765877542012 
4.370000000003154, -1.594218798063293 
4.380000000003131, -1.5823379467564707 
4.390000000003107, -1.569601053439565 
4.400000000003084, -1.5656979177366048 
4.410000000003061, -1.5745592856231025 
4.4200000000030375, -1.5875541782400304 
4.430000000003014, -1.597186906837409 
4.440000000002991, -1.602585907701987 
4.450000000002968, -1.6052167041854422 
4.460000000002944, -1.606329650715654 
4.470000000002921, -1.6066261626005307 
4.480000000002898, -1.606458132178041 
4.490000000002874, -1.6060226562258866 
4.500000000002851, -1.6055039950497512 
4.510000000002828, -1.60514893400517 
4.520000000002804, -1.6051906325716303 
4.530000000002781, -1.6056640733288616 
4.540000000002758, -1.6063878324248353 
4.5500000000027345, -1.6071364685979248 
4.560000000002711, -1.6077493891256502 
4.570000000002688, -1.6081274854523815 
4.580000000002665, -1.6082048259793673 
4.590000000002641, -1.6079258161202528 
4.600000000002618, -1.607227567307714 
4.610000000002595, -1.606029311649746 
4.620000000002571, -1.6042307633196047 
4.630000000002548, -1.6017258704801562 
4.640000000002525, -1.5984570630832347 
4.6500000000025015, -1.5945620107055527 
4.660000000002478, -1.5906113009080487 
4.670000000002455, -1.5876030693561831 
4.6800000000024315, -1.5862185546428411 
4.690000000002408, -1.586106912681428 
4.700000000002385, -1.586423361473959 
4.710000000002362, -1.5866229637995106 
4.720000000002338, -1.586516200553174 
4.730000000002315, -1.5860275477118992 
4.740000000002292, -1.5850347993109817 
4.750000000002268, -1.5833194291875006 
4.760000000002245, -1.5807293458126508 
4.770000000002222, -1.5779628275732849 
4.7800000000021985, -1.577880439935865 
4.790000000002175, -1.5840897004896755 
4.800000000002152, -1.5956030034591 
4.810000000002129, -1.6073876054901877 
4.820000000002105, -1.616208453603862 
4.830000000002082, -1.6217724757062484 
4.840000000002059, -1.6249216799671906 
4.850000000002035, -1.6265146896004885 
4.860000000002012, -1.6271508160105366 
4.870000000001989, -1.6271969932663801 
4.880000000001965, -1.6268730994929754 
4.890000000001942, -1.6263317894699707 
4.900000000001919, -1.6257129341847723 
4.9100000000018955, -1.6251495246561536 
4.920000000001872, -1.624733433759177 
4.930000000001849, -1.624499859347513 
4.940000000001826, -1.624433335309412 
