t, s[1].omega / s[0].omega 
0, -0.26999781025381064 
0.009999999999999995, -0.2698696736467493 
0.019999999999999934, -0.269905009683333 
0.029999999999999874, -0.27005813277199336 
0.04000000000000012, -0.2702642547514508 
0.050000000000000405, -0.27045532349162554 
0.06000000000000069, -0.27057545587864584 
0.07000000000000098, -0.27058845160282124 
0.08000000000000126, -0.270475055631486 
0.09000000000000155, -0.27022354330457937 
0.10000000000000184, -0.2698181458858379 
0.11000000000000212, -0.26922681488030653 
0.12000000000000241, -0.2683864092458688 
0.130000000000002, -0.2671814634791134 
0.1400000000000009, -0.26541391331337866 
0.1499999999999998, -0.26277171961190193 
0.1599999999999987, -0.2588374244923927 
0.1699999999999976, -0.25322975771939255 
0.1799999999999965, -0.2459390405506378 
0.1899999999999954, -0.23763057649955735 
0.1999999999999943, -0.22944905742222113 
0.2099999999999932, -0.222373303279017 
0.2199999999999921, -0.21680261770580925 
0.229999999999991, -0.2126513848035533 
0.2399999999999899, -0.20962938248438484 
0.2499999999999888, -0.2074333055973372 
0.2599999999999877, -0.2058193203739859 
0.2699999999999866, -0.204612550196943 
0.2799999999999855, -0.20369592460059788 
0.2899999999999844, -0.20299670574577927 
0.2999999999999833, -0.20247642323451354 
0.3099999999999822, -0.2021256138772937 
0.3199999999999811, -0.2019639512160479 
0.32999999999998, -0.2020468563877819 
0.3399999999999789, -0.20248070341898758 
0.3499999999999778, -0.20344929238557458 
0.35999999999997667, -0.20525045014005427 
0.36999999999997557, -0.20831867157994272 
0.37999999999997447, -0.21312421552355304 
0.38999999999997337, -0.21962810208569006 
0.39999999999997227, -0.22587473161141344 
0.40999999999997117, -0.2268077053480036 
0.41999999999997006, -0.21765332151316402 
0.42999999999996896, -0.20067000782905633 
0.43999999999996786, -0.18317139335603908 
0.44999999999996676, -0.16971596661981347 
0.45999999999996566, -0.16071511762915833 
0.46999999999996456, -0.15499693744439583 
0.47999999999996346, -0.15139298972829346 
0.48999999999996235, -0.14910215822933898 
0.49999999999996125, -0.14763583956692555 
0.5099999999999602, -0.1467094155462888 
0.519999999999959, -0.14616354238892504 
0.529999999999958, -0.14591793649539536 
0.5399999999999568, -0.14594786966150744 
0.5499999999999557, -0.14627617596808837 
0.5599999999999546, -0.14697781071788987 
0.5699999999999535, -0.14819780660051524 
0.5799999999999524, -0.1501868999417523 
0.5899999999999513, -0.1533609129709554 
0.5999999999999502, -0.15838230189529373 
0.6099999999999491, -0.1662168560858171 
0.619999999999948, -0.17797338070392058 
0.6299999999999469, -0.19410993447445107 
0.6399999999999458, -0.21294364626434686 
0.6499999999999447, -0.230346801813866 
0.6599999999999436, -0.2427145929893646 
0.6699999999999425, -0.24971865110432762 
0.6799999999999414, -0.2531473100479892 
0.6899999999999403, -0.2547369192099244 
0.6999999999999392, -0.25549035409431187 
0.7099999999999381, -0.255872697805711 
0.719999999999937, -0.25608115648775753 
0.7299999999999359, -0.25619816503136067 
0.7399999999999348, -0.25625985991352657 
0.7499999999999337, -0.25628450881564835 
0.7599999999999326, -0.2562848223133255 
0.7699999999999315, -0.25627454600797106 
0.7799999999999304, -0.25627338986509407 
0.7899999999999293, -0.25631132903186155 
0.7999999999999282, -0.25643158893476736 
0.8099999999999271, -0.25669077356663045 
0.819999999999926, -0.25715462485415963 
0.8299999999999249, -0.25788813017714596 
0.8399999999999238, -0.2589383096124675 
0.8499999999999227, -0.26030893407563854 
0.8599999999999216, -0.2619338988398626 
0.8699999999999205, -0.2636696899985507 
0.8799999999999194, -0.26532873744057406 
0.8899999999999183, -0.2667445980479339 
0.8999999999999172, -0.26782401211974843 
0.9099999999999161, -0.26855220500927346 
0.919999999999915, -0.2689623725806656 
0.9299999999999139, -0.26910004327466364 
0.9399999999999128, -0.2689994799022234 
0.9499999999999117, -0.26867230571974626 
0.9599999999999106, -0.26810289828976375 
0.9699999999999095, -0.2672474078556678 
0.9799999999999084, -0.26603845760263933 
0.9899999999999073, -0.2644031173415773 
0.9999999999999062, -0.2623024336937921 
1.0099999999999052, -0.2597857285587596 
1.019999999999904, -0.2570217232213165 
1.029999999999903, -0.2542610050276809 
1.039999999999902, -0.2517409108138075 
1.0499999999999008, -0.24960556032571604 
1.0599999999998997, -0.24789073817312182 
1.0699999999998986, -0.24655659028859075 
1.0799999999998975, -0.2455284501602387 
1.0899999999998964, -0.24472538866589816 
1.0999999999998953, -0.2440753553926865 
1.1099999999998942, -0.2435214522403168 
1.119999999999893, -0.24302291211511468 
1.129999999999892, -0.24255304104016107 
1.1399999999998909, -0.24209584186278432 
1.1499999999998898, -0.2416424714803787 
1.1599999999998887, -0.24118763366709733 
1.1699999999998876, -0.24072417577140656 
1.1799999999998865, -0.24023023376226757 
1.1899999999998854, -0.23963355529563762 
1.1999999999998843, -0.23871538078784266 
1.2099999999998832, -0.23688295879677135 
1.219999999999882, -0.23277711114213956 
1.229999999999881, -0.22411047620185257 
1.2399999999998799, -0.20902417978011756 
1.2499999999998788, -0.18904084229412324 
1.2599999999998777, -0.1690910264985252 
1.2699999999998766, -0.1531630514485946 
1.2799999999998755, -0.14205261603493702 
1.2899999999998744, -0.13475147997283388 
1.2999999999998733, -0.13001281966400097 
1.3099999999998722, -0.12690304455921222 
1.319999999999871, -0.12482376112816299 
1.32999999999987, -0.12341320509675431 
1.3399999999998689, -0.12245959138943222 
1.3499999999998678, -0.12184580592486312 
1.3599999999998666, -0.1215189297978921 
1.3699999999998655, -0.12147719790140439 
1.3799999999998644, -0.12177081961599963 
1.3899999999998633, -0.12251733335642254 
1.3999999999998622, -0.12393663966537816 
1.4099999999998611, -0.12641492045018615 
1.41999999999986, -0.1306028519239078 
1.429999999999859, -0.1375064018914461 
1.4399999999998578, -0.1483250359494897 
1.4499999999998567, -0.16330819393380314 
1.4599999999998556, -0.1790778136376147 
1.4699999999998545, -0.18801078739344418 
1.4799999999998534, -0.18565719501762007 
1.4899999999998523, -0.176366305129035 
1.4999999999998512, -0.16662376757410763 
1.5099999999998501, -0.15925714835305996 
1.519999999999849, -0.1543466681342428 
1.529999999999848, -0.15121047975689725 
1.5399999999998468, -0.14922502862937934 
1.5499999999998457, -0.14797061346953888 
1.5599999999998446, -0.14719241313478543 
1.5699999999998435, -0.14674462171264507 
1.5799999999998424, -0.14655168622197096 
1.5899999999998413, -0.14658677380301882 
1.5999999999998402, -0.14686303948679563 
1.6099999999998391, -0.14743495695978362 
1.619999999999838, -0.14840939220273391 
1.629999999999837, -0.14996820165018435 
1.6399999999998358, -0.15240488400686958 
1.6499999999998347, -0.15617264714275877 
1.6599999999998336, -0.1619155015319627 
1.6699999999998325, -0.17037857875844478 
1.6799999999998314, -0.18197951575286797 
1.6899999999998303, -0.1959572303657337 
1.6999999999998292, -0.2099247749514752 
1.709999999999828, -0.2211710907835939 
1.719999999999827, -0.22862878950683618 
1.729999999999826, -0.23296364122379537 
1.7399999999998248, -0.23533469457095757 
1.7499999999998237, -0.23662103566979115 
1.7599999999998226, -0.23732893614063272 
1.7699999999998215, -0.2377198691571766 
1.7799999999998204, -0.23792520091536407 
1.7899999999998193, -0.23801208909770882 
1.7999999999998182, -0.2380169395987913 
1.809999999999817, -0.23796266845977918 
1.819999999999816, -0.2378689632217148 
1.8299999999998149, -0.23775972113650803 
1.8399999999998138, -0.23766869370781815 
1.8499999999998127, -0.23764240600980147 
1.8599999999998116, -0.23773884287236582 
1.8699999999998105, -0.23802122597557399 
1.8799999999998094, -0.23854708000407138 
1.8899999999998083, -0.23935241198853308 
1.8999999999998072, -0.24043137994027747 
1.909999999999806, -0.24171798133225977 
1.919999999999805, -0.24308598725017377 
1.9299999999998039, -0.24438066102901557 
1.9399999999998028, -0.24547018003743562 
1.9499999999998017, -0.24628203771316595 
1.9599999999998006, -0.24680336755191296 
1.9699999999997995, -0.2470561811126984 
1.9799999999997984, -0.24706980959529573 
1.9899999999997973, -0.2468621339487202 
1.9999999999997962, -0.2464294693079479 
2.0099999999998173, -0.24574150939597222 
2.0199999999998384, -0.24474029098437766 
2.0299999999998595, -0.2433475067841316 
2.0399999999998806, -0.24148975553842056 
2.0499999999999017, -0.23914827012807285 
2.059999999999923, -0.23641587422599053 
2.069999999999944, -0.23351037317912762 
2.079999999999965, -0.23070677256045488 
2.089999999999986, -0.22822929002376932 
2.100000000000007, -0.22618711240994976 
2.1100000000000283, -0.2245822235336135 
2.1200000000000494, -0.22335305202590847 
2.1300000000000705, -0.22241479268229702 
2.1400000000000916, -0.22168369931950363 
2.1500000000001127, -0.22108854287644034 
2.160000000000134, -0.22057450578315924 
2.170000000000155, -0.2201026732570876 
2.180000000000176, -0.21964696828141195 
2.190000000000197, -0.2191898809722285 
2.2000000000002182, -0.21871761145264207 
2.2100000000002393, -0.21821378427999344 
2.2200000000002604, -0.2176481290695827 
2.2300000000002815, -0.21695058141482057 
2.2400000000003026, -0.21594830073967186 
2.2500000000003237, -0.2142217911084463 
2.260000000000345, -0.21084024160878018 
2.270000000000366, -0.20413265843770625 
2.280000000000387, -0.1922611158930922 
2.290000000000408, -0.17533682876053674 
2.3000000000004293, -0.1567854976240656 
2.3100000000004504, -0.14074512705309722 
2.3200000000004715, -0.128963004861975 
2.3300000000004926, -0.12100970635348489 
2.3400000000005137, -0.11578907218679162 
2.3500000000005348, -0.11234885167351856 
2.360000000000556, -0.11004062143715591 
2.370000000000577, -0.10846022194446252 
2.380000000000598, -0.1073652186534294 
2.390000000000619, -0.10661574204057227 
2.4000000000006403, -0.10613936850890426 
2.4100000000006614, -0.10591353314813787 
2.4200000000006825, -0.10596106083865049 
2.4300000000007036, -0.10635781482796643 
2.4400000000007247, -0.10725476197569846 
2.450000000000746, -0.10891887592088194 
2.460000000000767, -0.11179171158126147 
2.470000000000788, -0.11652272572400404 
2.480000000000809, -0.12376843380782072 
2.49000000000083, -0.13316070080940684 
2.5000000000008513, -0.1410062498056896 
2.5100000000008724, -0.14002895879194863 
2.5200000000008935, -0.12716841417544905 
2.5300000000009146, -0.10911012764588449 
2.5400000000009357, -0.09357646840465471 
2.550000000000957, -0.08286616638908989 
2.560000000000978, -0.07608022927225976 
2.570000000000999, -0.07185266495707623 
2.58000000000102, -0.0691907012734981 
2.5900000000010412, -0.06748976226926905 
2.6000000000010624, -0.06640334430631273 
2.6100000000010835, -0.06574089931490391 
2.6200000000011046, -0.06540816723339808 
2.6300000000011257, -0.06537778049111358 
2.6400000000011468, -0.06568064471773635 
2.650000000001168, -0.06641499112382548 
2.660000000001189, -0.06777643003186887 
2.67000000000121, -0.07011928809591104 
2.680000000001231, -0.07406461956884001 
2.6900000000012523, -0.08065304921231582 
2.7000000000012734, -0.09141269079310349 
2.7100000000012945, -0.1077614275452583 
2.7200000000013156, -0.12863161036805426 
2.7300000000013367, -0.14766535503966532 
2.740000000001358, -0.15728443932641514 
2.750000000001379, -0.15735315219288595 
2.7600000000014, -0.15325158098524014 
2.770000000001421, -0.1489508127827455 
2.780000000001442, -0.14570561112858502 
2.7900000000014633, -0.14351420094919942 
2.8000000000014844, -0.14209274617270387 
2.8100000000015055, -0.141188959594667 
2.8200000000015266, -0.14063319131529525 
2.8300000000015477, -0.1403245218707171 
2.840000000001569, -0.14021124864974369 
2.85000000000159, -0.14027826139812777 
2.860000000001611, -0.14054219365299256 
2.870000000001632, -0.1410536740905011 
2.8800000000016532, -0.14190678017353514 
2.8900000000016743, -0.14325680751460107 
2.9000000000016954, -0.1453473159604981 
2.9100000000017165, -0.14854218165305066 
2.9200000000017377, -0.15333733585188655 
2.9300000000017588, -0.16027313712124613 
2.94000000000178, -0.16960418089173968 
2.950000000001801, -0.180713807921468 
2.960000000001822, -0.19185926143354676 
2.970000000001843, -0.20106729907543994 
2.9800000000018643, -0.2074566319787754 
2.9900000000018854, -0.21138152980182617 
3.0000000000019065, -0.21364474476530168 
3.0100000000019276, -0.21492169315395399 
3.0200000000019487, -0.2156363237991306 
3.03000000000197, -0.21602471191526745 
3.040000000001991, -0.2162131714366058 
3.050000000002012, -0.2162695237515948 
3.060000000002033, -0.21623198831248489 
3.070000000002054, -0.21612568695281437 
3.0800000000020753, -0.21597339828332823 
3.0900000000020964, -0.21580357585754908 
3.1000000000021175, -0.21565587788668653 
3.1100000000021386, -0.2155828648838721 
3.1200000000021597, -0.2156467009522761 
3.130000000002181, -0.2159111285808116 
3.140000000002202, -0.21642954049293972 
3.150000000002223, -0.21722890839710388 
3.160000000002244, -0.21829033875790266 
3.1700000000022652, -0.2195344700618041 
3.1800000000022863, -0.22082837326042615 
3.1900000000023074, -0.22202277194148373 
3.2000000000023285, -0.22300101685978185 
3.2100000000023496, -0.22370640072092418 
3.2200000000023707, -0.22413509763786732 
3.230000000002392, -0.2243102258508111 
3.240000000002413, -0.2242569695307476 
3.250000000002434, -0.2239867645305748 
3.260000000002455, -0.2234891965814517 
3.2700000000024763, -0.2227288045362868 
3.2800000000024974, -0.22164741011399797 
3.2900000000025185, -0.2201777076857551 
3.3000000000025396, -0.2182760784171968 
3.3100000000025607, -0.21597229185029082 
3.3200000000025818, -0.21340634959978436 
3.330000000002603, -0.21080711764155174 
3.340000000002624, -0.20840898697526994 
3.350000000002645, -0.20636814333641224 
3.360000000002666, -0.20473589434096345 
3.3700000000026873, -0.20348376223834125 
3.3800000000027084, -0.20254250750773947 
3.3900000000027295, -0.20183135619092774 
3.4000000000027506, -0.20127436841265262 
3.4100000000027717, -0.2008082089852547 
3.420000000002793, -0.20038455896705626 
3.430000000002814, -0.19996867640870652 
3.440000000002835, -0.19953524198314093 
3.450000000002856, -0.19906243837032706 
3.460000000002877, -0.1985241485696377 
3.4700000000028983, -0.19787791173837294 
3.4800000000029194, -0.19704225891204058 
3.4900000000029405, -0.19584996526825038 
3.5000000000029616, -0.19395490303051865 
3.5100000000029827, -0.19068060738871143 
3.520000000003004, -0.18491179986217532 
3.530000000003025, -0.17544226652480208 
3.540000000003046, -0.16221186477260977 
3.550000000003067, -0.14733806273278424 
3.5600000000030882, -0.13384785067431954 
3.5700000000031094, -0.12344501817568046 
3.5800000000031305, -0.11614493704251538 
3.5900000000031516, -0.11121766190839888 
3.6000000000031727, -0.10790495507528508 
3.6100000000031938, -0.1056451234806786 
3.620000000003215, -0.10406936688222088 
3.630000000003236, -0.1029474805403374 
3.640000000003257, -0.10214071786446577 
3.650000000003278, -0.10157091861316433 
3.6600000000032993, -0.10120312887426124 
3.6700000000033204, -0.10103834652895145 
3.6800000000033415, -0.10111469282808465 
3.6900000000033626, -0.10151669880522751 
3.7000000000033837, -0.10239156761126103 
3.710000000003405, -0.10396164123691239 
3.720000000003426, -0.10648122835515154 
3.730000000003447, -0.10995815379506443 
3.740000000003468, -0.11324330417249387 
3.750000000003489, -0.11252073597370169 
3.7600000000035103, -0.10228059129102869 
3.7700000000035314, -0.08236694129997493 
3.7800000000035525, -0.06059222615295774 
3.7900000000035736, -0.043623807848126576 
3.8000000000035947, -0.032470007614449584 
3.810000000003616, -0.025561865350815487 
3.820000000003637, -0.0212915466689118 
3.830000000003658, -0.018594870044259602 
3.840000000003679, -0.016849428762943326 
3.8500000000037002, -0.015705171122358034 
3.8600000000037213, -0.014970790423878768 
3.8700000000037424, -0.014551047964544017 
3.8800000000037635, -0.014416701826653347 
3.8900000000037847, -0.014595724012427713 
3.9000000000038058, -0.015181911940129064 
3.910000000003827, -0.016362445335979806 
3.920000000003848, -0.018467104498432203 
3.930000000003869, -0.02202323462007077 
3.94000000000389, -0.027697982006951644 
3.9500000000039113, -0.035662997828885615 
3.9600000000039324, -0.043491692759300184 
3.9700000000039535, -0.04400860751311921 
3.9800000000039746, -0.031231272993007857 
3.9900000000039957, -0.010748136546705945 
4.000000000004016, 0.007248639187017553 
4.010000000003993, 0.019163008383497514 
4.02000000000397, 0.026322239080195264 
4.030000000003946, 0.030489569119137954 
4.040000000003923, 0.03289856296452012 
4.0500000000039, 0.034267962269160915 
4.0600000000038765, 0.034995008441842605 
4.070000000003853, 0.03529304598244712 
4.08000000000383, 0.0352672362393887 
4.090000000003807, 0.0349507231930076 
4.100000000003783, 0.03431600846138666 
4.11000000000376, 0.03326739265873123 
4.120000000003737, 0.031614899461857526 
4.130000000003713, 0.029032902657638464 
4.14000000000369, 0.025043044780237566 
4.150000000003667, 0.019222087876950476 
4.1600000000036434, 0.012265681211588334 
4.17000000000362, 0.008465524166846332 
4.180000000003597, 0.015554563547077838 
4.1900000000035735, 0.03455846152148399 
4.20000000000355, 0.055546533872163205 
4.210000000003527, 0.0709602855264926 
4.220000000003504, 0.08039072532592832 
4.23000000000348, 0.0858233735486623 
4.240000000003457, 0.0889218951816611 
4.250000000003434, 0.09068462347596458 
4.26000000000341, 0.09166147535471685 
4.270000000003387, 0.09214982266654963 
4.280000000003364, 0.09230761826786854 
4.2900000000033405, 0.09221154421301925 
4.300000000003317, 0.09188483909739917 
4.310000000003294, 0.09130917628336144 
4.320000000003271, 0.0904313086439549 
4.330000000003247, 0.08918416350103761 
4.340000000003224, 0.0875818415447267 
4.350000000003201, 0.0860518032188782 
4.360000000003177, 0.08624247321945615 
4.370000000003154, 0.0917066687526279 
4.380000000003131, 0.10526637015599276 
4.390000000003107, 0.12346314932217783 
4.400000000003084, 0.13934261357117234 
4.410000000003061, 0.15000268214212975 
4.4200000000030375, 0.15634073526821674 
4.430000000003014, 0.1599594539137396 
4.440000000002991, 0.16200475166483805 
4.450000000002968, 0.16314836000710287 
4.460000000002944, 0.16376742169613803 
4.470000000002921, 0.16407694541786869 
4.480000000002898, 0.16420528684709393 
4.490000000002874, 0.16423616972813976 
4.500000000002851, 0.16423540566631073 
4.510000000002828, 0.16427442079423987 
4.520000000002804, 0.16446071362105927 
4.530000000002781, 0.16498455522083288 
4.540000000002758, 0.16617928855957298 
4.5500000000027345, 0.16853785726050038 
4.560000000002711, 0.17252073988361286 
4.570000000002688, 0.17805204708700154 
4.580000000002665, 0.18418702766277778 
4.590000000002641, 0.18966237295007032 
4.600000000002618, 0.19376417695379067 
4.610000000002595, 0.19647569940330503 
4.620000000002571, 0.1981031709713376 
4.630000000002548, 0.19897473272206567 
4.640000000002525, 0.19934133080824082 
4.6500000000025015, 0.19937894068667478 
4.660000000002478, 0.19921369505599745 
4.670000000002455, 0.1989414815957724 
4.6800000000024315, 0.19863795888953134 
4.690000000002408, 0.19836308342422923 
4.700000000002385, 0.1981648410154931 
4.710000000002362, 0.1980840843912937 
4.720000000002338, 0.19815917882751904 
4.730000000002315, 0.19842701873645413 
4.740000000002292, 0.19891612873797865 
4.750000000002268, 0.19962942626788263 
4.760000000002245, 0.20052199328737963 
4.770000000002222, 0.20149100432216027 
4.7800000000021985, 0.20239527231352109 
4.790000000002175, 0.20309788410588792 
4.800000000002152, 0.20350050288103372 
4.810000000002129, 0.20354725081997463 
4.820000000002105, 0.20320672365000975 
4.830000000002082, 0.20245574625612978 
