t, s[1].omega / s[0].omega 
0, -0.5201260640664985 
0.009999999999999995, -0.5314024698854164 
0.019999999999999934, -0.5392894441036212 
0.029999999999999874, -0.5440580556265684 
0.04000000000000012, -0.5468415388086536 
0.050000000000000405, -0.54857961209469 
0.06000000000000069, -0.5497717235850462 
0.07000000000000098, -0.5506337555181618 
0.08000000000000126, -0.551257650971221 
0.09000000000000155, -0.5516899633636428 
0.10000000000000184, -0.5519595391172228 
0.11000000000000212, -0.5520847278660331 
0.12000000000000241, -0.55207433594085 
0.130000000000002, -0.5519274252705234 
0.1400000000000009, -0.5516339120559707 
0.1499999999999998, -0.5511774642781819 
0.1599999999999987, -0.5505422820068032 
0.1699999999999976, -0.5497241493577805 
0.1799999999999965, -0.548742421930409 
0.1899999999999954, -0.5476452187022368 
0.1999999999999943, -0.5465010099582159 
0.2099999999999932, -0.5453789428147431 
0.2199999999999921, -0.544329418757403 
0.229999999999991, -0.5433753516221164 
0.2399999999999899, -0.5425156387332499 
0.2499999999999888, -0.5417355261542609 
0.2599999999999877, -0.5410176014725482 
0.2699999999999866, -0.5403496904174874 
0.2799999999999855, -0.5397290323134107 
0.2899999999999844, -0.5391641664843585 
0.2999999999999833, -0.53867652481802 
0.3099999999999822, -0.5383032917899702 
0.3199999999999811, -0.53810246829254 
0.32999999999998, -0.5381607106722822 
0.3399999999999789, -0.5386043960123532 
0.3499999999999778, -0.5396141613050738 
0.35999999999997667, -0.5414421873745292 
0.36999999999997557, -0.5444282679117839 
0.37999999999997447, -0.5490023332141187 
0.38999999999997337, -0.555643913945504 
0.39999999999997227, -0.564745968224439 
0.40999999999997117, -0.5763353650825934 
0.41999999999997006, -0.5897222632287427 
0.42999999999996896, -0.6034086176110105 
0.43999999999996786, -0.6156186817860922 
0.44999999999996676, -0.6251769042830657 
0.45999999999996566, -0.6319066183176731 
0.46999999999996456, -0.6363105227537132 
0.47999999999996346, -0.6390627293453458 
0.48999999999996235, -0.6407236259185024 
0.49999999999996125, -0.6416771164876667 
0.5099999999999602, -0.6421611208876244 
0.519999999999959, -0.642311652309238 
0.529999999999958, -0.6421949385827841 
0.5399999999999568, -0.6418248712455967 
0.5499999999999557, -0.6411685909891747 
0.5599999999999546, -0.6401437494044387 
0.5699999999999535, -0.6386129787775155 
0.5799999999999524, -0.636387564265718 
0.5899999999999513, -0.6332622612556221 
0.5999999999999502, -0.6291023970672444 
0.6099999999999491, -0.6239646789900125 
0.619999999999948, -0.618162586692663 
0.6299999999999469, -0.6121866417121524 
0.6399999999999458, -0.6065194302115776 
0.6499999999999447, -0.6014881314300163 
0.6599999999999436, -0.5972333712701793 
0.6699999999999425, -0.5937589457289827 
0.6799999999999414, -0.5909970203417033 
0.6899999999999403, -0.5888548726648961 
0.6999999999999392, -0.5872393981966929 
0.7099999999999381, -0.5860667387808451 
0.719999999999937, -0.58526450463404 
0.7299999999999359, -0.5847712811261677 
0.7399999999999348, -0.5845356900834342 
0.7499999999999337, -0.5845158114588033 
0.7599999999999326, -0.5846790692129231 
0.7699999999999315, -0.5850024385769036 
0.7799999999999304, -0.5854727593472366 
0.7899999999999293, -0.5860867903986442 
0.7999999999999282, -0.5868502385591545 
0.8099999999999271, -0.5877743887719816 
0.819999999999926, -0.5888686243496395 
0.8299999999999249, -0.5901279991687863 
0.8399999999999238, -0.5915181407856346 
0.8499999999999227, -0.5929649722870012 
0.8599999999999216, -0.5943601958165475 
0.8699999999999205, -0.5955875509043915 
0.8799999999999194, -0.596558310202833 
0.8899999999999183, -0.5972334386216518 
0.8999999999999172, -0.5976203549008732 
0.9099999999999161, -0.5977526486864216 
0.919999999999915, -0.5976685613772391 
0.9299999999999139, -0.5973969117958132 
0.9399999999999128, -0.5969504423900709 
0.9499999999999117, -0.5963230682943903 
0.9599999999999106, -0.5954876884852175 
0.9699999999999095, -0.5943919611390521 
0.9799999999999084, -0.5929488293660814 
0.9899999999999073, -0.5910151347743574 
0.9999999999999062, -0.5883444871860233 
1.0099999999999052, -0.5844970814825656 
1.019999999999904, -0.5787308445479968 
1.029999999999903, -0.5700676786378763 
1.039999999999902, -0.5579131266722653 
1.0499999999999008, -0.543096645977733 
1.0599999999998997, -0.5279932456754788 
1.0699999999998986, -0.5150514172884202 
1.0799999999998975, -0.5054113100712894 
1.0899999999998964, -0.49891572017045344 
1.0999999999998953, -0.4948293389643128 
1.1099999999998942, -0.49238331449516426 
1.119999999999893, -0.49098089926313887 
1.129999999999892, -0.4902147196365393 
1.1399999999998909, -0.4898239864858347 
1.1499999999998898, -0.48964734554608097 
1.1599999999998887, -0.48958677675303086 
1.1699999999998876, -0.4895833446750128 
1.1799999999998865, -0.48960210277341937 
1.1899999999998854, -0.4896235075156089 
1.1999999999998843, -0.4896394102766709 
1.2099999999998832, -0.48965205307382326 
1.219999999999882, -0.4896742163374041 
1.229999999999881, -0.48972809559561126 
1.2399999999998799, -0.4898406076472869 
1.2499999999998788, -0.4900344923903998 
1.2599999999998777, -0.49031732569425773 
1.2699999999998766, -0.4906729073531622 
1.2799999999998755, -0.4910601576281658 
1.2899999999998744, -0.4914223688671184 
1.2999999999998733, -0.49170378010643023 
1.3099999999998722, -0.4918646690590678 
1.319999999999871, -0.4918870003684338 
1.32999999999987, -0.49177000179863556 
1.3399999999998689, -0.49152102832282213 
1.3499999999998678, -0.4911470688868852 
1.3599999999998666, -0.490648941498289 
1.3699999999998655, -0.49001748039415133 
1.3799999999998644, -0.48922969931258864 
1.3899999999998633, -0.4882417308064434 
1.3999999999998622, -0.4869722844026844 
1.4099999999998611, -0.48526306170950867 
1.41999999999986, -0.48279120105281087 
1.429999999999859, -0.4789134953543944 
1.4399999999998578, -0.47252538838422103 
1.4499999999998567, -0.4623170667419096 
1.4599999999998556, -0.44789126848556426 
1.4699999999998545, -0.43096319126845534 
1.4799999999998534, -0.41465696062551194 
1.4899999999998523, -0.401338383350659 
1.4999999999998512, -0.3916326750589015 
1.5099999999998501, -0.3850224379091716 
1.519999999999849, -0.380677678114798 
1.529999999999848, -0.3778723192884229 
1.5399999999998468, -0.37608171048955413 
1.5499999999998457, -0.3749564144951948 
1.5599999999998446, -0.37427232028114915 
1.5699999999998435, -0.37388883833371345 
1.5799999999998424, -0.37372008889960245 
1.5899999999998413, -0.37371673241859504 
1.5999999999998402, -0.3738553201221654 
1.6099999999998391, -0.3741327705367191 
1.619999999999838, -0.37456425971640683 
1.629999999999837, -0.37518302562308603 
1.6399999999998358, -0.37604022070534027 
1.6499999999998347, -0.3772019919989664 
1.6599999999998336, -0.37873953405845784 
1.6699999999998325, -0.38070674787050474 
1.6799999999998314, -0.3831026260310594 
1.6899999999998303, -0.38582805352931016 
1.6999999999998292, -0.38866932210422733 
1.709999999999828, -0.3913461955979104 
1.719999999999827, -0.3936146321455729 
1.729999999999826, -0.3953507104682224 
1.7399999999998248, -0.3965569623799679 
1.7499999999998237, -0.39730994925674545 
1.7599999999998226, -0.3977029308194329 
1.7699999999998215, -0.3978118918083188 
1.7799999999998204, -0.39768285650993046 
1.7899999999998193, -0.3973292327867328 
1.7999999999998182, -0.3967311182988776 
1.809999999999817, -0.39583386750951477 
1.819999999999816, -0.39454850379711576 
1.8299999999998149, -0.39276288180850205 
1.8399999999998138, -0.39037770977470054 
1.8499999999998127, -0.38737347243548037 
1.8599999999998116, -0.38387855718806 
1.8699999999998105, -0.38017125149262615 
1.8799999999998094, -0.3765832194260401 
1.8899999999998083, -0.3733720224221181 
1.8999999999998072, -0.3706582956543631 
1.909999999999806, -0.36844437307928785 
1.919999999999805, -0.3666670075676118 
1.9299999999998039, -0.36524282089237015 
1.9399999999998028, -0.3640945110714346 
1.9499999999998017, -0.36316194065092056 
1.9599999999998006, -0.3624049842324325 
1.9699999999997995, -0.3618032253624957 
1.9799999999997984, -0.3613556307000239 
1.9899999999997973, -0.36108213056165617 
1.9999999999997962, -0.36102858385360054 
2.0099999999998173, -0.3612767948566258 
2.0199999999998384, -0.3619619448629904 
2.0299999999998595, -0.3633006222633176 
2.0399999999998806, -0.36563217383616425 
2.0499999999999017, -0.36946964803897225 
2.059999999999923, -0.3755312760177117 
2.069999999999944, -0.38465590606588684 
2.079999999999965, -0.3974027338498025 
2.089999999999986, -0.4132095598009188 
2.100000000000007, -0.4297198870836664 
2.1100000000000283, -0.4437127502627244 
2.1200000000000494, -0.4533758305765554 
2.1300000000000705, -0.45912179268036635 
2.1400000000000916, -0.46233700889579465 
2.1500000000001127, -0.46417975823545155 
2.160000000000134, -0.4653088620964635 
2.170000000000155, -0.46604256062507404 
2.180000000000176, -0.4665291531558954 
2.190000000000197, -0.4668409323512246 
2.2000000000002182, -0.46701548778033447 
2.2100000000002393, -0.467072312947134 
2.2200000000002604, -0.4670195828654954 
2.2300000000002815, -0.4668577425752504 
2.2400000000003026, -0.4665830521361306 
2.2500000000003237, -0.46619279507104155 
2.260000000000345, -0.4656924628766438 
2.270000000000366, -0.4651028396044626 
2.280000000000387, -0.4644624529152894 
2.290000000000408, -0.4638214228910824 
2.3000000000004293, -0.46322788265026754 
2.3100000000004504, -0.4627137327653175 
2.3200000000004715, -0.46228682272920124 
2.3300000000004926, -0.46193218617478565 
2.3400000000005137, -0.4616203939456269 
2.3500000000005348, -0.46131869108767865 
2.360000000000556, -0.46100025497267066 
2.370000000000577, -0.4606487210318787 
2.380000000000598, -0.4602582202677019 
2.390000000000619, -0.45983138223347053 
2.4000000000006403, -0.459377977519068 
2.4100000000006614, -0.45891600683011136 
2.4200000000006825, -0.45847639520040023 
2.4300000000007036, -0.4581124550976995 
2.4400000000007247, -0.45791543588339445 
2.450000000000746, -0.4580361261761824 
2.460000000000767, -0.45870521314119667 
2.470000000000788, -0.4602219073567265 
2.480000000000809, -0.4628296584468103 
2.49000000000083, -0.4663557322718061 
2.5000000000008513, -0.46967824716020823 
2.5100000000008724, -0.47076376175641965 
2.5200000000008935, -0.46817385983917525 
2.5300000000009146, -0.462692633918875 
2.5400000000009357, -0.4565662082110641 
2.550000000000957, -0.4515063784520253 
2.560000000000978, -0.44801078902994595 
2.570000000000999, -0.445852573490812 
2.58000000000102, -0.4446219896776314 
2.5900000000010412, -0.44396861084403644 
2.6000000000010624, -0.4436505252738095 
2.6100000000010835, -0.44351584476251826 
2.6200000000011046, -0.4434735580059838 
2.6300000000011257, -0.44347037505299414 
2.6400000000011468, -0.4434755657094852 
2.650000000001168, -0.44347221353835076 
2.660000000001189, -0.44345313464437464 
2.67000000000121, -0.44342006171851683 
2.680000000001231, -0.4433846020707704 
2.6900000000012523, -0.4433688663322372 
2.7000000000012734, -0.4434032476982023 
2.7100000000012945, -0.4435196835861059 
2.7200000000013156, -0.4437410266910047 
2.7300000000013367, -0.44406969295010496 
2.740000000001358, -0.444480395447069 
2.750000000001379, -0.44492190282459054 
2.7600000000014, -0.4453297407600679 
2.770000000001421, -0.4456449317757059 
2.780000000001442, -0.4458285417737036 
2.7900000000014633, -0.44586477988483786 
2.8000000000014844, -0.44575399218662265 
2.8100000000015055, -0.44550192987093273 
2.8200000000015266, -0.4451101487835748 
2.8300000000015477, -0.4445683987136789 
2.840000000001569, -0.4438469119964642 
2.85000000000159, -0.44288463703967124 
2.860000000001611, -0.4415670934092245 
2.870000000001632, -0.4396836202729607 
2.8800000000016532, -0.4368516153516458 
2.8900000000016743, -0.432414570520259 
2.9000000000016954, -0.4254146099965187 
2.9100000000017165, -0.41492565529412684 
2.9200000000017377, -0.40095382774532196 
2.9300000000017588, -0.3851675599016585 
2.94000000000178, -0.3701530863887235 
2.950000000001801, -0.3577740061514467 
2.960000000001822, -0.3485111965397033 
2.970000000001843, -0.3419490907185528 
2.9800000000018643, -0.33741542051043616 
2.9900000000018854, -0.3343096580920823 
3.0000000000019065, -0.33218743491992253 
3.0100000000019276, -0.330745841370967 
3.0200000000019487, -0.3297869639749262 
3.03000000000197, -0.32918591317665225 
3.040000000001991, -0.3288684563567065 
3.050000000002012, -0.3287971868276597 
3.060000000002033, -0.3289642548854514 
3.070000000002054, -0.3293891858979625 
3.0800000000020753, -0.3301209271956965 
3.0900000000020964, -0.33124352017556963 
3.1000000000021175, -0.33288419682593606 
3.1100000000021386, -0.3352202057354852 
3.1200000000021597, -0.3384742729787259 
3.130000000002181, -0.34287653873571794 
3.140000000002202, -0.34855973879082913 
3.150000000002223, -0.3553785282091927 
3.160000000002244, -0.3627555885414657 
3.1700000000022652, -0.3697826171395577 
3.1800000000022863, -0.3756407019343542 
3.1900000000023074, -0.3799819549130731 
3.2000000000023285, -0.38292646382469026 
3.2100000000023496, -0.3848060146541572 
3.2200000000023707, -0.38594914723896095 
3.230000000002392, -0.3865990892606885 
3.240000000002413, -0.3869118861728406 
3.250000000002434, -0.3869779408468715 
3.260000000002455, -0.3868423653717889 
3.2700000000024763, -0.3865191868672427 
3.2800000000024974, -0.38600155534722475 
3.2900000000025185, -0.38527204190270903 
3.3000000000025396, -0.38431686900009987 
3.3100000000025607, -0.3831445962584733 
3.3200000000025818, -0.38180247455544586 
3.330000000002603, -0.38037760289330985 
3.340000000002624, -0.3789759445612623 
3.350000000002645, -0.3776897745375297 
3.360000000002666, -0.37657378244185924 
3.3700000000026873, -0.3756403648801979 
3.3800000000027084, -0.37486966494922785 
3.3900000000027295, -0.37422476225432044 
3.4000000000027506, -0.3736653380958975 
3.4100000000027717, -0.3731569325512243 
3.420000000002793, -0.3726753287246206 
3.430000000002814, -0.37220724034912156 
3.440000000002835, -0.3717493763406424 
3.450000000002856, -0.37130791612216113 
3.460000000002877, -0.37089987786409306 
3.4700000000028983, -0.3705573961917879 
3.4800000000029194, -0.3703356184411245 
3.4900000000029405, -0.37032388915318953 
3.5000000000029616, -0.3706552633697948 
3.5100000000029827, -0.3714938071333268 
3.520000000003004, -0.37293942776220923 
3.530000000003025, -0.3747315177914444 
3.540000000003046, -0.37570343803744943 
3.550000000003067, -0.3735501764498791 
3.5600000000030882, -0.3662536911434062 
3.5700000000031094, -0.3546161455684234 
3.5800000000031305, -0.342042126069548 
3.5900000000031516, -0.3314674961648838 
3.6000000000031727, -0.32381863762026464 
3.6100000000031938, -0.3187148710144353 
3.620000000003215, -0.3154367437933259 
3.630000000003236, -0.3133658018779912 
3.640000000003257, -0.31207078772468155 
3.650000000003278, -0.3112752341916531 
3.6600000000032993, -0.3108088487359527 
3.6700000000033204, -0.3105699974260098 
3.6800000000033415, -0.31050149622280865 
3.6900000000033626, -0.31057646750236095 
3.7000000000033837, -0.3107910769114446 
3.710000000003405, -0.3111619198916945 
3.720000000003426, -0.3117264531693583 
3.730000000003447, -0.3125448683111524 
3.740000000003468, -0.31370101312537424 
3.750000000003489, -0.31529805174118974 
3.7600000000035103, -0.31744128851961767 
3.7700000000035314, -0.3201980125037639 
3.7800000000035525, -0.3235314043305092 
3.7900000000035736, -0.3272364878079283 
3.8000000000035947, -0.3309475263430156 
3.810000000003616, -0.3342632461244047 
3.820000000003637, -0.336915141591425 
3.830000000003658, -0.33883958512434076 
3.840000000003679, -0.34012291937756167 
3.8500000000037002, -0.3409050596421809 
3.8600000000037213, -0.3413140477117048 
3.8700000000037424, -0.34144144239944507 
3.8800000000037635, -0.3413404116346411 
3.8900000000037847, -0.3410310049304152 
3.9000000000038058, -0.3405061661263118 
3.910000000003827, -0.3397385012185598 
3.920000000003848, -0.33869153254500606 
3.930000000003869, -0.33733995825148855 
3.94000000000389, -0.33569809812211776 
3.9500000000039113, -0.3338428353666809 
3.9600000000039324, -0.3319086724678195 
3.9700000000039535, -0.3300479042533557 
3.9800000000039746, -0.328380437872986 
3.9900000000039957, -0.32696606305970455 
4.000000000004016, -0.32580765001669326 
4.010000000003993, -0.3248710870857285 
4.02000000000397, -0.32410641444584654 
4.030000000003946, -0.3234632404232643 
4.040000000003923, -0.3228995872749586 
4.0500000000039, -0.32238541423754047 
4.0600000000038765, -0.32190269773259905 
4.070000000003853, -0.3214441256614258 
4.08000000000383, -0.32101216397559584 
4.090000000003807, -0.32061965854959007 
4.100000000003783, -0.32029251543771864 
4.11000000000376, -0.3200740941025813 
4.120000000003737, -0.32002824012395964 
4.130000000003713, -0.32022911392128167 
4.14000000000369, -0.32070184955851044 
4.150000000003667, -0.3212306370631511 
4.1600000000036434, -0.32093586052997464 
4.17000000000362, -0.31783421325933875 
4.180000000003597, -0.30950869375660833 
4.1900000000035735, -0.29569497977080517 
4.20000000000355, -0.279666511802228 
4.210000000003527, -0.26541800018079476 
4.220000000003504, -0.2547486407457399 
4.23000000000348, -0.24746121404985488 
4.240000000003457, -0.24267395443604003 
4.250000000003434, -0.23956064732819998 
4.26000000000341, -0.23753321058570434 
4.270000000003387, -0.23621378752941383 
4.280000000003364, -0.23537052733297353 
4.2900000000033405, -0.2348662825978956 
4.300000000003317, -0.2346257385791092 
4.310000000003294, -0.23461680703406068 
4.320000000003271, -0.2348420533561087 
4.330000000003247, -0.23533762111385567 
4.340000000003224, -0.23617863646159032 
4.350000000003201, -0.2374909430672137 
4.360000000003177, -0.23946851776394323 
4.370000000003154, -0.2423917354422472 
4.380000000003131, -0.24662821727670572 
4.390000000003107, -0.25256829696152827 
4.400000000003084, -0.2604156699365374 
4.410000000003061, -0.2698192626908693 
4.4200000000030375, -0.27963680030708843 
4.430000000003014, -0.28834605543692937 
4.440000000002991, -0.29494776784380783 
4.450000000002968, -0.2993769655632785 
4.460000000002944, -0.30213418179646506 
4.470000000002921, -0.30378933207915587 
4.480000000002898, -0.3047638343288993 
4.490000000002874, -0.30531925766187074 
4.500000000002851, -0.3056058759675461 
4.510000000002828, -0.30570679352926405 
4.520000000002804, -0.30566640365349823 
4.530000000002781, -0.30550746189235944 
4.540000000002758, -0.3052423559530436 
4.5500000000027345, -0.3048823295934044 
4.560000000002711, -0.3044460011278315 
4.570000000002688, -0.3039657624686834 
4.580000000002665, -0.303488701435742 
4.590000000002641, -0.3030697823637827 
4.600000000002618, -0.3027592533195079 
4.610000000002595, -0.30258963843294634 
4.620000000002571, -0.3025669322278236 
4.630000000002548, -0.30266800182209913 
4.640000000002525, -0.302845160377327 
4.6500000000025015, -0.30303798005567756 
4.660000000002478, -0.3031888177323988 
4.670000000002455, -0.30325491428544704 
4.6800000000024315, -0.30321161804955576 
4.690000000002408, -0.30304719232557353 
4.700000000002385, -0.30275349318720784 
4.710000000002362, -0.3023159165163503 
4.720000000002338, -0.30170289417001933 
4.730000000002315, -0.3008525272599232 
4.740000000002292, -0.2996525051882154 
4.750000000002268, -0.29791052938848395 
4.760000000002245, -0.2953219310089813 
4.770000000002222, -0.2914720011107619 
4.7800000000021985, -0.2859621668301203 
4.790000000002175, -0.27872938419100207 
4.800000000002152, -0.27036650921808825 
4.810000000002129, -0.2619868042424195 
4.820000000002105, -0.2546108841856761 
4.830000000002082, -0.24871264304300444 
4.840000000002059, -0.24426228644223286 
4.850000000002035, -0.24099337082184338 
4.860000000002012, -0.23860553155889136 
4.870000000001989, -0.2368497096302568 
