t, s[1].omega / s[0].omega 
0, -0.19993928268167666 
0.009999999999999995, -0.1905657339255443 
0.019999999999999934, -0.17828022107778382 
0.029999999999999874, -0.16752483090280387 
0.04000000000000012, -0.15976259960006772 
0.050000000000000405, -0.15460996988242265 
0.06000000000000069, -0.15127958217017784 
0.07000000000000098, -0.1491302835341324 
0.08000000000000126, -0.14773892468761812 
0.09000000000000155, -0.14684785283758825 
0.10000000000000184, -0.14630812754430478 
0.11000000000000212, -0.1460414191047034 
0.12000000000000241, -0.14601894080298086 
0.130000000000002, -0.14625299971160935 
0.1400000000000009, -0.14679869086079203 
0.1499999999999998, -0.14776572081530814 
0.1599999999999987, -0.14934248874447417 
0.1699999999999976, -0.15183517986978218 
0.1799999999999965, -0.15571852754091797 
0.1899999999999954, -0.16166550522454468 
0.1999999999999943, -0.17043812532458819 
0.2099999999999932, -0.18239754952591142 
0.2199999999999921, -0.1965714565232453 
0.229999999999991, -0.2102772171295665 
0.2399999999999899, -0.22073632063871096 
0.2499999999999888, -0.22716157608762208 
0.2599999999999877, -0.2305484565144389 
0.2699999999999866, -0.23220407051615113 
0.2799999999999855, -0.2330059435449025 
0.2899999999999844, -0.23340677837652207 
0.2999999999999833, -0.2336150208906828 
0.3099999999999822, -0.23372376505404846 
0.3199999999999811, -0.23377597312343618 
0.32999999999998, -0.2337939635508174 
0.3399999999999789, -0.23379289018847685 
0.3499999999999778, -0.23378793229140102 
0.35999999999997667, -0.23379933914393897 
0.36999999999997557, -0.2338566266796569 
0.37999999999997447, -0.23400159843767238 
0.38999999999997337, -0.23428898018393712 
0.39999999999997227, -0.23478320283475945 
0.40999999999997117, -0.2355496777326727 
0.41999999999997006, -0.23663826011692551 
0.42999999999996896, -0.23805746265894898 
0.43999999999996786, -0.23974561226548988 
0.44999999999996676, -0.24155989555713825 
0.45999999999996566, -0.2433076916534432 
0.46999999999996456, -0.2448139343730471 
0.47999999999996346, -0.24597823726067194 
0.48999999999996235, -0.24678364635714983 
0.49999999999996125, -0.24726609949011982 
0.5099999999999602, -0.24747723584426368 
0.519999999999959, -0.24745996248948177 
0.529999999999958, -0.24723770967493083 
0.5399999999999568, -0.24681172398787324 
0.5499999999999557, -0.24616258069492208 
0.5599999999999546, -0.2452562032009717 
0.5699999999999535, -0.24405796107839223 
0.5799999999999524, -0.24255772158122269 
0.5899999999999513, -0.24079969516900893 
0.5999999999999502, -0.2388963352688253 
0.6099999999999491, -0.23700515539789585 
0.619999999999948, -0.23527597946141174 
0.6299999999999469, -0.23380501256735328 
0.6399999999999458, -0.23262209606239564 
0.6499999999999447, -0.23170549082051067 
0.6599999999999436, -0.23100472893595886 
0.6699999999999425, -0.2304594938880021 
0.6799999999999414, -0.2300120967308589 
0.6899999999999403, -0.22961444562405348 
0.6999999999999392, -0.22923034235186807 
0.7099999999999381, -0.22883398224356055 
0.719999999999937, -0.22840593037700577 
0.7299999999999359, -0.22792758274434544 
0.7399999999999348, -0.2273738604780397 
0.7499999999999337, -0.22670170933597253 
0.7599999999999326, -0.22582846168759824 
0.7699999999999315, -0.22458856523140808 
0.7799999999999304, -0.2226525876969892 
0.7899999999999293, -0.21941069942586902 
0.7999999999999282, -0.21393021610944207 
0.8099999999999271, -0.2053199093742039 
0.819999999999926, -0.19371065276198052 
0.8299999999999249, -0.18088480065772797 
0.8399999999999238, -0.16921245205371932 
0.8499999999999227, -0.1600440709018146 
0.8599999999999216, -0.1534489094355995 
0.8699999999999205, -0.14888594203261013 
0.8799999999999194, -0.14575128946753985 
0.8899999999999183, -0.14357608468973154 
0.8999999999999172, -0.1420416589923437 
0.9099999999999161, -0.14094440386929 
0.919999999999915, -0.14016029858517884 
0.9299999999999139, -0.13962030145501345 
0.9399999999999128, -0.13929641971528955 
0.9499999999999117, -0.13919673165325316 
0.9599999999999106, -0.1393687641212008 
0.9699999999999095, -0.13991228502809894 
0.9799999999999084, -0.14100368634660088 
0.9899999999999073, -0.14293141877317445 
0.9999999999999062, -0.14612276476909974 
1.0099999999999052, -0.15106902471631314 
1.019999999999904, -0.1578733601646338 
1.029999999999903, -0.16505046783553998 
1.039999999999902, -0.16844571364144934 
1.0499999999999008, -0.16385391819646491 
1.0599999999998997, -0.1525186012615841 
1.0699999999998986, -0.13993456096186133 
1.0799999999998975, -0.12984928828973813 
1.0899999999998964, -0.12289394886888513 
1.0999999999998953, -0.11836496044336509 
1.1099999999998942, -0.11545083600004642 
1.119999999999893, -0.1135658541399838 
1.129999999999892, -0.11234275500399751 
1.1399999999998909, -0.11156503386487156 
1.1499999999998898, -0.1111128527034814 
1.1599999999998887, -0.11093056569183997 
1.1699999999998876, -0.1110111412050175 
1.1799999999998865, -0.11139348459793748 
1.1899999999998854, -0.11217174991909903 
1.1999999999998843, -0.11351902586138056 
1.2099999999998832, -0.1157306201288236 
1.219999999999882, -0.11929096515746349 
1.229999999999881, -0.1249473466116215 
1.2399999999998799, -0.1336872284593186 
1.2499999999998788, -0.14630709141465684 
1.2599999999998777, -0.16218733332210467 
1.2699999999998766, -0.17810888637182662 
1.2799999999998755, -0.1898905486387577 
1.2899999999998744, -0.1961008553116699 
1.2999999999998733, -0.19836197394117086 
1.3099999999998722, -0.19877532584276475 
1.319999999999871, -0.1985806320217599 
1.32999999999987, -0.19828116064257995 
1.3399999999998689, -0.19802932499220077 
1.3499999999998678, -0.19785193187196856 
1.3599999999998666, -0.1977418138789857 
1.3699999999998655, -0.197688815658672 
1.3799999999998644, -0.19768904471946125 
1.3899999999998633, -0.1977478372677527 
1.3999999999998622, -0.1978818510850924 
1.4099999999998611, -0.19812195232892066 
1.41999999999986, -0.19851708942132582 
1.429999999999859, -0.1991385104492376 
1.4399999999998578, -0.2000827000236533 
1.4499999999998567, -0.20146931649175465 
1.4599999999998556, -0.2034259840305766 
1.4699999999998545, -0.2060465173316684 
1.4799999999998534, -0.20931452188234387 
1.4899999999998523, -0.21302181364734038 
1.4999999999998512, -0.21676901650787778 
1.5099999999998501, -0.2201123480580196 
1.519999999999849, -0.2227629404215969 
1.529999999999848, -0.22466444641390218 
1.5399999999998468, -0.22592095858480032 
1.5499999999998457, -0.22668632236818706 
1.5599999999998446, -0.2270960771431551 
1.5699999999998435, -0.22724623776887873 
1.5799999999998424, -0.22719565903183728 
1.5899999999998413, -0.22697526448743716 
1.5999999999998402, -0.2265980515059462 
1.6099999999998391, -0.2260695185843984 
1.619999999999838, -0.22539948138383928 
1.629999999999837, -0.22461424462256424 
1.6399999999998358, -0.22376424331924882 
1.6499999999998347, -0.2229207467184767 
1.6599999999998336, -0.22216051521726307 
1.6699999999998325, -0.22154616762149465 
1.6799999999998314, -0.22111239916877784 
1.6899999999998303, -0.2208617633200201 
1.6999999999998292, -0.2207674974640165 
1.709999999999828, -0.22078075924776117 
1.719999999999827, -0.22084164485895727 
1.729999999999826, -0.22089218858153833 
1.7399999999998248, -0.22088663351716686 
1.7499999999998237, -0.22079465781096247 
1.7599999999998226, -0.2205973206949118 
1.7699999999998215, -0.22027871363105883 
1.7799999999998204, -0.21981601538878418 
1.7899999999998193, -0.219168334836669 
1.7999999999998182, -0.21826278863380438 
1.809999999999817, -0.2169764399799668 
1.819999999999816, -0.2151179505522518 
1.8299999999998149, -0.21242890893543195 
1.8399999999998138, -0.20865166101700114 
1.8499999999998127, -0.20370688590008035 
1.8599999999998116, -0.1979014133815496 
1.8699999999998105, -0.1919159021995301 
1.8799999999998094, -0.18647228827310464 
1.8899999999998083, -0.18199201657228148 
1.8999999999998072, -0.17853938288349075 
1.909999999999806, -0.1759682257822645 
1.919999999999805, -0.17407218948062417 
1.9299999999998039, -0.17266322674274712 
1.9399999999998028, -0.171595504486407 
1.9499999999998017, -0.17076494268230774 
1.9599999999998006, -0.17010170692357868 
1.9699999999997995, -0.16956247365253535 
1.9799999999997984, -0.1691245895694526 
1.9899999999997973, -0.16878263881561278 
1.9999999999997962, -0.16854730786936445 
2.0099999999998173, -0.16844559579004692 
2.0199999999998384, -0.16851877263907733 
2.0299999999998595, -0.16880604037153524 
2.0399999999998806, -0.16927824081623805 
2.0499999999999017, -0.1696365124324924 
2.059999999999923, -0.16886582292110752 
2.069999999999944, -0.16476533954378525 
2.079999999999965, -0.1547880034461566 
2.089999999999986, -0.13916121089702974 
2.100000000000007, -0.12210937695207158 
2.1100000000000283, -0.10788567930891375 
2.1200000000000494, -0.09778635467996417 
2.1300000000000705, -0.09112161329523963 
2.1400000000000916, -0.08680421408820153 
2.1500000000001127, -0.08398279608567175 
2.160000000000134, -0.08210558864152065 
2.170000000000155, -0.08083916013663502 
2.180000000000176, -0.0799895280705708 
2.190000000000197, -0.07945086085825517 
2.2000000000002182, -0.07917727824891044 
2.2100000000002393, -0.07917109571414149 
2.2200000000002604, -0.07948414674842794 
2.2300000000002815, -0.08023250196545552 
2.2400000000003026, -0.081627953191129 
2.2500000000003237, -0.08402907201434036 
2.260000000000345, -0.08799605525628186 
2.270000000000366, -0.09424690043580661 
2.280000000000387, -0.10316216211079307 
2.290000000000408, -0.11327302935027042 
2.3000000000004293, -0.11972563922600699 
2.3100000000004504, -0.11745856150618819 
2.3200000000004715, -0.10783049640914917 
2.3300000000004926, -0.09672990519380437 
2.3400000000005137, -0.087875618491317 
2.3500000000005348, -0.08181604920594616 
2.360000000000556, -0.07788612154370879 
2.370000000000577, -0.07535975835028393 
2.380000000000598, -0.07372637746326757 
2.390000000000619, -0.07267163113833747 
2.4000000000006403, -0.07201432464791985 
2.4100000000006614, -0.07165928424625023 
2.4200000000006825, -0.07157082302393906 
2.4300000000007036, -0.07176239576412025 
2.4400000000007247, -0.0722997914995246 
2.450000000000746, -0.07331891971778765 
2.460000000000767, -0.07506332764090815 
2.470000000000788, -0.07794934837139761 
2.480000000000809, -0.08265837872248391 
2.49000000000083, -0.09019723985137117 
2.5000000000008513, -0.1016639708626983 
2.5100000000008724, -0.11713496989967428 
2.5200000000008935, -0.13375623619054935 
2.5300000000009146, -0.14623657574609925 
2.5400000000009357, -0.15178630661553294 
2.550000000000957, -0.15229114636064087 
2.560000000000978, -0.15082729847979254 
2.570000000000999, -0.14914460045036163 
2.58000000000102, -0.1478022648463842 
2.5900000000010412, -0.14685342878080607 
2.6000000000010624, -0.14621862148661688 
2.6100000000010835, -0.1458137089804339 
2.6200000000011046, -0.14557972263863558 
2.6300000000011257, -0.145484296783373 
2.6400000000011468, -0.1455183101275795 
2.650000000001168, -0.14569436115804885 
2.660000000001189, -0.1460487117504786 
2.67000000000121, -0.14664721818040954 
2.680000000001231, -0.147595605360285 
2.6900000000012523, -0.14905378287025398 
2.7000000000012734, -0.15125051451847807 
2.7100000000012945, -0.15448375751311044 
2.7200000000013156, -0.15906754006070242 
2.7300000000013367, -0.16516152303329487 
2.740000000001358, -0.1724773669515356 
2.750000000001379, -0.18010388532991708 
2.7600000000014, -0.18685024655556923 
2.770000000001421, -0.19194969626623953 
2.780000000001442, -0.19535915615030386 
2.7900000000014633, -0.1974668947036488 
2.8000000000014844, -0.19871405712400025 
2.8100000000015055, -0.19942862203358697 
2.8200000000015266, -0.19981566095216735 
2.8300000000015477, -0.19999412264039237 
2.840000000001569, -0.20003133021508185 
2.85000000000159, -0.19996616221056412 
2.860000000001611, -0.19982385859786142 
2.870000000001632, -0.19962633528846366 
2.8800000000016532, -0.1994001014565987 
2.8900000000016743, -0.19918176428640422 
2.9000000000016954, -0.19901970954167844 
2.9100000000017165, -0.1989708053623043 
2.9200000000017377, -0.19909261495729336 
2.9300000000017588, -0.1994325598014331 
2.94000000000178, -0.20001465281997605 
2.950000000001801, -0.2008246270885976 
2.960000000001822, -0.20179920976401866 
2.970000000001843, -0.20283136758365755 
2.9800000000018643, -0.20379828656891918 
2.9900000000018854, -0.20459950451192982 
3.0000000000019065, -0.2051805126637493 
3.0100000000019276, -0.2055302462409258 
3.0200000000019487, -0.20566211131831696 
3.03000000000197, -0.2055938137465772 
3.040000000001991, -0.20533350419980861 
3.050000000002012, -0.2048722743607601 
3.060000000002033, -0.20418123693250476 
3.070000000002054, -0.20321372457773274 
3.0800000000020753, -0.2019168949158065 
3.0900000000020964, -0.20025836850701279 
3.1000000000021175, -0.19826532243122422 
3.1100000000021386, -0.19605308105648506 
3.1200000000021597, -0.19380905203061446 
3.130000000002181, -0.19172826837422705 
3.140000000002202, -0.18994583122900544 
3.150000000002223, -0.18851166956701965 
3.160000000002244, -0.18740720850765663 
3.1700000000022652, -0.18657598060105876 
3.1800000000022863, -0.1859483814014789 
3.1900000000023074, -0.1854566654276373 
3.2000000000023285, -0.18504280392346198 
3.2100000000023496, -0.18466145599372036 
3.2200000000023707, -0.1842790943748159 
3.230000000002392, -0.18387019450164704 
3.240000000002413, -0.18341136258466587 
3.250000000002434, -0.18287338995520358 
3.260000000002455, -0.18220934313064724 
3.2700000000024763, -0.18133392453825864 
3.2800000000024974, -0.18008570602646876 
3.2900000000025185, -0.17816351321908844 
3.3000000000025396, -0.17505036143607375 
3.3100000000025607, -0.17002685951998775 
3.3200000000025818, -0.16251233475026045 
3.330000000002603, -0.15278794212972852 
3.340000000002624, -0.14232195138537315 
3.350000000002645, -0.1328952566729753 
3.360000000002666, -0.1254798720319105 
3.3700000000026873, -0.12010296372038869 
3.3800000000027084, -0.11634266713169569 
3.3900000000027295, -0.11372806090428456 
3.4000000000027506, -0.11188820605573335 
3.4100000000027717, -0.11056647278675673 
3.420000000002793, -0.10959561152976494 
3.430000000002814, -0.108871171651221 
3.440000000002835, -0.10833228514175682 
3.450000000002856, -0.10794996923230496 
3.460000000002877, -0.107721539397405 
3.4700000000028983, -0.10766992539790299 
3.4800000000029194, -0.10784644147365754 
3.4900000000029405, -0.108332531130197 
3.5000000000029616, -0.10922391306852888 
3.5100000000029827, -0.11054357364739043 
3.520000000003004, -0.11194966823970623 
3.530000000003025, -0.11207904735614775 
3.540000000003046, -0.10800221549637942 
3.550000000003067, -0.09693843173014494 
3.5600000000030882, -0.08042241272925003 
3.5700000000031094, -0.06389393205570977 
3.5800000000031305, -0.05113976017737999 
3.5900000000031516, -0.042546646677492125 
3.6000000000031727, -0.03703745209649505 
3.6100000000031938, -0.03351433839262312 
3.620000000003215, -0.031220612890958066 
3.630000000003236, -0.029694613156455406 
3.640000000003257, -0.028667250116536452 
3.650000000003278, -0.027987414957302024 
3.6600000000032993, -0.02757853925614811 
3.6700000000033204, -0.027417000800433338 
3.6800000000033415, -0.02752565018140497 
3.6900000000033626, -0.027979726527695186 
3.7000000000033837, -0.028924867941120723 
3.710000000003405, -0.03060420385361278 
3.720000000003426, -0.03336910246024757 
3.730000000003447, -0.03756008665090845 
3.740000000003468, -0.04292263682647518 
3.750000000003489, -0.04717484833917444 
3.7600000000035103, -0.045278682761744744 
3.7700000000035314, -0.03406188756937513 
3.7800000000035525, -0.017887715902463797 
3.7900000000035736, -0.003479910135650717 
3.8000000000035947, 0.006330305146711189 
3.810000000003616, 0.012349527521877105 
3.820000000003637, 0.015952302141202808 
3.830000000003658, 0.018077710369308858 
3.840000000003679, 0.01930266127844084 
3.8500000000037002, 0.019958588507712285 
3.8600000000037213, 0.020228817899086114 
3.8700000000037424, 0.02020627550466903 
3.8800000000037635, 0.019922502957832978 
3.8900000000037847, 0.019357612004863533 
3.9000000000038058, 0.018435663840471184 
3.910000000003827, 0.01700680797296098 
3.920000000003848, 0.014821013519091122 
3.930000000003869, 0.011526388748027371 
3.94000000000389, 0.006834098959958126 
3.9500000000039113, 0.0012491178012803757 
3.9600000000039324, -0.001995615923952841 
3.9700000000039535, 0.0021746021199635516 
3.9800000000039746, 0.015276868719728004 
3.9900000000039957, 0.031550218948110956 
4.000000000004016, 0.04470210253250339 
4.010000000003993, 0.053327679631675604 
4.02000000000397, 0.0585308092455538 
4.030000000003946, 0.061589727558400795 
4.040000000003923, 0.06336837978685984 
4.0500000000039, 0.06437405733938154 
4.0600000000038765, 0.06489187769517128 
4.070000000003853, 0.06507734555876385 
4.08000000000383, 0.06500785043909531 
4.090000000003807, 0.06470809460732828 
4.100000000003783, 0.0641599073291326 
4.11000000000376, 0.06330327999218191 
4.120000000003737, 0.06203842865874702 
4.130000000003713, 0.06025938462808182 
4.14000000000369, 0.058016791399129894 
4.150000000003667, 0.05603534964406735 
4.1600000000036434, 0.056659136862913184 
4.17000000000362, 0.06360383166984188 
4.180000000003597, 0.07759404137288185 
4.1900000000035735, 0.09344963622099935 
4.20000000000355, 0.10596292296530355 
4.210000000003527, 0.11408103740227944 
4.220000000003504, 0.118930644416684 
4.23000000000348, 0.12175367468442219 
4.240000000003457, 0.12338210014450793 
4.250000000003434, 0.12430434256500764 
4.26000000000341, 0.12479884220220963 
4.270000000003387, 0.12502541549186108 
4.280000000003364, 0.12507778171548697 
4.2900000000033405, 0.12501382250628912 
4.300000000003317, 0.124876368433355 
4.310000000003294, 0.12471534217553318 
4.320000000003271, 0.12462549322983421 
4.330000000003247, 0.12482222968730047 
4.340000000003224, 0.12577449008786262 
4.350000000003201, 0.12832197885154326 
4.360000000003177, 0.13341910726711861 
4.370000000003154, 0.14111857446202591 
4.380000000003131, 0.14980404251090057 
4.390000000003107, 0.1573615845350494 
4.400000000003084, 0.1628126099508833 
4.410000000003061, 0.16632202393970924 
4.4200000000030375, 0.16843723230436147 
4.430000000003014, 0.16964789661974386 
4.440000000002991, 0.170293301539649 
4.450000000002968, 0.17059239895898382 
4.460000000002944, 0.17068725649360025 
4.470000000002921, 0.17067406563301496 
4.480000000002898, 0.17062260919205696 
4.490000000002874, 0.17058953421502193 
4.500000000002851, 0.17062948923137652 
4.510000000002828, 0.17080602614401244 
4.520000000002804, 0.17120145405307557 
4.530000000002781, 0.17191987666510958 
4.540000000002758, 0.17306969234774947 
4.5500000000027345, 0.1747092707916645 
4.560000000002711, 0.17676644949241532 
4.570000000002688, 0.17900216499692523 
4.580000000002665, 0.1810922874720367 
4.590000000002641, 0.18277802233233756 
4.600000000002618, 0.18394883492126166 
4.610000000002595, 0.18461649779600647 
4.620000000002571, 0.18484878489376103 
4.630000000002548, 0.1847242670371762 
4.640000000002525, 0.18431903806499425 
4.6500000000025015, 0.18371083915740502 
4.660000000002478, 0.18298377702003138 
4.670000000002455, 0.18222387481655022 
4.6800000000024315, 0.18150670102482855 
4.690000000002408, 0.18088629153095018 
4.700000000002385, 0.18039271418861857 
4.710000000002362, 0.1800375236434729 
4.720000000002338, 0.1798212460344902 
4.730000000002315, 0.17973774320146926 
4.740000000002292, 0.17977348529546028 
4.750000000002268, 0.1799027462656833 
4.760000000002245, 0.18008218050348773 
4.770000000002222, 0.18024939615134303 
4.7800000000021985, 0.18032788914723977 
4.790000000002175, 0.18023509937924242 
4.800000000002152, 0.17988660412366267 
4.810000000002129, 0.1791928450328518 
4.820000000002105, 0.1780540070582966 
4.830000000002082, 0.17636889647584994 
