t, s[1].omega / s[0].omega 
0, -1.059998394058891 
0.009999999999999995, -1.0597362450878074 
0.019999999999999934, -1.0592858729625059 
0.029999999999999874, -1.0587642337643939 
0.04000000000000012, -1.0583952760807234 
0.050000000000000405, -1.0583059993961204 
0.06000000000000069, -1.058354068170928 
0.07000000000000098, -1.0582690791855536 
0.08000000000000126, -1.0579187236691787 
0.09000000000000155, -1.057331787391945 
0.10000000000000184, -1.0565799661497564 
0.11000000000000212, -1.0557974439907163 
0.12000000000000241, -1.0552368227824085 
0.130000000000002, -1.0550583161070575 
0.1400000000000009, -1.0550177202249786 
0.1499999999999998, -1.0547601450800672 
0.1599999999999987, -1.0540948600205928 
0.1699999999999976, -1.0530678807663059 
0.1799999999999965, -1.0518436435645095 
0.1899999999999954, -1.0506397203677167 
0.1999999999999943, -1.0498499966166988 
0.2099999999999932, -1.049634608983 
0.2199999999999921, -1.0495429600980182 
0.229999999999991, -1.0491279958924442 
0.2399999999999899, -1.0480777153969334 
0.2499999999999888, -1.0464035917842138 
0.2599999999999877, -1.0444273285051595 
0.2699999999999866, -1.0425843450507122 
0.2799999999999855, -1.0415440643739386 
0.2899999999999844, -1.0413342675806696 
0.2999999999999833, -1.0412152613578223 
0.3099999999999822, -1.0406619220744615 
0.3199999999999811, -1.0391650390028062 
0.32999999999998, -1.036596792361223 
0.3399999999999789, -1.033526770458953 
0.3499999999999778, -1.0308208215812389 
0.35999999999997667, -1.0295220552476225 
0.36999999999997557, -1.0293379665810816 
0.37999999999997447, -1.0292125992538894 
0.38999999999997337, -1.028571514076044 
0.39999999999997227, -1.0266843708856392 
0.40999999999997117, -1.02315829184282 
0.41999999999997006, -1.0188487489159135 
0.42999999999996896, -1.015203710240153 
0.43999999999996786, -1.0136247366027211 
0.44999999999996676, -1.0134498344982033 
0.45999999999996566, -1.0133407304893 
0.46999999999996456, -1.012702575783472 
0.47999999999996346, -1.0106953981878175 
0.48999999999996235, -1.006666901818243 
0.49999999999996125, -1.001606303711209 
0.5099999999999602, -0.9973223184612962 
0.519999999999959, -0.9954179703613942 
0.529999999999958, -0.9951861328306902 
0.5399999999999568, -0.9951103402141096 
0.5499999999999557, -0.9945728010995696 
0.5599999999999546, -0.9928213830694121 
0.5699999999999535, -0.9891639035416661 
0.5799999999999524, -0.9844428006351756 
0.5899999999999513, -0.980254636854492 
0.5999999999999502, -0.9780732305277697 
0.6099999999999491, -0.9776726922258149 
0.619999999999948, -0.9776240676662578 
0.6299999999999469, -0.9772426559100978 
0.6399999999999458, -0.9759676642579668 
0.6499999999999447, -0.9732792192086123 
0.6599999999999436, -0.9697347441513451 
0.6699999999999425, -0.9663827538415468 
0.6799999999999414, -0.964218423213826 
0.6899999999999403, -0.9635670993547899 
0.6999999999999392, -0.9635014296655926 
0.7099999999999381, -0.9632756185318176 
0.719999999999937, -0.9624683587837125 
0.7299999999999359, -0.9607603559345365 
0.7399999999999348, -0.9584677511402776 
0.7499999999999337, -0.9561777000861847 
0.7599999999999326, -0.9543993414485373 
0.7699999999999315, -0.9535735174110959 
0.7799999999999304, -0.9534269742514747 
0.7899999999999293, -0.9533196037933994 
0.7999999999999282, -0.9528694281375509 
0.8099999999999271, -0.9518785891510647 
0.819999999999926, -0.9505104810473741 
0.8299999999999249, -0.9490769285805277 
0.8399999999999238, -0.9478159233554545 
0.8499999999999227, -0.9470190372674062 
0.8599999999999216, -0.9467769908936433 
0.8699999999999205, -0.9467392792087816 
0.8799999999999194, -0.9465433581172576 
0.8899999999999183, -0.9460275436384005 
0.8999999999999172, -0.9452638911302876 
0.9099999999999161, -0.9444078954790539 
0.919999999999915, -0.9435750670267657 
0.9299999999999139, -0.9429446611064755 
0.9399999999999128, -0.942678222880411 
0.9499999999999117, -0.9426825466586326 
0.9599999999999106, -0.9426798477963892 
0.9699999999999095, -0.9425000065655506 
0.9799999999999084, -0.9421510544817301 
0.9899999999999073, -0.9416901376518394 
0.9999999999999062, -0.9411589836845233 
1.0099999999999052, -0.9406968138371794 
1.019999999999904, -0.9404873813507969 
1.029999999999903, -0.9405579345905773 
1.039999999999902, -0.9407379319570021 
1.0499999999999008, -0.9408523941715232 
1.0599999999998997, -0.9408524717435993 
1.0699999999998986, -0.9407171951511829 
1.0799999999998975, -0.9404210119142962 
1.0899999999998964, -0.9400746173273158 
1.0999999999998953, -0.9399246390180188 
1.1099999999998942, -0.9401131478867661 
1.119999999999893, -0.9405307920122993 
1.129999999999892, -0.9409936948048973 
1.1399999999998909, -0.9413933210726219 
1.1499999999998898, -0.9416205708873336 
1.1599999999998887, -0.9415676598854759 
1.1699999999998876, -0.9413168422993896 
1.1799999999998865, -0.9411585543715397 
1.1899999999998854, -0.9414527941875124 
1.1999999999998843, -0.9422214655690094 
1.2099999999998832, -0.9432126601479014 
1.219999999999882, -0.9442129721545394 
1.229999999999881, -0.9449740247964121 
1.2399999999998799, -0.9452524364788872 
1.2499999999998788, -0.9451322061557674 
1.2599999999998777, -0.9449209587833509 
1.2699999999998766, -0.945174296828784 
1.2799999999998755, -0.946357568112421 
1.2899999999998744, -0.9482100848780005 
1.2999999999998733, -0.9502450075019762 
1.3099999999998722, -0.9519209420030996 
1.319999999999871, -0.9527271855651802 
1.32999999999987, -0.9528099731232826 
1.3399999999998689, -0.9525833825907699 
1.3499999999998678, -0.9526171004566522 
1.3599999999998666, -0.9540087407207927 
1.3699999999998655, -0.9570617164757372 
1.3799999999998644, -0.9608156252400655 
1.3899999999998633, -0.9640422115494535 
1.3999999999998622, -0.9656962195634983 
1.4099999999998611, -0.966072076305202 
1.41999999999986, -0.9659005730186984 
1.429999999999859, -0.9657036528098841 
1.4399999999998578, -0.9668523767050922 
1.4499999999998567, -0.9709355903519044 
1.4599999999998556, -0.9768525533777065 
1.4699999999998545, -0.9821559729168913 
1.4799999999998534, -0.9849277546503968 
1.4899999999998523, -0.9856564425088745 
1.4999999999998512, -0.985576906399552 
1.5099999999998501, -0.985272620130536 
1.519999999999849, -0.9859748906633904 
1.529999999999848, -0.9901968293238599 
1.5399999999998468, -0.9973545846485086 
1.5499999999998457, -1.0040460054884492 
1.5599999999998446, -1.007648928356505 
1.5699999999998435, -1.0086547910240156 
1.5799999999998424, -1.0086514367743276 
1.5899999999998413, -1.0083376861848576 
1.5999999999998402, -1.0087682476280624 
1.6099999999998391, -1.0123423413706567 
1.619999999999838, -1.0186915567363 
1.629999999999837, -1.0247388433858144 
1.6399999999998358, -1.0281897661689214 
1.6499999999998347, -1.0292280638768108 
1.6599999999998336, -1.0292470217009528 
1.6699999999998325, -1.0289617519491592 
1.6799999999998314, -1.029321756322504 
1.6899999999998303, -1.0319901404048675 
1.6999999999998292, -1.0363509913122888 
1.709999999999828, -1.0404577052645034 
1.719999999999827, -1.0429755491828108 
1.729999999999826, -1.0438012638259309 
1.7399999999998248, -1.0437853646628497 
1.7499999999998237, -1.0435363434782128 
1.7599999999998226, -1.0438813624341023 
1.7699999999998215, -1.0456744426983946 
1.7799999999998204, -1.0482265681000178 
1.7899999999998193, -1.0505729143843827 
1.7999999999998182, -1.0520970155202605 
1.809999999999817, -1.052615280546672 
1.819999999999816, -1.052529142423056 
1.8299999999998149, -1.0523072345369449 
1.8399999999998138, -1.0525929748959648 
1.8499999999998127, -1.0536819023668806 
1.8599999999998116, -1.0550539375160235 
1.8699999999998105, -1.056274021187684 
1.8799999999998094, -1.0570729878366432 
1.8899999999998083, -1.0573020060449747 
1.8999999999998072, -1.0571284180069405 
1.909999999999806, -1.0569059504181895 
1.919999999999805, -1.05707456231012 
1.9299999999998039, -1.057669940822943 
1.9399999999998028, -1.058363166478948 
1.9499999999998017, -1.0589296945076554 
1.9599999999998006, -1.0592474594992622 
1.9699999999997995, -1.059228614597316 
1.9799999999997984, -1.0589501926999367 
1.9899999999997973, -1.0586813640325752 
1.9999999999997962, -1.0587023809826162 
2.0099999999998173, -1.058981273085568 
2.0199999999998384, -1.0592908097585487 
2.0299999999998595, -1.0594606723483135 
2.0399999999998806, -1.0594336734189684 
2.0499999999999017, -1.0591818302414622 
2.059999999999923, -1.058762237609902 
2.069999999999944, -1.0583868566518917 
2.079999999999965, -1.0582568778716175 
2.089999999999986, -1.0583453072552742 
2.100000000000007, -1.0584264549291484 
2.1100000000000283, -1.058316282561128 
2.1200000000000494, -1.0579861440381624 
2.1300000000000705, -1.0574674837063398 
2.1400000000000916, -1.0568335512801743 
2.1500000000001127, -1.0562781864493835 
2.160000000000134, -1.0560110199701558 
2.170000000000155, -1.0559939739486819 
2.180000000000176, -1.0559238745062633 
2.190000000000197, -1.055569171023445 
2.2000000000002182, -1.0548984246100086 
2.2100000000002393, -1.0540107471549554 
2.2200000000002604, -1.0530319728554924 
2.2300000000002815, -1.0522083994014635 
2.2400000000003026, -1.0518304934715623 
2.2500000000003237, -1.0517643504105856 
2.260000000000345, -1.0515806328819615 
2.270000000000366, -1.0509717691423466 
2.280000000000387, -1.0498501109843887 
2.290000000000408, -1.0483991972409927 
2.3000000000004293, -1.0468675472039584 
2.3100000000004504, -1.0456760299823216 
2.3200000000004715, -1.045223719707735 
2.3300000000004926, -1.0451443962138502 
2.3400000000005137, -1.0448704255059982 
2.3500000000005348, -1.0439863362552078 
2.360000000000556, -1.0422538621116357 
2.370000000000577, -1.0399542068156744 
2.380000000000598, -1.037593000086354 
2.390000000000619, -1.0359389521937372 
2.4000000000006403, -1.0354466243440104 
2.4100000000006614, -1.0353752063539152 
2.4200000000006825, -1.0350391348465702 
2.4300000000007036, -1.033898697311406 
2.4400000000007247, -1.0314491904543994 
2.450000000000746, -1.0280454355163913 
2.460000000000767, -1.0246232803021567 
2.470000000000788, -1.0224457258042947 
2.480000000000809, -1.0219187395877853 
2.49000000000083, -1.0218656774472241 
2.5000000000008513, -1.0215116194584637 
2.5100000000008724, -1.0202314088082274 
2.5200000000008935, -1.0172271813735203 
2.5300000000009146, -1.0128363824308164 
2.5400000000009357, -1.0084484530414428 
2.550000000000957, -1.005758118165722 
2.560000000000978, -1.0051417268478617 
2.570000000000999, -1.00510574310465 
2.58000000000102, -1.0047884270526772 
2.5900000000010412, -1.0035739903048373 
2.6000000000010624, -1.000550021739189 
2.6100000000010835, -0.9959380024898574 
2.6200000000011046, -0.9912480440519164 
2.6300000000011257, -0.9882131847156485 
2.6400000000011468, -0.9873951458007406 
2.650000000001168, -0.9873517213865806 
2.660000000001189, -0.9871145218655107 
2.67000000000121, -0.9861464717308602 
2.680000000001231, -0.9836812099210324 
2.6900000000012523, -0.979819933877071 
2.7000000000012734, -0.97575982177552 
2.7100000000012945, -0.9727948058701168 
2.7200000000013156, -0.9717012008372988 
2.7300000000013367, -0.971588848875516 
2.740000000001358, -0.9714433121561238 
2.750000000001379, -0.9707819997144898 
2.7600000000014, -0.9690885119846896 
2.770000000001421, -0.9663994293805168 
2.780000000001442, -0.9634730842348148 
2.7900000000014633, -0.9610467275309104 
2.8000000000014844, -0.9597918148023795 
2.8100000000015055, -0.9595351079126555 
2.8200000000015266, -0.9594561521277559 
2.8300000000015477, -0.9590647965711974 
2.840000000001569, -0.9580291975563207 
2.85000000000159, -0.956358243435153 
2.860000000001611, -0.9544800248179126 
2.870000000001632, -0.9527667915384315 
2.8800000000016532, -0.9516083057069148 
2.8900000000016743, -0.9512016600343869 
2.9000000000016954, -0.9511407614815768 
2.9100000000017165, -0.9509535101804222 
2.9200000000017377, -0.950382100173602 
2.9300000000017588, -0.9494158031461831 
2.94000000000178, -0.9482813299920745 
2.950000000001801, -0.9471660454551056 
2.960000000001822, -0.9462702126273955 
2.970000000001843, -0.945816461327754 
2.9800000000018643, -0.9457405452374309 
2.9900000000018854, -0.9457015154457655 
3.0000000000019065, -0.9454526218664246 
3.0100000000019276, -0.9449551568358789 
3.0200000000019487, -0.9443161159572453 
3.03000000000197, -0.9436194649847691 
3.040000000001991, -0.9429840257258706 
3.050000000002012, -0.9425961498240291 
3.060000000002033, -0.9425286430479576 
3.070000000002054, -0.9426108753858051 
3.0800000000020753, -0.942617014852985 
3.0900000000020964, -0.9424697727129211 
3.1000000000021175, -0.9421956651705001 
3.1100000000021386, -0.9418020494743466 
3.1200000000021597, -0.9413585915124936 
3.130000000002181, -0.9410615439024808 
3.140000000002202, -0.9410590714086766 
3.150000000002223, -0.9412846031816131 
3.160000000002244, -0.9415503687964298 
3.1700000000022652, -0.9417399680721953 
3.1800000000022863, -0.9418091822092375 
3.1900000000023074, -0.9416882113058831 
3.2000000000023285, -0.94139724281358 
3.2100000000023496, -0.941145244307654 
3.2200000000023707, -0.9412145706875125 
3.230000000002392, -0.941650706028473 
3.240000000002413, -0.9422666489266011 
3.250000000002434, -0.9428924739821166 
3.260000000002455, -0.9433984698140703 
3.2700000000024763, -0.943606210413844 
3.2800000000024974, -0.9434850523028931 
3.2900000000025185, -0.9432444747645492 
3.3000000000025396, -0.9432943393972293 
3.3100000000025607, -0.9439748865936093 
3.3200000000025818, -0.945132904437575 
3.330000000002603, -0.9464548693668678 
3.340000000002624, -0.9476563597506827 
3.350000000002645, -0.9483631849836327 
3.360000000002666, -0.9484817573156289 
3.3700000000026873, -0.9482800081026053 
3.3800000000027084, -0.9481954442719732 
3.3900000000027295, -0.9489786068461391 
3.4000000000027506, -0.9508922061879256 
3.4100000000027717, -0.9533831694694402 
3.420000000002793, -0.9557862573647202 
3.430000000002814, -0.9573286353372952 
3.440000000002835, -0.9578100211024181 
3.450000000002856, -0.9577091410022306 
3.460000000002877, -0.957483437558522 
3.4700000000028983, -0.9580580525416519 
3.4800000000029194, -0.9606584623833887 
3.4900000000029405, -0.9648407695898015 
3.5000000000029616, -0.9691363685268203 
3.5100000000029827, -0.97198169978687 
3.520000000003004, -0.9729810580553251 
3.530000000003025, -0.9730315870624537 
3.540000000003046, -0.9727523165077913 
3.550000000003067, -0.9729522899080054 
3.5600000000030882, -0.9756764408723434 
3.5700000000031094, -0.9814103926796282 
3.5800000000031305, -0.9877732925729779 
3.5900000000031516, -0.9920898717813474 
3.6000000000031727, -0.9936623580242951 
3.6100000000031938, -0.993870948619109 
3.620000000003215, -0.993607572741069 
3.630000000003236, -0.9935540452584042 
3.640000000003257, -0.9958701005646928 
3.650000000003278, -1.0018627553969603 
3.6600000000032993, -1.0089057452053831 
3.6700000000033204, -1.0138484559018415 
3.6800000000033415, -1.0157406295099884 
3.6900000000033626, -1.0160471070525317 
3.7000000000033837, -1.015814341168039 
3.710000000003405, -1.0156924693781515 
3.720000000003426, -1.017525673969563 
3.730000000003447, -1.0223846245460744 
3.740000000003468, -1.0280691114842297 
3.750000000003489, -1.032221047898161 
3.7600000000035103, -1.0339511489867477 
3.7700000000035314, -1.0342488270420243 
3.7800000000035525, -1.034032483348357 
3.7900000000035736, -1.0339456484124816 
3.8000000000035947, -1.0353654526402898 
3.810000000003616, -1.038631683715645 
3.820000000003637, -1.0422513604384882 
3.830000000003658, -1.0449908370933505 
3.840000000003679, -1.0462428059706859 
3.8500000000037002, -1.0464419754196965 
3.8600000000037213, -1.0462246034055616 
3.8700000000037424, -1.0461907212156956 
3.8800000000037635, -1.0472165537546116 
3.8900000000037847, -1.049160040114146 
3.9000000000038058, -1.0511798422762044 
3.910000000003827, -1.0527388608902395 
3.920000000003848, -1.0534882186356864 
3.930000000003869, -1.0535489391074921 
3.94000000000389, -1.053315422985496 
3.9500000000039113, -1.0532968356098993 
3.9600000000039324, -1.0539554889200389 
3.9700000000039535, -1.055025697237841 
3.9800000000039746, -1.0560727144375208 
3.9900000000039957, -1.0568616536152866 
4.000000000004016, -1.057209149790359 
4.010000000003993, -1.0571229883499762 
4.02000000000397, -1.05685272310818 
4.030000000003946, -1.05679156064985 
4.040000000003923, -1.0571466897593522 
4.0500000000039, -1.0576960569441165 
4.0600000000038765, -1.0581857338390648 
4.070000000003853, -1.058490765640638 
4.08000000000383, -1.0585275471703686 
4.090000000003807, -1.0582868345712935 
4.100000000003783, -1.0579441064857964 
4.11000000000376, -1.0577874316438385 
4.120000000003737, -1.0579166641324755 
4.130000000003713, -1.0581649669390285 
4.14000000000369, -1.0583191759459831 
4.150000000003667, -1.0582870809136067 
4.1600000000036434, -1.058051304633125 
4.17000000000362, -1.0576254202785798 
4.180000000003597, -1.0571519976875068 
4.1900000000035735, -1.0568593915340327 
4.20000000000355, -1.0568346579078942 
4.210000000003527, -1.0569076573992378 
4.220000000003504, -1.056831770357801 
4.23000000000348, -1.0565107951945545 
4.240000000003457, -1.0559779591220528 
4.250000000003434, -1.0552929242045452 
4.26000000000341, -1.0546004662337392 
4.270000000003387, -1.0541426060013646 
4.280000000003364, -1.0540255010352397 
4.2900000000033405, -1.0539928394513536 
4.300000000003317, -1.053729345223213 
4.310000000003294, -1.0530983433689125 
4.320000000003271, -1.0521717898758969 
4.330000000003247, -1.0510869853161093 
4.340000000003224, -1.0500484073005334 
4.350000000003201, -1.0494069756384132 
4.360000000003177, -1.0492492034640777 
4.370000000003154, -1.0491496446078716 
4.380000000003131, -1.0487119955544668 
4.390000000003107, -1.0477013235428725 
4.400000000003084, -1.0462025797381236 
4.410000000003061, -1.0444905083540537 
4.4200000000030375, -1.042939095033432 
4.430000000003014, -1.0421093285198164 
4.440000000002991, -1.0419504599348204 
4.450000000002968, -1.0418088667584342 
4.460000000002944, -1.0412101866710137 
4.470000000002921, -1.0397425226049695 
4.480000000002898, -1.0374403873252025 
4.490000000002874, -1.0348114186633803 
4.500000000002851, -1.032571280935316 
4.510000000002828, -1.0315566472853528 
4.520000000002804, -1.0314182169443642 
4.530000000002781, -1.03125753016431 
4.540000000002758, -1.0305406457951558 
4.5500000000027345, -1.028626131102325 
4.560000000002711, -1.0253936353819317 
4.570000000002688, -1.0216633572295721 
4.580000000002665, -1.0186408734004053 
4.590000000002641, -1.0174279518083107 
4.600000000002618, -1.0173061300079016 
4.610000000002595, -1.0171528645805343 
4.620000000002571, -1.0164071908237176 
4.630000000002548, -1.0142599092923827 
4.640000000002525, -1.0103722114157334 
4.6500000000025015, -1.0058000068822057 
4.660000000002478, -1.0021352910753323 
4.670000000002455, -1.0006710596733674 
4.6800000000024315, -1.0005276555255127 
4.690000000002408, -1.0004071419576228 
4.700000000002385, -0.9997441717387014 
4.710000000002362, -0.9977459219898632 
4.720000000002338, -0.9939484867413045 
4.730000000002315, -0.9893691348268829 
4.740000000002292, -0.9855465200854102 
4.750000000002268, -0.9837972269179898 
4.760000000002245, -0.9835524968475776 
4.770000000002222, -0.9834744617411998 
4.7800000000021985, -0.982972591858318 
4.790000000002175, -0.9814246133598933 
4.800000000002152, -0.9784173966197282 
4.810000000002129, -0.9746999974994279 
4.820000000002105, -0.9713733227511712 
4.830000000002082, -0.9694774062661659 
4.840000000002059, -0.9690375740563753 
4.850000000002035, -0.9689806127270341 
4.860000000002012, -0.9686571578105772 
4.870000000001989, -0.9676212057336162 
4.880000000001965, -0.9655912748407705 
4.890000000001942, -0.9630264092559783 
4.900000000001919, -0.9605751139452813 
4.9100000000018955, -0.9588449393557171 
4.920000000001872, -0.9581989172083869 
4.930000000001849, -0.9581109124347649 
