t, s[1].omega / s[0].omega 
0, -0.9699969036923978 
0.009999999999999995, -0.9696176340372296 
0.019999999999999934, -0.9690976185840875 
0.029999999999999874, -0.9684301051343552 
0.04000000000000012, -0.9676093093491285 
0.050000000000000405, -0.9666363402381584 
0.06000000000000069, -0.9655241563017082 
0.07000000000000098, -0.9643005450527617 
0.08000000000000126, -0.9630090440294565 
0.09000000000000155, -0.9617078721603658 
0.10000000000000184, -0.9604665121800999 
0.11000000000000212, -0.9593594818712076 
0.12000000000000241, -0.9584577107875483 
0.130000000000002, -0.9578193790486474 
0.1400000000000009, -0.9574827631809666 
0.1499999999999998, -0.957462713581833 
0.1599999999999987, -0.9577506005760655 
0.1699999999999976, -0.958316548130944 
0.1799999999999965, -0.9591131580972199 
0.1899999999999954, -0.960080711953332 
0.1999999999999943, -0.9611538027726673 
0.2099999999999932, -0.9622685365951977 
0.2199999999999921, -0.9633688501143925 
0.229999999999991, -0.9644107123887272 
0.2399999999999899, -0.9653636490830484 
0.2499999999999888, -0.9662095482881211 
0.2599999999999877, -0.9669390173004884 
0.2699999999999866, -0.9675460304459415 
0.2799999999999855, -0.9680223644140544 
0.2899999999999844, -0.9683538963139058 
0.2999999999999833, -0.9685205574912111 
0.3099999999999822, -0.9685003568604571 
0.3199999999999811, -0.9682760074343472 
0.32999999999998, -0.9678415177556521 
0.3399999999999789, -0.9672065581124589 
0.3499999999999778, -0.9663981159954342 
0.35999999999997667, -0.9654604424813786 
0.36999999999997557, -0.9644543533643384 
0.37999999999997447, -0.9634556975393205 
0.38999999999997337, -0.9625514533120921 
0.39999999999997227, -0.9618318570917169 
0.40999999999997117, -0.9613788046757897 
0.41999999999997006, -0.9612535106439096 
0.42999999999996896, -0.9614878024182419 
0.43999999999996786, -0.9620819215549842 
0.44999999999996676, -0.9630083946557083 
0.45999999999996566, -0.9642191965521563 
0.46999999999996456, -0.9656535326568101 
0.47999999999996346, -0.9672450525654269 
0.48999999999996235, -0.9689283205970123 
0.49999999999996125, -0.970644308475569 
0.5099999999999602, -0.9723442295720853 
0.519999999999959, -0.9739909414347058 
0.529999999999958, -0.9755575151742902 
0.5399999999999568, -0.97702321197238 
0.5499999999999557, -0.978367917808323 
0.5599999999999546, -0.9795669401998791 
0.5699999999999535, -0.9805885307930793 
0.5799999999999524, -0.9813959335408521 
0.5899999999999513, -0.9819539155692868 
0.5999999999999502, -0.982237375156336 
0.6099999999999491, -0.9822384098141143 
0.619999999999948, -0.9819693711717415 
0.6299999999999469, -0.9814621716441111 
0.6399999999999458, -0.9807662072883192 
0.6499999999999447, -0.9799471699466152 
0.6599999999999436, -0.9790870357242707 
0.6699999999999425, -0.9782830905822267 
0.6799999999999414, -0.9776426222635647 
0.6899999999999403, -0.9772711717699938 
0.6999999999999392, -0.977256060087263 
0.7099999999999381, -0.9776510039176837 
0.719999999999937, -0.9784683738933228 
0.7299999999999359, -0.9796817448740595 
0.7399999999999348, -0.9812359863384951 
0.7499999999999337, -0.9830596272065708 
0.7599999999999326, -0.985075597727415 
0.7699999999999315, -0.9872091602819034 
0.7799999999999304, -0.9893933412124801 
0.7899999999999293, -0.991572133001137 
0.7999999999999282, -0.9937012453297365 
0.8099999999999271, -0.9957461346696007 
0.819999999999926, -0.9976775884372289 
0.8299999999999249, -0.9994660576965324 
0.8399999999999238, -1.0010768650020934 
0.8499999999999227, -1.0024687950143745 
0.8599999999999216, -1.0035977297971361 
0.8699999999999205, -1.0044247416848762 
0.8799999999999194, -1.004925459739791 
0.8899999999999183, -1.0050965977361994 
0.8999999999999172, -1.0049574060394926 
0.9099999999999161, -1.0045471539292599 
0.919999999999915, -1.0039218612731273 
0.9299999999999139, -1.003152936053979 
0.9399999999999128, -1.0023278275283662 
0.9499999999999117, -1.0015499445278369 
0.9599999999999106, -1.0009336245232088 
0.9699999999999095, -1.0005913881984376 
0.9799999999999084, -1.000615353023993 
0.9899999999999073, -1.001059829042671 
0.9999999999999062, -1.0019331002452563 
1.0099999999999052, -1.0032014262760758 
1.019999999999904, -1.0048015025413777 
1.029999999999903, -1.0066547308548182 
1.039999999999902, -1.0086787676950026 
1.0499999999999008, -1.0107954047778693 
1.0599999999998997, -1.0129356278815718 
1.0699999999998986, -1.0150424662099315 
1.0799999999998975, -1.017071512463396 
1.0899999999998964, -1.0189888610976772 
1.0999999999998953, -1.0207667701714844 
1.1099999999998942, -1.0223782579166307 
1.119999999999893, -1.0237926883592525 
1.129999999999892, -1.024974633979793 
1.1399999999998909, -1.0258873539740403 
1.1499999999998898, -1.0265000861500844 
1.1599999999998887, -1.0267961444401967 
1.1699999999998876, -1.026778318765589 
1.1799999999998865, -1.0264699944814948 
1.1899999999998854, -1.0259132716665844 
1.1999999999998843, -1.0251668027588245 
1.2099999999998832, -1.024305055070575 
1.219999999999882, -1.0234181232561133 
1.229999999999881, -1.0226088874227612 
1.2399999999998799, -1.0219841355999957 
1.2499999999998788, -1.0216393435422115 
1.2599999999998777, -1.0216417991356068 
1.2699999999998766, -1.022019527304613 
1.2799999999998755, -1.022760696743181 
1.2899999999998744, -1.0238219073893533 
1.2999999999998733, -1.0251397172215353 
1.3099999999998722, -1.0266407939765967 
1.319999999999871, -1.0282495526910727 
1.32999999999987, -1.0298941765028262 
1.3399999999998689, -1.0315115874724092 
1.3499999999998678, -1.0330508776746934 
1.3599999999998666, -1.034474388586455 
1.3699999999998655, -1.0357561000746405 
1.3799999999998644, -1.036877732211539 
1.3899999999998633, -1.0378237159905177 
1.3999999999998622, -1.038576832409684 
1.4099999999998611, -1.0391164724757964 
1.41999999999986, -1.0394206661561571 
1.429999999999859, -1.0394713351439362 
1.4399999999998578, -1.039260587909396 
1.4499999999998567, -1.0387955552748764 
1.4599999999998556, -1.0381005908003837 
1.4699999999998545, -1.0372174555357652 
1.4799999999998534, -1.0362047294646304 
1.4899999999998523, -1.0351366215842028 
1.4999999999998512, -1.0340996456215314 
1.5099999999998501, -1.033185125199245 
1.519999999999849, -1.0324773981862854 
1.529999999999848, -1.0320409866966975 
1.5399999999998468, -1.0319117948806535 
1.5499999999998457, -1.0320952681542654 
1.5599999999998446, -1.0325701135462146 
1.5699999999998435, -1.0332939072456682 
1.5799999999998424, -1.034208391303748 
1.5899999999998413, -1.035244883308007 
1.5999999999998402, -1.0363308369835755 
1.6099999999998391, -1.0373971478293709 
1.619999999999838, -1.0383845193429742 
1.629999999999837, -1.0392474151020916 
1.6399999999998358, -1.0399551439547268 
1.6499999999998347, -1.0404903344837184 
1.6599999999998336, -1.0408453042798693 
1.6699999999998325, -1.041017166218905 
1.6799999999998314, -1.0410031216229032 
1.6899999999998303, -1.0407977321293218 
1.6999999999998292, -1.0403934122620273 
1.709999999999828, -1.0397840070879834 
1.719999999999827, -1.0389699562640609 
1.729999999999826, -1.0379631306110528 
1.7399999999998248, -1.0367901062834555 
1.7499999999998237, -1.0354935815318076 
1.7599999999998226, -1.0341318825707206 
1.7699999999998215, -1.0327760316995689 
1.7799999999998204, -1.0315036828536743 
1.7899999999998193, -1.0303903082564585 
1.7999999999998182, -1.029499842332908 
1.809999999999817, -1.028877649507529 
1.819999999999816, -1.0285470293855137 
1.8299999999998149, -1.0285080613108661 
1.8399999999998138, -1.0287371893657955 
1.8499999999998127, -1.0291879216129112 
1.8599999999998116, -1.029794621099943 
1.8699999999998105, -1.030480269799081 
1.8799999999998094, -1.031166384458553 
1.8899999999998083, -1.0317819176507785 
1.8999999999998072, -1.0322690926569797 
1.909999999999806, -1.0325861026619712 
1.919999999999805, -1.0327075375712507 
1.9299999999998039, -1.0326230220882093 
1.9399999999998028, -1.0323339746772129 
1.9499999999998017, -1.0318486756938083 
1.9599999999998006, -1.0311768774025583 
1.9699999999997995, -1.030325949756517 
1.9799999999997984, -1.0293001575001062 
1.9899999999997973, -1.028103267679385 
1.9999999999997962, -1.0267432569610553 
2.0099999999998173, -1.0252372895157313 
2.0199999999998384, -1.0236154563860524 
2.0299999999998595, -1.0219224005524197 
2.0399999999998806, -1.0202163402854858 
2.0499999999999017, -1.0185652606587903 
2.059999999999923, -1.0170406739118776 
2.069999999999944, -1.0157102956082527 
2.079999999999965, -1.0146312961589916 
2.089999999999986, -1.0138447932197214 
2.100000000000007, -1.0133709394414647 
2.1100000000000283, -1.0132042218870057 
2.1200000000000494, -1.013310593737194 
2.1300000000000705, -1.013629362580309 
2.1400000000000916, -1.0140811013497777 
2.1500000000001127, -1.0145793149967437 
2.160000000000134, -1.0150415989101813 
2.170000000000155, -1.0153972410166088 
2.180000000000176, -1.015591000282686 
2.190000000000197, -1.0155845381418769 
2.2000000000002182, -1.015356724921403 
2.2100000000002393, -1.014902729264726 
2.2200000000002604, -1.0142310239037966 
2.2300000000002815, -1.0133581054446965 
2.2400000000003026, -1.0123022975414082 
2.2500000000003237, -1.0110790287546874 
2.260000000000345, -1.0096994911407031 
2.270000000000366, -1.0081729717752868 
2.280000000000387, -1.006511572519887 
2.290000000000408, -1.0047353644487567 
2.3000000000004293, -1.0028762943925444 
2.3100000000004504, -1.0009798121097238 
2.3200000000004715, -0.9991037454950932 
2.3300000000004926, -0.9973144528776383 
2.3400000000005137, -0.9956809384701348 
2.3500000000005348, -0.9942681710211271 
2.360000000000556, -0.993130656851975 
2.370000000000577, -0.992306399909946 
2.380000000000598, -0.9918109263653698 
2.390000000000619, -0.9916321295164153 
2.4000000000006403, -0.9917284217766527 
2.4100000000006614, -0.9920327026398653 
2.4200000000006825, -0.9924620211113193 
2.4300000000007036, -0.9929296309288539 
2.4400000000007247, -0.9933553136317687 
2.450000000000746, -0.9936718052414676 
2.460000000000767, -0.9938277732109484 
2.470000000000788, -0.9937889330601166 
2.480000000000809, -0.9935382203777802 
2.49000000000083, -0.9930746002177597 
2.5000000000008513, -0.9924095816731319 
2.5100000000008724, -0.9915614461765456 
2.5200000000008935, -0.9905488346789498 
2.5300000000009146, -0.9893861927161679 
2.5400000000009357, -0.9880828643804522 
2.550000000000957, -0.9866459072568933 
2.560000000000978, -0.9850851621552336 
2.570000000000999, -0.9834185573978036 
2.58000000000102, -0.9816760178785484 
2.5900000000010412, -0.9799010644129018 
2.6000000000010624, -0.9781497072337909 
2.6100000000010835, -0.9764866021006179 
2.6200000000011046, -0.9749789916305306 
2.6300000000011257, -0.9736896406208128 
2.6400000000011468, -0.972670169534307 
2.650000000001168, -0.971955528628375 
2.660000000001189, -0.9715595326865983 
2.67000000000121, -0.971471531191241 
2.680000000001231, -0.9716553973064124 
2.6900000000012523, -0.9720525451883734 
2.7000000000012734, -0.9725893888540599 
2.7100000000012945, -0.9731873618218213 
2.7200000000013156, -0.9737724242550267 
2.7300000000013367, -0.9742818480039208 
2.740000000001358, -0.974667907546362 
2.750000000001379, -0.9748992436529693 
2.7600000000014, -0.9749605079076289 
2.770000000001421, -0.9748501619731235 
2.780000000001442, -0.9745761367013633 
2.7900000000014633, -0.9741499134471334 
2.8000000000014844, -0.9735808090743038 
2.8100000000015055, -0.9728726789609896 
2.8200000000015266, -0.9720243761640038 
2.8300000000015477, -0.9710336474690757 
2.840000000001569, -0.9699027663808132 
2.85000000000159, -0.9686438687963546 
2.860000000001611, -0.9672826178953569 
2.870000000001632, -0.9658597100981282 
2.8800000000016532, -0.9644301042753541 
2.8900000000016743, -0.9630597310700284 
2.9000000000016954, -0.9618195148527715 
2.9100000000017165, -0.9607773418102226 
2.9200000000017377, -0.9599897240825825 
2.9300000000017588, -0.9594952478778882 
2.94000000000178, -0.9593109279280584 
2.950000000001801, -0.9594311939952591 
2.960000000001822, -0.959828770428863 
2.970000000001843, -0.9604573506535865 
2.9800000000018643, -0.9612565071034247 
2.9900000000018854, -0.96215872781404 
3.0000000000019065, -0.96309730785635 
3.0100000000019276, -0.9640132755185971 
3.0200000000019487, -0.9648600472430153 
3.03000000000197, -0.9656054079975522 
3.040000000001991, -0.9662309184262919 
3.050000000002012, -0.9667289382874921 
3.060000000002033, -0.9670976922903591 
3.070000000002054, -0.9673355119334431 
3.0800000000020753, -0.9674361617912238 
3.0900000000020964, -0.9673872204469497 
3.1000000000021175, -0.9671724366117541 
3.1100000000021386, -0.9667772390804286 
3.1200000000021597, -0.966195198233151 
3.130000000002181, -0.965433170784697 
3.140000000002202, -0.9645140857027827 
3.150000000002223, -0.9634777292233786 
3.160000000002244, -0.9623802639917631 
3.1700000000022652, -0.9612924141942223 
3.1800000000022863, -0.9602952327949057 
3.1900000000023074, -0.9594724019726619 
3.2000000000023285, -0.958899604294993 
3.2100000000023496, -0.958633688114946 
3.2200000000023707, -0.9587052153124233 
3.230000000002392, -0.959116471970533 
3.240000000002413, -0.9598443299368412 
3.250000000002434, -0.9608457482283761 
3.260000000002455, -0.9620640818304185 
3.2700000000024763, -0.963435552039846 
3.2800000000024974, -0.9648957375414847 
3.2900000000025185, -0.9663855695771526 
3.3000000000025396, -0.9678558656709849 
3.3100000000025607, -0.9692694942317458 
3.3200000000025818, -0.9706007192803374 
3.330000000002603, -0.9718318487938117 
3.340000000002624, -0.9729479821822428 
3.350000000002645, -0.9739314518064394 
3.360000000002666, -0.9747581625614362 
3.3700000000026873, -0.9753978329580912 
3.3800000000027084, -0.9758187366383771 
3.3900000000027295, -0.9759953726013408 
3.4000000000027506, -0.9759159215901789 
3.4100000000027717, -0.975586714399408 
3.420000000002793, -0.9750331025727342 
3.430000000002814, -0.9742983083833858 
3.440000000002835, -0.9734423043101281 
3.450000000002856, -0.972541338790824 
3.460000000002877, -0.9716865702974741 
3.4700000000028983, -0.9709790062281286 
3.4800000000029194, -0.970518862639343 
3.4900000000029405, -0.9703906839628424 
3.5000000000029616, -0.97064915287446 
3.5100000000029827, -0.9713113447107883 
3.520000000003004, -0.972358002429499 
3.530000000003025, -0.9737417578581042 
3.540000000003046, -0.9753978775466562 
3.550000000003067, -0.9772541029373927 
3.5600000000030882, -0.9792384130739699 
3.5700000000031094, -0.9812848196861972 
3.5800000000031305, -0.9833372498929717 
3.5900000000031516, -0.9853511291828508 
3.6000000000031727, -0.9872922407872335 
3.6100000000031938, -0.9891329389048178 
3.620000000003215, -0.9908466497881577 
3.630000000003236, -0.992402547575328 
3.640000000003257, -0.9937628823583985 
3.650000000003278, -0.9948849995166461 
3.6600000000032993, -0.9957282301518294 
3.6700000000033204, -0.9962632046313935 
3.6800000000033415, -0.9964795639048525 
3.6900000000033626, -0.9963890848074891 
3.7000000000033837, -0.9960243181735181 
3.710000000003405, -0.9954354722026058 
3.720000000003426, -0.9946885001907589 
3.730000000003447, -0.9938653008009385 
3.740000000003468, -0.9930640987368704 
3.750000000003489, -0.9923961340950542 
3.7600000000035103, -0.99197529657969 
3.7700000000035314, -0.9919010380945891 
3.7800000000035525, -0.9922401033127161 
3.7900000000035736, -0.9930151082511621 
3.8000000000035947, -0.9942047925128182 
3.810000000003616, -0.9957542017978761 
3.820000000003637, -0.9975887534674277 
3.830000000003658, -0.9996268115144477 
3.840000000003679, -1.0017887309599354 
3.8500000000037002, -1.004002746563284 
3.8600000000037213, -1.0062084190486662 
3.8700000000037424, -1.0083577185227872 
3.8800000000037635, -1.010413505555501 
3.8900000000037847, -1.012345551397565 
3.9000000000038058, -1.0141250945679243 
3.910000000003827, -1.015719869363253 
3.920000000003848, -1.0170920248166295 
3.930000000003869, -1.0182007282992322 
3.94000000000389, -1.0190092525764378 
3.9500000000039113, -1.019493824153245 
3.9600000000039324, -1.0196503299422341 
3.9700000000039535, -1.0194964253870642 
3.9800000000039746, -1.0190696935709593 
3.9900000000039957, -1.0184247289458088 
4.000000000004016, -1.017631717292455 
4.010000000003993, -1.0167766968795777 
4.02000000000397, -1.0159608691931235 
4.030000000003946, -1.0152949451387479 
4.040000000003923, -1.0148861518600285 
4.0500000000039, -1.0148202522871317 
4.0600000000038765, -1.0151457091093086 
4.070000000003853, -1.0158673260097641 
4.08000000000383, -1.0169512637030222 
4.090000000003807, -1.0183370091527009 
4.100000000003783, -1.0199500480620147 
4.11000000000376, -1.0217117601421823 
4.120000000003737, -1.0235464285677183 
4.130000000003713, -1.0253863655177609 
4.14000000000369, -1.0271754333429712 
4.150000000003667, -1.0288704569667406 
4.1600000000036434, -1.0304400507495568 
4.17000000000362, -1.031861016261464 
4.180000000003597, -1.0331133040673517 
4.1900000000035735, -1.0341753093940491 
4.20000000000355, -1.0350216072906286 
4.210000000003527, -1.0356246159598017 
4.220000000003504, -1.0359599867017393 
4.23000000000348, -1.0360135596290647 
4.240000000003457, -1.0357869461647724 
4.250000000003434, -1.0352999914871943 
4.26000000000341, -1.0345905929149792 
4.270000000003387, -1.0337136605311763 
4.280000000003364, -1.0327403134083708 
4.2900000000033405, -1.0317563485092407 
4.300000000003317, -1.0308573848943332 
4.310000000003294, -1.0301386923703204 
4.320000000003271, -1.0296810064737827 
4.330000000003247, -1.0295374047451458 
4.340000000003224, -1.0297268256026497 
4.350000000003201, -1.0302358800342004 
4.360000000003177, -1.0310258208798626 
4.370000000003154, -1.0320403117672579 
4.380000000003131, -1.0332120783537053 
4.390000000003107, -1.0344690609985785 
4.400000000003084, -1.0357408505969454 
4.410000000003061, -1.0369648379789678 
4.4200000000030375, -1.0380907080229764 
4.430000000003014, -1.0390823051358813 
4.440000000002991, -1.0399167097906774 
4.450000000002968, -1.0405809481603028 
4.460000000002944, -1.0410672228388553 
4.470000000002921, -1.0413681223263351 
4.480000000002898, -1.0414736336288422 
4.490000000002874, -1.0413713635386364 
4.500000000002851, -1.0410500508125113 
4.510000000002828, -1.0405049265376916 
4.520000000002804, -1.039742821510438 
4.530000000002781, -1.0387855756359041 
4.540000000002758, -1.0376715447533331 
4.5500000000027345, -1.0364555710115806 
4.560000000002711, -1.0352072091065756 
4.570000000002688, -1.0340061453780292 
4.580000000002665, -1.0329340522901866 
4.590000000002641, -1.0320640720469638 
4.600000000002618, -1.0314512145537533 
4.610000000002595, -1.0311268023949096 
4.620000000002571, -1.0310973744037069 
4.630000000002548, -1.0313459299537922 
4.640000000002525, -1.0318337233595476 
4.6500000000025015, -1.0325031274417191 
4.660000000002478, -1.0332831623983274 
4.670000000002455, -1.0340977627318813 
4.6800000000024315, -1.0348746770274344 
4.690000000002408, -1.0355524787708121 
4.700000000002385, -1.036084534001295 
4.710000000002362, -1.0364401792087337 
4.720000000002338, -1.0366036873931894 
4.730000000002315, -1.0365712764771493 
4.740000000002292, -1.036346472183968 
4.750000000002268, -1.0359348940274018 
4.760000000002245, -1.0353402796066222 
4.770000000002222, -1.034563394038308 
4.7800000000021985, -1.0336042655590834 
4.790000000002175, -1.0324667234448888 
4.800000000002152, -1.0311634458657806 
4.810000000002129, -1.0297199618212227 
4.820000000002105, -1.0281767512422637 
4.830000000002082, -1.0265890015619992 
4.840000000002059, -1.025023619274877 
4.850000000002035, -1.0235534100077401 
4.860000000002012, -1.0222493618366353 
4.870000000001989, -1.0211729794863136 
4.880000000001965, -1.020370314989817 
4.890000000001942, -1.019867697488015 
4.900000000001919, -1.0196680914989824 
4.9100000000018955, -1.0197481300934195 
4.920000000001872, -1.02005798887235 
4.930000000001849, -1.0205264363006115 
