t, s[1].omega / s[0].omega 
0, -0.6699977036328588 
0.009999999999999995, -0.669766430010301 
0.019999999999999934, -0.6695252012237263 
0.029999999999999874, -0.6692574635814741 
0.04000000000000012, -0.66894509423665 
0.050000000000000405, -0.668576584069511 
0.06000000000000069, -0.6681515344323007 
0.07000000000000098, -0.6676814655440241 
0.08000000000000126, -0.667189548734761 
0.09000000000000155, -0.6667119631907472 
0.10000000000000184, -0.6663022022870315 
0.11000000000000212, -0.6660382537628282 
0.12000000000000241, -0.66603158541196 
0.130000000000002, -0.6664361023522044 
0.1400000000000009, -0.6674545493742908 
0.1499999999999998, -0.6693390876021406 
0.1599999999999987, -0.6723814139557456 
0.1699999999999976, -0.6768846206382597 
0.1799999999999965, -0.6831035680280891 
0.1899999999999954, -0.6911378370453127 
0.1999999999999943, -0.7007790775829579 
0.2099999999999932, -0.7113783370953919 
0.2199999999999921, -0.7218859945275702 
0.229999999999991, -0.7311791808765687 
0.2399999999999899, -0.7385176410743816 
0.2499999999999888, -0.7437614369985962 
0.2599999999999877, -0.7472195491012428 
0.2699999999999866, -0.749355698727855 
0.2799999999999855, -0.7505858243876137 
0.2899999999999844, -0.7512092732171336 
0.2999999999999833, -0.7514139619129985 
0.3099999999999822, -0.7513013096704507 
0.3199999999999811, -0.7509063379537844 
0.32999999999998, -0.7502057325750817 
0.3399999999999789, -0.7491119688925301 
0.3499999999999778, -0.7474513140492343 
0.35999999999997667, -0.7449224001440433 
0.36999999999997557, -0.7410360260326678 
0.37999999999997447, -0.7350599295306615 
0.38999999999997337, -0.7260588755352951 
0.39999999999997227, -0.7132177192254214 
0.40999999999997117, -0.6965607713754874 
0.41999999999997006, -0.6776165797701827 
0.42999999999996896, -0.6590669562916123 
0.43999999999996786, -0.6433497013954916 
0.44999999999996676, -0.6315776486123996 
0.45999999999996566, -0.6235856657841525 
0.46999999999996456, -0.618571234733094 
0.47999999999996346, -0.6156356964811471 
0.48999999999996235, -0.6140360586440411 
0.49999999999996125, -0.6132396371808699 
0.5099999999999602, -0.612894956396174 
0.519999999999959, -0.612782309905165 
0.529999999999958, -0.6127690212373993 
0.5399999999999568, -0.6127759243316101 
0.5499999999999557, -0.6127546787621745 
0.5599999999999546, -0.6126738267069477 
0.5699999999999535, -0.6125117327719682 
0.5799999999999524, -0.6122550814442178 
0.5899999999999513, -0.6119013815637807 
0.5999999999999502, -0.6114625231833475 
0.6099999999999491, -0.610965009079435 
0.619999999999948, -0.6104436660386912 
0.6299999999999469, -0.6099302811106637 
0.6399999999999458, -0.6094430483387459 
0.6499999999999447, -0.6089825646688778 
0.6599999999999436, -0.6085358032964928 
0.6699999999999425, -0.6080849427158337 
0.6799999999999414, -0.6076161418265154 
0.6899999999999403, -0.6071249057416584 
0.6999999999999392, -0.6066179146612514 
0.7099999999999381, -0.6061135062572537 
0.719999999999937, -0.6056432794098547 
0.7299999999999359, -0.6052563578505075 
0.7399999999999348, -0.6050269030413857 
0.7499999999999337, -0.605064901747854 
0.7599999999999326, -0.6055298489812453 
0.7699999999999315, -0.6066462507341143 
0.7799999999999304, -0.6087181705734104 
0.7899999999999293, -0.6121359086631428 
0.7999999999999282, -0.6173588866984648 
0.8099999999999271, -0.6248433732230091 
0.819999999999926, -0.6348706571341647 
0.8299999999999249, -0.6472607448162926 
0.8399999999999238, -0.661096477653909 
0.8499999999999227, -0.6747832805423678 
0.8599999999999216, -0.6866615340286965 
0.8699999999999205, -0.6957741088060965 
0.8799999999999194, -0.702098166310547 
0.8899999999999183, -0.7061828524812529 
0.8999999999999172, -0.7086911847040871 
0.9099999999999161, -0.710159967455627 
0.919999999999915, -0.7109527706988852 
0.9299999999999139, -0.7112912113908163 
0.9399999999999128, -0.7112960331616762 
0.9499999999999117, -0.7110154868827375 
0.9599999999999106, -0.7104377357924063 
0.9699999999999095, -0.7094881455011341 
0.9799999999999084, -0.7080119186918579 
0.9899999999999073, -0.705743945269186 
0.9999999999999062, -0.7022783023116321 
1.0099999999999052, -0.6970792988895866 
1.019999999999904, -0.6896174714598755 
1.029999999999903, -0.6796917387708878 
1.039999999999902, -0.6677927479809314 
1.0499999999999008, -0.6551201684328504 
1.0599999999998997, -0.6430893416792588 
1.0699999999998986, -0.6327370789722365 
1.0799999999998975, -0.6244912070110059 
1.0899999999998964, -0.6182998810139569 
1.0999999999998953, -0.6138653774566589 
1.1099999999998942, -0.6108195829820625 
1.119999999999893, -0.6088154006174898 
1.129999999999892, -0.6075616222280122 
1.1399999999998909, -0.6068293288183786 
1.1499999999998898, -0.6064463426143878 
1.1599999999998887, -0.6062875930058724 
1.1699999999998876, -0.6062648693851878 
1.1799999999998865, -0.606317586567943 
1.1899999999998854, -0.6064054391113192 
1.1999999999998843, -0.6065034066336281 
1.2099999999998832, -0.6065990884201227 
1.219999999999882, -0.6066915453248595 
1.229999999999881, -0.6067898163612452 
1.2399999999998799, -0.6069088506698291 
1.2499999999998788, -0.6070618329189983 
1.2599999999998777, -0.60725074245982 
1.2699999999998766, -0.6074596351590796 
1.2799999999998755, -0.6076552587956596 
1.2899999999998744, -0.6077961558372473 
1.2999999999998733, -0.6078458941607182 
1.3099999999998722, -0.6077830247908059 
1.319999999999871, -0.6076032918275204 
1.32999999999987, -0.6073156961324566 
1.3399999999998689, -0.6069373818283411 
1.3499999999998678, -0.6064915134573766 
1.3599999999998666, -0.60601024659707 
1.3699999999998655, -0.6055440296599804 
1.3799999999998644, -0.6051790688368558 
1.3899999999998633, -0.6050659653454054 
1.3999999999998622, -0.6054629266366665 
1.4099999999998611, -0.6067938329334329 
1.41999999999986, -0.6097085007788938 
1.429999999999859, -0.615097923430993 
1.4399999999998578, -0.6239528363969614 
1.4499999999998567, -0.6369075659761532 
1.4599999999998556, -0.6534847680558807 
1.4699999999998545, -0.6716389392754347 
1.4799999999998534, -0.6885006695732437 
1.4899999999998523, -0.7019897323487665 
1.4999999999998512, -0.7116340409889299 
1.5099999999998501, -0.718064264522426 
1.519999999999849, -0.7221932640847725 
1.529999999999848, -0.7247870618461907 
1.5399999999998468, -0.7263791272440981 
1.5499999999998457, -0.7273121785243974 
1.5599999999998446, -0.7277960072225815 
1.5699999999998435, -0.7279506563026394 
1.5799999999998424, -0.7278325445274386 
1.5899999999998413, -0.7274467478472494 
1.5999999999998402, -0.7267483553958616 
1.6099999999998391, -0.7256354871338827 
1.619999999999838, -0.7239391441855261 
1.629999999999837, -0.7214234142873274 
1.6399999999998358, -0.7178228709181131 
1.6499999999998347, -0.7129455106621225 
1.6599999999998336, -0.7068236511764087 
1.6699999999998325, -0.699807308004083 
1.6799999999998314, -0.6924850108791445 
1.6899999999998303, -0.6854672558419643 
1.6999999999998292, -0.6791988659459166 
1.709999999999828, -0.6739028432297365 
1.719999999999827, -0.6696244319808928 
1.729999999999826, -0.6663017328150026 
1.7399999999998248, -0.6638210285756185 
1.7499999999998237, -0.6620497006289388 
1.7599999999998226, -0.6608536155371707 
1.7699999999998215, -0.6601065092744658 
1.7799999999998204, -0.6596956276773484 
1.7899999999998193, -0.6595250974672161 
1.7999999999998182, -0.6595172618951067 
1.809999999999817, -0.6596121767340266 
1.819999999999816, -0.6597658970682533 
1.8299999999998149, -0.659948473952227 
1.8399999999998138, -0.6601423715840581 
1.8499999999998127, -0.6603412227246993 
1.8599999999998116, -0.6605477603738421 
1.8699999999998105, -0.6607692772303351 
1.8799999999998094, -0.6610101123833692 
1.8899999999998083, -0.6612633554369671 
1.8999999999998072, -0.6615062724676956 
1.909999999999806, -0.6617033891867183 
1.919999999999805, -0.6618168916064868 
1.9299999999998039, -0.6618187237505564 
1.9399999999998028, -0.6616975591996239 
1.9499999999998017, -0.6614583666974081 
1.9599999999998006, -0.6611178859242038 
1.9699999999997995, -0.660701074215386 
1.9799999999997984, -0.6602419346472618 
1.9899999999997973, -0.6597902153141051 
1.9999999999997962, -0.6594247860235423 
2.0099999999998173, -0.6592745287056256 
2.0199999999998384, -0.6595470971355641 
2.0299999999998595, -0.6605635749847035 
2.0399999999998806, -0.6627911662051009 
2.0499999999999017, -0.6668539399657197 
2.059999999999923, -0.6734805435099335 
2.069999999999944, -0.6833228933901982 
2.079999999999965, -0.6965901462392325 
2.089999999999986, -0.7125831876321869 
2.100000000000007, -0.7295158773650063 
2.1100000000000283, -0.7450876934955903 
2.1200000000000494, -0.7575845025181254 
2.1300000000000705, -0.7665285324286228 
2.1400000000000916, -0.7724149870764875 
2.1500000000001127, -0.7760771109737711 
2.160000000000134, -0.778261584357495 
2.170000000000155, -0.7794992145219513 
2.180000000000176, -0.7801250871973362 
2.190000000000197, -0.780333248904768 
2.2000000000002182, -0.7802212004378457 
2.2100000000002393, -0.779815197243506 
2.2200000000002604, -0.7790773427177683 
2.2300000000002815, -0.7778954172755059 
2.2400000000003026, -0.7760543408031813 
2.2500000000003237, -0.7731893845900405 
2.260000000000345, -0.7687350333784031 
2.270000000000366, -0.7619259754721488 
2.280000000000387, -0.7519770937375186 
2.290000000000408, -0.7385627127688652 
2.3000000000004293, -0.7224117291651245 
2.3100000000004504, -0.705385939584833 
2.3200000000004715, -0.6896848506241193 
2.3300000000004926, -0.6768341247274415 
2.3400000000005137, -0.6673075712132348 
2.3500000000005348, -0.6607958762349508 
2.360000000000556, -0.6566470137825366 
2.370000000000577, -0.6541771568263388 
2.380000000000598, -0.6528140179725099 
2.390000000000619, -0.652132676992769 
2.4000000000006403, -0.6518412579521532 
2.4100000000006614, -0.6517501199331643 
2.4200000000006825, -0.6517405146504244 
2.4300000000007036, -0.6517388954755177 
2.4400000000007247, -0.6516983915985232 
2.450000000000746, -0.6515871485710313 
2.460000000000767, -0.6513828378599583 
2.470000000000788, -0.651072469432183 
2.480000000000809, -0.6506556764776263 
2.49000000000083, -0.6501477796053201 
2.5000000000008513, -0.6495780514662817 
2.5100000000008724, -0.6489812766280638 
2.5200000000008935, -0.6483860890889104 
2.5300000000009146, -0.647806663458066 
2.5400000000009357, -0.6472420377259431 
2.550000000000957, -0.6466822438807137 
2.560000000000978, -0.6461169332536711 
2.570000000000999, -0.6455422722752902 
2.58000000000102, -0.6449645408984809 
2.5900000000010412, -0.6444015520148147 
2.6000000000010624, -0.6438839293713059 
2.6100000000010835, -0.6434575947260347 
2.6200000000011046, -0.6431876610886758 
2.6300000000011257, -0.6431630712043837 
2.6400000000011468, -0.6435009092778096 
2.650000000001168, -0.6443492269307416 
2.660000000001189, -0.6458871776820847 
2.67000000000121, -0.648320637559586 
2.680000000001231, -0.6518693223722153 
2.6900000000012523, -0.6567369578071862 
2.7000000000012734, -0.6630509660119533 
2.7100000000012945, -0.6707611261517086 
2.7200000000013156, -0.6795169973269964 
2.7300000000013367, -0.6886117123594666 
2.740000000001358, -0.6971213179169313 
2.750000000001379, -0.704245452695389 
2.7600000000014, -0.7096134152083367 
2.770000000001421, -0.7133114868999413 
2.780000000001442, -0.7156790669742447 
2.7900000000014633, -0.7170922742350286 
2.8000000000014844, -0.7178522828898194 
2.8100000000015055, -0.7181618851018791 
2.8200000000015266, -0.718139064593676 
2.8300000000015477, -0.7178350725323599 
2.840000000001569, -0.7172443148851346 
2.85000000000159, -0.716302043919766 
2.860000000001611, -0.7148672502266429 
2.870000000001632, -0.7126871718688731 
2.8800000000016532, -0.7093419008764313 
2.8900000000016743, -0.7041846188281717 
2.9000000000016954, -0.6963480408316729 
2.9100000000017165, -0.6849819303929314 
2.9200000000017377, -0.6698678191077098 
2.9300000000017588, -0.6521098123313254 
2.94000000000178, -0.634033771189002 
2.950000000001801, -0.6180302477313866 
2.960000000001822, -0.6054385151842635 
2.970000000001843, -0.5963940224411826 
2.9800000000018643, -0.5903284236004092 
2.9900000000018854, -0.5864768095430999 
3.0000000000019065, -0.5841492528825379 
3.0100000000019276, -0.5828159229403133 
3.0200000000019487, -0.5821030154969897 
3.03000000000197, -0.5817600326893917 
3.040000000001991, -0.5816247103568457 
3.050000000002012, -0.5815941711679455 
3.060000000002033, -0.5816037667857501 
3.070000000002054, -0.5816128184151668 
3.0800000000020753, -0.5815960819956396 
3.0900000000020964, -0.5815398534119021 
3.1000000000021175, -0.581441417005568 
3.1100000000021386, -0.5813097015319051 
3.1200000000021597, -0.5811641067134236 
3.130000000002181, -0.5810290074025607 
3.140000000002202, -0.5809242890130937 
3.150000000002223, -0.5808557766766458 
3.160000000002244, -0.5808106743236914 
3.1700000000022652, -0.5807609719361072 
3.1800000000022863, -0.5806734083608216 
3.1900000000023074, -0.5805206735117967 
3.2000000000023285, -0.580288255947526 
3.2100000000023496, -0.5799751823587245 
3.2200000000023707, -0.5795912285534558 
3.230000000002392, -0.5791545938030922 
3.240000000002413, -0.5786929553600283 
3.250000000002434, -0.5782495770163054 
3.260000000002455, -0.5778959828666304 
3.2700000000024763, -0.577753450613304 
3.2800000000024974, -0.5780263755381319 
3.2900000000025185, -0.5790497952287414 
3.3000000000025396, -0.5813472199293892 
3.3100000000025607, -0.5856747070015974 
3.3200000000025818, -0.5929794647987401 
3.330000000002603, -0.6041310057847058 
3.340000000002624, -0.6192979211866645 
3.350000000002645, -0.6372118689752364 
3.360000000002666, -0.6552065623392088 
3.3700000000026873, -0.6705800599091047 
3.3800000000027084, -0.6820607069035919 
3.3900000000027295, -0.6898924656332321 
3.4000000000027506, -0.6949787587020915 
3.4100000000027717, -0.6982050977932052 
3.420000000002793, -0.7002190098138686 
3.430000000002814, -0.7014432203269555 
3.440000000002835, -0.702140216582805 
3.450000000002856, -0.7024662542709359 
3.460000000002877, -0.7025059265418869 
3.4700000000028983, -0.7022909781555375 
3.4800000000029194, -0.7018075878239733 
3.4900000000029405, -0.7009953346459732 
3.5000000000029616, -0.699741843442926 
3.5100000000029827, -0.6978816828533108 
3.520000000003004, -0.6952167400576739 
3.530000000003025, -0.6915797129718791 
3.540000000003046, -0.6869399996295018 
3.550000000003067, -0.6814927662170508 
3.5600000000030882, -0.6756402701580726 
3.5700000000031094, -0.6698531033573525 
3.5800000000031305, -0.6645147276474337 
3.5900000000031516, -0.6598493605687386 
3.6000000000031727, -0.6559372276325608 
3.6100000000031938, -0.6527654368254978 
3.620000000003215, -0.6502738668915123 
3.630000000003236, -0.6483835393427584 
3.640000000003257, -0.6470105563406292 
3.650000000003278, -0.6460721039019723 
3.6600000000032993, -0.645489363939142 
3.6700000000033204, -0.6451897124145982 
3.6800000000033415, -0.6451087997815206 
3.6900000000033626, -0.6451922795217394 
3.7000000000033837, -0.6453968733229214 
3.710000000003405, -0.6456907435798355 
3.720000000003426, -0.6460533494649822 
3.730000000003447, -0.6464747656628625 
3.740000000003468, -0.646953812777528 
3.750000000003489, -0.6474937621494459 
3.7600000000035103, -0.6480947669400134 
3.7700000000035314, -0.6487442100456751 
3.7800000000035525, -0.6494092028858106 
3.7900000000035736, -0.6500371049526947 
3.8000000000035947, -0.6505670368345906 
3.810000000003616, -0.650947765368046 
3.820000000003637, -0.6511514233486125 
3.830000000003658, -0.651175626049282 
3.840000000003679, -0.6510358526000892 
3.8500000000037002, -0.650755586359561 
3.8600000000037213, -0.6503603118504747 
3.8700000000037424, -0.6498777488591934 
3.8800000000037635, -0.6493449555732451 
3.8900000000037847, -0.6488236054677847 
3.9000000000038058, -0.6484265063563313 
3.910000000003827, -0.648359697583268 
3.920000000003848, -0.648982713842182 
3.930000000003869, -0.6508793197930175 
3.94000000000389, -0.6549016667570537 
3.9500000000039113, -0.662092104197327 
3.9600000000039324, -0.6733258724833209 
3.9700000000039535, -0.6886070561770954 
3.9800000000039746, -0.7064187291988491 
3.9900000000039957, -0.7240271137515432 
4.000000000004016, -0.738922593744618 
4.010000000003993, -0.7500298969062174 
4.02000000000397, -0.7576228168306265 
4.030000000003946, -0.7625461013681049 
4.040000000003923, -0.7656370882437714 
4.0500000000039, -0.7675248020560577 
4.0600000000038765, -0.7686281585071679 
4.070000000003853, -0.7692080007027076 
4.08000000000383, -0.7694159941173488 
4.090000000003807, -0.7693272919173612 
4.100000000003783, -0.7689571967809888 
4.11000000000376, -0.7682639382775678 
4.120000000003737, -0.7671389080091242 
4.130000000003713, -0.7653864543978153 
4.14000000000369, -0.7627022399817551 
4.150000000003667, -0.7586779517181318 
4.1600000000036434, -0.7528865662054722 
4.17000000000362, -0.7450933734214852 
4.180000000003597, -0.7355218691698548 
4.1900000000035735, -0.7249415208674074 
4.20000000000355, -0.7144160439147631 
4.210000000003527, -0.7048881667749786 
4.220000000003504, -0.6969182458216103 
4.23000000000348, -0.6906732240820326 
4.240000000003457, -0.6860495658173605 
4.250000000003434, -0.6828055864532123 
4.26000000000341, -0.6806544750507413 
4.270000000003387, -0.6793182555635717 
4.280000000003364, -0.6785551837588143 
4.2900000000033405, -0.6781705256985183 
4.300000000003317, -0.6780168177542385 
4.310000000003294, -0.6779878081785083 
4.320000000003271, -0.678009532729995 
4.330000000003247, -0.6780313522701089 
4.340000000003224, -0.6780189862295882 
4.350000000003201, -0.6779506554238679 
4.360000000003177, -0.6778162767365934 
4.370000000003154, -0.67761807667447 
4.380000000003131, -0.677369623538383 
4.390000000003107, -0.6770907461431669 
4.400000000003084, -0.6767989220536798 
4.410000000003061, -0.6765013039277074 
4.4200000000030375, -0.6761921027166009 
4.430000000003014, -0.6758568020499707 
4.440000000002991, -0.6754803781869592 
4.450000000002968, -0.6750548177700086 
4.460000000002944, -0.6745830214933705 
4.470000000002921, -0.6740796203181671 
4.480000000002898, -0.6735712463180415 
4.490000000002874, -0.67309848005035 
4.500000000002851, -0.6727202524195727 
4.510000000002828, -0.6725201369305824 
4.520000000002804, -0.6726130655978335 
4.530000000002781, -0.6731504709882673 
4.540000000002758, -0.674321652275147 
4.5500000000027345, -0.6763490687602292 
4.560000000002711, -0.6794744853522678 
4.570000000002688, -0.6839302409259234 
4.580000000002665, -0.689885486665313 
4.590000000002641, -0.6973564190455265 
4.600000000002618, -0.7060875522460092 
4.610000000002595, -0.7154648283743026 
4.620000000002571, -0.7245817521765819 
4.630000000002548, -0.7325269512015168 
4.640000000002525, -0.7387399010898874 
4.6500000000025015, -0.7431530130202461 
4.660000000002478, -0.7460486213309797 
4.670000000002455, -0.7478206200234154 
4.6800000000024315, -0.7488161931705557 
4.690000000002408, -0.7492832844867012 
4.700000000002385, -0.749375370894428 
4.710000000002362, -0.7491710695128239 
4.720000000002338, -0.7486890833588148 
4.730000000002315, -0.7478923742086385 
4.740000000002292, -0.7466794464981327 
4.750000000002268, -0.7448602488914299 
4.760000000002245, -0.7421134458320294 
4.770000000002222, -0.7379265180114063 
4.7800000000021985, -0.7315450297970114 
4.790000000002175, -0.7220284300457211 
4.800000000002152, -0.7086108505195318 
4.810000000002129, -0.6914675262303642 
4.820000000002105, -0.6723545058621513 
4.830000000002082, -0.6541020809460163 
4.840000000002059, -0.6390844794064888 
4.850000000002035, -0.6282002304715057 
4.860000000002012, -0.6210742833658475 
4.870000000001989, -0.6167823256481534 
4.880000000001965, -0.6143888234892763 
4.890000000001942, -0.6131643060155662 
4.900000000001919, -0.6126096337613676 
4.9100000000018955, -0.6124090004521181 
4.920000000001872, -0.6123725366766615 
