t, s[1].omega / s[0].omega 
0, -0.4999977585216981 
0.009999999999999995, -0.49980570428731746 
0.019999999999999934, -0.4996665264022647 
0.029999999999999874, -0.4995523795305089 
0.04000000000000012, -0.49942827621834385 
0.050000000000000405, -0.4992631671728419 
0.06000000000000069, -0.4990370298078333 
0.07000000000000098, -0.49874208198131476 
0.08000000000000126, -0.49838005767952503 
0.09000000000000155, -0.49795893870897345 
0.10000000000000184, -0.49749168687612 
0.11000000000000212, -0.49699827562021487 
0.12000000000000241, -0.4965118832440929 
0.130000000000002, -0.4960903995880289 
0.1400000000000009, -0.4958344612257318 
0.1499999999999998, -0.49591080372535606 
0.1599999999999987, -0.4965692697168792 
0.1699999999999976, -0.4981129775660551 
0.1799999999999965, -0.5007316643665887 
0.1899999999999954, -0.5041124383814338 
0.1999999999999943, -0.5070416026141099 
0.2099999999999932, -0.5077934576794332 
0.2199999999999921, -0.5056182970486338 
0.229999999999991, -0.5015829549002635 
0.2399999999999899, -0.49744759172446373 
0.2499999999999888, -0.4942800095077414 
0.2599999999999877, -0.49226297436210775 
0.2699999999999866, -0.4911461559517104 
0.2799999999999855, -0.49060942389340445 
0.2899999999999844, -0.4904021191673132 
0.2999999999999833, -0.4903601332656267 
0.3099999999999822, -0.49038501134532514 
0.3199999999999811, -0.49042006657948506 
0.32999999999998, -0.4904327111375766 
0.3399999999999789, -0.4904034310129474 
0.3499999999999778, -0.4903200170683103 
0.35999999999997667, -0.4901758613219819 
0.36999999999997557, -0.48997135583635326 
0.37999999999997447, -0.4897168993422706 
0.38999999999997337, -0.4894348342662516 
0.39999999999997227, -0.48915713441997005 
0.40999999999997117, -0.4889174995372449 
0.41999999999997006, -0.488740233334324 
0.42999999999996896, -0.48863092233892297 
0.43999999999996786, -0.48857344917543416 
0.44999999999996676, -0.4885350112044529 
0.45999999999996566, -0.48847702503450285 
0.46999999999996456, -0.4883666400327259 
0.47999999999996346, -0.4881835179547382 
0.48999999999996235, -0.4879201693028164 
0.49999999999996125, -0.48757820613515496 
0.5099999999999602, -0.4871641360613818 
0.519999999999959, -0.48668713010076586 
0.529999999999958, -0.4861597078394273 
0.5399999999999568, -0.48560164674619377 
0.5499999999999557, -0.4850473349862011 
0.5599999999999546, -0.48455596614862995 
0.5699999999999535, -0.48421962630422455 
0.5799999999999524, -0.48415052583074114 
0.5899999999999513, -0.4843982126508698 
0.5999999999999502, -0.4847188491547402 
0.6099999999999491, -0.48421994669334356 
0.619999999999948, -0.4813482381658364 
0.6299999999999469, -0.4749771970507039 
0.6399999999999458, -0.4659012239620832 
0.6499999999999447, -0.45647377840134656 
0.6599999999999436, -0.4486695248539155 
0.6699999999999425, -0.4431217467690069 
0.6799999999999414, -0.43954274929302983 
0.6899999999999403, -0.43737421803142934 
0.6999999999999392, -0.4361196972789282 
0.7099999999999381, -0.4354256172944092 
0.719999999999937, -0.43506350623209117 
0.7299999999999359, -0.4348926028610943 
0.7399999999999348, -0.43482836513116113 
0.7499999999999337, -0.4348209863095037 
0.7599999999999326, -0.4348421921362779 
0.7699999999999315, -0.43487796212455765 
0.7799999999999304, -0.43492533242783893 
0.7899999999999293, -0.434991748607369 
0.7999999999999282, -0.43509521375713395 
0.8099999999999271, -0.43526301427403286 
0.819999999999926, -0.4355268868972771 
0.8299999999999249, -0.43591375281379985 
0.8399999999999238, -0.43643338253405817 
0.8499999999999227, -0.4370669524953105 
0.8599999999999216, -0.43776276592510044 
0.8699999999999205, -0.43844504781633525 
0.8799999999999194, -0.43903508168299643 
0.8899999999999183, -0.4394738269019677 
0.8999999999999172, -0.43973276801342076 
0.9099999999999161, -0.43980934047089815 
0.919999999999915, -0.43971378504978337 
0.9299999999999139, -0.4394557389255335 
0.9399999999999128, -0.4390339282892227 
0.9499999999999117, -0.4384276068821011 
0.9599999999999106, -0.4375860023413682 
0.9699999999999095, -0.4364106811758545 
0.9799999999999084, -0.434724379997175 
0.9899999999999073, -0.43222094679344664 
0.9999999999999062, -0.4284066466115865 
1.0099999999999052, -0.422600311608369 
1.019999999999904, -0.41415869123167176 
1.029999999999903, -0.403042837787771 
1.039999999999902, -0.39032468925265074 
1.0499999999999008, -0.37783367295683123 
1.0599999999998997, -0.3670944713810603 
1.0699999999998986, -0.3587034721056193 
1.0799999999998975, -0.3525137139770871 
1.0899999999998964, -0.34807661334047146 
1.0999999999998953, -0.3449306847016148 
1.1099999999998942, -0.34270740620987816 
1.119999999999893, -0.3411426851547691 
1.129999999999892, -0.3400578030542238 
1.1399999999998909, -0.33933715528745056 
1.1499999999998898, -0.33891094784791126 
1.1599999999998887, -0.3387439537689928 
1.1699999999998876, -0.3388295925755121 
1.1799999999998865, -0.33918853915370023 
1.1899999999998854, -0.3398714476391518 
1.1999999999998843, -0.34096563203179775 
1.2099999999998832, -0.3426051650267324 
1.219999999999882, -0.34498178695375226 
1.229999999999881, -0.34834801483599176 
1.2399999999998799, -0.3529907349564371 
1.2499999999998788, -0.35913547063170714 
1.2599999999998777, -0.3667475485104769 
1.2699999999998766, -0.3752989382932309 
1.2799999999998755, -0.3837630432696557 
1.2899999999998744, -0.39104984328712444 
1.2999999999998733, -0.3965663545624965 
1.3099999999998722, -0.4003502030708487 
1.319999999999871, -0.40278287603743956 
1.32999999999987, -0.4042826464344363 
1.3399999999998689, -0.40516918278339453 
1.3499999999998678, -0.40565063721510625 
1.3599999999998666, -0.4058507495350166 
1.3699999999998655, -0.40583658957675384 
1.3799999999998644, -0.405637740373835 
1.3899999999998633, -0.40525856445358927 
1.3999999999998622, -0.40468771155374184 
1.4099999999998611, -0.40390915609120537 
1.41999999999986, -0.4029174732238949 
1.429999999999859, -0.4017352312117987 
1.4399999999998578, -0.40042326494140223 
1.4499999999998567, -0.3990729069583846 
1.4599999999998556, -0.39778029717305197 
1.4699999999998545, -0.39661792532367046 
1.4799999999998534, -0.3956197022833063 
1.4899999999998523, -0.3947831221243222 
1.4999999999998512, -0.3940815295229621 
1.5099999999998501, -0.39347836162226246 
1.519999999999849, -0.39293852585674793 
1.529999999999848, -0.39243511788656005 
1.5399999999998468, -0.39195183493518226 
1.5499999999998457, -0.39148284731295196 
1.5599999999998446, -0.3910323102308725 
1.5699999999998435, -0.39061533966304784 
1.5799999999998424, -0.39026181393105985 
1.5899999999998413, -0.39002423219628185 
1.5999999999998402, -0.38999084503278747 
1.6099999999998391, -0.3903040848242344 
1.619999999999838, -0.3911781200422075 
1.629999999999837, -0.39288854723015526 
1.6399999999998358, -0.3956571292740674 
1.6499999999998347, -0.3992951636023769 
1.6599999999998336, -0.4026070899925963 
1.6699999999998325, -0.40328145244571817 
1.6799999999998314, -0.39948645290705975 
1.6899999999998303, -0.39200906749660613 
1.6999999999998292, -0.3836177253549198 
1.709999999999828, -0.3765367572378371 
1.719999999999827, -0.37145751243571207 
1.729999999999826, -0.36812940131956773 
1.7399999999998248, -0.3660549443611185 
1.7499999999998237, -0.36480091219091293 
1.7599999999998226, -0.36406300282111426 
1.7699999999998215, -0.3636457086159155 
1.7799999999998204, -0.36342881178353226 
1.7899999999998193, -0.36334071547036273 
1.7999999999998182, -0.3633409293696778 
1.809999999999817, -0.36340976352205384 
1.819999999999816, -0.36354305069009824 
1.8299999999998149, -0.3637501722346979 
1.8399999999998138, -0.3640538332251874 
1.8499999999998127, -0.3644897780564114 
1.8599999999998116, -0.36510419571504626 
1.8699999999998105, -0.36594630039167253 
1.8799999999998094, -0.3670538690196523 
1.8899999999998083, -0.3684314417113457 
1.8999999999998072, -0.37002684056355484 
1.909999999999806, -0.3717215215327177 
1.919999999999805, -0.37335293488495613 
1.9299999999998039, -0.37476684275934335 
1.9399999999998028, -0.3758669496320145 
1.9499999999998017, -0.37662880322253756 
1.9599999999998006, -0.3770784696901984 
1.9699999999997995, -0.37726034259911734 
1.9799999999997984, -0.3772127570679825 
1.9899999999997973, -0.3769546404575672 
1.9999999999997962, -0.3764784218955326 
2.0099999999998173, -0.37574407282630307 
2.0199999999998384, -0.3746720447634017 
2.0299999999998595, -0.37313789205518966 
2.0399999999998806, -0.37098013233690186 
2.0499999999999017, -0.36804342647874444 
2.059999999999923, -0.36427332233400583 
2.069999999999944, -0.3598260335425365 
2.079999999999965, -0.355085218310489 
2.089999999999986, -0.3505200054142487 
2.100000000000007, -0.346488230985298 
2.1100000000000283, -0.34314406000243985 
2.1200000000000494, -0.3404739513637789 
2.1300000000000705, -0.338379205373845 
2.1400000000000916, -0.33674080931706485 
2.1500000000001127, -0.33545286079740544 
2.160000000000134, -0.33443427883112026 
2.170000000000155, -0.3336300847886593 
2.180000000000176, -0.3330093201741791 
2.190000000000197, -0.332563277140019 
2.2000000000002182, -0.3323059753597308 
2.2100000000002393, -0.33227824415819035 
2.2200000000002604, -0.3325569697647685 
2.2300000000002815, -0.3332718046436273 
2.2400000000003026, -0.3346325119095754 
2.2500000000003237, -0.33696971840966805 
2.260000000000345, -0.3407853271904854 
2.270000000000366, -0.34678266360508125 
2.280000000000387, -0.3557756937807425 
2.290000000000408, -0.36826890980311655 
2.3000000000004293, -0.38358792068170205 
2.3100000000004504, -0.39924456600345837 
2.3200000000004715, -0.4120357335437695 
2.3300000000004926, -0.4203986086907028 
2.3400000000005137, -0.4250219188097139 
2.3500000000005348, -0.4274035508155419 
2.360000000000556, -0.4286765446676558 
2.370000000000577, -0.42943184876906865 
2.380000000000598, -0.4299263592954656 
2.390000000000619, -0.4302644889116453 
2.4000000000006403, -0.43048978168043484 
2.4100000000006614, -0.43062198887913244 
2.4200000000006825, -0.4306704329394531 
2.4300000000007036, -0.43063874843430117 
2.4400000000007247, -0.4305272705668635 
2.450000000000746, -0.4303357001952669 
2.460000000000767, -0.43006712070053155 
2.470000000000788, -0.4297330954653663 
2.480000000000809, -0.4293577857742375 
2.49000000000083, -0.4289777339068432 
2.5000000000008513, -0.42863511203827265 
2.5100000000008724, -0.4283660663189779 
2.5200000000008935, -0.4281891726946685 
2.5300000000009146, -0.4280990655878004 
2.5400000000009357, -0.4280678439212081 
2.550000000000957, -0.4280538583221814 
2.560000000000978, -0.42801430552944647 
2.570000000000999, -0.4279158903960233 
2.58000000000102, -0.4277391577096141 
2.5900000000010412, -0.4274763896982086 
2.6000000000010624, -0.4271262343823822 
2.6100000000010835, -0.42668825019704393 
2.6200000000011046, -0.4261586744552709 
2.6300000000011257, -0.4255268781200242 
2.6400000000011468, -0.4247704693124156 
2.650000000001168, -0.4238446559685388 
2.660000000001189, -0.42265603118741674 
2.67000000000121, -0.4210000759483535 
2.680000000001231, -0.4184311064841662 
2.6900000000012523, -0.4140698198622713 
2.7000000000012734, -0.4065640154601201 
2.7100000000012945, -0.3947657413596883 
2.7200000000013156, -0.379207030594463 
2.7300000000013367, -0.3625854942422503 
2.740000000001358, -0.34792601878000023 
2.750000000001379, -0.3366887082566912 
2.7600000000014, -0.32877515267775614 
2.770000000001421, -0.3234347300526503 
2.780000000001442, -0.31989156639820476 
2.7900000000014633, -0.3175529486137187 
2.8000000000014844, -0.31601602364510883 
2.8100000000015055, -0.31502096642482 
2.8200000000015266, -0.31440520590628995 
2.8300000000015477, -0.31407067618597373 
2.840000000001569, -0.31396313452047114 
2.85000000000159, -0.3140603668752486 
2.860000000001611, -0.31436670240322917 
2.870000000001632, -0.3149121820344371 
2.8800000000016532, -0.3157552720140301 
2.8900000000016743, -0.31698784649034023 
2.9000000000016954, -0.3187397149935971 
2.9100000000017165, -0.3211760974016068 
2.9200000000017377, -0.3244739672988305 
2.9300000000017588, -0.32875521996074486 
2.94000000000178, -0.33396491822303637 
2.950000000001801, -0.3397462640415342 
2.960000000001822, -0.3454581725154277 
2.970000000001843, -0.35043004801229893 
2.9800000000018643, -0.35427521582560156 
2.9900000000018854, -0.35697799283462955 
3.0000000000019065, -0.35874715805999857 
3.0100000000019276, -0.3598378910095224 
3.0200000000019487, -0.3604586213846572 
3.03000000000197, -0.3607509203774873 
3.040000000001991, -0.36079955124695895 
3.050000000002012, -0.36064744543211646 
3.060000000002033, -0.3603077654737777 
3.070000000002054, -0.35977339534449687 
3.0800000000020753, -0.35902713115850504 
3.0900000000020964, -0.358056065423325 
3.1000000000021175, -0.3568704370487866 
3.1100000000021386, -0.35551985158394106 
3.1200000000021597, -0.35409380236160504 
3.130000000002181, -0.3526998044235176 
3.140000000002202, -0.3514303483025048 
3.150000000002223, -0.35033920737850777 
3.160000000002244, -0.34943725781065316 
3.1700000000022652, -0.34870283959844856 
3.1800000000022863, -0.34809695525811446 
3.1900000000023074, -0.3475768795607909 
3.2000000000023285, -0.3471054805076765 
3.2100000000023496, -0.3466556854326757 
3.2200000000023707, -0.3462110171966036 
3.230000000002392, -0.3457640794023023 
3.240000000002413, -0.3453148914681038 
3.250000000002434, -0.34487030830088966 
3.260000000002455, -0.3444449357252606 
3.2700000000024763, -0.34406294284996947 
3.2800000000024974, -0.34375780476964635 
3.2900000000025185, -0.3435600438897254 
3.3000000000025396, -0.3434448654749878 
3.3100000000025607, -0.3431774019134154 
3.3200000000025818, -0.3419843874608209 
3.330000000002603, -0.33820792325473953 
3.340000000002624, -0.3297845377016483 
3.350000000002645, -0.3163088263648938 
3.360000000002666, -0.3004819257569588 
3.3700000000026873, -0.2860421119563587 
3.3800000000027084, -0.27496320128349894 
3.3900000000027295, -0.2672613623268921 
3.4000000000027506, -0.2621452368342939 
3.4100000000027717, -0.258796479462076 
3.420000000002793, -0.25660707834936936 
3.430000000002814, -0.25517653618602393 
3.440000000002835, -0.25425459992082833 
3.450000000002856, -0.25369021666647884 
3.460000000002877, -0.25339715390547013 
3.4700000000028983, -0.2533336165640434 
3.4800000000029194, -0.2534918532791652 
3.4900000000029405, -0.25389501018610755 
3.5000000000029616, -0.2545998427550956 
3.5100000000029827, -0.25570471600063926 
3.520000000003004, -0.2573621063650818 
3.530000000003025, -0.2597921386546188 
3.540000000003046, -0.26328511062721893 
3.550000000003067, -0.26816173601205057 
3.5600000000030882, -0.27463602463768566 
3.5700000000031094, -0.2825515915293354 
3.5800000000031305, -0.2911421172982832 
3.5900000000031516, -0.29919095126219347 
3.6000000000031727, -0.3056760610999243 
3.6100000000031938, -0.3102776285565306 
3.620000000003215, -0.31326925388112337 
3.630000000003236, -0.315118184185302 
3.640000000003257, -0.31622581854801557 
3.650000000003278, -0.31686355093177526 
3.6600000000032993, -0.31719567941425375 
3.6700000000033204, -0.31731583321648044 
3.6800000000033415, -0.31727439242443517 
3.6900000000033626, -0.31709606979715776 
3.7000000000033837, -0.31679175697200007 
3.710000000003405, -0.3163683977663383 
3.720000000003426, -0.31583878218195804 
3.730000000003447, -0.3152302518441123 
3.740000000003468, -0.3145883812147049 
3.750000000003489, -0.3139717010636248 
3.7600000000035103, -0.3134382560267062 
3.7700000000035314, -0.31303035951706787 
3.7800000000035525, -0.31276434904127737 
3.7900000000035736, -0.3126280105650954 
3.8000000000035947, -0.312585102437358 
3.810000000003616, -0.31258551033305315 
3.820000000003637, -0.31257817144218125 
3.830000000003658, -0.3125218604555219 
3.840000000003679, -0.31238954396982016 
3.8500000000037002, -0.312165819330103 
3.8600000000037213, -0.31184019360970405 
3.8700000000037424, -0.31139897999950283 
3.8800000000037635, -0.31081638287543195 
3.8900000000037847, -0.3100427746297888 
3.9000000000038058, -0.3089857979093602 
3.910000000003827, -0.3074779399414113 
3.920000000003848, -0.3052260882096135 
3.930000000003869, -0.3017585604078778 
3.94000000000389, -0.2964509925570333 
3.9500000000039113, -0.28880262183960703 
3.9600000000039324, -0.2790032437400043 
3.9700000000039535, -0.2682538729618789 
3.9800000000039746, -0.25818245470107093 
3.9900000000039957, -0.2498787821187313 
4.000000000004016, -0.24358493998243186 
4.010000000003993, -0.23901997312662066 
4.02000000000397, -0.23575970690602718 
4.030000000003946, -0.23342800098308986 
4.040000000003923, -0.23174615213909555 
4.0500000000039, -0.23052471570210015 
4.0600000000038765, -0.22964258945915775 
4.070000000003853, -0.22902900479668725 
4.08000000000383, -0.22865201289975787 
4.090000000003807, -0.22851366274465895 
4.100000000003783, -0.22865193660745406 
4.11000000000376, -0.22915056050297836 
4.120000000003737, -0.23015940401264973 
4.130000000003713, -0.23192972195705486 
4.14000000000369, -0.2348673738937866 
4.150000000003667, -0.23959345739377622 
4.1600000000036434, -0.24694686044637967 
4.17000000000362, -0.25772231566941 
4.180000000003597, -0.2718036053187489 
4.1900000000035735, -0.28691896961543234 
4.20000000000355, -0.29902699531265736 
4.210000000003527, -0.3055697344678539 
4.220000000003504, -0.30745324034704286 
4.23000000000348, -0.3070718585458424 
4.240000000003457, -0.30611693748408025 
4.250000000003434, -0.30527362380228334 
4.26000000000341, -0.30468820694577825 
4.270000000003387, -0.30432496047409124 
4.280000000003364, -0.3041163115453175 
4.2900000000033405, -0.30400686631682283 
4.300000000003317, -0.30395995396608844 
4.310000000003294, -0.3039546552542848 
4.320000000003271, -0.3039822848188766 
4.330000000003247, -0.3040445817614862 
4.340000000003224, -0.30415376511109826 
4.350000000003201, -0.3043338131606744 
4.360000000003177, -0.30462171681515693 
4.370000000003154, -0.3050668997905833 
4.380000000003131, -0.3057266554351817 
4.390000000003107, -0.3066553079092524 
4.400000000003084, -0.3078851604486224 
4.410000000003061, -0.3094004400033105 
4.4200000000030375, -0.3111147836111342 
4.430000000003014, -0.3128738110742356 
4.440000000002991, -0.31449745492894854 
4.450000000002968, -0.3158427112989922 
4.460000000002944, -0.3168428415234478 
4.470000000002921, -0.31750154608632536 
4.480000000002898, -0.31786025727344386 
4.490000000002874, -0.3179661819136096 
4.500000000002851, -0.31785296539971325 
4.510000000002828, -0.31753188621296147 
4.520000000002804, -0.31698802828605854 
4.530000000002781, -0.31617835821364354 
4.540000000002758, -0.3150331123599085 
4.5500000000027345, -0.31346730472522066 
4.560000000002711, -0.3114126377962875 
4.570000000002688, -0.30887179805871423 
4.580000000002665, -0.30596817104923685 
4.590000000002641, -0.30293870403474304 
4.600000000002618, -0.3000512627708637 
4.610000000002595, -0.29750461246812837 
4.620000000002571, -0.295383612886151 
4.630000000002548, -0.2936779725419321 
4.640000000002525, -0.2923256650948562 
4.6500000000025015, -0.29124932796022207 
4.660000000002478, -0.2903772473205962 
4.670000000002455, -0.2896524119267759 
4.6800000000024315, -0.2890347557573251 
4.690000000002408, -0.2885003450105361 
4.700000000002385, -0.2880400120314498 
4.710000000002362, -0.28765913870938387 
4.720000000002338, -0.28737981388835 
4.730000000002315, -0.28724635984893804 
4.740000000002292, -0.2873348730256427 
4.750000000002268, -0.2877655035270391 
4.760000000002245, -0.28870820895238253 
4.770000000002222, -0.2903471483698531 
4.7800000000021985, -0.2927083581587881 
4.790000000002175, -0.2951936435943769 
4.800000000002152, -0.2959084195445371 
4.810000000002129, -0.29193715367332823 
4.820000000002105, -0.28198564667381365 
4.830000000002082, -0.2686257733491747 
4.840000000002059, -0.25594717007952084 
4.850000000002035, -0.24617202491826787 
4.860000000002012, -0.2394229096170565 
