t, s[1].omega / s[0].omega 
0, -0.4000187507750034 
0.009999999999999995, -0.40202814598674796 
0.019999999999999934, -0.4042060156733706 
0.029999999999999874, -0.40635822722347753 
0.04000000000000012, -0.4082791514599885 
0.050000000000000405, -0.40982413682917185 
0.06000000000000069, -0.4109438729862361 
0.07000000000000098, -0.411665861123543 
0.08000000000000126, -0.41205197346772726 
0.09000000000000155, -0.4121631107459046 
0.10000000000000184, -0.412040180223834 
0.11000000000000212, -0.411696069067539 
0.12000000000000241, -0.4111110248426669 
0.130000000000002, -0.4102267656783301 
0.1400000000000009, -0.40893885596961593 
0.1499999999999998, -0.40709350031991376 
0.1599999999999987, -0.404506025333567 
0.1699999999999976, -0.4010273592758985 
0.1799999999999965, -0.3966633485804548 
0.1899999999999954, -0.3916753398767191 
0.1999999999999943, -0.38653740434130496 
0.2099999999999932, -0.38173865028110876 
0.2199999999999921, -0.37759468025410503 
0.229999999999991, -0.37420282659752646 
0.2399999999999899, -0.37151002090247 
0.2499999999999888, -0.36939966035191724 
0.2599999999999877, -0.3677490053503546 
0.2699999999999866, -0.36645523937977875 
0.2799999999999855, -0.36544286988277547 
0.2899999999999844, -0.3646631398946163 
0.2999999999999833, -0.36409149056453444 
0.3099999999999822, -0.36372602955325956 
0.3199999999999811, -0.36358849274034366 
0.32999999999998, -0.36372876008280647 
0.3399999999999789, -0.3642341861580404 
0.3499999999999778, -0.36524552836482116 
0.35999999999997667, -0.3669815909824988 
0.36999999999997557, -0.36977334864944406 
0.37999999999997447, -0.3741008829500162 
0.38999999999997337, -0.38060254575014746 
0.39999999999997227, -0.38997102520717725 
0.40999999999997117, -0.4025873965956923 
0.41999999999997006, -0.41785331054824715 
0.42999999999996896, -0.4337545553271047 
0.43999999999996786, -0.4476415905101825 
0.44999999999996676, -0.45790035437297893 
0.45999999999996566, -0.46460159759769715 
0.46999999999996456, -0.46870842372579996 
0.47999999999996346, -0.47118696247193637 
0.48999999999996235, -0.472694924470135 
0.49999999999996125, -0.4736169389741338 
0.5099999999999602, -0.4741668008128335 
0.519999999999959, -0.47446207815830543 
0.529999999999958, -0.4745660324236563 
0.5399999999999568, -0.47450928047966956 
0.5499999999999557, -0.4743011788359201 
0.5599999999999546, -0.47393714405056764 
0.5699999999999535, -0.47340604794393615 
0.5799999999999524, -0.4727003472198567 
0.5899999999999513, -0.4718288046232012 
0.5999999999999502, -0.47082688285490837 
0.6099999999999491, -0.4697566516090138 
0.619999999999948, -0.46869236288536625 
0.6299999999999469, -0.46769856291144113 
0.6399999999999458, -0.4668134560289604 
0.6499999999999447, -0.4660449145540637 
0.6599999999999436, -0.4653774352705664 
0.6699999999999425, -0.4647839575590068 
0.6799999999999414, -0.4642370058014131 
0.6899999999999403, -0.4637160607524778 
0.6999999999999392, -0.4632107571100995 
0.7099999999999381, -0.46272153233418767 
0.719999999999937, -0.46226007962006 
0.7299999999999359, -0.4618516715837976 
0.7399999999999348, -0.4615410047644164 
0.7499999999999337, -0.4614032871647762 
0.7599999999999326, -0.46156290084552437 
0.7699999999999315, -0.46222258619002926 
0.7799999999999304, -0.463704969263014 
0.7899999999999293, -0.46650027368282154 
0.7999999999999282, -0.4712869101844258 
0.8099999999999271, -0.47882802521607404 
0.819999999999926, -0.48957193790350334 
0.8299999999999249, -0.5029108556387547 
0.8399999999999238, -0.516722039739405 
0.8499999999999227, -0.5283195837423975 
0.8599999999999216, -0.5363296941097531 
0.8699999999999205, -0.5412003721082757 
0.8799999999999194, -0.5440899860408257 
0.8899999999999183, -0.5459069933584375 
0.8999999999999172, -0.5471379439111419 
0.9099999999999161, -0.5480062901028868 
0.919999999999915, -0.5486166444542887 
0.9299999999999139, -0.5490253045677248 
0.9399999999999128, -0.5492665238543186 
0.9499999999999117, -0.5493606739487671 
0.9599999999999106, -0.5493164186431629 
0.9699999999999095, -0.5491314995034557 
0.9799999999999084, -0.5487942253821064 
0.9899999999999073, -0.5482874425666825 
0.9999999999999062, -0.5475966305233015 
1.0099999999999052, -0.5467219629510207 
1.019999999999904, -0.5456898238620383 
1.029999999999903, -0.5445553623649502 
1.039999999999902, -0.5433906226847538 
1.0499999999999008, -0.54226329830864 
1.0599999999998997, -0.5412187463177268 
1.0699999999998986, -0.5402741524131007 
1.0799999999998975, -0.5394242718926981 
1.0899999999998964, -0.5386525823325938 
1.0999999999998953, -0.5379419062783921 
1.1099999999998942, -0.5372815038201846 
1.119999999999893, -0.5366706070419649 
1.129999999999892, -0.5361200854330239 
1.1399999999998909, -0.5356542049941746 
1.1499999999998898, -0.5353139103347669 
1.1599999999998887, -0.535162480379942 
1.1699999999998876, -0.5352941226061558 
1.1799999999998865, -0.5358459829479993 
1.1899999999998854, -0.537013765349542 
1.1999999999998843, -0.5390698470418037 
1.2099999999998832, -0.5423786541961636 
1.219999999999882, -0.5473937898067165 
1.229999999999881, -0.5546014991849476 
1.2399999999998799, -0.5643524759412026 
1.2499999999998788, -0.5765454336400063 
1.2599999999998777, -0.5902873842895573 
1.2699999999998766, -0.6039213740488794 
1.2799999999998755, -0.615707454003272 
1.2899999999998744, -0.6246804534819084 
1.2999999999998733, -0.630869285303352 
1.3099999999998722, -0.6348666479242033 
1.319999999999871, -0.6373446346096464 
1.32999999999987, -0.6388286664839096 
1.3399999999998689, -0.6396679887800123 
1.3499999999998678, -0.6400750872165643 
1.3599999999998666, -0.6401687660889506 
1.3699999999998655, -0.6400032057418538 
1.3799999999998644, -0.6395827182010335 
1.3899999999998633, -0.6388654710235968 
1.3999999999998622, -0.637760035493032 
1.4099999999998611, -0.6361213299388198 
1.41999999999986, -0.6337598363118333 
1.429999999999859, -0.6304866512353157 
1.4399999999998578, -0.626209041140023 
1.4499999999998567, -0.6210421545083475 
1.4599999999998556, -0.6153412599332984 
1.4699999999998545, -0.609591370444511 
1.4799999999998534, -0.6042273163372355 
1.4899999999998523, -0.5995184249360721 
1.4999999999998512, -0.5955632161993294 
1.5099999999998501, -0.5923451427182621 
1.519999999999849, -0.5897920202393424 
1.529999999999848, -0.5878152051349588 
1.5399999999998468, -0.5863288520617167 
1.5499999999998457, -0.5852568152642494 
1.5599999999998446, -0.5845337638167979 
1.5699999999998435, -0.5841044005977202 
1.5799999999998424, -0.5839225790489698 
1.5899999999998413, -0.5839508961816395 
1.5999999999998402, -0.5841607752752327 
1.6099999999998391, -0.5845328564800192 
1.619999999999838, -0.585057430338661 
1.629999999999837, -0.5857344452277786 
1.6399999999998358, -0.5865721528050266 
1.6499999999998347, -0.5875828467175002 
1.6599999999998336, -0.5887739822227619 
1.6699999999998325, -0.5901342906159399 
1.6799999999998314, -0.5916183370879717 
1.6899999999998303, -0.593138608701686 
1.6999999999998292, -0.5945764211376016 
1.709999999999828, -0.5958136341062599 
1.719999999999827, -0.5967688389734767 
1.729999999999826, -0.597414576778572 
1.7399999999998248, -0.5977680724461564 
1.7499999999998237, -0.5978680832942288 
1.7599999999998226, -0.5977537304051422 
1.7699999999998215, -0.597451872259447 
1.7799999999998204, -0.5969714591492961 
1.7899999999998193, -0.596300881487718 
1.7999999999998182, -0.5954048993704464 
1.809999999999817, -0.5942182771049607 
1.819999999999816, -0.5926320418921514 
1.8299999999998149, -0.590464098467892 
1.8399999999998138, -0.5873994002579124 
1.8499999999998127, -0.5828900609328411 
1.8599999999998116, -0.5760773213763926 
1.8699999999998105, -0.5659972527815864 
1.8799999999998094, -0.5523954381386442 
1.8899999999998083, -0.5366597140998722 
1.8999999999998072, -0.5214275943538851 
1.909999999999806, -0.5088993877631193 
1.919999999999805, -0.49981382573771604 
1.9299999999998039, -0.4937775221480954 
1.9399999999998028, -0.4899981076923 
1.9499999999998017, -0.4877325620221792 
1.9599999999998006, -0.4864266858010133 
1.9699999999997995, -0.48570793726969186 
1.9799999999997984, -0.4853387504667045 
1.9899999999997973, -0.48517183635699296 
1.9999999999997962, -0.4851173074143874 
2.0099999999998173, -0.4851209515667108 
2.0199999999998384, -0.4851508588480831 
2.0299999999998595, -0.4851899575463201 
2.0399999999998806, -0.48523267138358844 
2.0499999999999017, -0.48528411728289766 
2.059999999999923, -0.4853598924947127 
2.069999999999944, -0.48548402946485536 
2.079999999999965, -0.4856831077214099 
2.089999999999986, -0.4859763978790642 
2.100000000000007, -0.48636463741920644 
2.1100000000000283, -0.48682230797935117 
2.1200000000000494, -0.48729879690839156 
2.1300000000000705, -0.4877307087715971 
2.1400000000000916, -0.48806049963246406 
2.1500000000001127, -0.4882510759936761 
2.160000000000134, -0.48828893408185203 
2.170000000000155, -0.4881771668958367 
2.180000000000176, -0.4879249123709245 
2.190000000000197, -0.4875383856604742 
2.2000000000002182, -0.487014710066099 
2.2100000000002393, -0.4863370560807052 
2.2200000000002604, -0.4854682678069723 
2.2300000000002815, -0.48433852935620936 
2.2400000000003026, -0.48281870964105594 
2.2500000000003237, -0.4806635789091745 
2.260000000000345, -0.4774040747097496 
2.270000000000366, -0.4722024027733863 
2.280000000000387, -0.46385082699560043 
2.290000000000408, -0.45135956653992276 
2.3000000000004293, -0.4352166878824983 
2.3100000000004504, -0.4179046068252868 
2.3200000000004715, -0.4023896366008378 
2.3300000000004926, -0.3902884103350338 
2.3400000000005137, -0.3816601258155353 
2.3500000000005348, -0.3758070000169179 
2.360000000000556, -0.3719317109928625 
2.370000000000577, -0.3693954864897531 
2.380000000000598, -0.3677508651693549 
2.390000000000619, -0.3667025300767254 
2.4000000000006403, -0.3660612667112102 
2.4100000000006614, -0.3657086228897243 
2.4200000000006825, -0.36557335477295044 
2.4300000000007036, -0.3656169370293659 
2.4400000000007247, -0.36582544463664046 
2.450000000000746, -0.3662058559331065 
2.460000000000767, -0.3667853412470726 
2.470000000000788, -0.3676120954992232 
2.480000000000809, -0.36875557705151174 
2.49000000000083, -0.37030243788090617 
2.5000000000008513, -0.3723419672261298 
2.5100000000008724, -0.3749330763483612 
2.5200000000008935, -0.3780500040149952 
2.5300000000009146, -0.3815263881179912 
2.5400000000009357, -0.3850508107289947 
2.550000000000957, -0.38825918389249103 
2.560000000000978, -0.390880510005076 
2.570000000000999, -0.3928207998857937 
2.58000000000102, -0.39413484504869933 
2.5900000000010412, -0.3949437540003542 
2.6000000000010624, -0.39536848533303287 
2.6100000000010835, -0.3954993839767462 
2.6200000000011046, -0.39538943474054594 
2.6300000000011257, -0.39505616709975355 
2.6400000000011468, -0.3944843222070584 
2.650000000001168, -0.3936278973086319 
2.660000000001189, -0.39241526869904453 
2.67000000000121, -0.3907657015733372 
2.680000000001231, -0.3886262105229146 
2.6900000000012523, -0.3860246071411039 
2.7000000000012734, -0.383105725899793 
2.7100000000012945, -0.3801063275370523 
2.7200000000013156, -0.3772700742048976 
2.7300000000013367, -0.3747647510335523 
2.740000000001358, -0.3726551613564104 
2.750000000001379, -0.3709264063167821 
2.7600000000014, -0.36952268529847293 
2.770000000001421, -0.36837805582920213 
2.780000000001442, -0.36743392495706256 
2.7900000000014633, -0.3666465467920338 
2.8000000000014844, -0.3659890440438197 
2.8100000000015055, -0.36545149908571595 
2.8200000000015266, -0.3650415805095881 
2.8300000000015477, -0.36478747977018433 
2.840000000001569, -0.364744769978886 
2.85000000000159, -0.36500920930142405 
2.860000000001611, -0.36573836182040764 
2.870000000001632, -0.3671855176245051 
2.8800000000016532, -0.3697471904329487 
2.8900000000016743, -0.3740123336634243 
2.9000000000016954, -0.3807576465720752 
2.9100000000017165, -0.39073611963797733 
2.9200000000017377, -0.40403110202818127 
2.9300000000017588, -0.4191130926040194 
2.94000000000178, -0.4328465353757715 
2.950000000001801, -0.4425443545807378 
2.960000000001822, -0.44793035107096635 
2.970000000001843, -0.45046437179647436 
2.9800000000018643, -0.45162981204822145 
2.9900000000018854, -0.4522585879952247 
3.0000000000019065, -0.4526850551038355 
3.0100000000019276, -0.4530131724932215 
3.0200000000019487, -0.4532670190220377 
3.03000000000197, -0.4534494520464182 
3.040000000001991, -0.4535594748514125 
3.050000000002012, -0.4535954692395026 
3.060000000002033, -0.4535549597802979 
3.070000000002054, -0.45343461202609125 
3.0800000000020753, -0.45323183231375197 
3.0900000000020964, -0.4529484191926641 
3.1000000000021175, -0.45259557671910955 
3.1100000000021386, -0.4521978314400221 
3.1200000000021597, -0.4517922305800693 
3.130000000002181, -0.4514207626811387 
3.140000000002202, -0.45111817807745275 
3.150000000002223, -0.4509007315227541 
3.160000000002244, -0.45076094479208023 
3.1700000000022652, -0.4506704807238863 
3.1800000000022863, -0.4505898346886637 
3.1900000000023074, -0.4504805385015545 
3.2000000000023285, -0.45031434905098316 
3.2100000000023496, -0.45007614543312197 
3.2200000000023707, -0.4497614159659902 
3.230000000002392, -0.4493716470035671 
3.240000000002413, -0.4489104713812092 
3.250000000002434, -0.44838177441277904 
3.260000000002455, -0.4477896786172687 
3.2700000000024763, -0.4471394850852738 
3.2800000000024974, -0.4464369804847227 
3.2900000000025185, -0.4456783158491378 
3.3000000000025396, -0.4448090439212848 
3.3100000000025607, -0.44360602816692624 
3.3200000000025818, -0.44143068136783575 
3.330000000002603, -0.43696321975033536 
3.340000000002624, -0.4285185114832939 
3.350000000002645, -0.4155833772299321 
3.360000000002666, -0.40019783284993427 
3.3700000000026873, -0.3856981136241796 
3.3800000000027084, -0.3742384653179101 
3.3900000000027295, -0.3661463949700648 
3.4000000000027506, -0.3607793024482934 
3.4100000000027717, -0.35732868072269297 
3.420000000002793, -0.35514393879491957 
3.430000000002814, -0.353776842888578 
3.440000000002835, -0.3529384874672042 
3.450000000002856, -0.35244852069731736 
3.460000000002877, -0.35219700044858443 
3.4700000000028983, -0.3521195932800147 
3.4800000000029194, -0.3521826952286135 
3.4900000000029405, -0.35237530534763634 
3.5000000000029616, -0.35270541081329915 
3.5100000000029827, -0.35319922704668316 
3.520000000003004, -0.3539016413880617 
3.530000000003025, -0.3548755927722347 
3.540000000003046, -0.3561968733136419 
3.550000000003067, -0.3579391469388507 
3.5600000000030882, -0.36014346907624395 
3.5700000000031094, -0.3627727393144803 
3.5800000000031305, -0.3656712840356787 
3.5900000000031516, -0.3685728776613796 
3.6000000000031727, -0.37118408852337886 
3.6100000000031938, -0.37329739840321596 
3.620000000003215, -0.3748469618452586 
3.630000000003236, -0.37587985994810624 
3.640000000003257, -0.37649132475599834 
3.650000000003278, -0.37677423190785764 
3.6600000000032993, -0.37679553200187144 
3.6700000000033204, -0.37659002203365227 
3.6800000000033415, -0.37616037260696333 
3.6900000000033626, -0.37547784818214636 
3.7000000000033837, -0.37448370300185335 
3.710000000003405, -0.3730964622945153 
3.720000000003426, -0.37123486914085246 
3.730000000003447, -0.3688639178869228 
3.740000000003468, -0.3660509436724032 
3.750000000003489, -0.36298732965676284 
3.7600000000035103, -0.359936459255401 
3.7700000000035314, -0.3571344509963714 
3.7800000000035525, -0.35471856622427034 
3.7900000000035736, -0.3527208726143821 
3.8000000000035947, -0.35110366796220305 
3.810000000003616, -0.3497996278218826 
3.820000000003637, -0.34873915404355205 
3.830000000003658, -0.34786421016409685 
3.840000000003679, -0.34713336198161404 
3.8500000000037002, -0.3465225359182607 
3.8600000000037213, -0.3460247175351515 
3.8700000000037424, -0.3456507963826645 
3.8800000000037635, -0.3454332355118981 
3.8900000000037847, -0.34543427645135305 
3.9000000000038058, -0.3457609823340588 
3.910000000003827, -0.34659028809162123 
3.920000000003848, -0.3482070733972654 
3.930000000003869, -0.35105245077205727 
3.94000000000389, -0.35575434059795985 
3.9500000000039113, -0.3630406371232506 
3.9600000000039324, -0.37331617470211037 
3.9700000000039535, -0.3857563496236914 
3.9800000000039746, -0.3976530347702639 
3.9900000000039957, -0.4057662533001306 
4.000000000004016, -0.40908803917963077 
4.010000000003993, -0.4092097512887684 
4.02000000000397, -0.4081794633740869 
4.030000000003946, -0.40714296151539936 
4.040000000003923, -0.4064390133091327 
4.0500000000039, -0.40605052322915985 
4.0600000000038765, -0.40587458115862657 
4.070000000003853, -0.4058186030475519 
4.08000000000383, -0.40581898537537403 
4.090000000003807, -0.40583644471900515 
4.100000000003783, -0.4058479689050425 
4.11000000000376, -0.4058408377179082 
4.120000000003737, -0.4058095782174549 
4.130000000003713, -0.40575555921490675 
4.14000000000369, -0.4056884670733276 
4.150000000003667, -0.4056281988843458 
4.1600000000036434, -0.4056049035797645 
4.17000000000362, -0.4056549335927838 
4.180000000003597, -0.40581204425088896 
4.1900000000035735, -0.40609560292541963 
4.20000000000355, -0.4064995382052974 
4.210000000003527, -0.40698699502783536 
4.220000000003504, -0.40749555200392057 
4.23000000000348, -0.4079537169043566 
4.240000000003457, -0.40830137982023496 
4.250000000003434, -0.4085027313639493 
4.26000000000341, -0.4085459450002264 
4.270000000003387, -0.4084333848855467 
4.280000000003364, -0.40816949931575924 
4.2900000000033405, -0.40775040461721934 
4.300000000003317, -0.40715474932071416 
4.310000000003294, -0.4063326240029331 
4.320000000003271, -0.40518750169982437 
4.330000000003247, -0.4035445979774095 
4.340000000003224, -0.40110012086464464 
4.350000000003201, -0.3973620669328306 
4.360000000003177, -0.3916524803668372 
4.370000000003154, -0.3833418920599402 
4.380000000003131, -0.3724262440945339 
4.390000000003107, -0.360015855966028 
4.400000000003084, -0.34793195049826997 
4.410000000003061, -0.33763250402596073 
4.4200000000030375, -0.32963915913810493 
4.430000000003014, -0.32376443146672873 
4.440000000002991, -0.3195540914685765 
4.450000000002968, -0.3165590898087407 
4.460000000002944, -0.3144282429583324 
4.470000000002921, -0.3129137313841566 
4.480000000002898, -0.3118505327934211 
4.490000000002874, -0.3111345753402893 
4.500000000002851, -0.3107065441813911 
4.510000000002828, -0.310542070542248 
4.520000000002804, -0.310647631502847 
4.530000000002781, -0.3110616940658771 
4.540000000002758, -0.3118612637807446 
4.5500000000027345, -0.31317453628657155 
4.560000000002711, -0.3152001191556177 
4.570000000002688, -0.31823043716423555 
4.580000000002665, -0.3226667460058237 
4.590000000002641, -0.32898723159201393 
4.600000000002618, -0.3375871677267952 
4.610000000002595, -0.3484106563449857 
4.620000000002571, -0.3605140632747946 
4.630000000002548, -0.3721316495586186 
4.640000000002525, -0.38160447821658416 
4.6500000000025015, -0.3883156721540896 
4.660000000002478, -0.3926380030754176 
4.670000000002455, -0.39528909717233707 
4.6800000000024315, -0.3968852943829595 
4.690000000002408, -0.39783429581440793 
4.700000000002385, -0.3983773138860635 
4.710000000002362, -0.39865016043270396 
4.720000000002338, -0.3987263106723015 
4.730000000002315, -0.39864214471770676 
4.740000000002292, -0.3984114529061893 
4.750000000002268, -0.3980352540338188 
4.760000000002245, -0.39751111591159816 
4.770000000002222, -0.39684399286660915 
4.7800000000021985, -0.39605711226633855 
4.790000000002175, -0.3951974150015652 
4.800000000002152, -0.3943296566844666 
4.810000000002129, -0.39351972695863824 
4.820000000002105, -0.3928159643620365 
4.830000000002082, -0.39223814597000956 
4.840000000002059, -0.3917773762079711 
4.850000000002035, -0.3914041440146408 
4.860000000002012, -0.39107998572960684 
4.870000000001989, -0.39076843124689054 
4.880000000001965, -0.3904419517663519 
