t, s[1].omega / s[0].omega 
0, -0.5399977464256513 
0.009999999999999995, -0.5397913406164487 
0.019999999999999934, -0.5396141346823196 
0.029999999999999874, -0.539444679137773 
0.04000000000000012, -0.5392567285000267 
0.050000000000000405, -0.5390280531258942 
0.06000000000000069, -0.5387457487505177 
0.07000000000000098, -0.5384070066046873 
0.08000000000000126, -0.5380172501104094 
0.09000000000000155, -0.537588428822671 
0.10000000000000184, -0.5371395173155931 
0.11000000000000212, -0.5367004028339583 
0.12000000000000241, -0.5363201598010504 
0.130000000000002, -0.5360810630389199 
0.1400000000000009, -0.5361198711863414 
0.1499999999999998, -0.5366563997275263 
0.1599999999999987, -0.5380227606863197 
0.1699999999999976, -0.5406684420841001 
0.1799999999999965, -0.545082052739615 
0.1899999999999954, -0.5515457699491059 
0.1999999999999943, -0.5597338708614376 
0.2099999999999932, -0.5684919773838535 
0.2199999999999921, -0.5763077528830534 
0.229999999999991, -0.5822466702120693 
0.2399999999999899, -0.5863203094232471 
0.2499999999999888, -0.5890381333892282 
0.2599999999999877, -0.59089320063289 
0.2699999999999866, -0.5921969503081238 
0.2799999999999855, -0.5931205527933199 
0.2899999999999844, -0.5937611761049622 
0.2999999999999833, -0.5941798571490814 
0.3099999999999822, -0.5944170070661365 
0.3199999999999811, -0.5944976943785589 
0.32999999999998, -0.5944332199569289 
0.3399999999999789, -0.5942215999018384 
0.3499999999999778, -0.5938483313003933 
0.35999999999997667, -0.5932890710337569 
0.36999999999997557, -0.5925164602939954 
0.37999999999997447, -0.5915126561430305 
0.38999999999997337, -0.5902852935132341 
0.39999999999997227, -0.5888784378719406 
0.40999999999997117, -0.5873683361214963 
0.41999999999997006, -0.5858428550598774 
0.42999999999996896, -0.5843766395801662 
0.43999999999996786, -0.5830163956733141 
0.44999999999996676, -0.5817808227712763 
0.45999999999996566, -0.5806699132869882 
0.46999999999996456, -0.5796761495119089 
0.47999999999996346, -0.5787930943506939 
0.48999999999996235, -0.578020371150697 
0.49999999999996125, -0.5773659693617168 
0.5099999999999602, -0.5768472124051522 
0.519999999999959, -0.5764913406357486 
0.529999999999958, -0.5763361712649726 
0.5399999999999568, -0.5764309979385022 
0.5499999999999557, -0.5768377678585821 
0.5599999999999546, -0.5776324410694345 
0.5699999999999535, -0.5789060261052947 
0.5799999999999524, -0.5807637544368258 
0.5899999999999513, -0.5833188423369072 
0.5999999999999502, -0.5866743205913151 
0.6099999999999491, -0.5908842728787904 
0.619999999999948, -0.5958906674748569 
0.6299999999999469, -0.6014542737011637 
0.6399999999999458, -0.6071366304292413 
0.6499999999999447, -0.6123985818963017 
0.6599999999999436, -0.6167954230630304 
0.6699999999999425, -0.62013074676516 
0.6799999999999414, -0.6224570046369203 
0.6899999999999403, -0.623963289204255 
0.6999999999999392, -0.6248609801752546 
0.7099999999999381, -0.6253226756017903 
0.719999999999937, -0.6254662701355038 
0.7299999999999359, -0.6253590950962125 
0.7399999999999348, -0.6250251697708572 
0.7499999999999337, -0.6244481040177685 
0.7599999999999326, -0.6235669585624042 
0.7699999999999315, -0.6222643518263551 
0.7799999999999304, -0.6203490015442886 
0.7899999999999293, -0.6175436522116552 
0.7999999999999282, -0.61350833094087 
0.8099999999999271, -0.6079475371236238 
0.819999999999926, -0.6008176511506387 
0.8299999999999249, -0.5925182495874624 
0.8399999999999238, -0.5838470194236522 
0.8499999999999227, -0.5756768038582949 
0.8599999999999216, -0.5686188378102727 
0.8699999999999205, -0.5629131554750899 
0.8799999999999194, -0.5585186436088844 
0.8899999999999183, -0.5552539345542394 
0.8999999999999172, -0.5529000846905887 
0.9099999999999161, -0.5512527239792304 
0.919999999999915, -0.5501407558295803 
0.9299999999999139, -0.5494286917492758 
0.9399999999999128, -0.5490127584413587 
0.9499999999999117, -0.5488154965500945 
0.9599999999999106, -0.5487806805425874 
0.9699999999999095, -0.5488691468886293 
0.9799999999999084, -0.5490556677431668 
0.9899999999999073, -0.5493268118752592 
0.9999999999999062, -0.5496794809067922 
1.0099999999999052, -0.5501193535742889 
1.019999999999904, -0.5506579207467056 
1.029999999999903, -0.5513066189514945 
1.039999999999902, -0.5520674749293192 
1.0499999999999008, -0.5529221019588365 
1.0599999999998997, -0.5538242568901665 
1.0699999999998986, -0.554702898987735 
1.0799999999998975, -0.5554786994477027 
1.0899999999998964, -0.5560870605493291 
1.0999999999998953, -0.5564939467452172 
1.1099999999998942, -0.556696236367779 
1.119999999999893, -0.5567102586385101 
1.129999999999892, -0.5565578166813763 
1.1399999999998909, -0.5562558434131875 
1.1499999999998898, -0.5558105672246557 
1.1599999999998887, -0.555214280402115 
1.1699999999998876, -0.5544422889812155 
1.1799999999998865, -0.5534475721010232 
1.1899999999998854, -0.5521496798310567 
1.1999999999998843, -0.5504116580449843 
1.2099999999998832, -0.5479955994677029 
1.219999999999882, -0.544494600086326 
1.229999999999881, -0.5392901387819887 
1.2399999999998799, -0.53170530082291 
1.2499999999998788, -0.5215420681059617 
1.2599999999998777, -0.5096929475985906 
1.2699999999998766, -0.49794777917649197 
1.2799999999998755, -0.4879348584675645 
1.2899999999998744, -0.48035487683618855 
1.2999999999998733, -0.4750779557386512 
1.3099999999998722, -0.47160538373038774 
1.319999999999871, -0.4694080685237605 
1.32999999999987, -0.46806147382624924 
1.3399999999998689, -0.46726393361195645 
1.3499999999998678, -0.46681384779449464 
1.3599999999998666, -0.4665809507834216 
1.3699999999998655, -0.4664828719946746 
1.3799999999998644, -0.46646863973363734 
1.3899999999998633, -0.4665080139715555 
1.3999999999998622, -0.4665851853925525 
1.4099999999998611, -0.46669558902864255 
1.41999999999986, -0.4668446402539178 
1.429999999999859, -0.46704691767537093 
1.4399999999998578, -0.4673239268418675 
1.4499999999998567, -0.4676986917948677 
1.4599999999998556, -0.4681866076482324 
1.4699999999998545, -0.46878427075432905 
1.4799999999998534, -0.4694608006895513 
1.4899999999998523, -0.47015792478659124 
1.4999999999998512, -0.47080266611516725 
1.5099999999998501, -0.47132836021608127 
1.519999999999849, -0.4716921484107046 
1.529999999999848, -0.4718793807615887 
1.5399999999998468, -0.47189567595167325 
1.5499999999998457, -0.4717542929622466 
1.5599999999998446, -0.4714651380467603 
1.5699999999998435, -0.4710269598801079 
1.5799999999998424, -0.4704209319957274 
1.5899999999998413, -0.4696024426624672 
1.5999999999998402, -0.46848708908113307 
1.6099999999998391, -0.46692582366214974 
1.619999999999838, -0.46466480821302253 
1.629999999999837, -0.46129669984264565 
1.6399999999998358, -0.45625225158934724 
1.6499999999998347, -0.4489587581507103 
1.6599999999998336, -0.43927685540681677 
1.6699999999998325, -0.42796534937212954 
1.6799999999998314, -0.41653398800416025 
1.6899999999998303, -0.406418832879763 
1.6999999999998292, -0.39833335678260656 
1.709999999999828, -0.3922874907407911 
1.719999999999827, -0.3879372393485919 
1.729999999999826, -0.38486920230006094 
1.7399999999998248, -0.38272913313425116 
1.7499999999998237, -0.381251701241275 
1.7599999999998226, -0.3802509182413639 
1.7699999999998215, -0.3796015951468107 
1.7799999999998204, -0.37922281190955315 
1.7899999999998193, -0.37906596360946326 
1.7999999999998182, -0.37910716633694397 
1.809999999999817, -0.3793432105557967 
1.819999999999816, -0.3797902879092649 
1.8299999999998149, -0.38048474079664213 
1.8399999999998138, -0.3814847370725717 
1.8499999999998127, -0.38287070795982914 
1.8599999999998116, -0.3847402151365884 
1.8699999999998105, -0.3871896745132216 
1.8799999999998094, -0.3902735168999958 
1.8899999999998083, -0.3939394112726019 
1.8999999999998072, -0.39796777361782254 
1.909999999999806, -0.4019813405468871 
1.919999999999805, -0.4055684962375599 
1.9299999999998039, -0.40845076561875704 
1.9399999999998028, -0.41055925954138717 
1.9499999999998017, -0.41198337568211685 
1.9599999999998006, -0.412872635063333 
1.9699999999997995, -0.4133671199538571 
1.9799999999997984, -0.413570135287815 
1.9899999999997973, -0.41354551060909756 
1.9999999999997962, -0.4133228821968543 
2.0099999999998173, -0.41290312229838105 
2.0199999999998384, -0.4122624429301311 
2.0299999999998595, -0.4113575087931512 
2.0399999999998806, -0.41013658623385885 
2.0499999999999017, -0.40856213569435484 
2.059999999999923, -0.40664362720152364 
2.069999999999944, -0.4044639514987175 
2.079999999999965, -0.4021731791753795 
2.089999999999986, -0.39994259798615495 
2.100000000000007, -0.39790824206378844 
2.1100000000000283, -0.39614077911640383 
2.1200000000000494, -0.3946501115770967 
2.1300000000000705, -0.393408046885196 
2.1400000000000916, -0.39237135386026656 
2.1500000000001127, -0.3914975409266255 
2.160000000000134, -0.3907531354647092 
2.170000000000155, -0.39011694190259266 
2.180000000000176, -0.3895809926592245 
2.190000000000197, -0.3891513664982821 
2.2000000000002182, -0.38885046132062323 
2.2100000000002393, -0.3887219982959973 
2.2200000000002604, -0.3888401007102694 
2.2300000000002815, -0.3893240954212993 
2.2400000000003026, -0.39036066345351117 
2.2500000000003237, -0.3922329141061604 
2.260000000000345, -0.3953472905501295 
2.270000000000366, -0.40022438280346895 
2.280000000000387, -0.4073705780923261 
2.290000000000408, -0.4169143193437697 
2.3000000000004293, -0.4280606652164559 
2.3100000000004504, -0.43894979882363644 
2.3200000000004715, -0.4476155912023634 
2.3300000000004926, -0.45330539293953265 
2.3400000000005137, -0.45657628245468096 
2.3500000000005348, -0.4583838256749283 
2.360000000000556, -0.4594355885986684 
2.370000000000577, -0.4601064039836252 
2.380000000000598, -0.4605645177228378 
2.390000000000619, -0.46088177559760657 
2.4000000000006403, -0.4610904065178453 
2.4100000000006614, -0.4612062722241917 
2.4200000000006825, -0.4612371602968162 
2.4300000000007036, -0.4611856386431577 
2.4400000000007247, -0.46105060906861856 
2.450000000000746, -0.46082944820874766 
2.460000000000767, -0.46052165588915245 
2.470000000000788, -0.46013390514266117 
2.480000000000809, -0.45968472205660865 
2.49000000000083, -0.459205498464106 
2.5000000000008513, -0.4587351970341912 
2.5100000000008724, -0.45830975976671084 
2.5200000000008935, -0.45795110160998814 
2.5300000000009146, -0.4576610164976578 
2.5400000000009357, -0.4574224097331442 
2.550000000000957, -0.457206695434357 
2.560000000000978, -0.45698367019708225 
2.570000000000999, -0.45672949225368686 
2.58000000000102, -0.4564301093007366 
2.5900000000010412, -0.45608048405107127 
2.6000000000010624, -0.4556819393046469 
2.6100000000010835, -0.4552399399630075 
2.6200000000011046, -0.45476362132228587 
2.6300000000011257, -0.454267535281634 
2.6400000000011468, -0.4537756686183724 
2.650000000001168, -0.4533271418893472 
2.660000000001189, -0.452980539083973 
2.67000000000121, -0.4528063619465537 
2.680000000001231, -0.4528404386541622 
2.6900000000012523, -0.4529512916403233 
2.7000000000012734, -0.4526093524785743 
2.7100000000012945, -0.4507692784619312 
2.7200000000013156, -0.44637614584369006 
2.7300000000013367, -0.4394745119870998 
2.740000000001358, -0.4315409781446663 
2.750000000001379, -0.4243379307578993 
2.7600000000014, -0.4187947015693697 
2.770000000001421, -0.41496248539799624 
2.780000000001442, -0.41248410347842535 
2.7900000000014633, -0.4109486611596485 
2.8000000000014844, -0.4100281567060313 
2.8100000000015055, -0.40949530261164657 
2.8200000000015266, -0.40920290304191853 
2.8300000000015477, -0.40905910505362664 
2.840000000001569, -0.40900822940549864 
2.85000000000159, -0.40901804987671103 
2.860000000001611, -0.40907220226370755 
2.870000000001632, -0.4091662811999751 
2.8800000000016532, -0.40930636990336317 
2.8900000000016743, -0.40950867231908655 
2.9000000000016954, -0.40979855833929885 
2.9100000000017165, -0.4102070666416265 
2.9200000000017377, -0.41076327571959836 
2.9300000000017588, -0.4114823158537887 
2.94000000000178, -0.41235140063453224 
2.950000000001801, -0.4133200985455943 
2.960000000001822, -0.4143037300107181 
2.970000000001843, -0.4152042719871442 
2.9800000000018643, -0.4159399915998906 
2.9900000000018854, -0.41646574962674887 
3.0000000000019065, -0.4167734090575447 
3.0100000000019276, -0.4168775679919007 
3.0200000000019487, -0.41679836533495723 
3.03000000000197, -0.4165483555655617 
3.040000000001991, -0.4161237099882686 
3.050000000002012, -0.4154966754650184 
3.060000000002033, -0.4146057634543916 
3.070000000002054, -0.4133411433895846 
3.0800000000020753, -0.41152618346798275 
3.0900000000020964, -0.4089065634159872 
3.1000000000021175, -0.40518057288159187 
3.1100000000021386, -0.40012255642022876 
3.1200000000021597, -0.3937993252978547 
3.130000000002181, -0.38671553433699773 
3.140000000002202, -0.37966296133622285 
3.150000000002223, -0.37334466538891475 
3.160000000002244, -0.36811876910465235 
3.1700000000022652, -0.36401409789571243 
3.1800000000022863, -0.36087996367911274 
3.1900000000023074, -0.3585164373206468 
3.2000000000023285, -0.3567416745806012 
3.2100000000023496, -0.35541389284652136 
3.2200000000023707, -0.3544321039048385 
3.230000000002392, -0.3537301194768469 
3.240000000002413, -0.3532702910475813 
3.250000000002434, -0.3530393254192074 
3.260000000002455, -0.35304690021225577 
3.2700000000024763, -0.3533273798752998 
3.2800000000024974, -0.35394497031782535 
3.2900000000025185, -0.35500268603829715 
3.3000000000025396, -0.35665494017525057 
3.3100000000025607, -0.35912111741262753 
3.3200000000025818, -0.36269042941110785 
3.330000000002603, -0.3676928227340493 
3.340000000002624, -0.3743890543852343 
3.350000000002645, -0.3827397394019942 
3.360000000002666, -0.3921349275736664 
3.3700000000026873, -0.40139582319322836 
3.3800000000027084, -0.40929424768421263 
3.3900000000027295, -0.4151994986335111 
3.4000000000027506, -0.41920260385857644 
3.4100000000027717, -0.4217604831879035 
3.420000000002793, -0.4233452994962497 
3.430000000002814, -0.4243052110196521 
3.440000000002835, -0.42486198385140883 
3.450000000002856, -0.42514719208328744 
3.460000000002877, -0.4252349193081863 
3.4700000000028983, -0.42516313633378366 
3.4800000000029194, -0.42494649155684766 
3.4900000000029405, -0.4245846955939368 
3.5000000000029616, -0.42407013311510244 
3.5100000000029827, -0.4233972887190875 
3.520000000003004, -0.42257425124180203 
3.530000000003025, -0.4216324880369456 
3.540000000003046, -0.4206279107289692 
3.550000000003067, -0.4196291583173847 
3.5600000000030882, -0.41869806361668116 
3.5700000000031094, -0.4178733994214122 
3.5800000000031305, -0.41716547183974617 
3.5900000000031516, -0.41656108326169494 
3.6000000000031727, -0.416033813197639 
3.6100000000031938, -0.41555453778595197 
3.620000000003215, -0.4150989602707968 
3.630000000003236, -0.41465114273513387 
3.640000000003257, -0.4142039668627177 
3.650000000003278, -0.4137584229870305 
3.6600000000032993, -0.41332352957170543 
3.6700000000033204, -0.4129181449853315 
3.6800000000033415, -0.412575557314251 
3.6900000000033626, -0.4123515828670656 
3.7000000000033837, -0.41233631505066926 
3.710000000003405, -0.41266676964161275 
3.720000000003426, -0.41352806003769427 
3.730000000003447, -0.4151071794380076 
3.740000000003468, -0.41742886035136806 
3.750000000003489, -0.4200275454191689 
3.7600000000035103, -0.42168596594985297 
3.7700000000035314, -0.42091563777098323 
3.7800000000035525, -0.41729190200886945 
3.7900000000035736, -0.4120281884197399 
3.8000000000035947, -0.4068398024483555 
3.810000000003616, -0.40272991489341753 
3.820000000003637, -0.3998727454652973 
3.830000000003658, -0.3980370914359928 
3.840000000003679, -0.39691624256046787 
3.8500000000037002, -0.3962585322144315 
3.8600000000037213, -0.3958889151975054 
3.8700000000037424, -0.3956946537068522 
3.8800000000037635, -0.39560620149411824 
3.8900000000037847, -0.39558223080020893 
3.9000000000038058, -0.395599841424631 
3.910000000003827, -0.3956489959433875 
3.920000000003848, -0.3957300241072396 
3.930000000003869, -0.3958530616237349 
3.94000000000389, -0.3960380510583624 
3.9500000000039113, -0.3963135220797774 
3.9600000000039324, -0.39671225050112296 
3.9700000000039535, -0.39726255252110876 
3.9800000000039746, -0.3979755986780815 
3.9900000000039957, -0.3988319167137025 
4.000000000004016, -0.39977400238644994 
4.010000000003993, -0.4007135211102109 
4.02000000000397, -0.40155500405074845 
4.030000000003946, -0.4022244544940218 
4.040000000003923, -0.40268533710552806 
4.0500000000039, -0.40293502411861065 
4.0600000000038765, -0.4029893264197445 
4.070000000003853, -0.4028661907105672 
4.08000000000383, -0.40257379750112643 
4.090000000003807, -0.4021022873298491 
4.100000000003783, -0.40141588561507546 
4.11000000000376, -0.40044223516460303 
4.120000000003737, -0.39905742019230767 
4.130000000003713, -0.397070412173096 
4.14000000000369, -0.39422426287876283 
4.150000000003667, -0.3902532899157315 
4.1600000000036434, -0.38503526056080195 
4.17000000000362, -0.37878721554779426 
4.180000000003597, -0.3721071762915588 
4.1900000000035735, -0.36573039000014124 
4.20000000000355, -0.3601949549290536 
4.210000000003527, -0.35570463129780067 
4.220000000003504, -0.3522086149281291 
4.23000000000348, -0.34954165764740025 
4.240000000003457, -0.34752191447680636 
4.250000000003434, -0.34599481794246434 
4.26000000000341, -0.3448443781209999 
4.270000000003387, -0.3439909072517972 
4.280000000003364, -0.3433853360166838 
4.2900000000033405, -0.3430044081410714 
4.300000000003317, -0.3428483095299526 
4.310000000003294, -0.3429413415808144 
4.320000000003271, -0.3433361297424457 
4.330000000003247, -0.3441220298843751 
4.340000000003224, -0.34543838101345054 
4.350000000003201, -0.3474921269502217 
4.360000000003177, -0.3505748328008734 
4.370000000003154, -0.3550615807056553 
4.380000000003131, -0.3613485229822651 
4.390000000003107, -0.3696593953985042 
4.400000000003084, -0.3797014957680929 
4.410000000003061, -0.39040123791373044 
4.4200000000030375, -0.40019695094314145 
4.430000000003014, -0.40789747152086975 
4.440000000002991, -0.4132450106391379 
4.450000000002968, -0.41667642755019163 
4.460000000002944, -0.4187983129368439 
4.470000000002921, -0.42009427496966045 
4.480000000002898, -0.42087681288103357 
4.490000000002874, -0.4213304735834389 
4.500000000002851, -0.42156008462582506 
4.510000000002828, -0.421623128948884 
4.520000000002804, -0.4215484506664155 
4.530000000002781, -0.4213469890897742 
4.540000000002758, -0.4210190978839135 
4.5500000000027345, -0.42056161763830335 
4.560000000002711, -0.41997636444211606 
4.570000000002688, -0.4192792022636277 
4.580000000002665, -0.4185056484492322 
4.590000000002641, -0.4177079033601362 
4.600000000002618, -0.41694238133516237 
4.610000000002595, -0.41625373372041274 
4.620000000002571, -0.41566381317788287 
4.630000000002548, -0.4151698524532813 
4.640000000002525, -0.41475053557626235 
4.6500000000025015, -0.414375901652871 
4.660000000002478, -0.4140168559210836 
4.670000000002455, -0.41365130478046747 
4.6800000000024315, -0.4132661058683972 
4.690000000002408, -0.4128560991853349 
4.700000000002385, -0.4124223024245274 
4.710000000002362, -0.4119709313095877 
4.720000000002338, -0.411514109774313 
4.730000000002315, -0.41107253250026154 
4.740000000002292, -0.4106797022285825 
4.750000000002268, -0.4103855334062917 
4.760000000002245, -0.41025146951918057 
4.770000000002222, -0.4103153115577193 
4.7800000000021985, -0.4104812534386516 
4.790000000002175, -0.4102950710617538 
4.800000000002152, -0.4087267100875196 
4.810000000002129, -0.40446422363706364 
4.820000000002105, -0.397077195882677 
4.830000000002082, -0.3878799824423275 
4.840000000002059, -0.3790054864123984 
4.850000000002035, -0.3718577308547911 
4.860000000002012, -0.36672630994520883 
4.870000000001989, -0.3632803197958776 
4.880000000001965, -0.3610496904660658 
