t, s[1].omega / s[0].omega 
0, -0.739997676578976 
0.009999999999999995, -0.7397488151523244 
0.019999999999999934, -0.739462482240213 
0.029999999999999874, -0.7391275090186495 
0.04000000000000012, -0.7387334431606872 
0.050000000000000405, -0.738277381368745 
0.06000000000000069, -0.7377676469036518 
0.07000000000000098, -0.7372247272387276 
0.08000000000000126, -0.7366817254864155 
0.09000000000000155, -0.7361859753918216 
0.10000000000000184, -0.7358016829045122 
0.11000000000000212, -0.7356119255055564 
0.12000000000000241, -0.7357177805100923 
0.130000000000002, -0.7362330357215232 
0.1400000000000009, -0.7372746597392165 
0.1499999999999998, -0.7389509405262624 
0.1599999999999987, -0.7413493898224418 
0.1699999999999976, -0.7445243611003127 
0.1799999999999965, -0.7484809492538154 
0.1899999999999954, -0.7531503608573713 
0.1999999999999943, -0.7583574551860989 
0.2099999999999932, -0.763797354907884 
0.2199999999999921, -0.7690572840810038 
0.229999999999991, -0.77371165859732 
0.2399999999999899, -0.7774582607611731 
0.2499999999999888, -0.780203554356957 
0.2599999999999877, -0.7820391036317542 
0.2699999999999866, -0.7831481211553342 
0.2799999999999855, -0.7837182371432029 
0.2899999999999844, -0.7838963808971529 
0.2999999999999833, -0.7837783483116227 
0.3099999999999822, -0.7834142151252415 
0.3199999999999811, -0.7828174703250792 
0.32999999999998, -0.7819744015651249 
0.3399999999999789, -0.7808566400322585 
0.3499999999999778, -0.7794453132748718 
0.35999999999997667, -0.7777806914010386 
0.36999999999997557, -0.776051299594044 
0.37999999999997447, -0.7747134326187941 
0.38999999999997337, -0.7745593618433261 
0.39999999999997227, -0.7765517366143766 
0.40999999999997117, -0.7812985106651053 
0.41999999999997006, -0.7884773294451258 
0.42999999999996896, -0.7968754560527243 
0.43999999999996786, -0.805096004470237 
0.44999999999996676, -0.8121765066500026 
0.45999999999996566, -0.8177215166110559 
0.46999999999996456, -0.8217559841254806 
0.47999999999996346, -0.8245240189452894 
0.48999999999996235, -0.8263272828891676 
0.49999999999996125, -0.8274328932047119 
0.5099999999999602, -0.8280400251047123 
0.519999999999959, -0.8282783582201596 
0.529999999999958, -0.8282163838100611 
0.5399999999999568, -0.8278673537122945 
0.5499999999999557, -0.8271870560733229 
0.5599999999999546, -0.8260604207640523 
0.5699999999999535, -0.8242763073314716 
0.5799999999999524, -0.8214972254251174 
0.5899999999999513, -0.8172511163554093 
0.5999999999999502, -0.8110060861302093 
0.6099999999999491, -0.802395978495365 
0.619999999999948, -0.7915537488372281 
0.6299999999999469, -0.7792977507442489 
0.6399999999999458, -0.7669129685861382 
0.6499999999999447, -0.7556448753855173 
0.6599999999999436, -0.7462993552222664 
0.6699999999999425, -0.7391529743351893 
0.6799999999999414, -0.7340802232175176 
0.6899999999999403, -0.7307346692359689 
0.6999999999999392, -0.7286965189330687 
0.7099999999999381, -0.7275670830781651 
0.719999999999937, -0.7270169319909537 
0.7299999999999359, -0.7268000204164696 
0.7399999999999348, -0.7267463844060411 
0.7499999999999337, -0.726744681960436 
0.7599999999999326, -0.7267229668102215 
0.7699999999999315, -0.7266326417817347 
0.7799999999999304, -0.7264378836850479 
0.7899999999999293, -0.7261113652789943 
0.7999999999999282, -0.7256359903934515 
0.8099999999999271, -0.7250103495157996 
0.819999999999926, -0.7242528713344659 
0.8299999999999249, -0.7233991494703422 
0.8399999999999238, -0.7224914627936627 
0.8499999999999227, -0.7215661202197825 
0.8599999999999216, -0.7206461053644956 
0.8699999999999205, -0.7197419858083948 
0.8799999999999194, -0.7188584420690579 
0.8899999999999183, -0.7180017545662546 
0.8999999999999172, -0.7171851582935187 
0.9099999999999161, -0.7164314666966837 
0.919999999999915, -0.7157736536928747 
0.9299999999999139, -0.7152539550442735 
0.9399999999999128, -0.7149215125277595 
0.9499999999999117, -0.7148285242436252 
0.9599999999999106, -0.7150254152450379 
0.9699999999999095, -0.7155562100904861 
0.9799999999999084, -0.7164554178348571 
0.9899999999999073, -0.7177470022635577 
0.9999999999999062, -0.7194446050269813 
1.0099999999999052, -0.7215506538472847 
1.019999999999904, -0.7240509791078586 
1.029999999999903, -0.7269020733045937 
1.039999999999902, -0.7300119139376388 
1.0499999999999008, -0.7332238228833542 
1.0599999999998997, -0.7363224604981478 
1.0699999999998986, -0.7390776622433979 
1.0799999999998975, -0.7413134596694457 
1.0899999999998964, -0.7429583684249653 
1.0999999999998953, -0.744043138490471 
1.1099999999998942, -0.7446575543822345 
1.119999999999893, -0.7449028046251679 
1.129999999999892, -0.7448622793777216 
1.1399999999998909, -0.7445916589874897 
1.1499999999998898, -0.7441204046485305 
1.1599999999998887, -0.7434588408981556 
1.1699999999998876, -0.742610243960078 
1.1799999999998865, -0.7415925683469075 
1.1899999999998854, -0.7404792203172776 
1.1999999999998843, -0.7394703674748976 
1.2099999999998832, -0.7389963641328707 
1.219999999999882, -0.7398128934166339 
1.229999999999881, -0.7429581359879193 
1.2399999999998799, -0.7493715893231773 
1.2499999999998788, -0.7591660967462457 
1.2599999999998777, -0.7711312150890881 
1.2699999999998766, -0.7832299707983431 
1.2799999999998755, -0.7937511167054452 
1.2899999999998744, -0.8019455598163576 
1.2999999999998733, -0.8078550122968908 
1.3099999999998722, -0.8118894036986681 
1.319999999999871, -0.8145284329501239 
1.32999999999987, -0.8161838384464566 
1.3399999999998689, -0.8171605759765346 
1.3499999999998678, -0.817662950808525 
1.3599999999998666, -0.8178136252229555 
1.3699999999998655, -0.8176700730249167 
1.3799999999998644, -0.8172323169158975 
1.3899999999998633, -0.8164394487005631 
1.3999999999998622, -0.8151535090781591 
1.4099999999998611, -0.8131316025551614 
1.41999999999986, -0.8099967637343328 
1.429999999999859, -0.8052429797354088 
1.4399999999998578, -0.7983443620740001 
1.4499999999998567, -0.7890255933736563 
1.4599999999998556, -0.7775977969923733 
1.4699999999998545, -0.7650580015612921 
1.4799999999998534, -0.7527546444570108 
1.4899999999998523, -0.7418552209901277 
1.4999999999998512, -0.7330182958055367 
1.5099999999998501, -0.7263860002380208 
1.519999999999849, -0.7217492972226558 
1.529999999999848, -0.7187291574689697 
1.5399999999998468, -0.7169085277988227 
1.5499999999998457, -0.7159096331993039 
1.5599999999998446, -0.7154289542658425 
1.5699999999998435, -0.7152435102659491 
1.5799999999998424, -0.7152004063301642 
1.5899999999998413, -0.7151993544948912 
1.5999999999998402, -0.7151749518180466 
1.6099999999998391, -0.7150825652540769 
1.619999999999838, -0.7148895822157455 
1.629999999999837, -0.7145725673536953 
1.6399999999998358, -0.7141196196333401 
1.6499999999998347, -0.7135350542294335 
1.6599999999998336, -0.7128413201080206 
1.6699999999998325, -0.7120738734526821 
1.6799999999998314, -0.7112699589164848 
1.6899999999998303, -0.7104576364824847 
1.6999999999998292, -0.7096512911322299 
1.709999999999828, -0.7088548089911508 
1.719999999999827, -0.7080689228153638 
1.729999999999826, -0.7072983187532402 
1.7399999999998248, -0.7065561886894545 
1.7499999999998237, -0.7058663271933989 
1.7599999999998226, -0.7052637873962672 
1.7699999999998215, -0.7047946244275146 
1.7799999999998204, -0.7045144886113974 
1.7899999999998193, -0.7044856464519367 
1.7999999999998182, -0.7047725422188825 
1.809999999999817, -0.7054368143511784 
1.819999999999816, -0.7065330470997134 
1.8299999999998149, -0.7081059539754743 
1.8399999999998138, -0.7101881584752128 
1.8499999999998127, -0.7127957907198026 
1.8599999999998116, -0.7159177409280774 
1.8699999999998105, -0.7194953760410928 
1.8799999999998094, -0.7233957561870762 
1.8899999999998083, -0.7273945324796007 
1.8999999999998072, -0.7311965078167592 
1.909999999999806, -0.7345090299360547 
1.919999999999805, -0.7371363461642624 
1.9299999999998039, -0.7390295049246367 
1.9399999999998028, -0.7402614574051201 
1.9499999999998017, -0.740961157869972 
1.9599999999998006, -0.7412561576933101 
1.9699999999997995, -0.7412436310428415 
1.9799999999997984, -0.7409834990173618 
1.9899999999997973, -0.7405015863474264 
1.9999999999997962, -0.7397955212980796 
2.0099999999998173, -0.7388419155163739 
2.0199999999998384, -0.7376079825963273 
2.0299999999998595, -0.7360747200454603 
2.0399999999998806, -0.73428083934293 
2.0499999999999017, -0.7323892412320281 
2.059999999999923, -0.7307450349531603 
2.069999999999944, -0.7298324062819722 
2.079999999999965, -0.7300312385925903 
2.089999999999986, -0.7313043945153391 
2.100000000000007, -0.7332446356498246 
2.1100000000000283, -0.7355122770201871 
2.1200000000000494, -0.7380001915885498 
2.1300000000000705, -0.7405909424398686 
2.1400000000000916, -0.7430504859815861 
2.1500000000001127, -0.7451569671147649 
2.160000000000134, -0.7468042221165152 
2.170000000000155, -0.7479951629994347 
2.180000000000176, -0.7487889498889271 
2.190000000000197, -0.7492557988660258 
2.2000000000002182, -0.7494518941876286 
2.2100000000002393, -0.7494082269184535 
2.2200000000002604, -0.7491251315268357 
2.2300000000002815, -0.7485672589078555 
2.2400000000003026, -0.7476574079810031 
2.2500000000003237, -0.7462723639807852 
2.260000000000345, -0.7442508784057285 
2.270000000000366, -0.7414302523035855 
2.280000000000387, -0.7377205539999214 
2.290000000000408, -0.7331898881528174 
2.3000000000004293, -0.7280941404453346 
2.3100000000004504, -0.7228077369142798 
2.3200000000004715, -0.7176995165808324 
2.3300000000004926, -0.7130407319252463 
2.3400000000005137, -0.7089828912106275 
2.3500000000005348, -0.7055820951550359 
2.360000000000556, -0.7028336266990212 
2.370000000000577, -0.7006977821729825 
2.380000000000598, -0.6991144534819018 
2.390000000000619, -0.6980107799867116 
2.4000000000006403, -0.6973064609633105 
2.4100000000006614, -0.6969191541894106 
2.4200000000006825, -0.696770148495933 
2.4300000000007036, -0.6967892829891371 
2.4400000000007247, -0.6969181109229633 
2.450000000000746, -0.6971111063431563 
2.460000000000767, -0.6973355202140726 
2.470000000000788, -0.6975706917387747 
2.480000000000809, -0.6978070070967481 
2.49000000000083, -0.6980436502351416 
2.5000000000008513, -0.698283838439663 
2.5100000000008724, -0.6985274614696528 
2.5200000000008935, -0.6987636919082268 
2.5300000000009146, -0.6989680324302254 
2.5400000000009357, -0.6991069209905169 
2.550000000000957, -0.6991482924132121 
2.560000000000978, -0.6990720196577694 
2.570000000000999, -0.6988745820863804 
2.58000000000102, -0.6985674533359424 
2.5900000000010412, -0.6981732677880457 
2.6000000000010624, -0.6977243389276414 
2.6100000000010835, -0.6972660769908431 
2.6200000000011046, -0.6968659657107419 
2.6300000000011257, -0.6966276946295491 
2.6400000000011468, -0.6967090075152218 
2.650000000001168, -0.6973400123139731 
2.660000000001189, -0.6988359377227222 
2.67000000000121, -0.7015948558636593 
2.680000000001231, -0.7060666148390399 
2.6900000000012523, -0.7126739262417091 
2.7000000000012734, -0.7216646998343337 
2.7100000000012945, -0.732896375046802 
2.7200000000013156, -0.7456330521461689 
2.7300000000013367, -0.7585573045433776 
2.740000000001358, -0.7701746267881007 
2.750000000001379, -0.7794357820616283 
2.7600000000014, -0.7860783751130904 
2.770000000001421, -0.7904609251246397 
2.780000000001442, -0.7931724514600061 
2.7900000000014633, -0.7947516328766226 
2.8000000000014844, -0.7955884370558469 
2.8100000000015055, -0.795929805040547 
2.8200000000015266, -0.7959142504901552 
2.8300000000015477, -0.7956013974587437 
2.840000000001569, -0.7949874196904381 
2.85000000000159, -0.7940054832968941 
2.860000000001611, -0.7925108112923543 
2.870000000001632, -0.7902487792366515 
2.8800000000016532, -0.7868059065450946 
2.8900000000016743, -0.781555856208717 
2.9000000000016954, -0.7736530577685915 
2.9100000000017165, -0.7622104554850424 
2.9200000000017377, -0.7468465077058302 
2.9300000000017588, -0.7284909869065029 
2.94000000000178, -0.7096151880943615 
2.950000000001801, -0.6931234441941653 
2.960000000001822, -0.6807821840983703 
2.970000000001843, -0.6727240445039445 
2.9800000000018643, -0.6680642867497383 
2.9900000000018854, -0.6656820935881652 
3.0000000000019065, -0.6646469098949678 
3.0100000000019276, -0.6643227450921343 
3.0200000000019487, -0.6643233226121334 
3.03000000000197, -0.6644324623383016 
3.040000000001991, -0.6645356235551424 
3.050000000002012, -0.6645724774929015 
3.060000000002033, -0.6645074420417212 
3.070000000002054, -0.6643128511633131 
3.0800000000020753, -0.663960981807195 
3.0900000000020964, -0.6634234641114203 
3.1000000000021175, -0.662677873098751 
3.1100000000021386, -0.6617198093312598 
3.1200000000021597, -0.6605742351020198 
3.130000000002181, -0.659296599357171 
3.140000000002202, -0.6579592095344788 
3.150000000002223, -0.6566298736062267 
3.160000000002244, -0.6553558675998469 
3.1700000000022652, -0.654160510310991 
3.1800000000022863, -0.6530500160974191 
3.1900000000023074, -0.6520239261368144 
3.2000000000023285, -0.6510838629258999 
3.2100000000023496, -0.6502387304947617 
3.2200000000023707, -0.6495068685898614 
3.230000000002392, -0.6489163387406338 
3.240000000002413, -0.6485041518469848 
3.250000000002434, -0.6483147695902777 
3.260000000002455, -0.6483980912042286 
3.2700000000024763, -0.6488073138350829 
3.2800000000024974, -0.6495972012798401 
3.2900000000025185, -0.6508230696621132 
3.3000000000025396, -0.6525399879931665 
3.3100000000025607, -0.6548002575259567 
3.3200000000025818, -0.6576453817125263 
3.330000000002603, -0.6610873547633813 
3.340000000002624, -0.6650758138793204 
3.350000000002645, -0.6694573620776854 
3.360000000002666, -0.6739534061244538 
3.3700000000026873, -0.6781972493010865 
3.3800000000027084, -0.6818426679154606 
3.3900000000027295, -0.684683969930534 
3.4000000000027506, -0.686699017489073 
3.4100000000027717, -0.6879977648503721 
3.420000000002793, -0.6887369586879595 
3.430000000002814, -0.6890584465373473 
3.440000000002835, -0.6890633174434587 
3.450000000002856, -0.6888079142911421 
3.460000000002877, -0.6883065041065375 
3.4700000000028983, -0.6875318080526851 
3.4800000000029194, -0.6864090405875788 
3.4900000000029405, -0.684800233032405 
3.5000000000029616, -0.6824744684691318 
3.5100000000029827, -0.6790581271211775 
3.520000000003004, -0.6739647852145239 
3.530000000003025, -0.6663440891361637 
3.540000000003046, -0.6552105117345081 
3.550000000003067, -0.6400395542025452 
3.5600000000030882, -0.621749581974073 
3.5700000000031094, -0.6029495047860649 
3.5800000000031305, -0.5865667126104056 
3.5900000000031516, -0.5741980896178085 
3.6000000000031727, -0.5658411726969816 
3.6100000000031938, -0.5606434671487432 
3.620000000003215, -0.5576168348133959 
3.630000000003236, -0.5559607433060532 
3.640000000003257, -0.5551192028138462 
3.650000000003278, -0.5547362415248391 
3.6600000000032993, -0.5545944590649486 
3.6700000000033204, -0.5545646190251375 
3.6800000000033415, -0.5545705599296704 
3.6900000000033626, -0.5545667554982098 
3.7000000000033837, -0.5545250816468602 
3.710000000003405, -0.5544282438490463 
3.720000000003426, -0.5542681448465961 
3.730000000003447, -0.5540474425217181 
3.740000000003468, -0.5537815421715295 
3.750000000003489, -0.5534973865581083 
3.7600000000035103, -0.5532266548200966 
3.7700000000035314, -0.5529948022083929 
3.7800000000035525, -0.5528109710743644 
3.7900000000035736, -0.5526640356129195 
3.8000000000035947, -0.5525269150606029 
3.810000000003616, -0.5523669344617664 
3.820000000003637, -0.5521568426951124 
3.830000000003658, -0.5518814049205911 
3.840000000003679, -0.5515382468462219 
3.8500000000037002, -0.5511355025042095 
3.8600000000037213, -0.5506899757170818 
3.8700000000037424, -0.5502285459218814 
3.8800000000037635, -0.5497945230031276 
3.8900000000037847, -0.5494606777262769 
3.9000000000038058, -0.5493516018431169 
3.910000000003827, -0.549679077158993 
3.920000000003848, -0.5507934068218014 
3.930000000003869, -0.55324622836794 
3.94000000000389, -0.5578344247679492 
3.9500000000039113, -0.565532757114162 
3.9600000000039324, -0.5771387061061769 
3.9700000000039535, -0.5925182904581663 
3.9800000000039746, -0.6099002522646886 
3.9900000000039957, -0.6263440248045178 
4.000000000004016, -0.6395168685457306 
4.010000000003993, -0.6488612977792523 
4.02000000000397, -0.6550793460650806 
4.030000000003946, -0.6591327434338238 
4.040000000003923, -0.6617675344719097 
4.0500000000039, -0.6634711957127812 
4.0600000000038765, -0.6645491031971185 
4.070000000003853, -0.6651916543662064 
4.08000000000383, -0.6655151834167088 
4.090000000003807, -0.6655847389994861 
4.100000000003783, -0.6654258770388669 
4.11000000000376, -0.6650294956152069 
4.120000000003737, -0.6643525989563736 
4.130000000003713, -0.6633190418244906 
4.14000000000369, -0.661827658034668 
4.150000000003667, -0.6597782591390209 
4.1600000000036434, -0.6571206627986899 
4.17000000000362, -0.6539095678327005 
4.180000000003597, -0.6503228378703865 
4.1900000000035735, -0.6466143279656393 
4.20000000000355, -0.643029069116115 
4.210000000003527, -0.639740089169129 
4.220000000003504, -0.6368351105852148 
4.23000000000348, -0.6343377778543691 
4.240000000003457, -0.6322367106446998 
4.250000000003434, -0.6305072496247662 
4.26000000000341, -0.6291230329450357 
4.270000000003387, -0.6280600696993045 
4.280000000003364, -0.6272968234445531 
4.2900000000033405, -0.6268129618392562 
4.300000000003317, -0.6265883563721358 
4.310000000003294, -0.6266030542034756 
4.320000000003271, -0.6268383272431367 
4.330000000003247, -0.6272785007869969 
4.340000000003224, -0.6279130231956747 
4.350000000003201, -0.6287380371163257 
4.360000000003177, -0.6297563819756775 
4.370000000003154, -0.6309744642991696 
4.380000000003131, -0.6323941883423145 
4.390000000003107, -0.6339992007642963 
4.400000000003084, -0.6357384085850057 
4.410000000003061, -0.6375159449400419 
4.4200000000030375, -0.6392004762281579 
4.430000000003014, -0.6406584725319487 
4.440000000002991, -0.6417955777167678 
4.450000000002968, -0.6425788917480575 
4.460000000002944, -0.6430285582270573 
4.470000000002921, -0.6431915627475945 
4.480000000002898, -0.6431169205311871 
4.490000000002874, -0.6428411825424771 
4.500000000002851, -0.6423831802965558 
4.510000000002828, -0.6417439747187536 
4.520000000002804, -0.6409093508516763 
4.530000000002781, -0.639854419238702 
4.540000000002758, -0.6385512220200287 
4.5500000000027345, -0.6369788687237132 
4.560000000002711, -0.6351271078414619 
4.570000000002688, -0.6329621475208257 
4.580000000002665, -0.6303013769224501 
4.590000000002641, -0.6266161033262517 
4.600000000002618, -0.6210838644806159 
4.610000000002595, -0.6133511961193676 
4.620000000002571, -0.604432777543982 
4.630000000002548, -0.5962490810727028 
4.640000000002525, -0.5901684390564517 
4.6500000000025015, -0.5863912584924258 
4.660000000002478, -0.5843985193563389 
4.670000000002455, -0.5835354301984235 
4.6800000000024315, -0.5832884588618695 
4.690000000002408, -0.5833282965763666 
4.700000000002385, -0.5834665614980185 
4.710000000002362, -0.5836029349632755 
4.720000000002338, -0.5836855204712845 
4.730000000002315, -0.5836857296050582 
4.740000000002292, -0.5835838825053377 
4.750000000002268, -0.583362205722767 
4.760000000002245, -0.5830035979535607 
4.770000000002222, -0.5824956336331081 
4.7800000000021985, -0.5818385919768108 
4.790000000002175, -0.5810534747373043 
4.800000000002152, -0.5801834043768012 
4.810000000002129, -0.579284161173464 
4.820000000002105, -0.5784074750289394 
4.830000000002082, -0.5775866398726944 
4.840000000002059, -0.5768317518511773 
4.850000000002035, -0.5761347729938409 
4.860000000002012, -0.5754796179106888 
4.870000000001989, -0.5748518762174232 
4.880000000001965, -0.5742451312083797 
4.890000000001942, -0.5736638651657786 
4.900000000001919, -0.5731248350571263 
4.9100000000018955, -0.572659016207625 
4.920000000001872, -0.5723154798156412 
