t, s[1].omega / s[0].omega 
0, -1.439998000247951 
0.009999999999999995, -1.4396328583417752 
0.019999999999999934, -1.4389452765267126 
0.029999999999999874, -1.4379475252285447 
0.04000000000000012, -1.4366650141954902 
0.050000000000000405, -1.435149255334459 
0.06000000000000069, -1.4334977449777342 
0.07000000000000098, -1.4318756426663974 
0.08000000000000126, -1.430509811168869 
0.09000000000000155, -1.4296006885154022 
0.10000000000000184, -1.429178341021259 
0.11000000000000212, -1.4290705365492793 
0.12000000000000241, -1.429034991576082 
0.130000000000002, -1.4288788567846806 
0.1400000000000009, -1.4284585312868383 
0.1499999999999998, -1.4276076121922778 
0.1599999999999987, -1.4260401162273113 
0.1699999999999976, -1.4232272219987256 
0.1799999999999965, -1.418254271872709 
0.1899999999999954, -1.409796730886738 
0.1999999999999943, -1.396697108486531 
0.2099999999999932, -1.379824771187017 
0.2199999999999921, -1.3640919940353329 
0.229999999999991, -1.3558585150877551 
0.2399999999999899, -1.3561644896428073 
0.2499999999999888, -1.360506977100888 
0.2599999999999877, -1.364789435545123 
0.2699999999999866, -1.3676582092171696 
0.2799999999999855, -1.36924049158062 
0.2899999999999844, -1.3699513366864424 
0.2999999999999833, -1.3700998139093488 
0.3099999999999822, -1.3698529060662195 
0.3199999999999811, -1.3692836877222203 
0.32999999999998, -1.3684455007995704 
0.3399999999999789, -1.3675043834948644 
0.3499999999999778, -1.3669458167404183 
0.35999999999997667, -1.3676529221110962 
0.36999999999997557, -1.3704262858824416 
0.37999999999997447, -1.3751653052192794 
0.38999999999997337, -1.3808346937984393 
0.39999999999997227, -1.3862843277187389 
0.40999999999997117, -1.390829254619157 
0.41999999999997006, -1.3942549097338912 
0.42999999999996896, -1.3966175084155574 
0.43999999999996786, -1.3980857333160182 
0.44999999999996676, -1.3988535897937124 
0.45999999999996566, -1.3990976714119125 
0.46999999999996456, -1.3989614406942559 
0.47999999999996346, -1.3985592610298547 
0.48999999999996235, -1.3979934345571015 
0.49999999999996125, -1.3973715446746513 
0.5099999999999602, -1.3968056970991414 
0.519999999999959, -1.396387600971657 
0.529999999999958, -1.396162628037215 
0.5399999999999568, -1.3961241824897894 
0.5499999999999557, -1.3962185491625676 
0.5599999999999546, -1.3963547049046015 
0.5699999999999535, -1.3964263582640137 
0.5799999999999524, -1.39633274406972 
0.5899999999999513, -1.3959801273985781 
0.5999999999999502, -1.3952687950554514 
0.6099999999999491, -1.3940813152114808 
0.619999999999948, -1.3922822127028152 
0.6299999999999469, -1.3897322405642594 
0.6399999999999458, -1.3863199288577517 
0.6499999999999447, -1.3820217594350992 
0.6599999999999436, -1.3770114277773275 
0.6699999999999425, -1.371803865742057 
0.6799999999999414, -1.3672737642934885 
0.6899999999999403, -1.3642708880374979 
0.6999999999999392, -1.362984194327743 
0.7099999999999381, -1.3628473742618337 
0.719999999999937, -1.3631233837578993 
0.7299999999999359, -1.3633530551276662 
0.7399999999999348, -1.3633511027618779 
0.7499999999999337, -1.3630422822129165 
0.7599999999999326, -1.3623351326655373 
0.7699999999999315, -1.3610385720360534 
0.7799999999999304, -1.3587895849839546 
0.7899999999999293, -1.355025963465988 
0.7999999999999282, -1.349237664852383 
0.8099999999999271, -1.3420304602587902 
0.819999999999926, -1.3369070541371937 
0.8299999999999249, -1.339483846482902 
0.8399999999999238, -1.3513220677627449 
0.8499999999999227, -1.366939769687447 
0.8599999999999216, -1.3801166118384676 
0.8699999999999205, -1.3887772675864962 
0.8799999999999194, -1.3937140949346374 
0.8899999999999183, -1.3962788453483792 
0.8999999999999172, -1.3974731545870582 
0.9099999999999161, -1.3978845949183856 
0.919999999999915, -1.3978265122751712 
0.9299999999999139, -1.397468749515398 
0.9399999999999128, -1.3969404124872784 
0.9499999999999117, -1.3964217340736476 
0.9599999999999106, -1.3961962244990687 
0.9699999999999095, -1.3965677830032894 
0.9799999999999084, -1.3976449931027126 
0.9899999999999073, -1.3992388690589908 
0.9999999999999062, -1.4010147060796467 
1.0099999999999052, -1.4026886797668379 
1.019999999999904, -1.4040937962886406 
1.029999999999903, -1.405154847667543 
1.039999999999902, -1.4058493964294851 
1.0499999999999008, -1.406181640877922 
1.0599999999998997, -1.4061688998683963 
1.0699999999998986, -1.4058357985351142 
1.0799999999998975, -1.4052129148267025 
1.0899999999998964, -1.4043392562261656 
1.0999999999998953, -1.403268766202986 
1.1099999999998942, -1.402078854084374 
1.119999999999893, -1.400876757486674 
1.129999999999892, -1.3997980504382068 
1.1399999999998909, -1.3989812498545597 
1.1499999999998898, -1.3985023417391738 
1.1599999999998887, -1.3983125000612604 
1.1699999999998876, -1.3982597962377337 
1.1799999999998865, -1.398173287007738 
1.1899999999998854, -1.3979099963361854 
1.1999999999998843, -1.3973339400086147 
1.2099999999998832, -1.3962593050069727 
1.219999999999882, -1.3943817282416389 
1.229999999999881, -1.391208733650732 
1.2399999999998799, -1.3860257753432417 
1.2499999999998788, -1.378008892991208 
1.2599999999998777, -1.3666928691741729 
1.2699999999998766, -1.3529201793448096 
1.2799999999998755, -1.3396096069400856 
1.2899999999998744, -1.3305355850913665 
1.2999999999998733, -1.3271330950686404 
1.3099999999998722, -1.3275447076289657 
1.319999999999871, -1.3291694535443852 
1.32999999999987, -1.3305915056398647 
1.3399999999998689, -1.3314520584108842 
1.3499999999998678, -1.331800073632306 
1.3599999999998666, -1.3317378933093145 
1.3699999999998655, -1.331312035792253 
1.3799999999998644, -1.330497051323695 
1.3899999999998633, -1.3292217900640815 
1.3999999999998622, -1.327485551097429 
1.4099999999998611, -1.3256922816979517 
1.41999999999986, -1.3251952362326864 
1.429999999999859, -1.3282717393504417 
1.4399999999998578, -1.3363575730319897 
1.4499999999998567, -1.3480559666101943 
1.4599999999998556, -1.360127824377042 
1.4699999999998545, -1.370086804678958 
1.4799999999998534, -1.3771508709202194 
1.4899999999998523, -1.38164930903296 
1.4999999999998512, -1.3842647925056955 
1.5099999999998501, -1.3856276987931821 
1.519999999999849, -1.3861942657354103 
1.529999999999848, -1.386257815320191 
1.5399999999998468, -1.3860021297477425 
1.5499999999998457, -1.385560940580956 
1.5599999999998446, -1.3850699168021887 
1.5699999999998435, -1.3846890709794226 
1.5799999999998424, -1.3845660245508011 
1.5899999999998413, -1.3847611369053765 
1.5999999999998402, -1.3852195832183765 
1.6099999999998391, -1.3858196937704093 
1.619999999999838, -1.3864328135392578 
1.629999999999837, -1.386951172953339 
1.6399999999998358, -1.3872934552258769 
1.6499999999998347, -1.3874014188805004 
1.6599999999998336, -1.38723275706399 
1.6699999999998325, -1.3867548191666734 
1.6799999999998314, -1.3859419349156876 
1.6899999999998303, -1.3847763079532094 
1.6999999999998292, -1.3832526012010082 
1.709999999999828, -1.3813886220653673 
1.719999999999827, -1.379246199173544 
1.729999999999826, -1.3769637757791986 
1.7399999999998248, -1.374784689643914 
1.7499999999998237, -1.3730240256117752 
1.7599999999998226, -1.3719167461795005 
1.7699999999998215, -1.3714445160872761 
1.7799999999998204, -1.3713566868403917 
1.7899999999998193, -1.3713621278445793 
1.7999999999998182, -1.3712557865153767 
1.809999999999817, -1.3709037567437365 
1.819999999999816, -1.3701656472984496 
1.8299999999998149, -1.3688048402085662 
1.8399999999998138, -1.3663807136074473 
1.8499999999998127, -1.3621162741032775 
1.8599999999998116, -1.354825560686607 
1.8699999999998105, -1.343244256441763 
1.8799999999998094, -1.327386617737464 
1.8899999999998083, -1.3106316340592432 
1.8999999999998072, -1.2991332154055428 
1.909999999999806, -1.2962781934261534 
1.919999999999805, -1.29944890111269 
1.9299999999998039, -1.3040960779784616 
1.9399999999998028, -1.3077654964014394 
1.9499999999998017, -1.3100394622238372 
1.9599999999998006, -1.3112383872824191 
1.9699999999997995, -1.3117260908570632 
1.9799999999997984, -1.311738155020994 
1.9899999999997973, -1.3113901638429246 
1.9999999999997962, -1.3107220927392034 
2.0099999999998173, -1.3097650945721029 
2.0199999999998384, -1.3086760169899079 
2.0299999999998595, -1.3079726664833016 
2.0399999999998806, -1.3086894497293888 
2.0499999999999017, -1.3119481809692393 
2.059999999999923, -1.3179329200284997 
2.069999999999944, -1.3255068434893058 
2.079999999999965, -1.3330721357195863 
2.089999999999986, -1.3395103701034192 
2.100000000000007, -1.344395444956143 
2.1100000000000283, -1.347771747511644 
2.1200000000000494, -1.3498988027678478 
2.1300000000000705, -1.3510850970983035 
2.1400000000000916, -1.3516032577319022 
2.1500000000001127, -1.35166128573547 
2.160000000000134, -1.3514090300464525 
2.170000000000155, -1.3509637950509505 
2.180000000000176, -1.3504408321687082 
2.190000000000197, -1.349968995116711 
2.2000000000002182, -1.3496705108063278 
2.2100000000002393, -1.3496141638518877 
2.2200000000002604, -1.3497898078262325 
2.2300000000002815, -1.3501272715863382 
2.2400000000003026, -1.3505298999156425 
2.2500000000003237, -1.3508980293113866 
2.260000000000345, -1.3511431396617934 
2.270000000000366, -1.351193633180291 
2.280000000000387, -1.3509922432711823 
2.290000000000408, -1.3504908113008585 
2.3000000000004293, -1.3496480571339102 
2.3100000000004504, -1.3484313100018925 
2.3200000000004715, -1.3468211810648483 
2.3300000000004926, -1.3448203337161768 
2.3400000000005137, -1.3424707408027992 
2.3500000000005348, -1.3398838161946038 
2.360000000000556, -1.33727683789264 
2.370000000000577, -1.3349751027276102 
2.380000000000598, -1.33330733479501 
2.390000000000619, -1.332405589545743 
2.4000000000006403, -1.3321081604366118 
2.4100000000006614, -1.3320985931389577 
2.4200000000006825, -1.3321027082479069 
2.4300000000007036, -1.3319500615532993 
2.4400000000007247, -1.3315224225896682 
2.450000000000746, -1.3306732802326031 
2.460000000000767, -1.3291427900994877 
2.470000000000788, -1.3264543116975154 
2.480000000000809, -1.3217956960288102 
2.49000000000083, -1.313990283741175 
2.5000000000008513, -1.3018991112165477 
2.5100000000008724, -1.2857436804091145 
2.5200000000008935, -1.2688323716358805 
2.5300000000009146, -1.256742891730459 
2.5400000000009357, -1.2525912335798721 
2.550000000000957, -1.2543545741576505 
2.560000000000978, -1.2580652098524112 
2.570000000000999, -1.2612957021442104 
2.58000000000102, -1.2634192319008215 
2.5900000000010412, -1.2645922504930451 
2.6000000000010624, -1.26509852540871 
2.6100000000010835, -1.2651417773283344 
2.6200000000011046, -1.264823365739178 
2.6300000000011257, -1.2641651646537262 
2.6400000000011468, -1.2631493305248862 
2.650000000001168, -1.2618101592788542 
2.660000000001189, -1.2604532839578304 
2.67000000000121, -1.2600018515965796 
2.680000000001231, -1.2620716296948182 
2.6900000000012523, -1.2680523699386277 
2.7000000000012734, -1.2776315615019593 
2.7100000000012945, -1.2887101129335619 
2.7200000000013156, -1.2989509336705698 
2.7300000000013367, -1.307021946215007 
2.740000000001358, -1.3126764431180953 
2.750000000001379, -1.3162797798544985 
2.7600000000014, -1.318375105546986 
2.770000000001421, -1.3194496586696745 
2.780000000001442, -1.3198598133664612 
2.7900000000014633, -1.3198399739779771 
2.8000000000014844, -1.3195432634563558 
2.8100000000015055, -1.319090128065037 
2.8200000000015266, -1.3186129060500673 
2.8300000000015477, -1.318274431332499 
2.840000000001569, -1.3182310668282449 
2.85000000000159, -1.3185549477308165 
2.860000000001611, -1.3191950768688205 
2.870000000001632, -1.3200192103090047 
2.8800000000016532, -1.320882153499954 
2.8900000000016743, -1.3216646377763734 
2.9000000000016954, -1.3222819173052884 
2.9100000000017165, -1.322679235568096 
2.9200000000017377, -1.3228238352100734 
2.9300000000017588, -1.322697875167474 
2.94000000000178, -1.3222941143371307 
2.950000000001801, -1.3216144273811046 
2.960000000001822, -1.3206708870576196 
2.970000000001843, -1.3194897361860436 
2.9800000000018643, -1.3181185920178327 
2.9900000000018854, -1.3166358326623515 
3.0000000000019065, -1.315158448838573 
3.0100000000019276, -1.313838735419702 
3.0200000000019487, -1.3128304506013426 
3.03000000000197, -1.3122168505798144 
3.040000000001991, -1.3119510329523707 
3.050000000002012, -1.3118798930247604 
3.060000000002033, -1.3118283498116987 
3.070000000002054, -1.3116533808061188 
3.0800000000020753, -1.3112354132808968 
3.0900000000020964, -1.310435271863905 
3.1000000000021175, -1.3090432279355242 
3.1100000000021386, -1.306731566011885 
3.1200000000021597, -1.3030287715997368 
3.130000000002181, -1.2973618686738104 
3.140000000002202, -1.2892450764826164 
3.150000000002223, -1.278681355642752 
3.160000000002244, -1.2666870581384928 
3.1700000000022652, -1.255450914024923 
3.1800000000022863, -1.2473992763157562 
3.1900000000023074, -1.2435054162874946 
3.2000000000023285, -1.2427621080757296 
3.2100000000023496, -1.2434422026045406 
3.2200000000023707, -1.2443470420177392 
3.230000000002392, -1.2449916434308252 
3.240000000002413, -1.245278031015229 
3.250000000002434, -1.245221666279716 
3.260000000002455, -1.244824325030692 
3.2700000000024763, -1.2440224833951323 
3.2800000000024974, -1.2426570609659575 
3.2900000000025185, -1.2404588803947678 
3.3000000000025396, -1.2371185053891292 
3.3100000000025607, -1.232639732301019 
3.3200000000025818, -1.2282040657840028 
3.330000000002603, -1.227000019771912 
3.340000000002624, -1.232862629984409 
3.350000000002645, -1.2461949583406762 
3.360000000002666, -1.2625459853599743 
3.3700000000026873, -1.276765774148266 
3.3800000000027084, -1.286679873663099 
3.3900000000027295, -1.2926942748020906 
3.4000000000027506, -1.2960263163317491 
3.4100000000027717, -1.2977252500153158 
3.420000000002793, -1.2984676681840401 
3.430000000002814, -1.2986370109992036 
3.440000000002835, -1.298437979036441 
3.450000000002856, -1.2979881411874659 
3.460000000002877, -1.2973982851848733 
3.4700000000028983, -1.2968581792950897 
3.4800000000029194, -1.296697076920808 
3.4900000000029405, -1.2973130978762608 
3.5000000000029616, -1.2989280031464712 
3.5100000000029827, -1.3013921027709732 
3.520000000003004, -1.3042837021331983 
3.530000000003025, -1.307166482772941 
3.540000000003046, -1.309741640267029 
3.550000000003067, -1.3118560875436596 
3.5600000000030882, -1.3134567121555398 
3.5700000000031094, -1.3145496955600244 
3.5800000000031305, -1.3151759054770693 
3.5900000000031516, -1.3153958302478315 
3.6000000000031727, -1.3152785420157085 
3.6100000000031938, -1.3148949065495872 
3.620000000003215, -1.3143176848262474 
3.630000000003236, -1.3136275475329717 
3.640000000003257, -1.312916927841946 
3.650000000003278, -1.3122815087917465 
3.6600000000032993, -1.311800146517921 
3.6700000000033204, -1.3115162352169851 
3.6800000000033415, -1.3114270269463588 
3.6900000000033626, -1.311480247563608 
3.7000000000033837, -1.3115854033740093 
3.710000000003405, -1.311639485370131 
3.720000000003426, -1.311547163959658 
3.730000000003447, -1.311222211395688 
3.740000000003468, -1.3105777803867709 
3.750000000003489, -1.3095195051983128 
3.7600000000035103, -1.3079490367425908 
3.7700000000035314, -1.305778072059278 
3.7800000000035525, -1.3029497809199273 
3.7900000000035736, -1.299468231286322 
3.8000000000035947, -1.2954433260904636 
3.810000000003616, -1.2911531093614674 
3.820000000003637, -1.287082305422532 
3.830000000003658, -1.2838258466996246 
3.840000000003679, -1.2817918100207393 
3.8500000000037002, -1.2809253154431808 
3.8600000000037213, -1.2807924857666575 
3.8700000000037424, -1.280920077552152 
3.8800000000037635, -1.2810040855062252 
3.8900000000037847, -1.2808950528594845 
3.9000000000038058, -1.2805015566362683 
3.910000000003827, -1.2797023648022956 
3.920000000003848, -1.2782685731782544 
3.930000000003869, -1.2757707165869514 
3.94000000000389, -1.2714683944697127 
3.9500000000039113, -1.2642750580642497 
3.9600000000039324, -1.2531169312445405 
3.9700000000039535, -1.2381694987109741 
3.9800000000039746, -1.2225412648400884 
3.9900000000039957, -1.2116318523822545 
4.000000000004016, -1.2086471715659437 
4.010000000003993, -1.2117115909755316 
4.02000000000397, -1.2167256401831392 
4.030000000003946, -1.2210261617058296 
4.040000000003923, -1.2239019188144777 
4.0500000000039, -1.2255627440069246 
4.0600000000038765, -1.2263838924272856 
4.070000000003853, -1.2266478377570698 
4.08000000000383, -1.2265138636489892 
4.090000000003807, -1.2260447696185979 
4.100000000003783, -1.2252407449395346 
4.11000000000376, -1.2240922184595118 
4.120000000003737, -1.2227042843077285 
4.130000000003713, -1.2215564057351318 
4.14000000000369, -1.2218076073124262 
4.150000000003667, -1.225133837104374 
4.1600000000036434, -1.2325817454630297 
4.17000000000362, -1.243331671316988 
4.180000000003597, -1.2550589665559166 
4.1900000000035735, -1.2655166770250508 
4.20000000000355, -1.2735555313849052 
4.210000000003527, -1.2790760672215513 
4.220000000003504, -1.2825329490055424 
4.23000000000348, -1.2845100949551365 
4.240000000003457, -1.2855037738066175 
4.250000000003434, -1.2858643470542073 
4.26000000000341, -1.2858164084012706 
4.270000000003387, -1.2855048004631895 
4.280000000003364, -1.2850456155811858 
4.2900000000033405, -1.2845737055727195 
4.300000000003317, -1.284266083504325 
4.310000000003294, -1.2843060970552573 
4.320000000003271, -1.2847927074842898 
4.330000000003247, -1.285679867539426 
4.340000000003224, -1.2868129913828628 
4.350000000003201, -1.2880141007222945 
4.360000000003177, -1.2891382861509808 
4.370000000003154, -1.2900873093130991 
4.380000000003131, -1.290802279736933 
4.390000000003107, -1.2912520957587164 
4.400000000003084, -1.2914240898992082 
4.410000000003061, -1.2913184491531347 
4.4200000000030375, -1.290945854122984 
4.430000000003014, -1.2903272853978076 
4.440000000002991, -1.2894956835055142 
4.450000000002968, -1.2884996257016663 
4.460000000002944, -1.2874076727331127 
4.470000000002921, -1.2863095497976467 
4.480000000002898, -1.2853101035916736 
4.490000000002874, -1.2845123935344473 
4.500000000002851, -1.2839856579391147 
4.510000000002828, -1.283727542578362 
4.520000000002804, -1.2836547521448594 
4.530000000002781, -1.2836393055150612 
4.540000000002758, -1.2835549230318264 
4.5500000000027345, -1.2832927567033894 
4.560000000002711, -1.2827457713912593 
4.570000000002688, -1.281782906647083 
4.580000000002665, -1.280230483189896 
4.590000000002641, -1.2778727621927837 
4.600000000002618, -1.274481658468219 
4.610000000002595, -1.2698814802233342 
4.620000000002571, -1.2640489752196198 
4.630000000002548, -1.257243324697297 
4.640000000002525, -1.250126847143549 
4.6500000000025015, -1.2437344495650255 
4.660000000002478, -1.2390918583789448 
4.670000000002455, -1.236602285029019 
4.6800000000024315, -1.23582572066787 
4.690000000002408, -1.2359358364242763 
4.700000000002385, -1.2362729615342622 
4.710000000002362, -1.2365022218274468 
4.720000000002338, -1.23649911683926 
4.730000000002315, -1.2362080564691422 
4.740000000002292, -1.235550292276069 
4.750000000002268, -1.2343592724581232 
4.760000000002245, -1.2323106827442039 
4.770000000002222, -1.2288387973705897 
4.7800000000021985, -1.2231024978649505 
4.790000000002175, -1.2142385026462903 
4.800000000002152, -1.202314066333284 
4.810000000002129, -1.189813915008003 
4.820000000002105, -1.1815195164399874 
4.830000000002082, -1.1807941034806684 
4.840000000002059, -1.1862099562035977 
4.850000000002035, -1.1935445875668662 
4.860000000002012, -1.199730905597988 
4.870000000001989, -1.203904959541838 
4.880000000001965, -1.2063770551341335 
4.890000000001942, -1.2076902414287762 
4.900000000001919, -1.2082651244882308 
4.9100000000018955, -1.2083553689473905 
4.920000000001872, -1.208087191597508 
4.930000000001849, -1.2075036094459808 
4.940000000001826, -1.206609123964243 
