t, s[1].omega / s[0].omega 
0, -1.5299962258323143 
0.009999999999999995, -1.529353694948338 
0.019999999999999934, -1.52818369648987 
0.029999999999999874, -1.5264788316662483 
0.04000000000000012, -1.5242275818245676 
0.050000000000000405, -1.5214158484681828 
0.06000000000000069, -1.5180296153605075 
0.07000000000000098, -1.514060707777258 
0.08000000000000126, -1.5095213498078834 
0.09000000000000155, -1.5044773928248791 
0.10000000000000184, -1.499105938122067 
0.11000000000000212, -1.4937568497258622 
0.12000000000000241, -1.4889510593998416 
0.130000000000002, -1.4852357829416059 
0.1400000000000009, -1.4829244483180657 
0.1499999999999998, -1.481920763661329 
0.1599999999999987, -1.4817988506613238 
0.1699999999999976, -1.4820481311108327 
0.1799999999999965, -1.4822582996106064 
0.1899999999999954, -1.4821532369250123 
0.1999999999999943, -1.4815275479461958 
0.2099999999999932, -1.4801521799846087 
0.2199999999999921, -1.4776661271485625 
0.229999999999991, -1.4734282658832467 
0.2399999999999899, -1.4662712246459837 
0.2499999999999888, -1.4540620868919352 
0.2599999999999877, -1.4329363098545458 
0.2699999999999866, -1.3961127837644463 
0.2799999999999855, -1.332615535736135 
0.2899999999999844, -1.227562649036911 
0.2999999999999833, -1.0674512124238604 
0.3099999999999822, -0.8517699094621762 
0.3199999999999811, -0.6037891547525785 
0.32999999999998, -0.3675974638492946 
0.3399999999999789, -0.18291674884523657 
0.3499999999999778, -0.0596470816758894 
0.35999999999997667, 0.015657041212090626 
0.36999999999997557, 0.06015030080724368 
0.37999999999997447, 0.08689713902708664 
0.38999999999997337, 0.10338112913908543 
0.39999999999997227, 0.11381599531897929 
0.40999999999997117, 0.12056896797191355 
0.41999999999997006, 0.12499585366119356 
0.42999999999996896, 0.12789307435649486 
0.43999999999996786, 0.12973889426335902 
0.44999999999996676, 0.13082333707694244 
0.45999999999996566, 0.13131900433980517 
0.46999999999996456, 0.1313194742804486 
0.47999999999996346, 0.13085874560089644 
0.48999999999996235, 0.12991822022533728 
0.49999999999996125, 0.1284237617924899 
0.5099999999999602, 0.12623281625202973 
0.519999999999959, 0.12310986063490013 
0.529999999999958, 0.11868830500755616 
0.5399999999999568, 0.11242266208597365 
0.5499999999999557, 0.10356149689343258 
0.5599999999999546, 0.0912667389773152 
0.5699999999999535, 0.07529288546426613 
0.5799999999999524, 0.0583230444043377 
0.5899999999999513, 0.05179549070955796 
0.5999999999999502, 0.08378435780845649 
0.6099999999999491, 0.18923274795487904 
0.619999999999948, 0.35381449893448075 
0.6299999999999469, 0.4995122783759665 
0.6399999999999458, 0.5867618006462785 
0.6499999999999447, 0.6311546139143096 
0.6599999999999436, 0.6533506170036678 
0.6699999999999425, 0.6648301784756754 
0.6799999999999414, 0.670979225435991 
0.6899999999999403, 0.674307811225805 
0.6999999999999392, 0.6760351824806854 
0.7099999999999381, 0.6767868965332794 
0.719999999999937, 0.6769045791905698 
0.7299999999999359, 0.6765902812725793 
0.7399999999999348, 0.6759775710022876 
0.7499999999999337, 0.6751677892166407 
0.7599999999999326, 0.6742478446416081 
0.7699999999999315, 0.6732969664517457 
0.7799999999999304, 0.6723865174893597 
0.7899999999999293, 0.6715759915409957 
0.7999999999999282, 0.6709079416269375 
0.8099999999999271, 0.6704039871372017 
0.819999999999926, 0.6700631165734522 
0.8299999999999249, 0.6698625260668474 
0.8399999999999238, 0.6697604733558565 
0.8499999999999227, 0.6697001098194382 
0.8599999999999216, 0.6696128593091528 
0.8699999999999205, 0.66941952986919 
0.8799999999999194, 0.6690268516778732 
0.8899999999999183, 0.668316180997641 
0.8999999999999172, 0.6671187676230972 
0.9099999999999161, 0.6651661253442172 
0.919999999999915, 0.6619897022903629 
0.9299999999999139, 0.6567087598831137 
0.9399999999999128, 0.6475570291867082 
0.9499999999999117, 0.6307817564622032 
0.9599999999999106, 0.598112423731185 
0.9699999999999095, 0.5320371925553846 
0.9799999999999084, 0.4052360949757833 
0.9899999999999073, 0.2158979793162109 
0.9999999999999062, 0.04075330121430286 
1.0099999999999052, -0.048764329303989946 
1.019999999999904, -0.06756766990022756 
1.029999999999903, -0.05609661819874076 
1.039999999999902, -0.038206935216121556 
1.0499999999999008, -0.02248487146092531 
1.0599999999998997, -0.010609630633835845 
1.0699999999998986, -0.0020981474601980982 
1.0799999999998975, 0.003447028271123757 
1.0899999999998964, 0.0070106075096764316 
1.0999999999998953, 0.009330357755387757 
1.1099999999998942, 0.010765044093744965 
1.119999999999893, 0.011550308165637744 
1.129999999999892, 0.011835825226535786 
1.1399999999998909, 0.011710339954111314 
1.1499999999998898, 0.011216838851447726 
1.1599999999998887, 0.010360227438773862 
1.1699999999998876, 0.009108935333518182 
1.1799999999998865, 0.007390749279966519 
1.1899999999998854, 0.005081920556222425 
1.1999999999998843, 0.0019869555705863 
1.2099999999998832, -0.0018729125460238162 
1.219999999999882, -0.0069399702530635755 
1.229999999999881, -0.01429222742773676 
1.2399999999998799, -0.02508701808815367 
1.2499999999998788, -0.04117483698095428 
1.2599999999998777, -0.06549836587186773 
1.2699999999998766, -0.10256221013653813 
1.2799999999998755, -0.15854491767370396 
1.2899999999998744, -0.239771776687238 
1.2999999999998733, -0.34779260010243046 
1.3099999999998722, -0.47293805840669584 
1.319999999999871, -0.5954949741279376 
1.32999999999987, -0.6977720852064812 
1.3399999999998689, -0.7733139968548635 
1.3499999999998678, -0.824953081097227 
1.3599999999998666, -0.8588144661713076 
1.3699999999998655, -0.8806159593107056 
1.3799999999998644, -0.8945755869861606 
1.3899999999998633, -0.9035068564581986 
1.3999999999998622, -0.9092023058548329 
1.4099999999998611, -0.9127805580665279 
1.41999999999986, -0.914931428656025 
1.429999999999859, -0.9160727706444562 
1.4399999999998578, -0.9164454263061308 
1.4499999999998567, -0.9161673640981505 
1.4599999999998556, -0.9152604387000386 
1.4699999999998545, -0.913656894734788 
1.4799999999998534, -0.9111878258079279 
1.4899999999998523, -0.9075515357727079 
1.4999999999998512, -0.9022552260263587 
1.5099999999998501, -0.8945176455306391 
1.519999999999849, -0.8831118497956859 
1.529999999999848, -0.8661132212900515 
1.5399999999998468, -0.8404927473135639 
1.5499999999998457, -0.8014550898574472 
1.5599999999998446, -0.7414180667375371 
1.5699999999998435, -0.6489636584621056 
1.5799999999998424, -0.5104438983592771 
1.5899999999998413, -0.3221596023514702 
1.5999999999998402, -0.11339404254916771 
1.6099999999998391, 0.06176710589980097 
1.619999999999838, 0.1768085239474924 
1.629999999999837, 0.2431530983651606 
1.6399999999998358, 0.28011025149553603 
1.6499999999998347, 0.30102526001313606 
1.6599999999998336, 0.31324919881365987 
1.6699999999998325, 0.3206235843638928 
1.6799999999998314, 0.3251784349325211 
1.6899999999998303, 0.32802447379110417 
1.6999999999998292, 0.3297962289665505 
1.709999999999828, 0.3308734806457358 
1.719999999999827, 0.3314953225995715 
1.729999999999826, 0.3318215729387024 
1.7399999999998248, 0.3319680838340874 
1.7499999999998237, 0.3320294378573473 
1.7599999999998226, 0.3320965022513631 
1.7699999999998215, 0.3322736015245147 
1.7799999999998204, 0.3326987744302262 
1.7899999999998193, 0.3335692205445897 
1.7999999999998182, 0.3351704223336446 
1.809999999999817, 0.3378978693415353 
1.819999999999816, 0.3422412938465328 
1.8299999999998149, 0.3486795075323875 
1.8399999999998138, 0.35744668618359 
1.8499999999998127, 0.368239483907885 
1.8599999999998116, 0.38010396457870055 
1.8699999999998105, 0.3917190934976705 
1.8799999999998094, 0.40193313158495597 
1.8899999999998083, 0.41013380844919034 
1.8999999999998072, 0.4162469120861072 
1.909999999999806, 0.42051478183096236 
1.919999999999805, 0.42327530285008097 
1.9299999999998039, 0.42483252681432326 
1.9399999999998028, 0.4254073103784762 
1.9499999999998017, 0.42513136752778935 
1.9599999999998006, 0.4240593226326189 
1.9699999999997995, 0.4221886204144376 
1.9799999999997984, 0.4194870766331826 
1.9899999999997973, 0.41593150321222666 
1.9999999999997962, 0.4115572057636927 
2.0099999999998173, 0.4065062915508231 
2.0199999999998384, 0.4010483764254135 
2.0299999999998595, 0.39554737276583407 
2.0399999999998806, 0.39037641348306 
2.0499999999999017, 0.3858224974555678 
2.059999999999923, 0.3820319359031365 
2.069999999999944, 0.37901507216498614 
2.079999999999965, 0.3766896517751457 
2.089999999999986, 0.3749304611938526 
2.100000000000007, 0.37360523260547984 
2.1100000000000283, 0.3725928390827648 
2.1200000000000494, 0.3717882215483867 
2.1300000000000705, 0.37109981769325806 
2.1400000000000916, 0.3704435183606628 
2.1500000000001127, 0.3697350018429494 
2.160000000000134, 0.3688805097330805 
2.170000000000155, 0.36776458746552493 
2.180000000000176, 0.3662314945543076 
2.190000000000197, 0.36405404947765035 
2.2000000000002182, 0.3608780717662236 
2.2100000000002393, 0.3561192112643235 
2.2200000000002604, 0.34876563504213437 
2.2300000000002815, 0.336994527659751 
2.2400000000003026, 0.3174385444123292 
2.2500000000003237, 0.2839243417472522 
2.260000000000345, 0.22610238937586005 
2.270000000000366, 0.13135878070278514 
2.280000000000387, -0.002081992849415017 
2.290000000000408, -0.14702052145025596 
2.3000000000004293, -0.26558696275528587 
2.3100000000004504, -0.34310531543055234 
2.3200000000004715, -0.38803936821274515 
2.3300000000004926, -0.41326644189064043 
2.3400000000005137, -0.42779810434368615 
2.3500000000005348, -0.4366410554214412 
2.360000000000556, -0.44236288145242725 
2.370000000000577, -0.44626661116900934 
2.380000000000598, -0.44903202380945195 
2.390000000000619, -0.4510311420241961 
2.4000000000006403, -0.45247879700213794 
2.4100000000006614, -0.4535048529845165 
2.4200000000006825, -0.45418973736107726 
2.4300000000007036, -0.45458261385999166 
2.4400000000007247, -0.4547112170711046 
2.450000000000746, -0.45458773124272606 
2.460000000000767, -0.45421305613163915 
2.470000000000788, -0.453580912995621 
2.480000000000809, -0.4526827833493421 
2.49000000000083, -0.45151420457140723 
2.5000000000008513, -0.4500821815584093 
2.5100000000008724, -0.4484123673320449 
2.5200000000008935, -0.4465536181259898 
2.5300000000009146, -0.4445773723307435 
2.5400000000009357, -0.4425707171515025 
2.550000000000957, -0.44062460776003126 
2.560000000000978, -0.43882089115438183 
2.570000000000999, -0.43722200813466805 
2.58000000000102, -0.43586549293475735 
2.5900000000010412, -0.4347631332856269 
2.6000000000010624, -0.4339033616721082 
2.6100000000010835, -0.43325545342549954 
2.6200000000011046, -0.43277475745218213 
2.6300000000011257, -0.43240866186262583 
2.6400000000011468, -0.4321029316818209 
2.650000000001168, -0.4318076587188039 
2.660000000001189, -0.4314818349103598 
2.67000000000121, -0.43109583275466024 
2.680000000001231, -0.43063174644128027 
2.6900000000012523, -0.43008221731332485 
2.7000000000012734, -0.4294487123302461 
2.7100000000012945, -0.4287402084700176 
2.7200000000013156, -0.427973045842571 
2.7300000000013367, -0.4271725716173582 
2.740000000001358, -0.4263772568587974 
2.750000000001379, -0.4256463124853104 
2.7600000000014, -0.42507253659781286 
2.770000000001421, -0.4248033265422309 
2.780000000001442, -0.42507470437971356 
2.7900000000014633, -0.426266095605766 
2.8000000000014844, -0.4289875025048447 
2.8100000000015055, -0.43421448207332464 
2.8200000000015266, -0.4434849479619129 
2.8300000000015477, -0.45915037176082113 
2.840000000001569, -0.4846010068798302 
2.85000000000159, -0.5242333915800791 
2.860000000001611, -0.5828211724582459 
2.870000000001632, -0.664462481033763 
2.8800000000016532, -0.7730098235746965 
2.8900000000016743, -0.916376566883713 
2.9000000000016954, -1.1090748744495058 
2.9100000000017165, -1.3530231880636614 
2.9200000000017377, -1.6004041588981615 
2.9300000000017588, -1.7819139514412212 
2.94000000000178, -1.8837841793857373 
2.950000000001801, -1.933958741031359 
2.960000000001822, -1.9579617354953827 
2.970000000001843, -1.9695596860592701 
2.9800000000018643, -1.975183842030672 
2.9900000000018854, -1.9777792938715892 
3.0000000000019065, -1.9787284068452555 
3.0100000000019276, -1.9787202553127263 
3.0200000000019487, -1.9781574744894734 
3.03000000000197, -1.9773566448599513 
3.040000000001991, -1.976609131865708 
3.050000000002012, -1.9761143646638917 
3.060000000002033, -1.9758922014986866 
3.070000000002054, -1.9758323667401028 
3.0800000000020753, -1.9758465623712285 
3.0900000000020964, -1.9759340808532697 
3.1000000000021175, -1.9761006782660584 
3.1100000000021386, -1.9762567527699095 
3.1200000000021597, -1.9762109878316425 
3.130000000002181, -1.9757167952996821 
3.140000000002202, -1.9744658372478006 
3.150000000002223, -1.9719842286728027 
3.160000000002244, -1.967408709948649 
3.1700000000022652, -1.9590477101382218 
3.1800000000022863, -1.943479517804027 
3.1900000000023074, -1.9137015309066676 
3.2000000000023285, -1.855804866865828 
3.2100000000023496, -1.7459201679914509 
3.2200000000023707, -1.5592693717765178 
3.230000000002392, -1.3064967920138888 
3.240000000002413, -1.0488997596041663 
3.250000000002434, -0.8400537038047283 
3.260000000002455, -0.6913403278807552 
3.2700000000024763, -0.5921409122045579 
3.2800000000024974, -0.5283522819923202 
3.2900000000025185, -0.4882434063477621 
3.3000000000025396, -0.46336123214197233 
3.3100000000025607, -0.4480552147243414 
3.3200000000025818, -0.438708178646453 
3.330000000002603, -0.433055564782049 
3.340000000002624, -0.4296916226271759 
3.350000000002645, -0.42774391873862033 
3.360000000002666, -0.4266686684339766 
3.3700000000026873, -0.42612467717289426 
3.3800000000027084, -0.4258961644775091 
3.3900000000027295, -0.42584543938608416 
3.4000000000027506, -0.42588376425997915 
3.4100000000027717, -0.4259534030743711 
3.420000000002793, -0.4260166913714292 
3.430000000002814, -0.42604966692368684 
3.440000000002835, -0.42603879278769774 
3.450000000002856, -0.4259798336481721 
3.460000000002877, -0.42587815043494776 
3.4700000000028983, -0.42574966195790054 
3.4800000000029194, -0.4256216194849189 
3.4900000000029405, -0.4255323303840632 
3.5000000000029616, -0.4255292063959153 
3.5100000000029827, -0.4256650005254744 
3.520000000003004, -0.42599261210902895 
3.530000000003025, -0.4265590795627122 
3.540000000003046, -0.42739924631145165 
3.550000000003067, -0.42852934316738495 
3.5600000000030882, -0.42994084541787525 
3.5700000000031094, -0.4315956950026608 
3.5800000000031305, -0.4334249955580177 
3.5900000000031516, -0.43533360747477856 
3.6000000000031727, -0.43721164801449564 
3.6100000000031938, -0.43895080620612287 
3.620000000003215, -0.4404604454367386 
3.630000000003236, -0.44167806251150277 
3.640000000003257, -0.44257134897093936 
3.650000000003278, -0.44313287505707116 
3.6600000000032993, -0.44337075659451713 
3.6700000000033204, -0.44329868874104517 
3.6800000000033415, -0.4429273032495637 
3.6900000000033626, -0.4422571880041337 
3.7000000000033837, -0.4412727540397282 
3.710000000003405, -0.43993541570042444 
3.720000000003426, -0.4381738733304183 
3.730000000003447, -0.4358681148356101 
3.740000000003468, -0.43282134708500636 
3.750000000003489, -0.42870925960880285 
3.7600000000035103, -0.4229869731266155 
3.7700000000035314, -0.4147188678864594 
3.7800000000035525, -0.4022784844550633 
3.7900000000035736, -0.3828751551939983 
3.8000000000035947, -0.3520232316122751 
3.810000000003616, -0.3036777351079638 
3.820000000003637, -0.23291050859380819 
3.830000000003658, -0.14240080853959294 
3.840000000003679, -0.04678019976317087 
3.8500000000037002, 0.035329796859628254 
3.8600000000037213, 0.09505203721094757 
3.8700000000037424, 0.13459083707896052 
3.8800000000037635, 0.15969460707009756 
3.8900000000037847, 0.17551924661534396 
3.9000000000038058, 0.18558164951740874 
3.910000000003827, 0.1920608155225262 
3.920000000003848, 0.19627208934528834 
3.930000000003869, 0.19901452596258185 
3.94000000000389, 0.20078467592038346 
3.9500000000039113, 0.20190109430370945 
3.9600000000039324, 0.20257603046844108 
3.9700000000039535, 0.2029571371907745 
3.9800000000039746, 0.20315249306155797 
3.9900000000039957, 0.20324661556766838 
4.000000000004016, 0.20331203452430702 
4.010000000003993, 0.20341936028917906 
4.02000000000397, 0.20364801871906735 
4.030000000003946, 0.20409955691237733 
4.040000000003923, 0.20491523818040697 
4.0500000000039, 0.20629873715305871 
4.0600000000038765, 0.208541378651002 
4.070000000003853, 0.21203848144090345 
4.08000000000383, 0.21726834984197005 
4.090000000003807, 0.2246869226723088 
4.100000000003783, 0.2345040478184193 
4.11000000000376, 0.2464048149052397 
4.120000000003737, 0.2594335115443355 
4.130000000003713, 0.27224972968981337 
4.14000000000369, 0.2836468355887357 
4.150000000003667, 0.2929425337941375 
4.1600000000036434, 0.30001318994495674 
4.17000000000362, 0.30508887708116006 
4.180000000003597, 0.30852689450020127 
4.1900000000035735, 0.3106702565791688 
4.20000000000355, 0.3117902113620571 
4.210000000003527, 0.31207818140761084 
4.220000000003504, 0.31165939096545425 
4.23000000000348, 0.3106141341326626 
4.240000000003457, 0.309001360876841 
4.250000000003434, 0.30688222341186644 
4.26000000000341, 0.3043403478959458 
4.270000000003387, 0.30149351156865534 
4.280000000003364, 0.29849138734881253 
4.2900000000033405, 0.29549839711743486 
4.300000000003317, 0.2926679762699541 
4.310000000003294, 0.2901192681408476 
4.320000000003271, 0.28792520900990626 
4.330000000003247, 0.2861139087366887 
4.340000000003224, 0.2846788873148537 
4.350000000003201, 0.2835917550940702 
4.360000000003177, 0.2828126456350579 
4.370000000003154, 0.2822965190896363 
4.380000000003131, 0.2819955495062221 
4.390000000003107, 0.28185879984914974 
4.400000000003084, 0.2818305891379308 
4.410000000003061, 0.2818487109604771 
4.4200000000030375, 0.28184312686271995 
4.430000000003014, 0.2817349913735459 
4.440000000002991, 0.28143497920845234 
4.450000000002968, 0.2808390600081563 
4.460000000002944, 0.279819199671724 
4.470000000002921, 0.27820579598549905 
4.480000000002898, 0.2757575624811781 
4.490000000002874, 0.27211273291355104 
4.500000000002851, 0.2667135690708244 
4.510000000002828, 0.25869848503831777 
4.520000000002804, 0.24677715536456502 
4.530000000002781, 0.22918017014948214 
4.540000000002758, 0.20395484763639246 
4.5500000000027345, 0.17006566696050487 
4.560000000002711, 0.1293007681407581 
4.570000000002688, 0.0871903735321699 
4.580000000002665, 0.05050885528443441 
4.590000000002641, 0.02315327860841129 
4.600000000002618, 0.00497124205722227 
4.610000000002595, -0.005916052597375223 
4.620000000002571, -0.012110362785408831 
4.630000000002548, -0.015662122369652542 
4.640000000002525, -0.01769498769919061 
4.6500000000025015, -0.01886242822053088 
4.660000000002478, -0.019533746284480607 
4.670000000002455, -0.019917589889191924 
4.6800000000024315, -0.020134664211640733 
4.690000000002408, -0.020258700364031674 
4.700000000002385, -0.02033952949584856 
4.710000000002362, -0.02041657467731756 
4.720000000002338, -0.020527407890165064 
4.730000000002315, -0.020713919772456346 
4.740000000002292, -0.021027542398871876 
4.750000000002268, -0.021534463234640075 
4.760000000002245, -0.02232166749000575 
4.770000000002222, -0.02350484034939361 
4.7800000000021985, -0.0252395577815838 
4.790000000002175, -0.027737637864421103 
4.800000000002152, -0.03129067102147626 
4.810000000002129, -0.03630177541833178 
4.820000000002105, -0.043322562797759805 
4.830000000002082, -0.0530809831943596 
4.840000000002059, -0.06646080703577216 
4.850000000002035, -0.08435401847251757 
4.860000000002012, -0.10728631649244041 
4.870000000001989, -0.13482123258053116 
4.880000000001965, -0.16508345914127995 
4.890000000001942, -0.19503083914142177 
4.900000000001919, -0.22163887966843615 
4.9100000000018955, -0.2431252164166979 
