t, s[1].omega / s[0].omega 
0, -0.5399977460072035 
0.009999999999999995, -0.5397871772900962 
0.019999999999999934, -0.53959882492419 
0.029999999999999874, -0.5394143040781081 
0.04000000000000012, -0.5392111949207005 
0.050000000000000405, -0.5389705949854481 
0.06000000000000069, -0.5386816278532026 
0.07000000000000098, -0.5383420867219374 
0.08000000000000126, -0.5379568514065741 
0.09000000000000155, -0.5375364225645859 
0.10000000000000184, -0.5370972751207501 
0.11000000000000212, -0.5366649772745999 
0.12000000000000241, -0.5362807862339108 
0.130000000000002, -0.5360125730327335 
0.1400000000000009, -0.5359708156598859 
0.1499999999999998, -0.5363287825003514 
0.1599999999999987, -0.5373403826789993 
0.1699999999999976, -0.5393355430385379 
0.1799999999999965, -0.54265090712395 
0.1899999999999954, -0.547446165912589 
0.1999999999999943, -0.5534364836808406 
0.2099999999999932, -0.5597816179067978 
0.2199999999999921, -0.5654356520427226 
0.229999999999991, -0.5697639164276973 
0.2399999999999899, -0.5727726493013989 
0.2499999999999888, -0.5748113738048791 
0.2599999999999877, -0.5762253985105527 
0.2699999999999866, -0.5772354360721997 
0.2799999999999855, -0.5779620329957446 
0.2899999999999844, -0.5784722930327734 
0.2999999999999833, -0.5788078781860333 
0.3099999999999822, -0.5789965042288331 
0.3199999999999811, -0.5790555087651263 
0.32999999999998, -0.578992578471693 
0.3399999999999789, -0.5788058267669737 
0.3499999999999778, -0.5784843714027085 
0.35999999999997667, -0.5780106338697364 
0.36999999999997557, -0.5773658540816259 
0.37999999999997447, -0.5765395864351358 
0.38999999999997337, -0.5755410749522862 
0.39999999999997227, -0.5744063441809641 
0.40999999999997117, -0.5731942080692589 
0.41999999999997006, -0.5719709414648788 
0.42999999999996896, -0.5707921872238608 
0.43999999999996786, -0.5696922037954639 
0.44999999999996676, -0.5686838525215994 
0.45999999999996566, -0.567765750912842 
0.46999999999996456, -0.5669310919931952 
0.47999999999996346, -0.5661745650665008 
0.48999999999996235, -0.5654964891127848 
0.49999999999996125, -0.564904925557275 
0.5099999999999602, -0.5644169463882799 
0.519999999999959, -0.5640599234786616 
0.529999999999958, -0.5638732505134088 
0.5399999999999568, -0.5639105910984639 
0.5499999999999557, -0.5642425608493589 
0.5599999999999546, -0.5649595252789696 
0.5699999999999535, -0.5661736370111464 
0.5799999999999524, -0.5680179174437143 
0.5899999999999513, -0.5706376361743637 
0.5999999999999502, -0.5741655763065217 
0.6099999999999491, -0.578670739998788 
0.619999999999948, -0.5840784166133045 
0.6299999999999469, -0.5900910645587104 
0.6399999999999458, -0.5961854418096106 
0.6499999999999447, -0.6017542771909647 
0.6599999999999436, -0.606337979419419 
0.6699999999999425, -0.6097720257929384 
0.6799999999999414, -0.6121524352637077 
0.6899999999999403, -0.6136989355769051 
0.6999999999999392, -0.6146377468780454 
0.7099999999999381, -0.6151473007597282 
0.719999999999937, -0.6153486206659051 
0.7299999999999359, -0.6153131187711336 
0.7399999999999348, -0.6150721221066028 
0.7499999999999337, -0.6146222739108003 
0.7599999999999326, -0.6139255498000628 
0.7699999999999315, -0.612904683449235 
0.7799999999999304, -0.6114373866123475 
0.7899999999999293, -0.609358373707472 
0.7999999999999282, -0.6064865885006113 
0.8099999999999271, -0.6026960413242164 
0.819999999999926, -0.5980198932991176 
0.8299999999999249, -0.5927187045904728 
0.8399999999999238, -0.5872291294440652 
0.8499999999999227, -0.5820061343582656 
0.8599999999999216, -0.5773763744637386 
0.8699999999999205, -0.5734902880400014 
0.8799999999999194, -0.5703580758792379 
0.8899999999999183, -0.5679110305491314 
0.8999999999999172, -0.566050375199821 
0.9099999999999161, -0.5646752458021748 
0.919999999999915, -0.5636950788326682 
0.9299999999999139, -0.563033413930859 
0.9399999999999128, -0.5626279208338182 
0.9499999999999117, -0.5624291753943436 
0.9599999999999106, -0.5623992716598311 
0.9699999999999095, -0.5625106456260618 
0.9799999999999084, -0.5627451889480486 
0.9899999999999073, -0.5630935758287816 
0.9999999999999062, -0.5635545124630372 
1.0099999999999052, -0.5641332431681151 
1.019999999999904, -0.564838205779054 
1.029999999999903, -0.56567463946166 
1.039999999999902, -0.5666349192268567 
1.0499999999999008, -0.5676879798256483 
1.0599999999998997, -0.568773719926301 
1.0699999999998986, -0.5698094920774259 
1.0799999999998975, -0.5707102086268983 
1.0899999999998964, -0.571412626162269 
1.0999999999998953, -0.5718891392027416 
1.1099999999998942, -0.5721445904585643 
1.119999999999893, -0.5722021886840338 
1.129999999999892, -0.5720886303828528 
1.1399999999998909, -0.5718239412669812 
1.1499999999998898, -0.5714160872993995 
1.1599999999998887, -0.5708580073222211 
1.1699999999998876, -0.5701245618800886 
1.1799999999998865, -0.5691671527547585 
1.1899999999998854, -0.5679034311308364 
1.1999999999998843, -0.566198565227439 
1.2099999999998832, -0.5638351313555446 
1.219999999999882, -0.5604793222737208 
1.229999999999881, -0.555689175198822 
1.2399999999998799, -0.5490701627056053 
1.2499999999998788, -0.5406392961233759 
1.2599999999998777, -0.5311436407129273 
1.2699999999998766, -0.5218555051530274 
1.2799999999998755, -0.5139005536541117 
1.2899999999998744, -0.5077871732328643 
1.2999999999998733, -0.5034526235041288 
1.3099999999998722, -0.5005521224455984 
1.319999999999871, -0.498693594974022 
1.32999999999987, -0.49754614970593236 
1.3399999999998689, -0.4968649773880299 
1.3499999999998678, -0.49648109454404377 
1.3599999999998666, -0.49628242579965914 
1.3699999999998655, -0.49619649907750596 
1.3799999999998644, -0.4961774002929834 
1.3899999999998633, -0.4961969031193189 
1.3999999999998622, -0.4962390141708012 
1.4099999999998611, -0.4962971236598553 
1.41999999999986, -0.4963728789371837 
1.429999999999859, -0.4964755746387336 
1.4399999999998578, -0.4966204537630203 
1.4499999999998567, -0.49682441787749687 
1.4599999999998556, -0.49709881356498675 
1.4699999999998545, -0.49744106011582606 
1.4799999999998534, -0.49782891168295357 
1.4899999999998523, -0.4982215835199869 
1.4999999999998512, -0.49856928143838813 
1.5099999999998501, -0.49882725594886246 
1.519999999999849, -0.4989667198008257 
1.529999999999848, -0.4989772844899914 
1.5399999999998468, -0.4988618240076244 
1.5499999999998457, -0.49862849915980656 
1.5599999999998446, -0.4982838365325352 
1.5699999999998435, -0.4978280058357939 
1.5799999999998424, -0.49725146200779713 
1.5899999999998413, -0.49653126244225376 
1.5999999999998402, -0.49562473937042767 
1.6099999999998391, -0.49445688217780426 
1.619999999999838, -0.49289559209066597 
1.629999999999837, -0.49070890091079217 
1.6399999999998358, -0.48751328174018244 
1.6499999999998347, -0.4827783101900945 
1.6599999999998336, -0.4760345621277923 
1.6699999999998325, -0.467340219443089 
1.6799999999998314, -0.4576109163405319 
1.6899999999998303, -0.44825264218801913 
1.6999999999998292, -0.4403671395135037 
1.709999999999828, -0.43435131611348526 
1.719999999999827, -0.4300587416058099 
1.729999999999826, -0.4271227114532728 
1.7399999999998248, -0.42516871557292557 
1.7499999999998237, -0.42389565300018706 
1.7599999999998226, -0.4230859681357445 
1.7699999999998215, -0.4225909171524531 
1.7799999999998204, -0.4223121781040546 
1.7899999999998193, -0.4221867259004147 
1.7999999999998182, -0.42217612064519433 
1.809999999999817, -0.4222596018667142 
1.819999999999816, -0.42243007236960006 
1.8299999999998149, -0.42269206985622987 
1.8399999999998138, -0.4230607165665964 
1.8499999999998127, -0.42356028692280595 
1.8599999999998116, -0.4242205784627444 
1.8699999999998105, -0.4250691210600199 
1.8799999999998094, -0.4261181208289842 
1.8899999999998083, -0.42734793887266403 
1.8999999999998072, -0.4286943320506767 
1.909999999999806, -0.4300513308732949 
1.919999999999805, -0.4312968264160156 
1.9299999999998039, -0.4323304988846834 
1.9399999999998028, -0.43310020999168664 
1.9499999999998017, -0.43360233061159326 
1.9599999999998006, -0.4338630222543885 
1.9699999999997995, -0.43391650562566786 
1.9799999999997984, -0.4337897591845924 
1.9899999999997973, -0.4334940859768787 
1.9999999999997962, -0.43302002908389864 
2.0099999999998173, -0.43233214877344645 
2.0199999999998384, -0.4313617340357269 
2.0299999999998595, -0.42999831807839417 
2.0399999999998806, -0.42808674050961965 
2.0499999999999017, -0.42544681759109554 
2.059999999999923, -0.42193965932641664 
2.069999999999944, -0.41758097914530456 
2.079999999999965, -0.4126300512382602 
2.089999999999986, -0.40754248476285315 
2.100000000000007, -0.4027850755334703 
2.1100000000000283, -0.3986631165980139 
2.1200000000000494, -0.3952780417089272 
2.1300000000000705, -0.39258763777858235 
2.1400000000000916, -0.3904858176339558 
2.1500000000001127, -0.3888570364341778 
2.160000000000134, -0.38760194634230194 
2.170000000000155, -0.3866451803356662 
2.180000000000176, -0.3859350981628271 
2.190000000000197, -0.38544118204730954 
2.2000000000002182, -0.38515175726834894 
2.2100000000002393, -0.38507315510526385 
2.2200000000002604, -0.38523079516037423 
2.2300000000002815, -0.385672453458057 
2.2400000000003026, -0.3864738245528306 
2.2500000000003237, -0.38774594023360426 
2.260000000000345, -0.38964229862985583 
2.270000000000366, -0.39235929553451704 
2.280000000000387, -0.39611516053477036 
2.290000000000408, -0.4010821490082626 
2.3000000000004293, -0.40725131716957536 
2.3100000000004504, -0.4142686666290552 
2.3200000000004715, -0.42139913483403896 
2.3300000000004926, -0.4277798617304073 
2.3400000000005137, -0.432831107962694 
2.3500000000005348, -0.43644917625967095 
2.360000000000556, -0.43886595942627543 
2.370000000000577, -0.4404092637596831 
2.380000000000598, -0.44135966134075577 
2.390000000000619, -0.44191371802240226 
2.4000000000006403, -0.44219576383427145 
2.4100000000006614, -0.4422789257406488 
2.4200000000006825, -0.44220182376354644 
2.4300000000007036, -0.4419794433726897 
2.4400000000007247, -0.44161029696724174 
2.450000000000746, -0.4410827068242553 
2.460000000000767, -0.44038293702646464 
2.470000000000788, -0.4395066246844988 
2.480000000000809, -0.43847142699782937 
2.49000000000083, -0.4373240684052709 
2.5000000000008513, -0.4361343436313233 
2.5100000000008724, -0.4349764112216108 
2.5200000000008935, -0.43390785219222394 
2.5300000000009146, -0.43295806413418364 
2.5400000000009357, -0.43212923262733793 
2.550000000000957, -0.43140534180810874 
2.560000000000978, -0.4307629872555789 
2.570000000000999, -0.43017992190884236 
2.58000000000102, -0.42964000182154943 
2.5900000000010412, -0.42913516695659065 
2.6000000000010624, -0.42866601914442815 
2.6100000000010835, -0.4282426051959377 
2.6200000000011046, -0.42788666299250694 
2.6300000000011257, -0.42763631520143963 
2.6400000000011468, -0.4275541559048916 
2.650000000001168, -0.4277396261000506 
2.660000000001189, -0.4283456936963998 
2.67000000000121, -0.42959609869193666 
2.680000000001231, -0.43178854474391926 
2.6900000000012523, -0.435246231829987 
2.7000000000012734, -0.44015466735528735 
2.7100000000012945, -0.44626101394273254 
2.7200000000013156, -0.4526413551749558 
2.7300000000013367, -0.45799743734918386 
2.740000000001358, -0.461503559328721 
2.750000000001379, -0.46328810080494887 
2.7600000000014, -0.4640232944695778 
2.770000000001421, -0.46431233311679926 
2.780000000001442, -0.4644740698990072 
2.7900000000014633, -0.46461792678341174 
2.8000000000014844, -0.46475891807397157 
2.8100000000015055, -0.46488434356167324 
2.8200000000015266, -0.46497946301847104 
2.8300000000015477, -0.4650336285218259 
2.840000000001569, -0.4650397723590632 
2.85000000000159, -0.4649926965376032 
2.860000000001611, -0.46488810338856384 
2.870000000001632, -0.4647230534675243 
2.8800000000016532, -0.46449802555748143 
2.8900000000016743, -0.4642200850151915 
2.9000000000016954, -0.4639055706438617 
2.9100000000017165, -0.46357985651405154 
2.9200000000017377, -0.46327247866249577 
2.9300000000017588, -0.46300858984936016 
2.94000000000178, -0.46280042659308124 
2.950000000001801, -0.4626429172259889 
2.960000000001822, -0.46251555314407744 
2.970000000001843, -0.46238960977170035 
2.9800000000018643, -0.4622371967156641 
2.9900000000018854, -0.46203794075904625 
3.0000000000019065, -0.4617810628895981 
3.0100000000019276, -0.4614636108059914 
3.0200000000019487, -0.4610872202317854 
3.03000000000197, -0.4606554271704053 
3.040000000001991, -0.4601724125644121 
3.050000000002012, -0.45964317887583384 
3.060000000002033, -0.45907460817190227 
3.070000000002054, -0.4584759570707632 
3.0800000000020753, -0.45785485143951404 
3.0900000000020964, -0.45719903228823544 
3.1000000000021175, -0.4564252639279479 
3.1100000000021386, -0.45527882657066343 
3.1200000000021597, -0.45322819281049087 
3.130000000002181, -0.44955774957098943 
3.140000000002202, -0.4438857848891077 
3.150000000002223, -0.43676293552561357 
3.160000000002244, -0.4294928086315536 
3.1700000000022652, -0.4232483440479358 
3.1800000000022863, -0.41851900805239506 
3.1900000000023074, -0.41522447175694605 
3.2000000000023285, -0.4130481489789585 
3.2100000000023496, -0.411659850858785 
3.2200000000023707, -0.4107983086710342 
3.230000000002392, -0.4102799103725269 
3.240000000002413, -0.4099831997005981 
3.250000000002434, -0.4098307432766254 
3.260000000002455, -0.40977484540896114 
3.2700000000024763, -0.409787868861579 
3.2800000000024974, -0.40985635396848374 
3.2900000000025185, -0.4099779311880414 
3.3000000000025396, -0.41016004265849604 
3.3100000000025607, -0.4104193222185186 
3.3200000000025818, -0.41078012470199976 
3.330000000002603, -0.41127044918398925 
3.340000000002624, -0.4119138466925742 
3.350000000002645, -0.4127173243700125 
3.360000000002666, -0.4136581891296328 
3.3700000000026873, -0.41467681177404686 
3.3800000000027084, -0.41568389806197975 
3.3900000000027295, -0.41658413782516995 
3.4000000000027506, -0.4173046390987712 
3.4100000000027717, -0.41781072729804675 
3.420000000002793, -0.41810226824302654 
3.430000000002814, -0.4181981824678819 
3.440000000002835, -0.41812032397650406 
3.450000000002856, -0.417882115856976 
3.460000000002877, -0.4174813853533671 
3.4700000000028983, -0.41689449512874505 
3.4800000000029194, -0.4160690321080153 
3.4900000000029405, -0.4149137800398128 
3.5000000000029616, -0.41328831456915216 
3.5100000000029827, -0.41100306725623426 
3.520000000003004, -0.4078544205846978 
3.530000000003025, -0.4037222534392896 
3.540000000003046, -0.3987093800759751 
3.550000000003067, -0.39320650720815425 
3.5600000000030882, -0.3877675252862815 
3.5700000000031094, -0.3828696822245508 
3.5800000000031305, -0.37876114647250125 
3.5900000000031516, -0.37547217416354534 
3.6000000000031727, -0.3729080928219103 
3.6100000000031938, -0.37093406565689985 
3.620000000003215, -0.36942256341540436 
3.630000000003236, -0.3682714488966062 
3.640000000003257, -0.3674068774587065 
3.650000000003278, -0.3667806032540277 
3.6600000000032993, -0.3663664752961036 
3.6700000000033204, -0.36615813323690405 
3.6800000000033415, -0.3661686817970304 
3.6900000000033626, -0.366432709175471 
3.7000000000033837, -0.36701091383688467 
3.710000000003405, -0.3679974064118439 
3.720000000003426, -0.3695288691379376 
3.730000000003447, -0.37179202720642435 
3.740000000003468, -0.37501930487171015 
3.750000000003489, -0.37945057059667364 
3.7600000000035103, -0.38522817531776943 
3.7700000000035314, -0.39221540078975103 
3.7800000000035525, -0.3998354534798191 
3.7900000000035736, -0.4071568339631413 
3.8000000000035947, -0.4133114336869658 
3.810000000003616, -0.4179059962047756 
3.820000000003637, -0.42104713101268204 
3.830000000003658, -0.4230796189917709 
3.840000000003679, -0.4243519898958502 
3.8500000000037002, -0.4251241507329103 
3.8600000000037213, -0.4255649905949223 
3.8700000000037424, -0.4257766104713391 
3.8800000000037635, -0.425817104383019 
3.8900000000037847, -0.4257159964667475 
3.9000000000038058, -0.4254838748854728 
3.910000000003827, -0.4251191358277847 
3.920000000003848, -0.42461457300581323 
3.930000000003869, -0.4239657515756898 
3.94000000000389, -0.4231810624874107 
3.9500000000039113, -0.42228988333479867 
3.9600000000039324, -0.4213428576117382 
3.9700000000039535, -0.4204011698509313 
3.9800000000039746, -0.4195194218900576 
3.9900000000039957, -0.41873164460128365 
4.000000000004016, -0.41804682707373375 
4.010000000003993, -0.41745349212511884 
4.02000000000397, -0.41692885454875767 
4.030000000003946, -0.41644801790801944 
4.040000000003923, -0.41599039969692886 
4.0500000000039, -0.41554266276079754 
4.0600000000038765, -0.4150991007834084 
4.070000000003853, -0.41466113918235364 
4.08000000000383, -0.4142374404089858 
4.090000000003807, -0.4138456170308613 
4.100000000003783, -0.4135162072303725 
4.11000000000376, -0.41329932234204875 
4.120000000003737, -0.41327361154865694 
4.130000000003713, -0.41355432835053196 
4.14000000000369, -0.4142890979856008 
4.150000000003667, -0.4156126826106899 
4.1600000000036434, -0.41751352385795826 
4.17000000000362, -0.4196028083247046 
4.180000000003597, -0.42098229178991586 
4.1900000000035735, -0.4206385848407517 
4.20000000000355, -0.41831604831793506 
4.210000000003527, -0.41482413919552175 
4.220000000003504, -0.41130185894865623 
4.23000000000348, -0.4084501805252933 
4.240000000003457, -0.40642970049023425 
4.250000000003434, -0.40511283210443383 
4.26000000000341, -0.4043013668241575 
4.270000000003387, -0.40382305363313337 
4.280000000003364, -0.4035537786537353 
4.2900000000033405, -0.40341167090924984 
4.300000000003317, -0.403345408253642 
4.310000000003294, -0.4033242160045873 
4.320000000003271, -0.40333108179265764 
4.330000000003247, -0.4033588997991296 
4.340000000003224, -0.40340886437872125 
4.350000000003201, -0.4034902696603885 
4.360000000003177, -0.4036205395964365 
4.370000000003154, -0.40382391224448166 
4.380000000003131, -0.40412718918203694 
4.390000000003107, -0.40455178318664753 
4.400000000003084, -0.4051030319331398 
4.410000000003061, -0.40576019275959146 
4.4200000000030375, -0.40647292338673396 
4.430000000003014, -0.4071696909577066 
4.440000000002991, -0.4077772408281429 
4.450000000002968, -0.40824112467434326 
4.460000000002944, -0.40853544831632227 
4.470000000002921, -0.4086587092064896 
4.480000000002898, -0.4086219116693844 
4.490000000002874, -0.40843647676189504 
4.500000000002851, -0.4081051835102091 
4.510000000002828, -0.4076153508972128 
4.520000000002804, -0.40693179220096215 
4.530000000002781, -0.4059870288971038 
4.540000000002758, -0.4046674812611233 
4.5500000000027345, -0.40279868126567386 
4.560000000002711, -0.4001442270296657 
4.570000000002688, -0.39645286210956543 
4.580000000002665, -0.39159102980624916 
4.590000000002641, -0.3857245369069514 
4.600000000002618, -0.37937895767890906 
4.610000000002595, -0.37324127752896996 
4.620000000002571, -0.36784867058320053 
4.630000000002548, -0.36343381099403665 
4.640000000002525, -0.35997756721823465 
4.6500000000025015, -0.3573363477852292 
4.660000000002478, -0.35533958185327047 
4.670000000002455, -0.3538370882041409 
4.6800000000024315, -0.3527133791524617 
4.690000000002408, -0.3518870707588962 
4.700000000002385, -0.35130586057623253 
4.710000000002362, -0.35094168847458984 
4.720000000002338, -0.3507877661876534 
4.730000000002315, -0.35085801755566437 
4.740000000002292, -0.3511891604152826 
4.750000000002268, -0.3518456116947533 
4.760000000002245, -0.3529271594172033 
4.770000000002222, -0.35457823926707877 
4.7800000000021985, -0.35699433290199856 
4.790000000002175, -0.3604132635800098 
4.800000000002152, -0.3650660600029112 
4.810000000002129, -0.37105406515182554 
4.820000000002105, -0.3781564608447038 
4.830000000002082, -0.3857000744314664 
4.840000000002059, -0.3927253044806826 
4.850000000002035, -0.3984492567735865 
4.860000000002012, -0.4026110969244999 
4.870000000001989, -0.40540275323996744 
