t, s[1].omega / s[0].omega 
0, -1.169991177578424 
0.009999999999999995, -1.168969820720061 
0.019999999999999934, -1.1676735286196833 
0.029999999999999874, -1.1661033105426164 
0.04000000000000012, -1.1642604853228458 
0.050000000000000405, -1.1621467527239209 
0.06000000000000069, -1.159764289824676 
0.07000000000000098, -1.1571158676313391 
0.08000000000000126, -1.1542049824158485 
0.09000000000000155, -1.15103599597863 
0.10000000000000184, -1.147614279088276 
0.11000000000000212, -1.143946352671151 
0.12000000000000241, -1.1400400217947633 
0.130000000000002, -1.1359044979904864 
0.1400000000000009, -1.1315505058961837 
0.1499999999999998, -1.1269903705115372 
0.1599999999999987, -1.1222380815474573 
0.1699999999999976, -1.117309331471656 
0.1799999999999965, -1.1122215240070297 
0.1899999999999954, -1.1069937501547222 
0.1999999999999943, -1.1016467294107286 
0.2099999999999932, -1.0962027148068452 
0.2199999999999921, -1.0906853617490684 
0.229999999999991, -1.0851195622774459 
0.2399999999999899, -1.0795312481690615 
0.2499999999999888, -1.0739471680146686 
0.2599999999999877, -1.068394644746198 
0.2699999999999866, -1.0629013208166138 
0.2799999999999855, -1.057494898144173 
0.2899999999999844, -1.052202878958104 
0.2999999999999833, -1.0470523119014339 
0.3099999999999822, -1.042069545394826 
0.3199999999999811, -1.0372799877089718 
0.32999999999998, -1.0327078708752544 
0.3399999999999789, -1.0283760139324707 
0.3499999999999778, -1.0243055804349162 
0.35999999999997667, -1.0205158258643876 
0.36999999999997557, -1.0170238326343275 
0.37999999999997447, -1.013844233576342 
0.38999999999997337, -1.0109889287888982 
0.39999999999997227, -1.0084668049841112 
0.40999999999997117, -1.0062834703869952 
0.41999999999997006, -1.004441021218573 
0.42999999999996896, -1.002937857313496 
0.43999999999996786, -1.0017685641327756 
0.44999999999996676, -1.0009238762037167 
0.45999999999996566, -1.0003907329722321 
0.46999999999996456, -1.0001524325497002 
0.47999999999996346, -1.0001888824384118 
0.48999999999996235, -1.000476939713371 
0.49999999999996125, -1.000990827044123 
0.5099999999999602, -1.0017026060142356 
0.519999999999959, -1.0025826859426494 
0.529999999999958, -1.003600345120535 
0.5399999999999568, -1.0047242420974136 
0.5499999999999557, -1.0059228971943925 
0.5599999999999546, -1.0071651284112 
0.5699999999999535, -1.008420430820165 
0.5799999999999524, -1.009659293844702 
0.5899999999999513, -1.0108534559622506 
0.5999999999999502, -1.0119761008896202 
0.6099999999999491, -1.0130020028558406 
0.619999999999948, -1.0139076309294288 
0.6299999999999469, -1.0146712234587976 
0.6399999999999458, -1.0152728435369385 
0.6499999999999447, -1.015694425139033 
0.6599999999999436, -1.0159198174016681 
0.6699999999999425, -1.0159348316663388 
0.6799999999999414, -1.015727292688382 
0.6899999999999403, -1.0152870921311603 
0.6999999999999392, -1.0146062394504707 
0.7099999999999381, -1.0136789028423892 
0.719999999999937, -1.0125014313602505 
0.7299999999999359, -1.011072348817039 
0.7399999999999348, -1.0093923107924399 
0.7499999999999337, -1.0074640179463428 
0.7599999999999326, -1.0052920817497388 
0.7699999999999315, -1.0028828423926297 
0.7799999999999304, -1.0002441426249373 
0.7899999999999293, -0.997385065183462 
0.7999999999999282, -0.9943156448152003 
0.8099999999999271, -0.9910465683533388 
0.819999999999926, -0.9875888775856361 
0.8299999999999249, -0.9839536896735236 
0.8399999999999238, -0.980151948684925 
0.8499999999999227, -0.9761942195775418 
0.8599999999999216, -0.9720905329889927 
0.8699999999999205, -0.9678502857801792 
0.8799999999999194, -0.9634821987653254 
0.8899999999999183, -0.9589943297391089 
0.8999999999999172, -0.9543941370120919 
0.9099999999999161, -0.9496885863536126 
0.919999999999915, -0.944884292606921 
0.9299999999999139, -0.939987686308094 
0.9399999999999128, -0.9350051953740401 
0.9499999999999117, -0.9299434322462256 
0.9599999999999106, -0.9248093776736386 
0.9699999999999095, -0.9196105534600161 
0.9799999999999084, -0.9143551778496464 
0.9899999999999073, -0.9090522986533223 
0.9999999999999062, -0.9037119006092056 
1.0099999999999052, -0.8983449847465138 
1.019999999999904, -0.8929636186179298 
1.029999999999903, -0.8875809571656367 
1.039999999999902, -0.8822112346901065 
1.0499999999999008, -0.8768697289258505 
1.0599999999998997, -0.8715726986329724 
1.0699999999998986, -0.8663372964304248 
1.0799999999998975, -0.861181458865423 
1.0899999999998964, -0.8561237759628687 
1.0999999999998953, -0.8511833427451811 
1.1099999999998942, -0.8463795954591884 
1.119999999999893, -0.8417321354833642 
1.129999999999892, -0.8372605440979823 
1.1399999999998909, -0.8329841914610361 
1.1499999999998898, -0.8289220432231043 
1.1599999999998887, -0.8250924682184337 
1.1699999999998876, -0.8215130505786103 
1.1799999999998865, -0.8182004094295381 
1.1899999999998854, -0.8151700290610713 
1.1999999999998843, -0.8124361021183353 
1.2099999999998832, -0.8100113879763666 
1.219999999999882, -0.8079070880498656 
1.229999999999881, -0.8061327393815132 
1.2399999999998799, -0.8046961274668119 
1.2499999999998788, -0.8036032189268113 
1.2599999999998777, -0.8028581143425241 
1.2699999999998766, -0.8024630213196084 
1.2799999999998755, -0.8024182476560295 
1.2899999999998744, -0.8027222143305981 
1.2999999999998733, -0.8033714879041638 
1.3099999999998722, -0.8043608318132769 
1.319999999999871, -0.8056832759233845 
1.32999999999987, -0.8073302035814688 
1.3399999999998689, -0.8092914552556854 
1.3499999999998678, -0.8115554476654218 
1.3599999999998666, -0.814109307087245 
1.3699999999998655, -0.8169390152735602 
1.3799999999998644, -0.8200295661489774 
1.3899999999998633, -0.823365131165744 
1.3999999999998622, -0.8269292309177361 
1.4099999999998611, -0.8307049103469863 
1.41999999999986, -0.8346749146411743 
1.429999999999859, -0.8388218627265054 
1.4399999999998578, -0.8431284151164309 
1.4499999999998567, -0.847577432787874 
1.4599999999998556, -0.8521521237255774 
1.4699999999998545, -0.8568361738029567 
1.4799999999998534, -0.861613858756251 
1.4899999999998523, -0.8664701341623677 
1.4999999999998512, -0.8713907005588901 
1.5099999999998501, -0.8763620411626352 
1.519999999999849, -0.8813714300721539 
1.529999999999848, -0.8864069094050869 
1.5399999999998468, -0.8914572345500232 
1.5499999999998457, -0.8965117876268718 
1.5599999999998446, -0.901560460362977 
1.5699999999998435, -0.9065935089014208 
1.5799999999998424, -0.9116013845395281 
1.5899999999998413, -0.9165745460004029 
1.5999999999998402, -0.9215032604924309 
1.6099999999998391, -0.9263774024077793 
1.619999999999838, -0.9311862599238202 
1.629999999999837, -0.9359183608547784 
1.6399999999998358, -0.9405613296976849 
1.6499999999998347, -0.9451017877704511 
1.6599999999998336, -0.9495253075100429 
1.6699999999998325, -0.9538164302804649 
1.6799999999998314, -0.9579587543876207 
1.6899999999998303, -0.9619350964491042 
1.6999999999998292, -0.9657277249657824 
1.709999999999828, -0.9693186601519 
1.719999999999827, -0.9726900291812013 
1.729999999999826, -0.9758244614691126 
1.7399999999998248, -0.9787055049481188 
1.7499999999998237, -0.981318041989425 
1.7599999999998226, -0.9836486830540695 
1.7699999999998215, -0.9856861175122008 
1.7799999999998204, -0.9874214043064503 
1.7899999999998193, -0.9888481899625147 
1.7999999999998182, -0.9899628473600414 
1.809999999999817, -0.9907645350204192 
1.819999999999816, -0.9912551827530857 
1.8299999999998149, -0.9914394146980507 
1.8399999999998138, -0.9913244246273338 
1.8499999999998127, -0.9909198205417035 
1.8599999999998116, -0.9902374560561549 
1.8699999999998105, -0.9892912649333147 
1.8799999999998094, -0.9880971126647428 
1.8899999999998083, -0.9866726755620799 
1.8999999999998072, -0.9850373537715329 
1.909999999999806, -0.9832122203126523 
1.919999999999805, -0.9812200039643747 
1.9299999999998039, -0.979085099820668 
1.9399999999998028, -0.9768335978084117 
1.9499999999998017, -0.9744933165587337 
1.9599999999998006, -0.9720938278860812 
1.9699999999997995, -0.9696664558813819 
1.9799999999997984, -0.9672442343812392 
1.9899999999997973, -0.9648618074301345 
1.9999999999997962, -0.9625552593671605 
2.0099999999998173, -0.9603618643444879 
2.0199999999998384, -0.958319749341138 
2.0299999999998595, -0.9564674698928007 
2.0399999999998806, -0.954843503529934 
2.0499999999999017, -0.9534856719178764 
2.059999999999923, -0.9524305084674178 
2.069999999999944, -0.9517125932434827 
2.079999999999965, -0.9513638808737618 
2.089999999999986, -0.951413049452355 
2.100000000000007, -0.9518848988729827 
2.1100000000000283, -0.9527998254996127 
2.1200000000000494, -0.9541733966566701 
2.1300000000000705, -0.9560160433416847 
2.1400000000000916, -0.9583328832316929 
2.1500000000001127, -0.9611236789892276 
2.160000000000134, -0.9643829296562041 
2.170000000000155, -0.9681000861413788 
2.180000000000176, -0.972259875990874 
2.190000000000197, -0.9768427182041917 
2.2000000000002182, -0.981825206092514 
2.2100000000002393, -0.9871806351692426 
2.2200000000002604, -0.9928795537331372 
2.2300000000002815, -0.9988903159085597 
2.2400000000003026, -1.005179620076493 
2.2500000000003237, -1.0117130194210444 
2.260000000000345, -1.0184553952700701 
2.270000000000366, -1.0253713876085 
2.280000000000387, -1.0324257802623689 
2.290000000000408, -1.0395838405869324 
2.3000000000004293, -1.0468116149755318 
2.3100000000004504, -1.0540761821956053 
2.3200000000004715, -1.061345866613452 
2.3300000000004926, -1.0685904130109616 
2.3400000000005137, -1.0757811241653776 
2.3500000000005348, -1.0828909618769265 
2.360000000000556, -1.0898946118583432 
2.370000000000577, -1.0967685129483544 
2.380000000000598, -1.103490851512485 
2.390000000000619, -1.110041522623488 
2.4000000000006403, -1.1164020606000322 
2.4100000000006614, -1.1225555426286573 
2.4200000000006825, -1.1284864703915496 
2.4300000000007036, -1.1341806357616888 
2.4400000000007247, -1.1396249776033955 
2.450000000000746, -1.1448074374339618 
2.460000000000767, -1.1497168220743945 
2.470000000000788, -1.1543426813691535 
2.480000000000809, -1.158675208528302 
2.49000000000083, -1.1627051696077495 
2.5000000000008513, -1.1664238670977174 
2.5100000000008724, -1.169823140586147 
2.5200000000008935, -1.1728954051076927 
2.5300000000009146, -1.1756337252419533 
2.5400000000009357, -1.1780319204983123 
2.550000000000957, -1.1800846952629795 
2.560000000000978, -1.1817877848345095 
2.570000000000999, -1.1831381080551575 
2.58000000000102, -1.1841339169073337 
2.5900000000010412, -1.1847749342390061 
2.6000000000010624, -1.1850624724428758 
2.6100000000010835, -1.1849995282554677 
2.6200000000011046, -1.1845908515765116 
2.6300000000011257, -1.183842988983531 
2.6400000000011468, -1.1827643050620034 
2.650000000001168, -1.1813649864528337 
2.660000000001189, -1.1796570343827077 
2.67000000000121, -1.1776542512503856 
2.680000000001231, -1.175372225588263 
2.6900000000012523, -1.1728283175340435 
2.7000000000012734, -1.1700416440871095 
2.7100000000012945, -1.1670330602455656 
2.7200000000013156, -1.1638251290523844 
2.7300000000013367, -1.16044207108671 
2.740000000001358, -1.1569096824707852 
2.750000000001379, -1.1532552104080545 
2.7600000000014, -1.1495071768765508 
2.770000000001421, -1.1456951444313355 
2.780000000001442, -1.1418494229303928 
2.7900000000014633, -1.1380007219268449 
2.8000000000014844, -1.1341797597498913 
2.8100000000015055, -1.1304168460315707 
2.8200000000015266, -1.1267414586802953 
2.8300000000015477, -1.1231818382258196 
2.840000000001569, -1.1197646215242385 
2.85000000000159, -1.1165145329052406 
2.860000000001611, -1.113454144353438 
2.870000000001632, -1.110603708097099 
2.8800000000016532, -1.107981056232614 
2.8900000000016743, -1.1056015540904132 
2.9000000000016954, -1.1034780882117694 
2.9100000000017165, -1.1016210670153221 
2.9200000000017377, -1.1000384129774776 
2.9300000000017588, -1.098735529370729 
2.94000000000178, -1.0977152316945824 
2.950000000001801, -1.096977642842904 
2.960000000001822, -1.0965200604382495 
2.970000000001843, -1.0963368131994977 
2.9800000000018643, -1.096419129391449 
2.9900000000018854, -1.0967550433550468 
3.0000000000019065, -1.097329365332868 
3.0100000000019276, -1.0981237353457414 
3.0200000000019487, -1.099116774359504 
3.03000000000197, -1.1002843364846329 
3.040000000001991, -1.1015998558400617 
3.050000000002012, -1.1030347724093503 
3.060000000002033, -1.1045590139703048 
3.070000000002054, -1.1061415068644327 
3.0800000000020753, -1.1077506873752418 
3.0900000000020964, -1.1093549876756605 
3.1000000000021175, -1.1109232751131355 
3.1100000000021386, -1.1124252301524853 
3.1200000000021597, -1.1138316555886947 
3.130000000002181, -1.1151147167104523 
3.140000000002202, -1.116248118145172 
3.150000000002223, -1.1172072275985145 
3.160000000002244, -1.1179691593365346 
3.1700000000022652, -1.1185128310157626 
3.1800000000022863, -1.1188190065167647 
3.1900000000023074, -1.1188703350956029 
3.2000000000023285, -1.1186513938407754 
3.2100000000023496, -1.118148736560976 
3.2200000000023707, -1.1173509482902488 
3.230000000002392, -1.1162487010197073 
3.240000000002413, -1.1148348034375275 
3.250000000002434, -1.1131042356921177 
3.260000000002455, -1.1110541596894201 
3.2700000000024763, -1.1086838962621954 
3.2800000000024974, -1.1059948626232265 
3.2900000000025185, -1.102990466601372 
3.3000000000025396, -1.0996759578960897 
3.3100000000025607, -1.0960582405248773 
3.3200000000025818, -1.092145654306881 
3.330000000002603, -1.0879477361949237 
3.340000000002624, -1.0834749742088998 
3.350000000002645, -1.0787385674508334 
3.360000000002666, -1.073750205170086 
3.3700000000026873, -1.0685218762196438 
3.3800000000027084, -1.063065717741292 
3.3900000000027295, -1.0573939088502926 
3.4000000000027506, -1.0515186117923827 
3.4100000000027717, -1.0454519598294232 
3.420000000002793, -1.0392060882322398 
3.430000000002814, -1.032793202404728 
3.440000000002835, -1.0262256754377097 
3.450000000002856, -1.01951616632647 
3.460000000002877, -1.0126777496533141 
3.4700000000028983, -1.0057240476620792 
3.4800000000029194, -0.9986693562341598 
3.4900000000029405, -0.9915287572027303 
3.5000000000029616, -0.984318210602974 
3.5100000000029827, -0.9770546217518019 
3.520000000003004, -0.9697558793979801 
3.530000000003025, -0.9624408625182399 
3.540000000003046, -0.9551294146085467 
3.550000000003067, -0.9478422854977321 
3.5600000000030882, -0.9406010417676922 
3.5700000000031094, -0.9334279477812985 
3.5800000000031305, -0.9263458200810947 
3.5900000000031516, -0.9193778585179813 
3.6000000000031727, -0.9125474578937507 
3.6100000000031938, -0.9058780041561774 
3.620000000003215, -0.8993926592809153 
3.630000000003236, -0.8931141389313402 
3.640000000003257, -0.8870644868351055 
3.650000000003278, -0.8812648495909375 
3.6600000000032993, -0.8757352553599601 
3.6700000000033204, -0.8704943996393231 
3.6800000000033415, -0.865559441091991 
3.6900000000033626, -0.8609458102340956 
3.7000000000033837, -0.8566670336657577 
3.710000000003405, -0.8527345764643831 
3.720000000003426, -0.8491577053201533 
3.730000000003447, -0.8459433749515007 
3.740000000003468, -0.8430961402582231 
3.750000000003489, -0.8406180965159038 
3.7600000000035103, -0.8385088496562745 
3.7700000000035314, -0.8367655182917166 
3.7800000000035525, -0.8353827686180566 
3.7900000000035736, -0.8343528826717834 
3.8000000000035947, -0.8336658596443351 
3.810000000003616, -0.8333095490990295 
3.820000000003637, -0.8332698140393596 
3.830000000003658, -0.8335307208925341 
3.840000000003679, -0.8340747526551086 
3.8500000000037002, -0.8348830407534104 
3.8600000000037213, -0.8359356106491628 
3.8700000000037424, -0.8372116359086077 
3.8800000000037635, -0.8386896953749441 
3.8900000000037847, -0.8403480282444926 
3.9000000000038058, -0.8421647822328324 
3.910000000003827, -0.8441182505952811 
3.920000000003848, -0.8461870944866006 
3.930000000003869, -0.8483505479448867 
3.94000000000389, -0.8505886035938337 
3.9500000000039113, -0.8528821779044442 
3.9600000000039324, -0.8552132554764027 
3.9700000000039535, -0.8575650122379646 
3.9800000000039746, -0.8599219176880858 
3.9900000000039957, -0.8622698163062976 
4.000000000004016, -0.8645959880524791 
4.010000000003993, -0.866889187516275 
4.02000000000397, -0.8691396608258716 
4.030000000003946, -0.8713391389800463 
4.040000000003923, -0.8734808059289987 
4.0500000000039, -0.8755592396014809 
4.0600000000038765, -0.8775703242480486 
4.070000000003853, -0.8795111330056112 
4.08000000000383, -0.8813797805116563 
4.090000000003807, -0.8831752466861431 
4.100000000003783, -0.8848971743861981 
4.11000000000376, -0.886545645411358 
4.120000000003737, -0.8881209411510683 
4.130000000003713, -0.8896232958604816 
4.14000000000369, -0.8910526519645762 
4.150000000003667, -0.892408427779783 
4.1600000000036434, -0.8936893084907084 
4.17000000000362, -0.8948930710478272 
4.180000000003597, -0.8960164528203105 
4.1900000000035735, -0.897055072347048 
4.20000000000355, -0.8980034084189438 
4.210000000003527, -0.8988548410782983 
4.220000000003504, -0.8996017550610608 
4.23000000000348, -0.90023570290479 
4.240000000003457, -0.9007476216125776 
4.250000000003434, -0.9011280936505637 
4.26000000000341, -0.9013676404313236 
4.270000000003387, -0.9014570345553098 
4.280000000003364, -0.9013876161610075 
4.2900000000033405, -0.9011515989036705 
4.300000000003317, -0.9007423523643965 
4.310000000003294, -0.9001546499823736 
4.320000000003271, -0.8993848746801378 
4.330000000003247, -0.8984311778976488 
4.340000000003224, -0.8972935913983882 
4.350000000003201, -0.8959740945925214 
4.360000000003177, -0.8944766429217312 
4.370000000003154, -0.892807164838825 
4.380000000003131, -0.8909735359733677 
4.390000000003107, -0.8889855391936525 
4.400000000003084, -0.8868548185433032 
4.410000000003061, -0.8845948336063568 
4.4200000000030375, -0.882220818937614 
4.430000000003014, -0.87974975099811 
4.440000000002991, -0.8772003227615546 
4.450000000002968, -0.8745929239849758 
4.460000000002944, -0.8719496232115687 
4.470000000002921, -0.8692941460078618 
4.480000000002898, -0.8666518428107446 
4.490000000002874, -0.8640496391232245 
4.500000000002851, -0.8615159606761618 
4.510000000002828, -0.8590806265676528 
4.520000000002804, -0.8567747042807801 
4.530000000002781, -0.8546303218199502 
4.540000000002758, -0.8526804339302613 
4.5500000000027345, -0.8509585413870111 
4.560000000002711, -0.8494983645602365 
4.570000000002688, -0.8483334747564225 
4.580000000002665, -0.8474968890950384 
4.590000000002641, -0.8470206367716321 
4.600000000002618, -0.8469353063815118 
4.610000000002595, -0.8472695854335216 
4.620000000002571, -0.8480498041976157 
4.630000000002548, -0.8492994965514002 
4.640000000002525, -0.8510389904920792 
4.6500000000025015, -0.8532850404573844 
4.660000000002478, -0.8560505125699789 
4.670000000002455, -0.8593441324230522 
4.6800000000024315, -0.8631703031181042 
4.690000000002408, -0.8675289990252633 
4.700000000002385, -0.8724157382551795 
4.710000000002362, -0.8778216342181976 
4.720000000002338, -0.8837335240215346 
4.730000000002315, -0.890134168945116 
4.740000000002292, -0.8970025199660489 
4.750000000002268, -0.9043140393831675 
4.760000000002245, -0.9120410681172111 
4.770000000002222, -0.9201532272880334 
4.7800000000021985, -0.9286178422190791 
4.790000000002175, -0.9374003770728399 
4.800000000002152, -0.9464648688247543 
4.810000000002129, -0.9557743501550269 
4.820000000002105, -0.9652912519810029 
4.830000000002082, -0.9749777776691332 
4.840000000002059, -0.984796242369659 
4.850000000002035, -0.9947093723462478 
4.860000000002012, -1.0046805605920086 
4.870000000001989, -1.0146740764250652 
4.880000000001965, -1.0246552281547552 
4.890000000001942, -1.034590479328155 
4.900000000001919, -1.0444475205292625 
4.9100000000018955, -1.054195300219526 
4.920000000001872, -1.0638040196644192 
4.930000000001849, -1.0732450985419786 
