t, s[1].omega / s[0].omega 
0, -1.0800064922540775 
0.009999999999999995, -1.0805359876781844 
0.019999999999999934, -1.0808210172309738 
0.029999999999999874, -1.0808636323954097 
0.04000000000000012, -1.08068312865487 
0.050000000000000405, -1.0803135235075643 
0.06000000000000069, -1.079800783692141 
0.07000000000000098, -1.0792025944898733 
0.08000000000000126, -1.0785897781084914 
0.09000000000000155, -1.0780440629799217 
0.10000000000000184, -1.07764667451521 
0.11000000000000212, -1.0774590590191573 
0.12000000000000241, -1.0775057100068683 
0.130000000000002, -1.0777690471861234 
0.1400000000000009, -1.0781973693618316 
0.1499999999999998, -1.0787199299403063 
0.1599999999999987, -1.0792626230757814 
0.1699999999999976, -1.0797597127613838 
0.1799999999999965, -1.080159616519205 
0.1899999999999954, -1.0804256243062897 
0.1999999999999943, -1.080533881432709 
0.2099999999999932, -1.0804706501086832 
0.2199999999999921, -1.0802302234880017 
0.229999999999991, -1.0798144218505248 
0.2399999999999899, -1.0792337822461742 
0.2499999999999888, -1.078509657119669 
0.2599999999999877, -1.0776763532771478 
0.2699999999999866, -1.0767826605128152 
0.2799999999999855, -1.0758913569448714 
0.2899999999999844, -1.0750741935798156 
0.2999999999999833, -1.0744009193477286 
0.3099999999999822, -1.0739244704433435 
0.3199999999999811, -1.0736673029581127 
0.32999999999998, -1.0736140620284629 
0.3399999999999789, -1.0737144427756218 
0.3499999999999778, -1.073896305965945 
0.35999999999997667, -1.0740828761896453 
0.36999999999997557, -1.0742055548243261 
0.37999999999997447, -1.0742089779543458 
0.38999999999997337, -1.0740512781685319 
0.39999999999997227, -1.0737038179629055 
0.40999999999997117, -1.0731517491209108 
0.41999999999997006, -1.0723940197401 
0.42999999999996896, -1.071441718647729 
0.43999999999996786, -1.07031588335915 
0.44999999999996676, -1.0690469503911593 
0.45999999999996566, -1.0676766759952316 
0.46999999999996456, -1.0662611546276186 
0.47999999999996346, -1.0648720982196158 
0.48999999999996235, -1.0635931717898555 
0.49999999999996125, -1.0625089567650499 
0.5099999999999602, -1.061686418489565 
0.519999999999959, -1.0611535320807184 
0.529999999999958, -1.0608859224401674 
0.5399999999999568, -1.0608123643383491 
0.5499999999999557, -1.060837602340583 
0.5599999999999546, -1.0608672516008366 
0.5699999999999535, -1.060820875628539 
0.5799999999999524, -1.0606321336142193 
0.5899999999999513, -1.0602439637523016 
0.5999999999999502, -1.0596068575308772 
0.6099999999999491, -1.058683363399774 
0.619999999999948, -1.0574561631710844 
0.6299999999999469, -1.055933750517395 
0.6399999999999458, -1.0541498441392951 
0.6499999999999447, -1.052158514689276 
0.6599999999999436, -1.0500303019325858 
0.6699999999999425, -1.0478521472979812 
0.6799999999999414, -1.045728856047929 
0.6899999999999403, -1.043780086885239 
0.6999999999999392, -1.04212623600521 
0.7099999999999381, -1.040860781635868 
0.719999999999937, -1.0400176860009989 
0.7299999999999359, -1.0395542684358694 
0.7399999999999348, -1.0393656794389234 
0.7499999999999337, -1.039322788906 
0.7599999999999326, -1.0393070301986376 
0.7699999999999315, -1.0392241629747545 
0.7799999999999304, -1.0389990783238703 
0.7899999999999293, -1.0385638214742845 
0.7999999999999282, -1.0378496003987285 
0.8099999999999271, -1.0367888223743509 
0.819999999999926, -1.035327987327606 
0.8299999999999249, -1.0334456670573862 
0.8399999999999238, -1.0311649833970107 
0.8499999999999227, -1.028553430412535 
0.8599999999999216, -1.0257132042666126 
0.8699999999999205, -1.0227712588626756 
0.8799999999999194, -1.0198738960279226 
0.8899999999999183, -1.0171815932899935 
0.8999999999999172, -1.0148544081811726 
0.9099999999999161, -1.0130215236211337 
0.919999999999915, -1.0117419751296641 
0.9299999999999139, -1.0109799344718862 
0.9399999999999128, -1.010616996990168 
0.9499999999999117, -1.010496958375965 
0.9599999999999106, -1.0104726641220156 
0.9699999999999095, -1.0104291868430888 
0.9799999999999084, -1.0102814601376946 
0.9899999999999073, -1.0099593983269348 
0.9999999999999062, -1.0093934086296223 
1.0099999999999052, -1.008508223541037 
1.019999999999904, -1.007229229737566 
1.029999999999903, -1.0055009669334054 
1.039999999999902, -1.0033098690925935 
1.0499999999999008, -1.0006978055891227 
1.0599999999998997, -0.997758368463191 
1.0699999999998986, -0.994621316983272 
1.0799999999998975, -0.9914372827067213 
1.0899999999998964, -0.9883683841628466 
1.0999999999998953, -0.9855797597605965 
1.1099999999998942, -0.9832225777003915 
1.119999999999893, -0.9814045744926669 
1.129999999999892, -0.9801577819008065 
1.1399999999998909, -0.9794247076423355 
1.1499999999998898, -0.9790779286200527 
1.1599999999998887, -0.9789635341319286 
1.1699999999998876, -0.9789413742266995 
1.1799999999998865, -0.9789030226612743 
1.1899999999998854, -0.9787682614753672 
1.1999999999998843, -0.9784718185235171 
1.2099999999998832, -0.9779513704929489 
1.219999999999882, -0.977143532240649 
1.229999999999881, -0.9759908088849668 
1.2399999999998799, -0.9744576397334059 
1.2499999999998788, -0.9725470620752578 
1.2599999999998777, -0.9703068222431259 
1.2699999999998766, -0.9678209094733911 
1.2799999999998755, -0.9651938796309482 
1.2899999999998744, -0.9625385757681201 
1.2999999999998733, -0.9599709481949047 
1.3099999999998722, -0.9576075245896023 
1.319999999999871, -0.9555583507259324 
1.32999999999987, -0.9539112973677403 
1.3399999999998689, -0.9527107593215762 
1.3499999999998678, -0.9519416134270283 
1.3599999999998666, -0.9515307979329943 
1.3699999999998655, -0.9513688613528617 
1.3799999999998644, -0.9513395539733157 
1.3899999999998633, -0.95134150308869 
1.3999999999998622, -0.9512949855965728 
1.4099999999998611, -0.9511377319605288 
1.41999999999986, -0.9508179616343189 
1.429999999999859, -0.9502912624876607 
1.4399999999998578, -0.949524035233941 
1.4499999999998567, -0.948501485410104 
1.4599999999998556, -0.9472340832794115 
1.4699999999998545, -0.9457566666622776 
1.4799999999998534, -0.9441202286675769 
1.4899999999998523, -0.9423823884039502 
1.4999999999998512, -0.9406023517918651 
1.5099999999998501, -0.9388411341593406 
1.519999999999849, -0.9371635902017481 
1.529999999999848, -0.9356379855443075 
1.5399999999998468, -0.9343304283517607 
1.5499999999998457, -0.9332940795908206 
1.5599999999998446, -0.9325561305324733 
1.5699999999998435, -0.9321082343873011 
1.5799999999998424, -0.9319062144478554 
1.5899999999998413, -0.9318805520645711 
1.5999999999998402, -0.9319526277208345 
1.6099999999998391, -0.9320487776436378 
1.619999999999838, -0.9321074892809573 
1.629999999999837, -0.9320806545985747 
1.6399999999998358, -0.9319327742903655 
1.6499999999998347, -0.9316410925088225 
1.6599999999998336, -0.9311966377646602 
1.6699999999998325, -0.930603858887728 
1.6799999999998314, -0.9298772098025687 
1.6899999999998303, -0.9290360816526297 
1.6999999999998292, -0.9281014143234276 
1.709999999999828, -0.9270959358842491 
1.719999999999827, -0.9260471125915034 
1.729999999999826, -0.9249904057719094 
1.7399999999998248, -0.9239706932527698 
1.7499999999998237, -0.9230404311615781 
1.7599999999998226, -0.9222538624799965 
1.7699999999998215, -0.9216578820748325 
1.7799999999998204, -0.9212819781721493 
1.7899999999998193, -0.9211308294694524 
1.7999999999998182, -0.921182632774016 
1.809999999999817, -0.9213940809923213 
1.819999999999816, -0.9217100390693036 
1.8299999999998149, -0.9220740445250962 
1.8399999999998138, -0.922436180160952 
1.8499999999998127, -0.9227570655452485 
1.8599999999998116, -0.923008583259166 
1.8699999999998105, -0.923172316880791 
1.8799999999998094, -0.923236415687912 
1.8899999999998083, -0.9231920727852373 
1.8999999999998072, -0.9230316553928416 
1.909999999999806, -0.9227499976992213 
1.919999999999805, -0.9223481195974974 
1.9299999999998039, -0.9218369258765675 
1.9399999999998028, -0.9212392043117468 
1.9499999999998017, -0.9205902410134034 
1.9599999999998006, -0.9199379283641471 
1.9699999999997995, -0.9193417459967032 
1.9799999999997984, -0.9188683740901797 
1.9899999999997973, -0.9185822921559659 
1.9999999999997962, -0.9185329826091955 
2.0099999999998173, -0.9187437765616204 
2.0199999999998384, -0.9192074701151915 
2.0299999999998595, -0.9198902137167095 
2.0399999999998806, -0.9207410302420838 
2.0499999999999017, -0.9217025038631576 
2.059999999999923, -0.9227188525161656 
2.069999999999944, -0.9237394891549175 
2.079999999999965, -0.9247182735119981 
2.089999999999986, -0.9256105741882521 
2.100000000000007, -0.926371672403374 
2.1100000000000283, -0.9269597792540735 
2.1200000000000494, -0.9273437556141365 
2.1300000000000705, -0.9275111073674578 
2.1400000000000916, -0.9274707328526292 
2.1500000000001127, -0.9272492880446712 
2.160000000000134, -0.9268853804072755 
2.170000000000155, -0.9264268299057219 
2.180000000000176, -0.925933082839378 
2.190000000000197, -0.9254805927623455 
2.2000000000002182, -0.9251655177273805 
2.2100000000002393, -0.9250970044253508 
2.2200000000002604, -0.9253781896587061 
2.2300000000002815, -0.9260808204468777 
2.2400000000003026, -0.9272262549593453 
2.2500000000003237, -0.9287825176922866 
2.260000000000345, -0.9306760977412839 
2.270000000000366, -0.9328088883873594 
2.280000000000387, -0.9350710472119592 
2.290000000000408, -0.937346679195084 
2.3000000000004293, -0.9395159257670324 
2.3100000000004504, -0.9414608236746578 
2.3200000000004715, -0.9430801858814094 
2.3300000000004926, -0.9443098229026567 
2.3400000000005137, -0.945135541627088 
2.3500000000005348, -0.9455888339998639 
2.360000000000556, -0.9457284688650246 
2.370000000000577, -0.9456207288135031 
2.380000000000598, -0.9453287056522868 
2.390000000000619, -0.9449135917580556 
2.4000000000006403, -0.944446044590233 
2.4100000000006614, -0.9440233669219014 
2.4200000000006825, -0.9437846700435557 
2.4300000000007036, -0.9439110920489563 
2.4400000000007247, -0.9445985882360525 
2.450000000000746, -0.946005407759954 
2.460000000000767, -0.9481985725370826 
2.470000000000788, -0.9511292996283617 
2.480000000000809, -0.9546458471786126 
2.49000000000083, -0.9585268053559061 
2.5000000000008513, -0.9625141546124907 
2.5100000000008724, -0.9663407215526838 
2.5200000000008935, -0.9697605454368885 
2.5300000000009146, -0.9725877734631416 
2.5400000000009357, -0.9747318495282938 
2.550000000000957, -0.9762056148918964 
2.560000000000978, -0.977097885867902 
2.570000000000999, -0.9775285841682987 
2.58000000000102, -0.9776120673447825 
2.5900000000010412, -0.9774408096998922 
2.6000000000010624, -0.9770876261018833 
2.6100000000010835, -0.976620909611956 
2.6200000000011046, -0.9761292477444943 
2.6300000000011257, -0.9757510161655697 
2.6400000000011468, -0.975696328939628 
2.650000000001168, -0.9762374063362576 
2.660000000001189, -0.9776473956114717 
2.67000000000121, -0.9801024896738962 
2.680000000001231, -0.983602585005088 
2.6900000000012523, -0.9879590178633718 
2.7000000000012734, -0.9928450640039767 
2.7100000000012945, -0.9978687363058352 
2.7200000000013156, -1.0026392771289425 
2.7300000000013367, -1.00682576423961 
2.740000000001358, -1.0102099794656738 
2.750000000001379, -1.0127177410458659 
2.7600000000014, -1.0144072132453479 
2.770000000001421, -1.0154175772102414 
2.780000000001442, -1.0159087322950855 
2.7900000000014633, -1.0160206839909962 
2.8000000000014844, -1.0158600985594413 
2.8100000000015055, -1.0155072572722494 
2.8200000000015266, -1.0150358347823734 
2.8300000000015477, -1.0145416006478452 
2.840000000001569, -1.0141746026553695 
2.85000000000159, -1.0141583452430347 
2.860000000001611, -1.0147674242971485 
2.870000000001632, -1.0162476481390719 
2.8800000000016532, -1.0187116858613705 
2.8900000000016743, -1.0220806867669223 
2.9000000000016954, -1.0261092211182818 
2.9100000000017165, -1.0304621685201831 
2.9200000000017377, -1.034790078188887 
2.9300000000017588, -1.0387803886414404 
2.94000000000178, -1.0421925360892692 
2.950000000001801, -1.0448856100391173 
2.960000000001822, -1.0468305107896874 
2.970000000001843, -1.048093549266913 
2.9800000000018643, -1.0487954685683119 
2.9900000000018854, -1.0490675217175045 
3.0000000000019065, -1.049023926553955 
3.0100000000019276, -1.0487555938697057 
3.0200000000019487, -1.0483405444638756 
3.03000000000197, -1.0478649803239473 
3.040000000001991, -1.0474479237263394 
3.050000000002012, -1.047255576786649 
3.060000000002033, -1.0474844225125035 
3.070000000002054, -1.0483036071000245 
3.0800000000020753, -1.0497841577337734 
3.0900000000020964, -1.0518664734004504 
3.1000000000021175, -1.0543875864203132 
3.1100000000021386, -1.057139179569572 
3.1200000000021597, -1.0599159983592275 
3.130000000002181, -1.0625396019334714 
3.140000000002202, -1.0648658778480518 
3.150000000002223, -1.0667898064724117 
3.160000000002244, -1.0682529689565725 
3.1700000000022652, -1.0692485741621913 
3.1800000000022863, -1.069815635355462 
3.1900000000023074, -1.070021756315607 
3.2000000000023285, -1.0699436361879233 
3.2100000000023496, -1.0696555348410517 
3.2200000000023707, -1.0692298164293679 
3.230000000002392, -1.068747061228092 
3.240000000002413, -1.068307941444895 
3.250000000002434, -1.0680343897219882 
3.260000000002455, -1.0680488033700275 
3.2700000000024763, -1.0684353059536202 
3.2800000000024974, -1.0692076587975383 
3.2900000000025185, -1.070307506175009 
3.3000000000025396, -1.0716307504747118 
3.3100000000025607, -1.0730605700910287 
3.3200000000025818, -1.0744901571614214 
3.330000000002603, -1.075831828116276 
3.340000000002624, -1.0770170266949504 
3.350000000002645, -1.0779933313109118 
3.360000000002666, -1.0787231958305674 
3.3700000000026873, -1.0791859674770594 
3.3800000000027084, -1.079380874899648 
3.3900000000027295, -1.0793271554758672 
3.4000000000027506, -1.0790602370221598 
3.4100000000027717, -1.0786270943667766 
3.420000000002793, -1.0780847882573905 
3.430000000002814, -1.0775026067680238 
3.440000000002835, -1.076962958352353 
3.450000000002856, -1.0765537180217017 
3.460000000002877, -1.076349600824638 
3.4700000000028983, -1.0763907915808895 
3.4800000000029194, -1.076672113981303 
3.4900000000029405, -1.07714818009593 
3.5000000000029616, -1.0777489428638032 
3.5100000000029827, -1.0783970762770232 
3.520000000003004, -1.0790215083288286 
3.530000000003025, -1.079564789308197 
3.540000000003046, -1.0799847409753662 
3.550000000003067, -1.0802525861538217 
3.5600000000030882, -1.0803499922341637 
3.5700000000031094, -1.0802668936579605 
3.5800000000031305, -1.080001148929637 
3.5900000000031516, -1.0795598946870144 
3.6000000000031727, -1.078961480659204 
3.6100000000031938, -1.0782371098414312 
3.620000000003215, -1.077432077733298 
3.630000000003236, -1.0766059436679551 
3.640000000003257, -1.0758291928936343 
3.650000000003278, -1.0751738540399263 
3.6600000000032993, -1.074699031299501 
3.6700000000033204, -1.074436481471531 
3.6800000000033415, -1.074381948729268 
3.6900000000033626, -1.0744956787026017 
3.7000000000033837, -1.074712557485484 
3.710000000003405, -1.0749579483030227 
3.720000000003426, -1.0751619142765396 
3.730000000003447, -1.0752668156704435 
3.740000000003468, -1.07522906403141 
3.750000000003489, -1.0750187243230993 
3.7600000000035103, -1.0746191235447249 
3.7700000000035314, -1.0740261120799874 
3.7800000000035525, -1.073246308643498 
3.7900000000035736, -1.07229521394192 
3.8000000000035947, -1.071196906603733 
3.810000000003616, -1.0699859605182744 
3.820000000003637, -1.06871045652372 
3.830000000003658, -1.0674337385599328 
3.840000000003679, -1.0662321131144767 
3.8500000000037002, -1.0651862387399242 
3.8600000000037213, -1.064365786464461 
3.8700000000037424, -1.063810234641917 
3.8800000000037635, -1.0635134368989714 
3.8900000000037847, -1.0634221936701194 
3.9000000000038058, -1.0634522917699285 
3.910000000003827, -1.0635122067915026 
3.920000000003848, -1.063520012937825 
3.930000000003869, -1.063407940019171 
3.94000000000389, -1.063119603121059 
3.9500000000039113, -1.0626077770381521 
3.9600000000039324, -1.061836929019195 
3.9700000000039535, -1.0607891785477919 
3.9800000000039746, -1.059468834275786 
3.9900000000039957, -1.057901959643943 
4.000000000004016, -1.0561323059614351 
4.010000000003993, -1.0542180677595128 
4.02000000000397, -1.0522321489389128 
4.030000000003946, -1.0502643455294742 
4.040000000003923, -1.0484205834908333 
4.0500000000039, -1.0468133962188908 
4.0600000000038765, -1.0455400609762997 
4.070000000003853, -1.044652476735897 
4.08000000000383, -1.0441343831830898 
4.090000000003807, -1.04390420922542 
4.100000000003783, -1.0438446504602694 
4.11000000000376, -1.043838206132654 
4.120000000003737, -1.04378711434765 
4.130000000003713, -1.043613644864571 
4.14000000000369, -1.0432504051725038 
4.150000000003667, -1.0426319591900306 
4.1600000000036434, -1.0416948394517114 
4.17000000000362, -1.0403876432016255 
4.180000000003597, -1.0386865980661641 
4.1900000000035735, -1.0366072398472783 
4.20000000000355, -1.034205230587656 
4.210000000003527, -1.0315683731093297 
4.220000000003504, -1.0288079991492858 
4.23000000000348, -1.0260547558034354 
4.240000000003457, -1.023455696009246 
4.250000000003434, -1.0211639116388311 
4.26000000000341, -1.019313116500034 
4.270000000003387, -1.0179800874613183 
4.280000000003364, -1.0171542660602153 
4.2900000000033405, -1.0167391416685407 
4.300000000003317, -1.0165892727711459 
4.310000000003294, -1.016557714895695 
4.320000000003271, -1.0165249398081884 
4.330000000003247, -1.0164016217393992 
4.340000000003224, -1.0161159443611643 
4.350000000003201, -1.0155989475570584 
4.360000000003177, -1.0147769120883428 
4.370000000003154, -1.0135756028170724 
4.380000000003131, -1.0119367929299297 
4.390000000003107, -1.0098403203780644 
4.400000000003084, -1.0073189344005855 
4.410000000003061, -1.00445700357419 
4.4200000000030375, -1.0013768060061383 
4.430000000003014, -0.9982238745623462 
4.440000000002991, -0.9951578313684667 
4.450000000002968, -0.992344649712672 
4.460000000002944, -0.9899408237682058 
4.470000000002921, -0.9880641810111241 
4.480000000002898, -0.9867594058095932 
4.490000000002874, -0.9859797509156862 
4.500000000002851, -0.9856028094904694 
4.510000000002828, -0.9854736737165288 
4.520000000002804, -0.9854479895501248 
4.530000000002781, -0.9854130074535681 
4.540000000002758, -0.985285545304045 
4.5500000000027345, -0.9849985931262358 
4.560000000002711, -0.9844882957432024 
4.570000000002688, -0.9836886229546963 
4.580000000002665, -0.9825372753283533 
4.590000000002641, -0.9809917939493034 
4.600000000002618, -0.9790480166131861 
4.610000000002595, -0.9767490227132694 
4.620000000002571, -0.9741786668592175 
4.630000000002548, -0.9714458766262434 
4.640000000002525, -0.9686709568473081 
4.6500000000025015, -0.9659789447157283 
4.660000000002478, -0.9634960991790613 
4.670000000002455, -0.9613418788157622 
4.6800000000024315, -0.9596116519862269 
4.690000000002408, -0.9583532992740729 
4.700000000002385, -0.9575498504186241 
4.710000000002362, -0.9571219205250074 
4.720000000002338, -0.9569520924528755 
4.730000000002315, -0.9569173882566251 
4.740000000002292, -0.9569121693125464 
4.750000000002268, -0.956854402243682 
4.760000000002245, -0.9566801571516164 
4.770000000002222, -0.9563353588693655 
4.7800000000021985, -0.9557718546428186 
4.790000000002175, -0.954950908175929 
4.800000000002152, -0.9538524453641107 
4.810000000002129, -0.9524836997044549 
4.820000000002105, -0.9508801957325455 
4.830000000002082, -0.9490978108638684 
4.840000000002059, -0.9472018928892693 
4.850000000002035, -0.9452604122110383 
4.860000000002012, -0.9433429611126185 
4.870000000001989, -0.9415222670414775 
4.880000000001965, -0.9398734311741421 
4.890000000001942, -0.9384676515775515 
4.900000000001919, -0.9373602055263367 
4.9100000000018955, -0.9365762220533448 
4.920000000001872, -0.9361010181020409 
4.930000000001849, -0.9358815222874354 
4.940000000001826, -0.9358395712466357 
