t, s[1].omega / s[0].omega 
0, -0.5600022836188716 
0.009999999999999995, -0.5602508064452723 
0.019999999999999934, -0.560515892944102 
0.029999999999999874, -0.5607532490868008 
0.04000000000000012, -0.5609174505392228 
0.050000000000000405, -0.5609751229428973 
0.06000000000000069, -0.5609110526506227 
0.07000000000000098, -0.5607259366373502 
0.08000000000000126, -0.5604299253492433 
0.09000000000000155, -0.5600369403341943 
0.10000000000000184, -0.5595625298609278 
0.11000000000000212, -0.5590261403021831 
0.12000000000000241, -0.5584584251044756 
0.130000000000002, -0.5579150708480359 
0.1400000000000009, -0.5574994333092584 
0.1499999999999998, -0.5573948837543166 
0.1599999999999987, -0.5578988925339289 
0.1699999999999976, -0.5594240215682046 
0.1799999999999965, -0.5623797958318159 
0.1899999999999954, -0.5668278037642802 
0.1999999999999943, -0.5720154941413289 
0.2099999999999932, -0.5764254093192627 
0.2199999999999921, -0.5788550715187935 
0.229999999999991, -0.579435775309759 
0.2399999999999899, -0.5791886804334431 
0.2499999999999888, -0.5789522816709526 
0.2599999999999877, -0.5790097768583105 
0.2699999999999866, -0.5793067051257309 
0.2799999999999855, -0.5797050986212902 
0.2899999999999844, -0.5800956337967726 
0.2999999999999833, -0.5804159857826541 
0.3099999999999822, -0.580637429225471 
0.3199999999999811, -0.5807482849882823 
0.32999999999998, -0.5807419248945531 
0.3399999999999789, -0.5806096534461463 
0.3499999999999778, -0.5803375809871328 
0.35999999999997667, -0.5799073952446234 
0.36999999999997557, -0.5793017548702586 
0.37999999999997447, -0.5785143350644241 
0.38999999999997337, -0.5775612627876087 
0.39999999999997227, -0.5764865226254814 
0.40999999999997117, -0.5753545711856994 
0.41999999999997006, -0.5742319190275917 
0.42999999999996896, -0.5731684158072571 
0.43999999999996786, -0.5721884389499061 
0.44999999999996676, -0.5712938520231197 
0.45999999999996566, -0.5704737715665193 
0.46999999999996456, -0.5697150331083763 
0.47999999999996346, -0.5690097227872304 
0.48999999999996235, -0.5683592196562033 
0.49999999999996125, -0.567776128640879 
0.5099999999999602, -0.5672858812721427 
0.519999999999959, -0.5669292360478639 
0.529999999999958, -0.5667662218237474 
0.5399999999999568, -0.5668816364556876 
0.5499999999999557, -0.5673920133696362 
0.5599999999999546, -0.5684537290187912 
0.5699999999999535, -0.5702711330100814 
0.5799999999999524, -0.573101283313245 
0.5899999999999513, -0.5772464939651463 
0.5999999999999502, -0.583016094901203 
0.6099999999999491, -0.5906280289838233 
0.619999999999948, -0.6000295219986056 
0.6299999999999469, -0.6106881618012653 
0.6399999999999458, -0.6215446068323256 
0.6499999999999447, -0.6313367840551781 
0.6599999999999436, -0.6391630705780489 
0.6699999999999425, -0.6447998822762172 
0.6799999999999414, -0.6485521216240657 
0.6899999999999403, -0.6509109158648487 
0.6999999999999392, -0.6523191747375461 
0.7099999999999381, -0.6530954518197711 
0.719999999999937, -0.6534416500427629 
0.7299999999999359, -0.6534716734155845 
0.7399999999999348, -0.6532347535769394 
0.7499999999999337, -0.6527271535919096 
0.7599999999999326, -0.6518922246543515 
0.7699999999999315, -0.6506101919408189 
0.7799999999999304, -0.6486817857240867 
0.7899999999999293, -0.6458194737643834 
0.7999999999999282, -0.6416797712418789 
0.8099999999999271, -0.6359843332856376 
0.819999999999926, -0.628731288195554 
0.8299999999999249, -0.6203605133529354 
0.8399999999999238, -0.6116686714726369 
0.8499999999999227, -0.6034833901507269 
0.8599999999999216, -0.5963664989575127 
0.8699999999999205, -0.5905382855436293 
0.8799999999999194, -0.5859691919964065 
0.8899999999999183, -0.5825048489395572 
0.8999999999999172, -0.5799540602255047 
0.9099999999999161, -0.5781333838789229 
0.919999999999915, -0.5768838793006099 
0.9299999999999139, -0.5760744142963099 
0.9399999999999128, -0.5755998472193509 
0.9499999999999117, -0.5753778354709862 
0.9599999999999106, -0.5753456350981079 
0.9699999999999095, -0.5754572987485476 
0.9799999999999084, -0.5756814114781789 
0.9899999999999073, -0.575999422722307 
0.9999999999999062, -0.5764044174203594 
1.0099999999999052, -0.5768996619988863 
1.019999999999904, -0.5774955835513345 
1.029999999999903, -0.5782035435741592 
1.039999999999902, -0.5790256843222179 
1.0499999999999008, -0.5799427779625531 
1.0599999999998997, -0.5809057663144462 
1.0699999999998986, -0.5818387331438065 
1.0799999999998975, -0.582656787868683 
1.0899999999998964, -0.5832912923580212 
1.0999999999998953, -0.5837071231586239 
1.1099999999998942, -0.583902731383026 
1.119999999999893, -0.5838973213086343 
1.129999999999892, -0.5837157144836903 
1.1399999999998909, -0.5833777543168076 
1.1499999999998898, -0.5828932734344512 
1.1599999999998887, -0.5822608908420338 
1.1699999999998876, -0.5814688860009916 
1.1799999999998865, -0.5804970681376557 
1.1899999999998854, -0.5793181304116168 
1.1999999999998843, -0.5778931374500467 
1.2099999999998832, -0.5761448182448049 
1.219999999999882, -0.5738746627593828 
1.229999999999881, -0.5705994452829224 
1.2399999999998799, -0.5654319148990414 
1.2499999999998788, -0.557440036554073 
1.2599999999998777, -0.5467052388577553 
1.2699999999998766, -0.5349435504454612 
1.2799999999998755, -0.5244387843474331 
1.2899999999998744, -0.5165135434906178 
1.2999999999998733, -0.5112356823906313 
1.3099999999998722, -0.5080232145554149 
1.319999999999871, -0.5062014378753794 
1.32999999999987, -0.5052366724460557 
1.3399999999998689, -0.5047680368326845 
1.3499999999998678, -0.50457006179637 
1.3599999999998666, -0.5045077296114202 
1.3699999999998655, -0.5045017933008048 
1.3799999999998644, -0.504505789762088 
1.3899999999998633, -0.5044921223181621 
1.3999999999998622, -0.5044446072713987 
1.4099999999998611, -0.5043556694549759 
1.41999999999986, -0.50422673049766 
1.429999999999859, -0.5040698682192438 
1.4399999999998578, -0.5039079531849833 
1.4499999999998567, -0.5037705536174497 
1.4599999999998556, -0.5036850977195356 
1.4699999999998545, -0.5036661498755716 
1.4799999999998534, -0.5037076709501689 
1.4899999999998523, -0.5037824460996243 
1.4999999999998512, -0.5038498255153078 
1.5099999999998501, -0.5038685019123091 
1.519999999999849, -0.5038078243303175 
1.529999999999848, -0.5036524339811613 
1.5399999999998468, -0.5034000312553475 
1.5499999999998457, -0.5030560005295951 
1.5599999999998446, -0.502628776385593 
1.5699999999998435, -0.5021279376147432 
1.5799999999998424, -0.5015655292797303 
1.5899999999998413, -0.5009607320367158 
1.5999999999998402, -0.5003479840180691 
1.6099999999998391, -0.49978734983298895 
1.619999999999838, -0.4993697925365382 
1.629999999999837, -0.4991920821576719 
1.6399999999998358, -0.4992415718689765 
1.6499999999998347, -0.4991187972213109 
1.6599999999998336, -0.49771008076154377 
1.6699999999998325, -0.49343974180746164 
1.6799999999998314, -0.48566480619680324 
1.6899999999998303, -0.4758371053474179 
1.6999999999998292, -0.46644710680872103 
1.709999999999828, -0.4591146741394133 
1.719999999999827, -0.45411139587257826 
1.729999999999826, -0.4509824414454354 
1.7399999999998248, -0.44913876582402124 
1.7499999999998237, -0.44810435498785245 
1.7599999999998226, -0.447554390189829 
1.7699999999998215, -0.4472839320253218 
1.7799999999998204, -0.4471686549435461 
1.7899999999998193, -0.44713468658154704 
1.7999999999998182, -0.4471388231816037 
1.809999999999817, -0.44715672783693866 
1.819999999999816, -0.44717674038919125 
1.8299999999998149, -0.44719753635118237 
1.8399999999998138, -0.4472280654069283 
1.8499999999998127, -0.4472878163268511 
1.8599999999998116, -0.44740499938211675 
1.8699999999998105, -0.44761066731572613 
1.8799999999998094, -0.44792860077717506 
1.8899999999998083, -0.4483633144010879 
1.8999999999998072, -0.44889082942025216 
1.909999999999806, -0.4494580543325217 
1.919999999999805, -0.449994490133869 
1.9299999999998039, -0.45043266967334583 
1.9399999999998028, -0.45072617313656405 
1.9499999999998017, -0.450855378304558 
1.9599999999998006, -0.45082076692464446 
1.9699999999997995, -0.45063083487370825 
1.9799999999997984, -0.45029090549883294 
1.9899999999997973, -0.44979454535999963 
1.9999999999997962, -0.44911566593658614 
2.0099999999998173, -0.44819743557191966 
2.0199999999998384, -0.44693223766098295 
2.0299999999998595, -0.4451239703223487 
2.0399999999998806, -0.4424225382495631 
2.0499999999999017, -0.4382358714376412 
2.059999999999923, -0.4316994924724872 
2.069999999999944, -0.42193872025517976 
2.079999999999965, -0.40883320181282634 
2.089999999999986, -0.39375025758245197 
2.100000000000007, -0.3790616025522232 
2.1100000000000283, -0.3666693118192058 
2.1200000000000494, -0.3572179933830114 
2.1300000000000705, -0.35042362977776403 
2.1400000000000916, -0.34567693298186924 
2.1500000000001127, -0.3423959397836106 
2.160000000000134, -0.34013558098080765 
2.170000000000155, -0.3385863009024975 
2.180000000000176, -0.3375428718959207 
2.190000000000197, -0.33687398821273884 
2.2000000000002182, -0.3365000390096381 
2.2100000000002393, -0.33637893419961074 
2.2200000000002604, -0.3364983348277576 
2.2300000000002815, -0.33687289569323287 
2.2400000000003026, -0.3375456745931591 
2.2500000000003237, -0.33859315452619815 
2.260000000000345, -0.3401329102036384 
2.270000000000366, -0.34233093722600155 
2.280000000000387, -0.34540027843121796 
2.290000000000408, -0.3495718241279574 
2.3000000000004293, -0.35500586487275204 
2.3100000000004504, -0.36162586893871845 
2.3200000000004715, -0.3689468889627648 
2.3300000000004926, -0.3761090083442087 
2.3400000000005137, -0.38224382381148164 
2.3500000000005348, -0.38689665927376093 
2.360000000000556, -0.39010679435130574 
2.370000000000577, -0.3921805416302929 
2.380000000000598, -0.3934552996812094 
2.390000000000619, -0.39419259266377493 
2.4000000000006403, -0.39456461700741163 
2.4100000000006614, -0.39467331139511497 
2.4200000000006825, -0.3945713806984753 
2.4300000000007036, -0.39427743707867713 
2.4400000000007247, -0.39378645838845727 
2.450000000000746, -0.39307949407731985 
2.460000000000767, -0.39213694747074535 
2.470000000000788, -0.3909574233668961 
2.480000000000809, -0.3895772700965724 
2.49000000000083, -0.3880777781596672 
2.5000000000008513, -0.38656890428544155 
2.5100000000008724, -0.38515559358644685 
2.5200000000008935, -0.38390797436765 
2.5300000000009146, -0.3828511002052384 
2.5400000000009357, -0.38197279678116625 
2.550000000000957, -0.3812392948331709 
2.560000000000978, -0.3806102681797982 
2.570000000000999, -0.3800495003087662 
2.58000000000102, -0.37953046789061423 
2.5900000000010412, -0.3790379184756988 
2.6000000000010624, -0.3785674850573234 
2.6100000000010835, -0.37812547313635414 
2.6200000000011046, -0.3777305161630174 
2.6300000000011257, -0.37741842787348945 
2.6400000000011468, -0.3772515428119869 
2.650000000001168, -0.3773336659377742 
2.660000000001189, -0.37782956997201567 
2.67000000000121, -0.37897829351467427 
2.680000000001231, -0.38105944130912317 
2.6900000000012523, -0.38420708983037094 
2.7000000000012734, -0.3879242517369513 
2.7100000000012945, -0.3904610559919529 
2.7200000000013156, -0.38918887722604545 
2.7300000000013367, -0.3829264604232578 
2.740000000001358, -0.37361409730486767 
2.750000000001379, -0.36442518499302207 
2.7600000000014, -0.3572144016968078 
2.770000000001421, -0.35223851551873153 
2.780000000001442, -0.3490319192490446 
2.7900000000014633, -0.34703809728069507 
2.8000000000014844, -0.3458252837204656 
2.8100000000015055, -0.3451043258415861 
2.8200000000015266, -0.34469360953786565 
2.8300000000015477, -0.3444829826177546 
2.840000000001569, -0.3444080145874193 
2.85000000000159, -0.3444339718867834 
2.860000000001611, -0.344546828848305 
2.870000000001632, -0.3447490346343469 
2.8800000000016532, -0.3450583034026966 
2.8900000000016743, -0.34550780338537546 
2.9000000000016954, -0.34614576390310015 
2.9100000000017165, -0.3470318695383916 
2.9200000000017377, -0.3482270731950087 
2.9300000000017588, -0.3497732757769018 
2.94000000000178, -0.3516623059051759 
2.950000000001801, -0.3538043540494967 
2.960000000001822, -0.35602196165394295 
2.970000000001843, -0.3580941640193549 
2.9800000000018643, -0.35983563776049526 
2.9900000000018854, -0.36115474119956814 
3.0000000000019065, -0.3620534121223551 
3.0100000000019276, -0.3625869263725107 
3.0200000000019487, -0.3628216059550759 
3.03000000000197, -0.3628091971077251 
3.040000000001991, -0.3625760782240445 
3.050000000002012, -0.3621194039891288 
3.060000000002033, -0.3614047429648971 
3.070000000002054, -0.36036437445787584 
3.0800000000020753, -0.358901015513826 
3.0900000000020964, -0.3569082399346845 
3.1000000000021175, -0.3543200701322801 
3.1100000000021386, -0.35118252147217976 
3.1200000000021597, -0.347697160179551 
3.130000000002181, -0.344175088259027 
3.140000000002202, -0.34091522048464656 
3.150000000002223, -0.338102176340059 
3.160000000002244, -0.33578746688937494 
3.1700000000022652, -0.33393123453456375 
3.1800000000022863, -0.3324538406051091 
3.1900000000023074, -0.3312711890301524 
3.2000000000023285, -0.3303121460508923 
3.2100000000023496, -0.3295245499596761 
3.2200000000023707, -0.32887580094544305 
3.230000000002392, -0.32835195153877655 
3.240000000002413, -0.3279577382608153 
3.250000000002434, -0.32771926197126255 
3.260000000002455, -0.32769094894416495 
3.2700000000024763, -0.3279689475011263 
3.2800000000024974, -0.3287140048515591 
3.2900000000025185, -0.33018707409422887 
3.3000000000025396, -0.332796458435647 
3.3100000000025607, -0.3371339328836664 
3.3200000000025818, -0.34391163211397047 
3.330000000002603, -0.35358729027535 
3.340000000002624, -0.3654764934679795 
3.350000000002645, -0.3769504271844947 
3.360000000002666, -0.3845825996844809 
3.3700000000026873, -0.38713073445756563 
3.3800000000027084, -0.38627053697195235 
3.3900000000027295, -0.3843076293109936 
3.4000000000027506, -0.3825381070178707 
3.4100000000027717, -0.3813146472233531 
3.420000000002793, -0.38057675759351967 
3.430000000002814, -0.3801727909405242 
3.440000000002835, -0.3799725211095066 
3.450000000002856, -0.3798868619862394 
3.460000000002877, -0.37986043730921576 
3.4700000000028983, -0.37986075440986106 
3.4800000000029194, -0.37987018655254434 
3.4900000000029405, -0.3798814958451536 
3.5000000000029616, -0.3798963268975639 
3.5100000000029827, -0.37992574779331184 
3.520000000003004, -0.37999143767391036 
3.530000000003025, -0.3801255043483037 
3.540000000003046, -0.3803667907994951 
3.550000000003067, -0.3807524516262879 
3.5600000000030882, -0.3813053153186216 
3.5700000000031094, -0.3820197171260621 
3.5800000000031305, -0.38285147412767295 
3.5900000000031516, -0.3837202500625929 
3.6000000000031727, -0.38452910334615764 
3.6100000000031938, -0.385193701626529 
3.620000000003215, -0.385663680513315 
3.630000000003236, -0.3859246976669838 
3.640000000003257, -0.3859852108652063 
3.650000000003278, -0.3858592879447792 
3.6600000000032993, -0.3855525808801536 
3.6700000000033204, -0.3850518057971227 
3.6800000000033415, -0.38431435905175143 
3.6900000000033626, -0.3832538645264235 
3.7000000000033837, -0.3817185777280585 
3.710000000003405, -0.379465251039141 
3.720000000003426, -0.3761493529008236 
3.730000000003447, -0.37138900183740897 
3.740000000003468, -0.3649757051515904 
3.750000000003489, -0.3571783809396679 
3.7600000000035103, -0.3488289525080162 
3.7700000000035314, -0.34095195654902716 
3.7800000000035525, -0.33425603616621735 
3.7900000000035736, -0.32895752530409644 
3.8000000000035947, -0.3249323868529173 
3.810000000003616, -0.3219284365670738 
3.820000000003637, -0.31969471008737443 
3.830000000003658, -0.31802983726178774 
3.840000000003679, -0.31678862722233647 
3.8500000000037002, -0.31587428681622015 
3.8600000000037213, -0.3152287844207112 
3.8700000000037424, -0.31482582291790473 
3.8800000000037635, -0.3146677550281455 
3.8900000000037847, -0.3147870038429138 
3.9000000000038058, -0.31525281140944345 
3.910000000003827, -0.3161848585028214 
3.920000000003848, -0.31777603782821096 
3.930000000003869, -0.32032626556883104 
3.94000000000389, -0.32428395111448693 
3.9500000000039113, -0.33027151473899313 
3.9600000000039324, -0.3390178214404551 
3.9700000000039535, -0.3510371034357863 
3.9800000000039746, -0.3659394668650041 
3.9900000000039957, -0.3818158514050683 
4.000000000004016, -0.3958520599655072 
4.010000000003993, -0.40617306005846193 
4.02000000000397, -0.41277010804381914 
4.030000000003946, -0.4166867264423102 
4.040000000003923, -0.41897825902369795 
4.0500000000039, -0.4203433669202101 
4.0600000000038765, -0.421173011444654 
4.070000000003853, -0.4216741998792286 
4.08000000000383, -0.421956212400168 
4.090000000003807, -0.42207685142179086 
4.100000000003783, -0.4220653405627782 
4.11000000000376, -0.4219340105197612 
4.120000000003737, -0.4216855873208096 
4.130000000003713, -0.4213198589220627 
4.14000000000369, -0.4208414681059166 
4.150000000003667, -0.4202680983772676 
4.1600000000036434, -0.41963537037801835 
4.17000000000362, -0.41899381800055213 
4.180000000003597, -0.4183970484614449 
4.1900000000035735, -0.4178863903448808 
4.20000000000355, -0.4174797241473344 
4.210000000003527, -0.41716886777941564 
4.220000000003504, -0.4169252071534014 
4.23000000000348, -0.41671044199316637 
4.240000000003457, -0.41648797828125056 
4.250000000003434, -0.4162306556723365 
4.26000000000341, -0.41592287830242586 
4.270000000003387, -0.4155584187110466 
4.280000000003364, -0.4151367076333856 
4.2900000000033405, -0.41465983265547834 
4.300000000003317, -0.4141310936755194 
4.310000000003294, -0.4135548158795954 
4.320000000003271, -0.41293590498029503 
4.330000000003247, -0.4122746944130008 
4.340000000003224, -0.4115444500011621 
4.350000000003201, -0.4106201524402727 
4.360000000003177, -0.4091021841735933 
4.370000000003154, -0.4060165123228411 
4.380000000003131, -0.3996847779774012 
4.390000000003107, -0.3885945036228827 
4.400000000003084, -0.3733341523113192 
4.410000000003061, -0.3570354478819883 
4.4200000000030375, -0.34295207919596 
4.430000000003014, -0.33243505329389594 
4.440000000002991, -0.3252158252689302 
4.450000000002968, -0.32045873866100877 
4.460000000002944, -0.3173742909411955 
4.470000000002921, -0.3153861434892471 
4.480000000002898, -0.3141140547952296 
4.490000000002874, -0.31331822167501666 
4.500000000002851, -0.31285150057430017 
4.510000000002828, -0.31262698662421945 
4.520000000002804, -0.31259819868011063 
4.530000000002781, -0.312748094621844 
4.540000000002758, -0.31308415262552447 
4.5500000000027345, -0.3136377398754071 
4.560000000002711, -0.3144664295010679 
4.570000000002688, -0.3156575641015295 
4.580000000002665, -0.3173297230312306 
4.590000000002641, -0.31962497773769927 
4.600000000002618, -0.32267875902027676 
4.610000000002595, -0.32655130212426375 
4.620000000002571, -0.3311241309400837 
4.630000000002548, -0.3360263730192176 
4.640000000002525, -0.34070639590569524 
4.6500000000025015, -0.3446653221744721 
4.660000000002478, -0.34766668870988454 
4.670000000002455, -0.3497484428146892 
4.6800000000024315, -0.35109171404746015 
4.690000000002408, -0.35189482764605506 
4.700000000002385, -0.352313823051315 
4.710000000002362, -0.35245160880164816 
4.720000000002338, -0.35236582940857303 
4.730000000002315, -0.35207940192239395 
4.740000000002292, -0.3515893997870264 
4.750000000002268, -0.3508757810863548 
4.760000000002245, -0.3499138321556373 
4.770000000002222, -0.34869341092947814 
4.7800000000021985, -0.347241981189831 
4.790000000002175, -0.34563828283290904 
4.800000000002152, -0.3440009163857466 
4.810000000002129, -0.3424526063701132 
4.820000000002105, -0.3410826617903647 
4.830000000002082, -0.3399298473206603 
4.840000000002059, -0.33898794447834857 
4.850000000002035, -0.33822240874375525 
4.860000000002012, -0.3375874242132463 
4.870000000001989, -0.33703859215299015 
4.880000000001965, -0.3365402418876176 
