t, s[1].omega / s[0].omega 
0, -1.3199563584655112 
0.009999999999999995, -1.3154011285066898 
0.019999999999999934, -1.3104696868324834 
0.029999999999999874, -1.3051654542902507 
0.04000000000000012, -1.2994921167015616 
0.050000000000000405, -1.293453622827881 
0.06000000000000069, -1.287054182143503 
0.07000000000000098, -1.2802982623956756 
0.08000000000000126, -1.2731905869315405 
0.09000000000000155, -1.2657361317712859 
0.10000000000000184, -1.257940122406987 
0.11000000000000212, -1.2498080303069041 
0.12000000000000241, -1.2413455691054647 
0.130000000000002, -1.232558690459962 
0.1400000000000009, -1.2234535795559185 
0.1499999999999998, -1.2140366502442541 
0.1599999999999987, -1.2043145397948773 
0.1699999999999976, -1.194294103252848 
0.1799999999999965, -1.1839824073851868 
0.1899999999999954, -1.173386724208366 
0.1999999999999943, -1.1625145240887582 
0.2099999999999932, -1.1513734684106922 
0.2199999999999921, -1.1399714018092502 
0.229999999999991, -1.1283163439676365 
0.2399999999999899, -1.1164164809816568 
0.2499999999999888, -1.1042801562967157 
0.2599999999999877, -1.0919158612256117 
0.2699999999999866, -1.0793322250583557 
0.2799999999999855, -1.0665380047781705 
0.2899999999999844, -1.0535420744007502 
0.2999999999999833, -1.0403534139567172 
0.3099999999999822, -1.0269810981400456 
0.3199999999999811, -1.0134342846478577 
0.32999999999998, -0.9997222022396345 
0.3399999999999789, -0.9858541385462324 
0.3499999999999778, -0.9718394276613966 
0.35999999999997667, -0.9576874375504172 
0.36999999999997557, -0.94340755731246 
0.37999999999997447, -0.9290091843346268 
0.38999999999997337, -0.9145017113771235 
0.39999999999997227, -0.8998945136299582 
0.40999999999997117, -0.8851969357823416 
0.41999999999997006, -0.8704182791464367 
0.42999999999996896, -0.8555677888772609 
0.43999999999996786, -0.8406546413304385 
0.44999999999996676, -0.8256879315990595 
0.45999999999996566, -0.8106766612702013 
0.46999999999996456, -0.795629726440672 
0.47999999999996346, -0.7805559060302563 
0.48999999999996235, -0.7654638504292388 
0.49999999999996125, -0.7503620705151829 
0.5099999999999602, -0.7352589270719732 
0.519999999999959, -0.72016262064192 
0.529999999999958, -0.705081181839343 
0.5399999999999568, -0.690022462151516 
0.5499999999999557, -0.6749941252501891 
0.5599999999999546, -0.6600036388341185 
0.5699999999999535, -0.6450582670201724 
0.5799999999999524, -0.6301650632976767 
0.5899999999999513, -0.6153308640577099 
0.5999999999999502, -0.6005622827061028 
0.6099999999999491, -0.5858657043659924 
0.619999999999948, -0.5712472811728655 
0.6299999999999469, -0.556712928162221 
0.6399999999999458, -0.5422683197472641 
0.6499999999999447, -0.5279188867813865 
0.6599999999999436, -0.513669814197709 
0.6699999999999425, -0.4995260392155769 
0.6799999999999414, -0.48549225010170144 
0.6899999999999403, -0.47157288547156423 
0.6999999999999392, -0.4577721341148281 
0.7099999999999381, -0.44409393532678315 
0.719999999999937, -0.430541979726333 
0.7299999999999359, -0.4171197105396682 
0.7399999999999348, -0.40383032532763025 
0.7499999999999337, -0.39067677813377427 
0.7599999999999326, -0.37766178202934897 
0.7699999999999315, -0.3647878120307878 
0.7799999999999304, -0.3520571083648545 
0.7899999999999293, -0.339471680056287 
0.7999999999999282, -0.32703330881266857 
0.8099999999999271, -0.31474355318125036 
0.819999999999926, -0.30260375295260666 
0.8299999999999249, -0.2906150337862884 
0.8399999999999238, -0.27877831203401965 
0.8499999999999227, -0.26709429973649623 
0.8599999999999216, -0.2555635097704377 
0.8699999999999205, -0.2441862611232151 
0.8799999999999194, -0.2329626842731495 
0.8899999999999183, -0.22189272665437207 
0.8999999999999172, -0.21097615818602514 
0.9099999999999161, -0.20021257684648644 
0.919999999999915, -0.18960141427425045 
0.9299999999999139, -0.1791419413780737 
0.9399999999999128, -0.1688332739399777 
0.9499999999999117, -0.1586743781957035 
0.9599999999999106, -0.14866407637821266 
0.9699999999999095, -0.13880105221082095 
0.9799999999999084, -0.1290838563375392 
0.9899999999999073, -0.11951091167916397 
0.9999999999999062, -0.11008051870460515 
1.0099999999999052, -0.10079086060786574 
1.019999999999904, -0.09164000838197883 
1.029999999999903, -0.0826259257820741 
1.039999999999902, -0.07374647417057364 
1.0499999999999008, -0.06499941723831164 
1.0599999999998997, -0.05638242559612921 
1.0699999999998986, -0.04789308123221507 
1.0799999999998975, -0.039528881831141206 
1.0899999999998964, -0.03128724495118504 
1.0999999999998953, -0.023165512057129932 
1.1099999999998942, -0.015160952406300346 
1.119999999999893, -0.007270766786111877 
1.129999999999892, 0.00001377567135586388 
1.1399999999998909, 0.000010753394098771837 
1.1499999999998898, 0.0000209247020553567 
1.1599999999998887, 0.0000059768394979162446 
1.1699999999998876, 1.8699873048242965e-7 
1.1799999999998865, 0.000008689633601716276 
1.1899999999998854, 0.000007478056070224186 
1.1999999999998843, 0.000030605296220778113 
1.2099999999998832, 0.000010320133837310977 
1.219999999999882, 0.000009601262995929806 
1.229999999999881, 0.000004158940487673721 
1.2399999999998799, 0.000027769812221367852 
1.2499999999998788, 0.000026945163768521673 
1.2599999999998777, 0.000006265770077877976 
1.2699999999998766, 0.000028383367368204744 
1.2799999999998755, 0.00002508894968001892 
1.2899999999998744, 7.80954793097073e-7 
1.2999999999998733, 0.000003400181820571414 
1.3099999999998722, 0.000022698056697696185 
1.319999999999871, 0.000004771693856937674 
1.32999999999987, 0.000026465318634295904 
1.3399999999998689, 0.00000470544753375484 
1.3499999999998678, 0.0000017026667695442456 
1.3599999999998666, 0.000006953223857797686 
1.3699999999998655, 0.000024440905355119636 
1.3799999999998644, 0.000014505349504605637 
1.3899999999998633, 0.00002464399932880229 
1.3999999999998622, 5.806147854201205e-7 
1.4099999999998611, 0.00000426697484831831 
1.41999999999986, 0.000024952025350828873 
1.429999999999859, 0.000022783463847264802 
1.4399999999998578, 0.000001476338788928024 
1.4499999999998567, 0.000022848645584696686 
1.4599999999998556, 0.0000033566644707774996 
1.4699999999998545, 0.0000047637776989442836 
1.4799999999998534, 0.000001609259522896411 
1.4899999999998523, 0.000026543847557261455 
1.4999999999998512, 0.000010465406290109096 
1.5099999999998501, 0.000029587868679151374 
1.519999999999849, 0.000029310182684961724 
1.529999999999848, 0.000013152114369236733 
1.5399999999998468, 0.000013689991900418921 
1.5499999999998457, 0.0000053592129116072136 
1.5599999999998446, 0.000006190016076505743 
1.5699999999998435, 0.000005143474021279048 
1.5799999999998424, 0.000005714154370679974 
1.5899999999998413, 0.00001139967426260017 
1.5999999999998402, 0.000011169806261860455 
1.6099999999998391, 0.000023069343769162807 
1.619999999999838, 0.000007021418788480864 
1.629999999999837, 0.000010163848811824138 
1.6399999999998358, 0.00003605154056669098 
1.6499999999998347, 0.0000010596682394770725 
1.6599999999998336, 0.0000250538364635751 
1.6699999999998325, 0.000038992737174417336 
1.6799999999998314, 0.0000029323804273616885 
1.6899999999998303, 0.000007761750775576066 
1.6999999999998292, 0.000028140389832876166 
1.709999999999828, 0.00000970101552022569 
1.719999999999827, 0.000028921588231251726 
1.729999999999826, 0.00017685774369183033 
1.7399999999998248, 0.0004574084543513281 
1.7499999999998237, 0.0008745206238617181 
1.7599999999998226, 0.001432194913747937 
1.7699999999998215, 0.0021344917515082116 
1.7799999999998204, 0.0029855375245724765 
1.7899999999998193, 0.00398953096456568 
1.7999999999998182, 0.005150749726292964 
1.809999999999817, 0.006473557165776457 
1.819999999999816, 0.007962409321519459 
1.8299999999998149, 0.009621862102942544 
1.8399999999998138, 0.011456578689615216 
1.8499999999998127, 0.013471337144483134 
1.8599999999998116, 0.015671038243749557 
1.8699999999998105, 0.018060713525393693 
1.8799999999998094, 0.020645533557479993 
1.8899999999998083, 0.023430816426409297 
1.8999999999998072, 0.02642203644406305 
1.909999999999806, 0.029624833071369778 
1.919999999999805, 0.033045020054149055 
1.9299999999998039, 0.036688594765132275 
1.9399999999998028, 0.04056174774378579 
1.9499999999998017, 0.0446708724229317 
1.9599999999998006, 0.049022575028133064 
1.9699999999997995, 0.05362368463233622 
1.9799999999997984, 0.05848126334429232 
1.9899999999997973, 0.06360261660475669 
1.9999999999997962, 0.06899530355932865 
2.0099999999998173, 0.07466714747097816 
2.0199999999998384, 0.08062624612873727 
2.0299999999998595, 0.08688098220164117 
2.0399999999998806, 0.09344003347869788 
2.0499999999999017, 0.10031238292636285 
2.059999999999923, 0.10750732848459979 
2.069999999999944, 0.11503449251103504 
2.079999999999965, 0.12290383076984257 
2.089999999999986, 0.13112564084774822 
2.100000000000007, 0.13971056986379285 
2.1100000000000283, 0.1486696213221642 
2.1200000000000494, 0.15801416093837872 
2.1300000000000705, 0.16775592124829822 
2.1400000000000916, 0.17790700478681096 
2.1500000000001127, 0.1884798855984463 
2.160000000000134, 0.19948740881567914 
2.170000000000155, 0.21094278801223124 
2.180000000000176, 0.22285960000831037 
2.190000000000197, 0.23525177677255854 
2.2000000000002182, 0.24813359403165464 
2.2100000000002393, 0.2615196561632793 
2.2200000000002604, 0.275424876911848 
2.2300000000002815, 0.2898644554294959 
2.2400000000003026, 0.30485384710787544 
2.2500000000003237, 0.3204087286301583 
2.260000000000345, 0.33654495663816386 
2.270000000000366, 0.3532785193779627 
2.280000000000387, 0.37062548066002365 
2.290000000000408, 0.38860191544868256 
2.3000000000004293, 0.407223836382402 
2.3100000000004504, 0.42650711052325035 
2.3200000000004715, 0.446467365643909 
2.3300000000004926, 0.4671198853862563 
2.3400000000005137, 0.4884794926704778 
2.3500000000005348, 0.5105604208012723 
2.360000000000556, 0.5333761718118718 
2.370000000000577, 0.5569393617112198 
2.380000000000598, 0.5812615524587269 
2.390000000000619, 0.6063530706883751 
2.4000000000006403, 0.6322228134430563 
2.4100000000006614, 0.6588780414637644 
2.4200000000006825, 0.686324160908482 
2.4300000000007036, 0.7145644947529973 
2.4400000000007247, 0.7436000455492286 
2.450000000000746, 0.7734292516826738 
2.460000000000767, 0.8040477397733514 
2.470000000000788, 0.835448076395048 
2.480000000000809, 0.8676195228332758 
2.49000000000083, 0.9005477971468374 
2.5000000000008513, 0.9342148483211337 
2.5100000000008724, 0.9685986477793844 
2.5200000000008935, 1.0036730039234765 
2.5300000000009146, 1.039407405679201 
2.5400000000009357, 1.0757669011896736 
2.550000000000957, 1.1127120178042198 
2.560000000000978, 1.1501987293182534 
2.570000000000999, 1.188178476007166 
2.58000000000102, 1.22659824234504 
2.5900000000010412, 1.2654006963972628 
2.6000000000010624, 1.304524393726503 
2.6100000000010835, 1.3439040472692214 
2.6200000000011046, 1.3834708630547634 
2.6300000000011257, 1.4231529398961569 
2.6400000000011468, 1.4628757293405932 
2.650000000001168, 1.5025625502999123 
2.660000000001189, 1.5421351509682186 
2.67000000000121, 1.5815143089606025 
2.680000000001231, 1.6206204591586832 
2.6900000000012523, 1.6593743376037309 
2.7000000000012734, 1.6976976290025618 
2.7100000000012945, 1.7355136050537696 
2.7200000000013156, 1.7727477408893102 
2.7300000000013367, 1.8093282974616725 
2.740000000001358, 1.8451868586680151 
2.750000000001379, 1.8802588133441447 
2.7600000000014, 1.9144837739172127 
2.770000000001421, 1.9478059253949143 
2.780000000001442, 1.980174300399523 
2.7900000000014633, 2.0115429780322747 
2.8000000000014844, 2.0418712063856153 
2.8100000000015055, 2.0711234504239293 
2.8200000000015266, 2.0992693686573776 
2.8300000000015477, 2.126283723483899 
2.840000000001569, 2.1521462312357365 
2.85000000000159, 2.17684135882046 
2.860000000001611, 2.200358074392256 
2.870000000001632, 2.222689559740976 
2.8800000000016532, 2.2438328920706727 
2.8900000000016743, 2.263788702591138 
2.9000000000016954, 2.2825608189060453 
2.9100000000017165, 2.3001558975927776 
2.9200000000017377, 2.3165830526747464 
2.9300000000017588, 2.331853484927279 
2.94000000000178, 2.3459801161691667 
2.950000000001801, 2.358977231904837 
2.960000000001822, 2.3708601349219647 
2.970000000001843, 2.381644811735914 
2.9800000000018643, 2.3913476131192737 
2.9900000000018854, 2.399984949371233 
3.0000000000019065, 2.4075730004716225 
3.0100000000019276, 2.414127440829285 
3.0200000000019487, 2.4196631779717706 
3.03000000000197, 2.4241941042290573 
3.040000000001991, 2.427732860232272 
3.050000000002012, 2.4302906088726903 
3.060000000002033, 2.431876818239764 
3.070000000002054, 2.4324990519723557 
3.0800000000020753, 2.432162765408481 
3.0900000000020964, 2.4308711058994876 
3.1000000000021175, 2.428624715659663 
3.1100000000021386, 2.425421535547464 
3.1200000000021597, 2.421256608216891 
3.130000000002181, 2.4161218791347183 
3.140000000002202, 2.4100059940307106 
3.150000000002223, 2.4028940914338612 
3.160000000002244, 2.3947675890499314 
3.1700000000022652, 2.385603962857225 
3.1800000000022863, 2.3753765179432498 
3.1900000000023074, 2.3640541502808303 
3.2000000000023285, 2.351601098856523 
3.2100000000023496, 2.337976687826118 
3.2200000000023707, 2.323135058693989 
3.230000000002392, 2.3070248929083723 
3.240000000002413, 2.289589125749868 
3.250000000002434, 2.2707646529840155 
3.260000000002455, 2.250482032471444 
3.2700000000024763, 2.228665183804436 
3.2800000000024974, 2.20523109009182 
3.2900000000025185, 2.180089507271962 
3.3000000000025396, 2.1531426878241264 
3.3100000000025607, 2.1242851274986623 
3.3200000000025818, 2.0934033457214665 
3.330000000002603, 2.0603757126678257 
3.340000000002624, 2.0250723386566705 
3.350000000002645, 1.9873550444864325 
3.360000000002666, 1.9470774345973099 
3.3700000000026873, 1.904085098453586 
3.3800000000027084, 1.858215969209967 
3.3900000000027295, 1.8093008724270965 
3.4000000000027506, 1.7571643011448517 
3.4100000000027717, 1.701625456748289 
3.420000000002793, 1.642499597428963 
3.430000000002814, 1.5795997372214585 
3.440000000002835, 1.5127387380535076 
3.450000000002856, 1.4417318343697498 
3.460000000002877, 1.3663996239807665 
3.4700000000028983, 1.286571549117247 
3.4800000000029194, 1.2020898775152549 
3.4900000000029405, 1.1128141741004058 
3.5000000000029616, 1.0186262290597257 
3.5100000000029827, 0.9194353777141255 
3.520000000003004, 0.8151841120517069 
3.530000000003025, 0.705853844126512 
3.540000000003046, 0.5914706396384806 
3.550000000003067, 0.47211069864319016 
3.5600000000030882, 0.34790532313664996 
3.5700000000031094, 0.21904508262246503 
3.5800000000031305, 0.0857828735650865 
3.5900000000031516, -0.04832377714992878 
3.6000000000031727, -0.1806695811520518 
3.6100000000031938, -0.3163246543008059 
3.620000000003215, -0.45482556299712823 
3.630000000003236, -0.5956580930256007 
3.640000000003257, -0.7382641572465312 
3.650000000003278, -0.8820504398836161 
3.6600000000032993, -1.0263985228289543 
3.6700000000033204, -1.170676134414414 
3.6800000000033415, -1.3142490754657483 
3.6900000000033626, -1.4564933208060822 
3.7000000000033837, -1.5968067736982718 
3.710000000003405, -1.7346201691682215 
3.720000000003426, -1.8694066784315204 
3.730000000003447, -2.0006898550766428 
3.740000000003468, -2.1280496749907436 
3.750000000003489, -2.2511265448007176 
3.7600000000035103, -2.3696232758619673 
3.7700000000035314, -2.4833051316835046 
3.7800000000035525, -2.591998147665158 
3.7900000000035736, -2.6955859878715596 
3.8000000000035947, -2.7940056423959017 
3.810000000003616, -2.887242281846589 
3.820000000003637, -2.975323576139641 
3.830000000003658, -3.0583137580761495 
3.840000000003679, -3.136307673677074 
3.8500000000037002, -3.209425016314081 
3.8600000000037213, -3.277804894984749 
3.8700000000037424, -3.341600842295179 
3.8800000000037635, -3.4009763273922924 
3.8900000000037847, -3.4561008047484423 
3.9000000000038058, -3.50714630197783 
3.910000000003827, -3.554284528714407 
3.920000000003848, -3.597684473495599 
3.930000000003869, -3.6375104457875578 
3.94000000000389, -3.673920514842549 
3.9500000000039113, -3.7070652950717298 
3.9600000000039324, -3.737087028183595 
3.9700000000039535, -3.764118914722386 
3.9800000000039746, -3.7882846512102835 
3.9900000000039957, -3.809698133348078 
4.000000000004016, -3.828463290277081 
4.010000000003993, -3.844674019470496 
4.02000000000397, -3.8584141962136385 
4.030000000003946, -3.869757735727986 
4.040000000003923, -3.878768689728313 
4.0500000000039, -3.885501362549605 
4.0600000000038765, -3.8900004349462933 
4.070000000003853, -3.8923010862757703 
4.08000000000383, -3.8924291080704183 
4.090000000003807, -3.8904010040249837 
4.100000000003783, -3.886224073231348 
4.11000000000376, -3.8798964751349097 
4.120000000003737, -3.871407276220589 
4.130000000003713, -3.8607364799160657 
4.14000000000369, -3.8478550426771494 
4.150000000003667, -3.832724880745966 
4.1600000000036434, -3.8152988736933744 
4.17000000000362, -3.7955208726164877 
4.180000000003597, -3.7733257227977206 
4.1900000000035735, -3.7486393127735496 
4.20000000000355, -3.72137866412872 
4.210000000003527, -3.691452078929736 
4.220000000003504, -3.658759364524504 
4.23000000000348, -3.6231921584213866 
4.240000000003457, -3.5846343790435196 
4.250000000003434, -3.542962831212291 
4.26000000000341, -3.4980479980724444 
4.270000000003387, -3.449755053590749 
4.280000000003364, -3.3979451314278823 
4.2900000000033405, -3.3424768865069026 
4.300000000003317, -3.2832083845090425 
4.310000000003294, -3.21999935127518 
4.320000000003271, -3.152713808084739 
4.330000000003247, -3.0812231094165883 
4.340000000003224, -3.0054093865081466 
4.350000000003201, -2.9251693823871707 
4.360000000003177, -2.8404186418568433 
4.370000000003154, -2.75109599332597 
4.380000000003131, -2.6571682290383203 
4.390000000003107, -2.5586348574223114 
4.400000000003084, -2.4555327679022017 
4.410000000003061, -2.3479406172431374 
4.4200000000030375, -2.2359827206298344 
4.430000000003014, -2.119832213901073 
4.440000000002991, -1.9997132494376109 
4.450000000002968, -1.87590200046172 
4.460000000002944, -1.7487262792907283 
4.470000000002921, -1.6185636251655924 
4.480000000002898, -1.4858377853827816 
4.490000000002874, -1.3510135960435987 
4.500000000002851, -1.2145903600385515 
4.510000000002828, -1.0770939123836252 
4.520000000002804, -0.9390676482418068 
4.530000000002781, -0.8010628585235844 
4.540000000002758, -0.6636287647424582 
4.5500000000027345, -0.5273026639606667 
4.560000000002711, -0.3926005843363939 
4.570000000002688, -0.2600088133538718 
4.580000000002665, -0.12997659864878677 
4.590000000002641, -0.0029102420984113923 
4.600000000002618, 0.11236284830323104 
4.610000000002595, 0.22378276854043586 
4.620000000002571, 0.3313644436444614 
4.630000000002548, 0.4349232995012225 
4.640000000002525, 0.5343207900026603 
4.6500000000025015, 0.629461964040854 
4.660000000002478, 0.7202923347610395 
4.670000000002455, 0.8067942465461534 
4.6800000000024315, 0.8889829243270077 
4.690000000002408, 0.9669023712582989 
4.700000000002385, 1.0406212573568492 
4.710000000002362, 1.1102289158841558 
4.720000000002338, 1.175831538165357 
4.730000000002315, 1.23754863277006 
4.740000000002292, 1.2955097926383954 
4.750000000002268, 1.349851794468841 
4.760000000002245, 1.400716038768056 
4.770000000002222, 1.4482463263839804 
4.7800000000021985, 1.4925869578852693 
4.790000000002175, 1.533881135469034 
4.800000000002152, 1.5722696427662677 
4.810000000002129, 1.6078897755442114 
4.820000000002105, 1.640874495467167 
4.830000000002082, 1.671351779399191 
4.840000000002059, 1.699444137889366 
4.850000000002035, 1.7252682782018924 
4.860000000002012, 1.7489348893197478 
4.870000000001989, 1.7705485285912157 
4.880000000001965, 1.7902075919741751 
4.890000000001942, 1.808004352070837 
4.900000000001919, 1.8240250502717108 
