t, s[1].omega / s[0].omega 
0, -1.9599967977171069 
0.009999999999999995, -1.959397394061649 
0.019999999999999934, -1.9582058036482757 
0.029999999999999874, -1.9563107285534997 
0.04000000000000012, -1.953583642860395 
0.050000000000000405, -1.9501354826600523 
0.06000000000000069, -1.94685993304167 
0.07000000000000098, -1.9451751540867401 
0.08000000000000126, -1.945156044120834 
0.09000000000000155, -1.9456026305538852 
0.10000000000000184, -1.9457734102489461 
0.11000000000000212, -1.9455134841337611 
0.12000000000000241, -1.94479331991704 
0.130000000000002, -1.9436137959106248 
0.1400000000000009, -1.9424048233338755 
0.1499999999999998, -1.942601951160664 
0.1599999999999987, -1.94529621242968 
0.1699999999999976, -1.9491595333116731 
0.1799999999999965, -1.9524147272606993 
0.1899999999999954, -1.9545474175154358 
0.1999999999999943, -1.9557095859848812 
0.2099999999999932, -1.9561276566770185 
0.2199999999999921, -1.9559477885855443 
0.229999999999991, -1.955227366606347 
0.2399999999999899, -1.9539504422217735 
0.2499999999999888, -1.9520568525369413 
0.2599999999999877, -1.9495427978748938 
0.2699999999999866, -1.9467590743109937 
0.2799999999999855, -1.9446656413379242 
0.2899999999999844, -1.9439831493655508 
0.2999999999999833, -1.9441721853775207 
0.3099999999999822, -1.9443755381534829 
0.3199999999999811, -1.9442348838470616 
0.32999999999998, -1.9436475226188659 
0.3399999999999789, -1.9425131820018275 
0.3499999999999778, -1.9408919149466832 
0.35999999999997667, -1.939838376534695 
0.36999999999997557, -1.9415988936233948 
0.37999999999997447, -1.946299946109572 
0.38999999999997337, -1.951244907380472 
0.39999999999997227, -1.9547954196231072 
0.40999999999997117, -1.9569052018077628 
0.41999999999997006, -1.9579469776628258 
0.42999999999996896, -1.958225447812545 
0.43999999999996786, -1.9579170991953607 
0.44999999999996676, -1.9570984658205142 
0.45999999999996566, -1.955782000950423 
0.46999999999996456, -1.953968643155002 
0.47999999999996346, -1.9517850031330592 
0.48999999999996235, -1.9497392932963753 
0.49999999999996125, -1.948589077608013 
0.5099999999999602, -1.9484192011164054 
0.519999999999959, -1.9485655600768723 
0.529999999999958, -1.9485125825974268 
0.5399999999999568, -1.94806196475207 
0.5499999999999557, -1.947062611938317 
0.5599999999999546, -1.9453414310131631 
0.5699999999999535, -1.9432794472063644 
0.5799999999999524, -1.943186217497842 
0.5899999999999513, -1.947589657379633 
0.5999999999999502, -1.9543103149227083 
0.6099999999999491, -1.959840187946914 
0.619999999999948, -1.9633092337906315 
0.6299999999999469, -1.9651771446822344 
0.6399999999999458, -1.965974819750707 
0.6499999999999447, -1.9660441342394575 
0.6599999999999436, -1.965568357900569 
0.6699999999999425, -1.9646313798877013 
0.6799999999999414, -1.9632720424269163 
0.6899999999999403, -1.9615600111536602 
0.6999999999999392, -1.9597584314390981 
0.7099999999999381, -1.9584312269885982 
0.719999999999937, -1.9579529142559953 
0.7299999999999359, -1.9579792827597537 
0.7399999999999348, -1.957965142127163 
0.7499999999999337, -1.9576215449791203 
0.7599999999999326, -1.9567651160723085 
0.7699999999999315, -1.9551300519119947 
0.7799999999999304, -1.9526068330033772 
0.7899999999999293, -1.9507239590118624 
0.7999999999999282, -1.9534995009330487 
0.8099999999999271, -1.9611986306717804 
0.819999999999926, -1.9688605383003697 
0.8299999999999249, -1.9739560515456702 
0.8399999999999238, -1.9767810174031646 
0.8499999999999227, -1.9781215758948616 
0.8599999999999216, -1.9785274472365835 
0.8699999999999205, -1.9783050681410004 
0.8799999999999194, -1.9776089589174588 
0.8899999999999183, -1.9765179674228794 
0.8999999999999172, -1.9751017279399377 
0.9099999999999161, -1.9735266563460265 
0.919999999999915, -1.9721968741247953 
0.9299999999999139, -1.9715429470178463 
0.9399999999999128, -1.971454436839074 
0.9499999999999117, -1.9714418903298292 
0.9599999999999106, -1.9711618759972804 
0.9699999999999095, -1.97040522441953 
0.9799999999999084, -1.9688784438523013 
0.9899999999999073, -1.9662414840281013 
0.9999999999999062, -1.963304029227757 
1.0099999999999052, -1.9642821373488188 
1.019999999999904, -1.9719447820664062 
1.029999999999903, -1.9811795367327636 
1.039999999999902, -1.9876741256776491 
1.0499999999999008, -1.9913142156549057 
1.0599999999998997, -1.9930850572417007 
1.0699999999998986, -1.9937290343505034 
1.0799999999998975, -1.993662167284171 
1.0899999999998964, -1.9930957878367361 
1.0999999999998953, -1.9921383369855363 
1.1099999999998942, -1.9908695721707037 
1.119999999999893, -1.9894267960907601 
1.129999999999892, -1.9881386749105743 
1.1399999999998909, -1.9874243079202283 
1.1499999999998898, -1.9872747767899757 
1.1599999999998887, -1.9872517491688129 
1.1699999999998876, -1.9869930066636816 
1.1799999999998865, -1.9862736081088799 
1.1899999999998854, -1.9847882635929348 
1.1999999999998843, -1.982116715345042 
1.2099999999998832, -1.978778705166673 
1.219999999999882, -1.9789367501347357 
1.229999999999881, -1.9864512206438718 
1.2399999999998799, -1.9963324575989538 
1.2499999999998788, -2.0034089433493163 
1.2599999999998777, -2.0073580717573423 
1.2699999999998766, -2.009269867347064 
1.2799999999998755, -2.0099782124405072 
1.2899999999998744, -2.0099452412396257 
1.2999999999998733, -2.009402856023931 
1.3099999999998722, -2.008468731210928 
1.319999999999871, -2.007226635981268 
1.32999999999987, -2.0058129727976888 
1.3399999999998689, -2.0045514971545337 
1.3499999999998678, -2.003856055274042 
1.3599999999998666, -2.003712254837525 
1.3699999999998655, -2.003681360221386 
1.3799999999998644, -2.003404471030771 
1.3899999999998633, -2.002653314059967 
1.3999999999998622, -2.00111012355163 
1.4099999999998611, -1.9983638981597547 
1.41999999999986, -1.9951242485201095 
1.429999999999859, -1.9958747785565105 
1.4399999999998578, -2.0038192097209313 
1.4499999999998567, -2.0133768436602066 
1.4599999999998556, -2.019940991203196 
1.4699999999998545, -2.023523254906492 
1.4799999999998534, -2.025212887416103 
1.4899999999998523, -2.025784425601124 
1.4999999999998512, -2.0256559594252606 
1.5099999999998501, -2.025032804194516 
1.519999999999849, -2.024017487352363 
1.529999999999848, -2.022689067060326 
1.5399999999998468, -2.021207872574056 
1.5499999999998457, -2.0199611308163687 
1.5599999999998446, -2.0193617029997952 
1.5699999999998435, -2.0192833816799327 
1.5799999999998424, -2.0192412286492663 
1.5899999999998413, -2.0189026245031196 
1.5999999999998402, -2.0180456729265446 
1.6099999999998391, -2.016343994163926 
1.619999999999838, -2.013535128024837 
1.629999999999837, -2.0110913920368505 
1.6399999999998358, -2.013783342878374 
1.6499999999998347, -2.022179834353028 
1.6599999999998336, -2.0303341442310145 
1.6699999999998325, -2.0354985650854185 
1.6799999999998314, -2.03821663892202 
1.6899999999998303, -2.039420258289894 
1.6999999999998292, -2.0397009586574035 
1.709999999999828, -2.039365651887983 
1.719999999999827, -2.0385576760775077 
1.729999999999826, -2.03734542528552 
1.7399999999998248, -2.0358055673905535 
1.7499999999998237, -2.034180599453266 
1.7599999999998226, -2.032999349043546 
1.7699999999998215, -2.03259879825974 
1.7799999999998204, -2.032617576786055 
1.7899999999998193, -2.032536742433556 
1.7999999999998182, -2.0320833654082078 
1.809999999999817, -2.031046139079522 
1.819999999999816, -2.0291368854740592 
1.8299999999998149, -2.0265675465016377 
1.8399999999998138, -2.026013981455066 
1.8499999999998127, -2.0309731355238947 
1.8599999999998116, -2.038629233746823 
1.8699999999998105, -2.0445653396499597 
1.8799999999998094, -2.0480334676035223 
1.8899999999998083, -2.0497597429891106 
1.8999999999998072, -2.0503930982367455 
1.909999999999806, -2.0503045483512916 
1.919999999999805, -2.049671294761228 
1.9299999999998039, -2.0485601613010105 
1.9399999999998028, -2.0469992842610685 
1.9499999999998017, -2.0451078176337956 
1.9599999999998006, -2.043347389013257 
1.9699999999997995, -2.0424051453483405 
1.9799999999997984, -2.0422998133078747 
1.9899999999997973, -2.0423868827345677 
1.9999999999997962, -2.042213457463631 
2.0099999999998173, -2.0415891798538586 
2.0199999999998384, -2.0403260607123332 
2.0299999999998595, -2.0383475452012005 
2.0399999999998806, -2.0368147682810624 
2.0499999999999017, -2.038829244394808 
2.059999999999923, -2.044567841855898 
2.069999999999944, -2.0502296754072935 
2.079999999999965, -2.0539578448959577 
2.089999999999986, -2.0559831609482915 
2.100000000000007, -2.0568600943821322 
2.1100000000000283, -2.0569578394555816 
2.1200000000000494, -2.0564602779142436 
2.1300000000000705, -2.0554260408563474 
2.1400000000000916, -2.0538427788691114 
2.1500000000001127, -2.0517263096602965 
2.160000000000134, -2.049400551465781 
2.170000000000155, -2.047733914975143 
2.180000000000176, -2.04728545555323 
2.190000000000197, -2.0474615434026626 
2.2000000000002182, -2.047526242175849 
2.2100000000002393, -2.0472019020366803 
2.2200000000002604, -2.0463720259286218 
2.2300000000002815, -2.0449448475726197 
2.2400000000003026, -2.0433801822101594 
2.2500000000003237, -2.0436769842360545 
2.260000000000345, -2.047280304614695 
2.270000000000366, -2.051989559492474 
2.280000000000387, -2.0555564945829476 
2.290000000000408, -2.0576671036969008 
2.3000000000004293, -2.0586797215565373 
2.3100000000004504, -2.0589082425132457 
2.3200000000004715, -2.0585175977111794 
2.3300000000004926, -2.057548719079551 
2.3400000000005137, -2.0559500325397924 
2.3500000000005348, -2.053641856493214 
2.360000000000556, -2.050769384288599 
2.370000000000577, -2.0482026031020752 
2.380000000000598, -2.047106329919166 
2.390000000000619, -2.047246476157702 
2.4000000000006403, -2.047546563686878 
2.4100000000006614, -2.0474944731546545 
2.4200000000006825, -2.046988298099684 
2.4300000000007036, -2.045981343672095 
2.4400000000007247, -2.044642468982947 
2.450000000000746, -2.044088035316364 
2.460000000000767, -2.0459263890065267 
2.470000000000788, -2.0494563862978454 
2.480000000000809, -2.0526456953303756 
2.49000000000083, -2.054728691762964 
2.5000000000008513, -2.0558233086989803 
2.5100000000008724, -2.0561617469307434 
2.5200000000008935, -2.055879142319859 
2.5300000000009146, -2.0549973231523095 
2.5400000000009357, -2.0534325025601055 
2.550000000000957, -2.0510221077336217 
2.560000000000978, -2.047705889310034 
2.570000000000999, -2.0441340418581344 
2.58000000000102, -2.041951972418358 
2.5900000000010412, -2.0417661548012034 
2.6000000000010624, -2.0422868787918484 
2.6100000000010835, -2.042537694679012 
2.6200000000011046, -2.0423256924011772 
2.6300000000011257, -2.0416535893734644 
2.6400000000011468, -2.0405881612288925 
2.650000000001168, -2.039675289288996 
2.660000000001189, -2.040206690485166 
2.67000000000121, -2.042547315599903 
2.680000000001231, -2.0452807206466153 
2.6900000000012523, -2.047320933889471 
2.7000000000012734, -2.0485106306399947 
2.7100000000012945, -2.0489847468156417 
2.7200000000013156, -2.048849958940501 
2.7300000000013367, -2.048118757467919 
2.740000000001358, -2.046694789607705 
2.750000000001379, -2.044366538171116 
2.7600000000014, -2.0408900201896345 
2.770000000001421, -2.0364859116660585 
2.780000000001442, -2.0327716910505993 
2.7900000000014633, -2.0316037344931073 
2.8000000000014844, -2.032169023903931 
2.8100000000015055, -2.0327830744606783 
2.8200000000015266, -2.032905083853722 
2.8300000000015477, -2.032544848564581 
2.840000000001569, -2.0317649265728934 
2.85000000000159, -2.030793548746044 
2.860000000001611, -2.0304415103659816 
2.870000000001632, -2.031613917164076 
2.8800000000016532, -2.0338014345961346 
2.8900000000016743, -2.0358170799466224 
2.9000000000016954, -2.037163776059951 
2.9100000000017165, -2.0378401027945476 
2.9200000000017377, -2.037924530736219 
2.9300000000017588, -2.0374357869032087 
2.94000000000178, -2.0362944515877595 
2.950000000001801, -2.034295910808011 
2.960000000001822, -2.031110693319638 
2.970000000001843, -2.026520281609736 
2.9800000000018643, -2.0213730281303888 
2.9900000000018854, -2.0182141934057425 
3.0000000000019065, -2.018084906466009 
3.0100000000019276, -2.019009099991987 
3.0200000000019487, -2.019566711433426 
3.03000000000197, -2.0195654073356937 
3.040000000001991, -2.0190989456633472 
3.050000000002012, -2.0182772206496176 
3.060000000002033, -2.0174730787565087 
3.070000000002054, -2.017552103981463 
3.0800000000020753, -2.018955674899639 
3.0900000000020964, -2.0208806648445643 
3.1000000000021175, -2.0224597829699595 
3.1100000000021386, -2.0234375278709456 
3.1200000000021597, -2.023834382014009 
3.130000000002181, -2.023683533133725 
3.140000000002202, -2.0229485222130648 
3.150000000002223, -2.021485385659092 
3.160000000002244, -2.0190081206129507 
3.1700000000022652, -2.015118077443783 
3.1800000000022863, -2.0097357869847743 
3.1900000000023074, -2.0043763049846093 
3.2000000000023285, -2.0019312369649853 
3.2100000000023496, -2.0024084497506696 
3.2200000000023707, -2.0034269280533 
3.230000000002392, -2.0039103454037748 
3.240000000002413, -2.0038300873523984 
3.250000000002434, -2.0033049882576655 
3.260000000002455, -2.0024762658772106 
3.2700000000024763, -2.001795670818166 
3.2800000000024974, -2.0020961203364998 
3.2900000000025185, -2.003567608999734 
3.3000000000025396, -2.0053587829900743 
3.3100000000025607, -2.0067611612749663 
3.3200000000025818, -2.0075959806921837 
3.330000000002603, -2.0078822363527333 
3.340000000002624, -2.0076334158158846 
3.350000000002645, -2.0067912778191648 
3.360000000002666, -2.0051878935890257 
3.3700000000026873, -2.0025120470207898 
3.3800000000027084, -1.9983614129490277 
3.3900000000027295, -1.992761336197881 
3.4000000000027506, -1.9874750845825797 
3.4100000000027717, -1.9853318057689062 
3.420000000002793, -1.985949873091982 
3.430000000002814, -1.9869569833957557 
3.440000000002835, -1.9874065584928549 
3.450000000002856, -1.9873016283228555 
3.460000000002877, -1.9867590424843744 
3.4700000000028983, -1.9859214197363375 
3.4800000000029194, -1.9852517423225138 
3.4900000000029405, -1.9855885549790209 
3.5000000000029616, -1.9871118145562683 
3.5100000000029827, -1.9889599317448827 
3.520000000003004, -1.9904153351897302 
3.530000000003025, -1.9912948721196007 
3.540000000003046, -1.991620141318449 
3.550000000003067, -1.9914120450804986 
3.5600000000030882, -1.9906253131815437 
3.5700000000031094, -1.9891151410355525 
3.5800000000031305, -1.9866098567658512 
3.5900000000031516, -1.9827544535087498 
3.6000000000031727, -1.9775361007418386 
3.6100000000031938, -1.9724177235039495 
3.620000000003215, -1.970028623855277 
3.630000000003236, -1.9703889273227333 
3.640000000003257, -1.971327102329333 
3.650000000003278, -1.9717905436718133 
3.6600000000032993, -1.9717135969404809 
3.6700000000033204, -1.9711911759532648 
3.6800000000033415, -1.9703341517357977 
3.6900000000033626, -1.9695489364395908 
3.7000000000033837, -1.9697311307658687 
3.710000000003405, -1.9712960748838113 
3.720000000003426, -1.9734031085758392 
3.730000000003447, -1.9751540545097608 
3.740000000003468, -1.9762758435983954 
3.750000000003489, -1.9767937960692599 
3.7600000000035103, -1.976760873917252 
3.7700000000035314, -1.9761740766919824 
3.7800000000035525, -1.9749466460339966 
3.7900000000035736, -1.9728898297224948 
3.8000000000035947, -1.9697329353454536 
3.810000000003616, -1.9653682340306484 
3.820000000003637, -1.9606503949925855 
3.830000000003658, -1.9577371584202585 
3.840000000003679, -1.9574711783249046 
3.8500000000037002, -1.9582271208825628 
3.8600000000037213, -1.9587245230202153 
3.8700000000037424, -1.958719452372124 
3.8800000000037635, -1.9582576902800117 
3.8900000000037847, -1.9573965989718218 
3.9000000000038058, -1.9564108525982022 
3.910000000003827, -1.9561975057737964 
3.920000000003848, -1.9576527932967214 
3.930000000003869, -1.960180359468327 
3.94000000000389, -1.9625251717733818 
3.9500000000039113, -1.9641474877169016 
3.9600000000039324, -1.9650438259327128 
3.9700000000039535, -1.9653194956034685 
3.9800000000039746, -1.9650373922473037 
3.9900000000039957, -1.9641863536432953 
4.000000000004016, -1.9626729837205203 
4.010000000003993, -1.9603294743143966 
4.02000000000397, -1.957018122147531 
4.030000000003946, -1.9530627074333746 
4.040000000003923, -1.9498423211167961 
4.0500000000039, -1.948732998128906 
4.0600000000038765, -1.9490959672120165 
4.070000000003853, -1.9495837388752792 
4.08000000000383, -1.9496725262123937 
4.090000000003807, -1.9493102269329143 
4.100000000003783, -1.9484965558865355 
4.11000000000376, -1.9473302228655758 
4.120000000003737, -1.9465060720740137 
4.130000000003713, -1.9474274622518006 
4.14000000000369, -1.95031991369049 
4.150000000003667, -1.9536021702254593 
4.1600000000036434, -1.9561042486140547 
4.17000000000362, -1.9576478098493435 
4.180000000003597, -1.9583961368188785 
4.1900000000035735, -1.958506604994848 
4.20000000000355, -1.9580585873570637 
4.210000000003527, -1.9570517986323293 
4.220000000003504, -1.9554171166966643 
4.23000000000348, -1.9530588218808766 
4.240000000003457, -1.9500386683617834 
4.250000000003434, -1.9470151207309438 
4.26000000000341, -1.9452235594672402 
4.270000000003387, -1.944991102338212 
4.280000000003364, -1.9453448162956313 
4.2900000000033405, -1.9455085208019782 
4.300000000003317, -1.9452667885181083 
4.310000000003294, -1.9445601496729552 
4.320000000003271, -1.9433395660343256 
4.330000000003247, -1.941916521628699 
4.340000000003224, -1.9417381820118744 
4.350000000003201, -1.944404738043772 
4.360000000003177, -1.948799686018949 
4.370000000003154, -1.9526943256679234 
4.380000000003131, -1.9552984761006507 
4.390000000003107, -1.9567633212800786 
4.400000000003084, -1.9573807375037995 
4.410000000003061, -1.9573534342974046 
4.4200000000030375, -1.9567814974774482 
4.430000000003014, -1.9556850027893435 
4.440000000002991, -1.954035145044978 
4.450000000002968, -1.9518313871309103 
4.460000000002944, -1.9493286230147198 
4.470000000002921, -1.947301261404655 
4.480000000002898, -1.9464855136512476 
4.490000000002874, -1.9465607529944244 
4.500000000002851, -1.9467337131566644 
4.510000000002828, -1.946602448674258 
4.520000000002804, -1.9460327889468445 
4.530000000002781, -1.944893418932248 
4.540000000002758, -1.9431474415379697 
4.5500000000027345, -1.9416913924969836 
4.560000000002711, -1.9430525987992582 
4.570000000002688, -1.9480604034187323 
4.580000000002665, -1.9537769236540552 
4.590000000002641, -1.957986522082231 
4.600000000002618, -1.9605119106049016 
4.610000000002595, -1.9617986954363205 
4.620000000002571, -1.962231651836703 
4.630000000002548, -1.9620413189459065 
4.640000000002525, -1.9613400754859955 
4.6500000000025015, -1.9601669083818383 
4.660000000002478, -1.958539061655042 
4.670000000002455, -1.956562486449388 
4.6800000000024315, -1.954651573510763 
4.690000000002408, -1.9534865995318977 
4.700000000002385, -1.9532381722628724 
4.710000000002362, -1.953342063459166 
4.720000000002338, -1.9532832471603458 
4.730000000002315, -1.9528399688377522 
4.740000000002292, -1.9518414808016342 
4.750000000002268, -1.9500636927020214 
4.760000000002245, -1.947743415678567 
4.770000000002222, -1.9471570642251055 
4.7800000000021985, -1.9514837597139039 
4.790000000002175, -1.9588423208684733 
4.800000000002152, -1.9650837919892965 
4.810000000002129, -1.9690117892074017 
4.820000000002105, -1.9711292353203755 
4.830000000002082, -1.9720615742834167 
4.840000000002059, -1.9722134798297486 
4.850000000002035, -1.971803997913397 
4.860000000002012, -1.9709385921552958 
4.870000000001989, -1.9696706405112265 
4.880000000001965, -1.9680731259998558 
4.890000000001942, -1.9663819108027922 
4.900000000001919, -1.9651070346878168 
4.9100000000018955, -1.9646161656378118 
4.920000000001872, -1.9646152759799782 
4.930000000001849, -1.9645848439126574 
4.940000000001826, -1.9642311826561862 
4.950000000001802, -1.963358083442009 
