t, s[1].omega / s[0].omega 
0, -1.0099977644150637 
0.009999999999999995, -1.0096992484480107 
0.019999999999999934, -1.0094892394731574 
0.029999999999999874, -1.0093080734615048 
0.04000000000000012, -1.0089857886941056 
0.050000000000000405, -1.0087950970103323 
0.06000000000000069, -1.0085779375444137 
0.07000000000000098, -1.0082415727736804 
0.08000000000000126, -1.0080650188957754 
0.09000000000000155, -1.0078102518812972 
0.10000000000000184, -1.007470365480825 
0.11000000000000212, -1.007300028804842 
0.12000000000000241, -1.0070081892789868 
0.130000000000002, -1.006675614529333 
0.1400000000000009, -1.0065017211494378 
0.1499999999999998, -1.0061753985850048 
0.1599999999999987, -1.0058601378700385 
0.1699999999999976, -1.0056723693842724 
0.1799999999999965, -1.005316127017501 
0.1899999999999954, -1.0050257454705367 
0.1999999999999943, -1.0048149712302425 
0.2099999999999932, -1.0044352173823756 
0.2199999999999921, -1.0041734329041723 
0.229999999999991, -1.0039331780097838 
0.2399999999999899, -1.0035379826292483 
0.2499999999999888, -1.0033040914078912 
0.2599999999999877, -1.0030311259755047 
0.2699999999999866, -1.0026299990928358 
0.2799999999999855, -1.002419127277912 
0.2899999999999844, -1.0021132824416097 
0.2999999999999833, -1.001716796862304 
0.3099999999999822, -1.0015207048146273 
0.3199999999999811, -1.0011843908570937 
0.32999999999998, -1.000803377698911 
0.3399999999999789, -1.0006117850111806 
0.3499999999999778, -1.0002494925453451 
0.35999999999997667, -0.9998936941218612 
0.36999999999997557, -0.9996961463893697 
0.37999999999997447, -0.9993139383381948 
0.38999999999997337, -0.9989904775472542 
0.39999999999997227, -0.99877834630197 
0.40999999999997117, -0.9983833156172306 
0.41999999999997006, -0.9980956151583074 
0.42999999999996896, -0.9978634832787487 
0.43999999999996786, -0.9974632671508865 
0.44999999999996676, -0.9972107852559721 
0.45999999999996566, -0.9969567699285036 
0.46999999999996456, -0.9965592268486558 
0.47999999999996346, -0.9963379230720513 
0.48999999999996235, -0.996063116716914 
0.49999999999996125, -0.9956761228974007 
0.5099999999999602, -0.9954793903591559 
0.519999999999959, -0.9951869206544157 
0.529999999999958, -0.9948181052027082 
0.5399999999999568, -0.9946379888323142 
0.5499999999999557, -0.9943320864409636 
0.5599999999999546, -0.9939883675777046 
0.5699999999999535, -0.9938169464968181 
0.5799999999999524, -0.9935021740004962 
0.5899999999999513, -0.9931891486078294 
0.5999999999999502, -0.9930198557420344 
0.6099999999999491, -0.9927005514931554 
0.619999999999948, -0.9924219517839354 
0.6299999999999469, -0.9922504737723383 
0.6399999999999458, -0.9919304898328293 
0.6499999999999447, -0.9916879196255143 
0.6599999999999436, -0.9915123956053561 
0.6699999999999425, -0.991195192013909 
0.6799999999999414, -0.9909882241030089 
0.6899999999999403, -0.9908087554186368 
0.6999999999999392, -0.9904977797129743 
0.7099999999999381, -0.9903243686987333 
0.719999999999937, -0.9901421274170683 
0.7299999999999359, -0.9898412699919243 
0.7399999999999348, -0.9896983832751123 
0.7499999999999337, -0.9895146775480025 
0.7599999999999326, -0.9892285780812973 
0.7699999999999315, -0.9891129362929811 
0.7799999999999304, -0.9889284864168248 
0.7899999999999293, -0.9886625777241187 
0.7999999999999282, -0.9885713683274145 
0.8099999999999271, -0.9883859076750171 
0.819999999999926, -0.9881462369240673 
0.8299999999999249, -0.9880776226743068 
0.8399999999999238, -0.9878898592048508 
0.8499999999999227, -0.987682829338423 
0.8599999999999216, -0.987636070257055 
0.8699999999999205, -0.9874440280882952 
0.8799999999999194, -0.9872762067602672 
0.8899999999999183, -0.9872512903806283 
0.8999999999999172, -0.987053034847203 
0.9099999999999161, -0.9869311089887761 
0.919999999999915, -0.9869279275244367 
0.9299999999999139, -0.9867226088803658 
0.9399999999999128, -0.9866534821801854 
0.9499999999999117, -0.9866707648061079 
0.9599999999999106, -0.9864597950907283 
0.9699999999999095, -0.9864507693639746 
0.9799999999999084, -0.9864850995889263 
0.9899999999999073, -0.9862731787626623 
0.9999999999999062, -0.9863321183760014 
1.0099999999999052, -0.9863773365883203 
1.019999999999904, -0.9861731000300128 
1.029999999999903, -0.9863084181288666 
1.039999999999902, -0.9863555308095167 
1.0499999999999008, -0.9861718292152726 
1.0599999999998997, -0.986392032630124 
1.0699999999998986, -0.9864296303460094 
1.0799999999998975, -0.9862836780171746 
1.0899999999998964, -0.9865960937976095 
1.0999999999998953, -0.986611384541264 
1.1099999999998942, -0.9865250113477468 
1.119999999999893, -0.9869333413016653 
1.129999999999892, -0.9869140475172391 
1.1399999999998909, -0.9869140822739734 
1.1499999999998898, -0.9874148695373174 
1.1599999999998887, -0.9873519977855867 
1.1699999999998876, -0.9874705266670679 
1.1799999999998865, -0.9880495399364254 
1.1899999999998854, -0.9879403185162935 
1.1999999999998843, -0.9882142270923177 
1.2099999999998832, -0.9888444652278906 
1.219999999999882, -0.9886943498924154 
1.229999999999881, -0.9891631160646426 
1.2399999999998799, -0.989805638092702 
1.2499999999998788, -0.9896292067470969 
1.2599999999998777, -0.9903294403363894 
1.2699999999998766, -0.9909370848724396 
1.2799999999998755, -0.9907590903769352 
1.2899999999998744, -0.9917143356530277 
1.2999999999998733, -0.9922381623310118 
1.3099999999998722, -0.9920957194131184 
1.319999999999871, -0.9933017718980458 
1.32999999999987, -0.9937002205764494 
1.3399999999998689, -0.9936445384214564 
1.3499999999998678, -0.9950551076984145 
1.3599999999998666, -0.99530413867256 
1.3699999999998655, -0.9953977045132906 
1.3799999999998644, -0.9969204977597007 
1.3899999999998633, -0.9970197220212723 
1.3999999999998622, -0.9973256272883658 
1.4099999999998611, -0.9988372899842979 
1.41999999999986, -0.9988075696930728 
1.429999999999859, -0.9993724865587206 
1.4399999999998578, -1.0007485430974687 
1.4499999999998567, -1.0006237756924738 
1.4599999999998556, -1.0014606905479737 
1.4699999999998545, -1.002605228749311 
1.4799999999998534, -1.0024269658824136 
1.4899999999998523, -1.003503528235566 
1.4999999999998512, -1.0043656668190406 
1.5099999999998501, -1.0041844033907878 
1.519999999999849, -1.0054203498329783 
1.529999999999848, -1.005995028564926 
1.5399999999998468, -1.005870315021187 
1.5499999999998457, -1.0071488173897496 
1.5599999999998446, -1.0074664297640155 
1.5699999999998435, -1.0074545711816845 
1.5799999999998424, -1.0086515295134488 
1.5899999999998413, -1.0087625136488458 
1.5999999999998402, -1.008896222957278 
1.6099999999998391, -1.009916192894662 
1.619999999999838, -1.009876646725444 
1.629999999999837, -1.0101546899625695 
1.6399999999998358, -1.0109500088039056 
1.6499999999998347, -1.0108135011898676 
1.6599999999998336, -1.0112056569812244 
1.6699999999998325, -1.01177123788926 
1.6799999999998314, -1.0115877040270969 
1.6899999999998303, -1.0120451732299183 
1.6999999999998292, -1.0124018944527198 
1.709999999999828, -1.0122175820920982 
1.719999999999827, -1.0126837511221953 
1.729999999999826, -1.012863627960968 
1.7399999999998248, -1.0127155092189033 
1.7499999999998237, -1.013139009067185 
1.7599999999998226, -1.0131764141615047 
1.7699999999998215, -1.01308477684786 
1.7799999999998204, -1.0134308269488974 
1.7899999999998193, -1.013358848581911 
1.7999999999998182, -1.013326323053479 
1.809999999999817, -1.0135789684002974 
1.819999999999816, -1.0134289297098313 
1.8299999999998149, -1.0134452275449326 
1.8399999999998138, -1.0136020247640458 
1.8499999999998127, -1.013403994168333 
1.8599999999998116, -1.0134509953022215 
1.8699999999998105, -1.0135168127801781 
1.8799999999998094, -1.0132986941615525 
1.8899999999998083, -1.0133548952451163 
1.8999999999998072, -1.013337978354712 
1.909999999999806, -1.0131224850403118 
1.919999999999805, -1.0131678787740146 
1.9299999999998039, -1.0130779527841618 
1.9399999999998028, -1.012879995610347 
1.9499999999998017, -1.012899690343201 
1.9599999999998006, -1.012747351260375 
1.9699999999997995, -1.0125740492195114 
1.9799999999997984, -1.012558670738562 
1.9899999999997973, -1.0123555673637148 
1.9999999999997962, -1.0122077850464781 
2.0099999999998173, -1.012151873397306 
2.0199999999998384, -1.011911012310555 
2.0299999999998595, -1.0117847298520175 
2.0399999999998806, -1.0116853244079198 
2.0499999999999017, -1.0114206516290316 
2.059999999999923, -1.011308275877194 
2.069999999999944, -1.0111643193090931 
2.079999999999965, -1.0108894213643502 
2.089999999999986, -1.0107815304442491 
2.100000000000007, -1.0105936861825495 
2.1100000000000283, -1.0103204934762524 
2.1200000000000494, -1.010207422500866 
2.1300000000000705, -1.009978010761023 
2.1400000000000916, -1.0097161510699728 
2.1500000000001127, -1.0095888039998593 
2.160000000000134, -1.0093218334122522 
2.170000000000155, -1.0090782042928632 
2.180000000000176, -1.0089284924881416 
2.190000000000197, -1.008629746147721 
2.2000000000002182, -1.008407861630406 
2.2100000000002393, -1.0082292867822327 
2.2200000000002604, -1.0079062968037438 
2.2300000000002815, -1.0077058020944718 
2.2400000000003026, -1.0074940019178773 
2.2500000000003237, -1.007155797265673 
2.260000000000345, -1.0069726391000753 
2.270000000000366, -1.006725565729843 
2.280000000000387, -1.0063822599419951 
2.290000000000408, -1.0062093711128475 
2.3000000000004293, -1.0059271782190697 
2.3100000000004504, -1.0055893977396708 
2.3200000000004715, -1.005417608226519 
2.3300000000004926, -1.005102484658362 
2.3400000000005137, -1.004780381741075 
2.3500000000005348, -1.0045996682885345 
2.360000000000556, -1.0042556938762235 
2.370000000000577, -1.0039574653666639 
2.380000000000598, -1.003758606361785 
2.390000000000619, -1.003391583627921 
2.4000000000006403, -1.0031220116957853 
2.4100000000006614, -1.0028981290388561 
2.4200000000006825, -1.0025153727244136 
2.4300000000007036, -1.0022750594185852 
2.4400000000007247, -1.0020223890323328 
2.450000000000746, -1.0016324935270353 
2.460000000000767, -1.0014179595184072 
2.470000000000788, -1.0011357697105396 
2.480000000000809, -1.0007483009995872 
2.49000000000083, -1.0005527016338667 
2.5000000000008513, -1.0002427744586044 
2.5100000000008724, -0.9998677010596572 
2.5200000000008935, -0.9996819834410564 
2.5300000000009146, -0.9993480306831236 
2.5400000000009357, -0.9989947320830314 
2.550000000000957, -0.9988092116574501 
2.560000000000978, -0.9984563294117778 
2.570000000000999, -0.9981323185175122 
2.58000000000102, -0.9979384598894592 
2.5900000000010412, -0.9975726140340573 
2.6000000000010624, -0.9972824285170069 
2.6100000000010835, -0.9970742752779209 
2.6200000000011046, -0.9967018758190702 
2.6300000000011257, -0.9964465645801741 
2.6400000000011468, -0.9962213073145358 
2.650000000001168, -0.9958489641261903 
2.660000000001189, -0.9956262648871904 
2.67000000000121, -0.9953839127060686 
2.680000000001231, -0.9950183551704426 
2.6900000000012523, -0.9948233922522769 
2.7000000000012734, -0.9945659333440793 
2.7100000000012945, -0.9942139368160531 
2.7200000000013156, -0.994040231482121 
2.7300000000013367, -0.9937707124992021 
2.740000000001358, -0.993438862700928 
2.750000000001379, -0.9932795049173013 
2.7600000000014, -0.9930012673012463 
2.770000000001421, -0.9926955229501213 
2.780000000001442, -0.9925443352662711 
2.7900000000014633, -0.9922604911949109 
2.8000000000014844, -0.9919856659646844 
2.8100000000015055, -0.9918381017208252 
2.8200000000015266, -0.9915513052835772 
2.8300000000015477, -0.9913106626452364 
2.840000000001569, -0.9911641743590697 
2.85000000000159, -0.9908767408963725 
2.860000000001611, -0.9906718449301631 
2.870000000001632, -0.9905256311964215 
2.8800000000016532, -0.9902399695601154 
2.8900000000016743, -0.9900708286458548 
2.9000000000016954, -0.9899251172579728 
2.9100000000017165, -0.9896443033118246 
2.9200000000017377, -0.9895097644935716 
2.9300000000017588, -0.9893649375381705 
2.94000000000178, -0.9890931907385457 
2.950000000001801, -0.9889915052149243 
2.960000000001822, -0.9888473538213707 
2.970000000001843, -0.9885902395657606 
2.9800000000018643, -0.9885196861913323 
2.9900000000018854, -0.9883749628604583 
3.0000000000019065, -0.9881392960005291 
3.0100000000019276, -0.9880987004592423 
3.0200000000019487, -0.9879510231857068 
3.03000000000197, -0.9877445984937687 
3.040000000001991, -0.9877335517682891 
3.050000000002012, -0.9875796747271612 
3.060000000002033, -0.987411004700459 
3.070000000002054, -0.9874296130587358 
3.0800000000020753, -0.9872660903869456 
3.0900000000020964, -0.9871442737805292 
3.1000000000021175, -0.9871923869387639 
3.1100000000021386, -0.9870166337779394 
3.1200000000021597, -0.98695137380343 
3.130000000002181, -0.987027432311611 
3.140000000002202, -0.9868390676327697 
3.150000000002223, -0.9868407702048622 
3.160000000002244, -0.9869406240413101 
3.1700000000022652, -0.986742806205394 
3.1800000000022863, -0.9868226265428185 
3.1900000000023074, -0.986938742786068 
3.2000000000023285, -0.9867391626113026 
3.2100000000023496, -0.9869088054392224 
3.2200000000023707, -0.987030099132389 
3.230000000002392, -0.9868415149816304 
3.240000000002413, -0.9871124995518461 
3.250000000002434, -0.9872247952067529 
3.260000000002455, -0.9870653029202778 
3.2700000000024763, -0.9874472906284522 
3.2800000000024974, -0.9875344721481515 
3.2900000000025185, -0.9874277639188697 
3.3000000000025396, -0.987925552626607 
3.3100000000025607, -0.9879716841086432 
3.3200000000025818, -0.9879473126031203 
3.330000000002603, -0.9885565592754592 
3.340000000002624, -0.9885490978197776 
3.350000000002645, -0.988642429956821 
3.360000000002666, -0.9893452859739297 
3.3700000000026873, -0.9892786348450192 
3.3800000000027084, -0.9895298562353382 
3.3900000000027295, -0.9902927635344858 
3.4000000000027506, -0.9901706496914541 
3.4100000000027717, -0.9906218097678817 
3.420000000002793, -0.9913972322179264 
3.430000000002814, -0.9912332867202045 
3.440000000002835, -0.9919220056769414 
3.450000000002856, -0.9926540285902056 
3.460000000002877, -0.9924720717562815 
3.4700000000028983, -0.9934206669057097 
3.4800000000029194, -0.9940534071977376 
3.4900000000029405, -0.9938892098857218 
3.5000000000029616, -0.9950898345458137 
3.5100000000029827, -0.9955777519523671 
3.520000000003004, -0.9954809797694525 
3.530000000003025, -0.9968819949504081 
3.540000000003046, -0.9972000790528103 
3.550000000003067, -0.9972315629648464 
3.5600000000030882, -0.9987355198246364 
3.5700000000031094, -0.99888476429726 
3.5800000000031305, -0.9991050924016797 
3.5900000000031516, -1.0005865122333366 
3.6000000000031727, -1.000590619995234 
3.6100000000031938, -1.0010426497311928 
3.620000000003215, -1.002380180970062 
3.630000000003236, -1.0022761147808341 
3.640000000003257, -1.0029695459493917 
3.650000000003278, -1.004074986172744 
3.6600000000032993, -1.003905934969794 
3.6700000000033204, -1.0048097179512476 
3.6800000000033415, -1.0056406760524597 
3.6900000000033626, -1.0054559344499312 
3.7000000000033837, -1.0064991261299292 
3.710000000003405, -1.0070555430526755 
3.720000000003426, -1.0069106190552704 
3.730000000003447, -1.007993323666199 
3.740000000003468, -1.008305359996821 
3.750000000003489, -1.0082518893180226 
3.7600000000035103, -1.0092693426141297 
3.7700000000035314, -1.009383410468526 
3.7800000000035525, -1.009452188255224 
3.7900000000035736, -1.010323607825154 
3.8000000000035947, -1.0102907821102893 
3.810000000003616, -1.010483323234832 
3.820000000003637, -1.0111670512364903 
3.830000000003658, -1.011036576874596 
3.840000000003679, -1.0113295722352686 
3.8500000000037002, -1.011818772388395 
3.8600000000037213, -1.011636837186849 
3.8700000000037424, -1.0119909365030926 
3.8800000000037635, -1.0123003414954248 
3.8900000000037847, -1.0121096895896782 
3.9000000000038058, -1.0124782304901345 
3.910000000003827, -1.0126323329541813 
3.920000000003848, -1.0124676890358189 
3.930000000003869, -1.0128071690668956 
3.94000000000389, -1.0128331726702293 
3.9500000000039113, -1.0127150959173308 
3.9600000000039324, -1.0129946130322431 
3.9700000000039535, -1.0129194763114873 
3.9800000000039746, -1.012853185339179 
3.9900000000039957, -1.0130568664174047 
4.000000000004016, -1.0129069105941089 
4.010000000003993, -1.0128858995019792 
4.02000000000397, -1.0130090896763224 
4.030000000003946, -1.0128104233655848 
4.040000000003923, -1.0128205995355877 
4.0500000000039, -1.0128650676652342 
4.0600000000038765, -1.0126428398259695 
4.070000000003853, -1.0126661634617502 
4.08000000000383, -1.0126370179200104 
4.090000000003807, -1.0124127675955554 
4.100000000003783, -1.0124313588983342 
4.11000000000376, -1.012335524831865 
4.120000000003737, -1.0121245571730115 
4.130000000003713, -1.012124116778394 
4.14000000000369, -1.0119697667501937 
4.150000000003667, -1.0117806256318156 
4.1600000000036434, -1.0117513361115922 
4.17000000000362, -1.0115479566576189 
4.180000000003597, -1.0113834006700027 
4.1900000000035735, -1.0113189291451756 
4.20000000000355, -1.0110775948231965 
4.210000000003527, -1.0109355868476457 
4.220000000003504, -1.0108320009699772 
4.23000000000348, -1.0105651615174585 
4.240000000003457, -1.0104398043185663 
4.250000000003434, -1.0102950987632136 
4.26000000000341, -1.0100155561641573 
4.270000000003387, -1.0098985050635108 
4.280000000003364, -1.0097124603837622 
4.2900000000033405, -1.009432107765332 
4.300000000003317, -1.0093141130884824 
4.310000000003294, -1.0090882263461298 
4.320000000003271, -1.008817215203352 
4.330000000003247, -1.008689139929712 
4.340000000003224, -1.0084266156723962 
4.350000000003201, -1.0081727712888169 
4.360000000003177, -1.0080262202763626 
4.370000000003154, -1.007732027409662 
4.380000000003131, -1.007500090795427 
4.390000000003107, -1.0073280986009634 
4.400000000003084, -1.0070089813100846 
4.410000000003061, -1.0067999327883232 
4.4200000000030375, -1.0065976111976336 
4.430000000003014, -1.0062619158500858 
4.440000000002991, -1.006072916578628 
4.450000000002968, -1.00583771822439 
4.460000000002944, -1.0054950258893196 
4.470000000002921, -1.0053200002881473 
4.480000000002898, -1.0050516108637633 
4.490000000002874, -1.0047122021378998 
4.500000000002851, -1.0045427447752833 
4.510000000002828, -1.0042428589076573 
4.520000000002804, -1.0039168613232743 
4.530000000002781, -1.0037434110625707 
4.540000000002758, -1.0034155297202199 
4.5500000000027345, -1.003111616337767 
4.560000000002711, -1.0029249799962014 
4.570000000002688, -1.0025742143589678 
4.580000000002665, -1.0022981663985409 
4.590000000002641, -1.0020910664246812 
4.600000000002618, -1.0017239246401133 
4.610000000002595, -1.0014776812304886 
4.620000000002571, -1.0012457046407923 
4.630000000002548, -1.0008698742094226 
4.640000000002525, -1.000651407431634 
4.6500000000025015, -1.0003930968293173 
4.660000000002478, -1.0000171971521568 
4.670000000002455, -0.9998210817974256 
4.6800000000024315, -0.9995374576817826 
4.690000000002408, -0.9991706383028044 
4.700000000002385, -0.9989890684418751 
4.710000000002362, -0.9986829991877058 
4.720000000002338, -0.9983342271941293 
4.730000000002315, -0.9981583687597098 
4.740000000002292, -0.9978339920221293 
4.750000000002268, -0.9975110298047161 
4.760000000002245, -0.9973325822211903 
4.770000000002222, -0.9969948094013344 
4.7800000000021985, -0.9967031572366598 
4.790000000002175, -0.9965157543088566 
4.800000000002152, -0.9961698944929984 
4.810000000002129, -0.9959120901774396 
4.820000000002105, -0.9957120639683098 
4.830000000002082, -0.9953636410640594 
4.840000000002059, -0.9951391419805687 
4.850000000002035, -0.994925454353779 
4.860000000002012, -0.9945802147110155 
4.870000000001989, -0.9943858256511874 
4.880000000001965, -0.9941593932232479 
4.890000000001942, -0.9938233659733468 
4.900000000001919, -0.9936540428745569 
4.9100000000018955, -0.9934168632474039 
4.920000000001872, -0.9930962910948031 
4.930000000001849, -0.9929461500294359 
