t, s[1].omega / s[0].omega 
0, -1.35995954358628 
0.009999999999999995, -1.3553044199052964 
0.019999999999999934, -1.3494996138588429 
0.029999999999999874, -1.3429273483011397 
0.04000000000000012, -1.3364779021669153 
0.050000000000000405, -1.3313726831084176 
0.06000000000000069, -1.3284429494510803 
0.07000000000000098, -1.327494894723388 
0.08000000000000126, -1.32763202958406 
0.09000000000000155, -1.328043666482079 
0.10000000000000184, -1.328321378350848 
0.11000000000000212, -1.3283303660657586 
0.12000000000000241, -1.328021743630733 
0.130000000000002, -1.3273183923849996 
0.1400000000000009, -1.3260459242395277 
0.1499999999999998, -1.3238761180423486 
0.1599999999999987, -1.3203203324911346 
0.1699999999999976, -1.3149853882400366 
0.1799999999999965, -1.3085333317551489 
0.1899999999999954, -1.304197645122172 
0.1999999999999943, -1.3070850252562478 
0.2099999999999932, -1.3188487683666206 
0.2199999999999921, -1.3346664625947526 
0.229999999999991, -1.3484626485343107 
0.2399999999999899, -1.357823593504447 
0.2499999999999888, -1.3633051532836897 
0.2599999999999877, -1.3662277980952688 
0.2699999999999866, -1.367643636779162 
0.2799999999999855, -1.3681940830400918 
0.2899999999999844, -1.3682284311076653 
0.2999999999999833, -1.3679325284988102 
0.3099999999999822, -1.3674294968633216 
0.3199999999999811, -1.3668705493099422 
0.32999999999998, -1.3665100237331937 
0.3399999999999789, -1.3666847795197934 
0.3499999999999778, -1.3676258669581307 
0.35999999999997667, -1.369261397487397 
0.36999999999997557, -1.3712678348319534 
0.37999999999997447, -1.3732923196793254 
0.38999999999997337, -1.375092988458325 
0.39999999999997227, -1.376546928275539 
0.40999999999997117, -1.3776091457118784 
0.41999999999997006, -1.3782768397322767 
0.42999999999996896, -1.378568941610772 
0.43999999999996786, -1.378516189909151 
0.44999999999996676, -1.3781566159697376 
0.45999999999996566, -1.3775345217442596 
0.46999999999996456, -1.376703450312585 
0.47999999999996346, -1.3757323003534483 
0.48999999999996235, -1.3747097021972756 
0.49999999999996125, -1.373741410472061 
0.5099999999999602, -1.372938385702327 
0.519999999999959, -1.3723883622335864 
0.529999999999958, -1.3721093907314381 
0.5399999999999568, -1.3720242337922606 
0.5499999999999557, -1.371994923836181 
0.5599999999999546, -1.3718806814613553 
0.5699999999999535, -1.3715580036204509 
0.5799999999999524, -1.370896609431146 
0.5899999999999513, -1.3697173966641005 
0.5999999999999502, -1.3677524087467767 
0.6099999999999491, -1.3646234608869314 
0.619999999999948, -1.359869672133883 
0.6299999999999469, -1.3530766612370573 
0.6399999999999458, -1.3441729553913817 
0.6499999999999447, -1.3338896200386563 
0.6599999999999436, -1.3240507661405183 
0.6699999999999425, -1.3169186719715837 
0.6799999999999414, -1.313546552736657 
0.6899999999999403, -1.313038380585677 
0.6999999999999392, -1.3137491917089297 
0.7099999999999381, -1.3145716539395615 
0.719999999999937, -1.3150946150190808 
0.7299999999999359, -1.31525298400968 
0.7399999999999348, -1.3150620359207768 
0.7499999999999337, -1.31450302153389 
0.7599999999999326, -1.3134791997904147 
0.7699999999999315, -1.311802795284679 
0.7799999999999304, -1.3092584847593536 
0.7899999999999293, -1.3059252089570417 
0.7999999999999282, -1.3029917640753927 
0.8099999999999271, -1.303535403995188 
0.819999999999926, -1.3110263670884117 
0.8299999999999249, -1.3252538986187736 
0.8399999999999238, -1.341546056394931 
0.8499999999999227, -1.35521946525912 
0.8599999999999216, -1.3646050026717798 
0.8699999999999205, -1.370269744126954 
0.8799999999999194, -1.3733942798340497 
0.8899999999999183, -1.3749644471483804 
0.8999999999999172, -1.375617872871995 
0.9099999999999161, -1.3757224569466457 
0.919999999999915, -1.375485114771425 
0.9299999999999139, -1.3750432830833257 
0.9399999999999128, -1.374541596031496 
0.9499999999999117, -1.3741818946123803 
0.9599999999999106, -1.3741947109322514 
0.9699999999999095, -1.374713640549944 
0.9799999999999084, -1.3756762235988877 
0.9899999999999073, -1.3768778466647196 
0.9999999999999062, -1.3781008612933756 
1.0099999999999052, -1.3791869729518431 
1.019999999999904, -1.3800418970547175 
1.029999999999903, -1.3806166323849696 
1.039999999999902, -1.3808895712132148 
1.0499999999999008, -1.3808546735745701 
1.0599999999998997, -1.3805153267476558 
1.0699999999998986, -1.3798824213673986 
1.0799999999998975, -1.3789757906899462 
1.0899999999998964, -1.3778292965377177 
1.0999999999998953, -1.3764997054709678 
1.1099999999998942, -1.3750776825559394 
1.119999999999893, -1.3736962021402188 
1.129999999999892, -1.3725219357224447 
1.1399999999998909, -1.3717023974812204 
1.1499999999998898, -1.3712760861559978 
1.1599999999998887, -1.371134234450319 
1.1699999999998876, -1.3710902826459577 
1.1799999999998865, -1.3709718586371544 
1.1899999999998854, -1.3706430919426311 
1.1999999999998843, -1.3699645101374631 
1.2099999999998832, -1.3687289910175686 
1.219999999999882, -1.3665888301618998 
1.229999999999881, -1.3629837666883642 
1.2399999999998799, -1.357119935928035 
1.2499999999998788, -1.3481413369080644 
1.2599999999998777, -1.3357238459317091 
1.2699999999998766, -1.3211159864507702 
1.2799999999998755, -1.3076650997717747 
1.2899999999998744, -1.2990547502882988 
1.2999999999998733, -1.2961671487988327 
1.3099999999998722, -1.2968344093999535 
1.319999999999871, -1.29852746332778 
1.32999999999987, -1.2999583757013942 
1.3399999999998689, -1.300822129107915 
1.3499999999998678, -1.3011781673308118 
1.3599999999998666, -1.3011286705829865 
1.3699999999998655, -1.300719664355356 
1.3799999999998644, -1.2999243419297692 
1.3899999999998633, -1.2986598675306626 
1.3999999999998622, -1.2968744964739236 
1.4099999999998611, -1.294826892282559 
1.41999999999986, -1.2936380134491199 
1.429999999999859, -1.2955911468746752 
1.4399999999998578, -1.3028339972159417 
1.4499999999998567, -1.3148842669086194 
1.4599999999998556, -1.3284890666419844 
1.4699999999998545, -1.340361660307807 
1.4799999999998534, -1.3490533899534625 
1.4899999999998523, -1.3546862947691207 
1.4999999999998512, -1.3580128941970864 
1.5099999999998501, -1.3598026603765536 
1.519999999999849, -1.3606272779642183 
1.529999999999848, -1.3608534708295845 
1.5399999999998468, -1.3607026913899904 
1.5499999999998457, -1.3603194124180336 
1.5599999999998446, -1.3598336771236885 
1.5699999999998435, -1.3594060110063713 
1.5799999999998424, -1.3592210491742107 
1.5899999999998413, -1.3594099224372078 
1.5999999999998402, -1.3599695242851695 
1.6099999999998391, -1.360775215380627 
1.619999999999838, -1.3616633528143827 
1.629999999999837, -1.3624936253965345 
1.6399999999998358, -1.363166242876631 
1.6499999999998347, -1.3636170156216378 
1.6599999999998336, -1.3638072959436747 
1.6699999999998325, -1.3637148372387249 
1.6799999999998314, -1.3633279213587541 
1.6899999999998303, -1.3626430230573738 
1.6999999999998292, -1.3616655803507938 
1.709999999999828, -1.3604142324937953 
1.719999999999827, -1.358929554817412 
1.729999999999826, -1.3572875588349522 
1.7399999999998248, -1.355615162024289 
1.7499999999998237, -1.3540946020462106 
1.7599999999998226, -1.3529246825495613 
1.7699999999998215, -1.3522209970340815 
1.7799999999998204, -1.3519293803244665 
1.7899999999998193, -1.3518612177048528 
1.7999999999998182, -1.351810311551362 
1.809999999999817, -1.3516190776557433 
1.819999999999816, -1.3511595807451546 
1.8299999999998149, -1.3502735901837797 
1.8399999999998138, -1.3487001590614864 
1.8499999999998127, -1.3459939810641135 
1.8599999999998116, -1.3414523253990127 
1.8699999999998105, -1.334139285726233 
1.8799999999998094, -1.3232215201582498 
1.8899999999998083, -1.3088611079255874 
1.8999999999998072, -1.2933480814907121 
1.909999999999806, -1.2808157723623155 
1.919999999999805, -1.2742944469978694 
1.9299999999998039, -1.2731748172677333 
1.9399999999998028, -1.2746537865436574 
1.9499999999998017, -1.2765120202378712 
1.9599999999998006, -1.2778757056448264 
1.9699999999997995, -1.2786367554108944 
1.9799999999997984, -1.2789061294642008 
1.9899999999997973, -1.2787857765803532 
1.9999999999997962, -1.2783098486287625 
2.0099999999998173, -1.2774400580354588 
2.0199999999998384, -1.2760890781249739 
2.0299999999998595, -1.274221625876986 
2.0399999999998806, -1.2721581773316875 
2.0499999999999017, -1.2711309794069878 
2.059999999999923, -1.2735008189739718 
2.069999999999944, -1.2813402424873133 
2.079999999999965, -1.293993506784809 
2.089999999999986, -1.3080881455360474 
2.100000000000007, -1.3202988042380215 
2.1100000000000283, -1.329188930757788 
2.1200000000000494, -1.3349214077327063 
2.1300000000000705, -1.338292803331738 
2.1400000000000916, -1.3401031509349128 
2.1500000000001127, -1.3409397937149714 
2.160000000000134, -1.341175477089257 
2.170000000000155, -1.341032644860531 
2.180000000000176, -1.3406540938974567 
2.190000000000197, -1.3401674620565 
2.2000000000002182, -1.3397350832869415 
2.2100000000002393, -1.3395559434882771 
2.2200000000002604, -1.3397885606986235 
2.2300000000002815, -1.3404516245704425 
2.2400000000003026, -1.3414176232233586 
2.2500000000003237, -1.3425009607609817 
2.260000000000345, -1.3435387990566765 
2.270000000000366, -1.3444178457625513 
2.280000000000387, -1.3450689906431041 
2.290000000000408, -1.3454543096619485 
2.3000000000004293, -1.3455557350762604 
2.3100000000004504, -1.345367735928614 
2.3200000000004715, -1.344893907039856 
2.3300000000004926, -1.3441466489964666 
2.3400000000005137, -1.3431497108913866 
2.3500000000005348, -1.3419439399074775 
2.360000000000556, -1.3405956613562544 
2.370000000000577, -1.3392049454404573 
2.380000000000598, -1.3379076740734699 
2.390000000000619, -1.3368565884461645 
2.4000000000006403, -1.3361635033836277 
2.4100000000006614, -1.3358272048242874 
2.4200000000006825, -1.3357241350217448 
2.4300000000007036, -1.3356805293648741 
2.4400000000007247, -1.3355428310827286 
2.450000000000746, -1.3351858959705467 
2.460000000000767, -1.3344748751935127 
2.470000000000788, -1.3332121720432002 
2.480000000000809, -1.3310839037979878 
2.49000000000083, -1.3276208327999228 
2.5000000000008513, -1.3222167625922043 
2.5100000000008724, -1.3142909270528136 
2.5200000000008935, -1.303696670499448 
2.5300000000009146, -1.29134197984677 
2.5400000000009357, -1.2795154643575053 
2.550000000000957, -1.270967720473795 
2.560000000000978, -1.2669162903294082 
2.570000000000999, -1.266284703389715 
2.58000000000102, -1.26714277171924 
2.5900000000010412, -1.2681793379854114 
2.6000000000010624, -1.268896291513945 
2.6100000000010835, -1.269215774052248 
2.6200000000011046, -1.2691724254589707 
2.6300000000011257, -1.268780661901763 
2.6400000000011468, -1.2679874805349065 
2.650000000001168, -1.266652523508417 
2.660000000001189, -1.2645595833310757 
2.67000000000121, -1.261553116407645 
2.680000000001231, -1.258013360063255 
2.6900000000012523, -1.2557422836510863 
2.7000000000012734, -1.2582112825493361 
2.7100000000012945, -1.268112801020141 
2.7200000000013156, -1.2837773572384024 
2.7300000000013367, -1.3000955956409381 
2.740000000001358, -1.3130456590342046 
2.750000000001379, -1.3216397283824457 
2.7600000000014, -1.3267197339785497 
2.770000000001421, -1.3294807122594152 
2.780000000001442, -1.330843894802431 
2.7900000000014633, -1.3313837157238904 
2.8000000000014844, -1.3314245562131217 
2.8100000000015055, -1.331146708002971 
2.8200000000015266, -1.3306728924737294 
2.8300000000015477, -1.3301454528485692 
2.840000000001569, -1.3297863809861166 
2.85000000000159, -1.329880516267354 
2.860000000001611, -1.3306323395259658 
2.870000000001632, -1.332009955494486 
2.8800000000016532, -1.333766543914568 
2.8900000000016743, -1.3356042153794534 
2.9000000000016954, -1.3372968017905118 
2.9100000000017165, -1.3387128823115608 
2.9200000000017377, -1.3397910122111152 
2.9300000000017588, -1.3405119061999593 
2.94000000000178, -1.3408804336314755 
2.950000000001801, -1.3409162378238182 
2.960000000001822, -1.3406492110133859 
2.970000000001843, -1.3401176174933442 
2.9800000000018643, -1.3393690966088696 
2.9900000000018854, -1.3384649023769282 
3.0000000000019065, -1.3374843024554568 
3.0100000000019276, -1.3365233443276396 
3.0200000000019487, -1.3356850890411152 
3.03000000000197, -1.3350600428452517 
3.040000000001991, -1.334693091339906 
3.050000000002012, -1.3345511393605076 
3.060000000002033, -1.3345286388320103 
3.070000000002054, -1.3344931853891446 
3.0800000000020753, -1.3343231213984654 
3.0900000000020964, -1.3339069667960812 
3.1000000000021175, -1.3331172116127699 
3.1100000000021386, -1.331781127923589 
3.1200000000021597, -1.3296643304771742 
3.130000000002181, -1.3264811216978072 
3.140000000002202, -1.3219481345688824 
3.150000000002223, -1.315899115534259 
3.160000000002244, -1.3084750876593518 
3.1700000000022652, -1.3003580716287508 
3.1800000000022863, -1.2928443343986677 
3.1900000000023074, -1.2873750147893264 
3.2000000000023285, -1.2845866038987894 
3.2100000000023496, -1.283903376840677 
3.2200000000023707, -1.2842230888663533 
3.230000000002392, -1.2847260718608495 
3.240000000002413, -1.285047973996923 
3.250000000002434, -1.2850850540365013 
3.260000000002455, -1.2848055471766529 
3.2700000000024763, -1.2841469064908868 
3.2800000000024974, -1.2829560222707452 
3.2900000000025185, -1.2809376871103157 
3.3000000000025396, -1.2776322959290023 
3.3100000000025607, -1.2725734807947666 
3.3200000000025818, -1.2659828600688008 
3.330000000002603, -1.2601285281282055 
3.340000000002624, -1.2596300091282229 
3.350000000002645, -1.2677645179761425 
3.360000000002666, -1.2820167239156723 
3.3700000000026873, -1.2964224215403548 
3.3800000000027084, -1.3071878956920713 
3.3900000000027295, -1.3139086256373287 
3.4000000000027506, -1.3176716472140946 
3.4100000000027717, -1.3196070909087692 
3.420000000002793, -1.3204774396081498 
3.430000000002814, -1.3207184937628456 
3.440000000002835, -1.3205604113857146 
3.450000000002856, -1.320128470348507 
3.460000000002877, -1.3195287748104838 
3.4700000000028983, -1.318941449814172 
3.4800000000029194, -1.3186996236599713 
3.4900000000029405, -1.3192392515841396 
3.5000000000029616, -1.3208369904706099 
3.5100000000029827, -1.3233616386511295 
3.520000000003004, -1.3263584515795714 
3.530000000003025, -1.329345346079355 
3.540000000003046, -1.3319967779094912 
3.550000000003067, -1.3341538514455542 
3.5600000000030882, -1.3357688453109329 
3.5700000000031094, -1.3368566556150874 
3.5800000000031305, -1.337466130610164 
3.5900000000031516, -1.3376634094158542 
3.6000000000031727, -1.3375207611759325 
3.6100000000031938, -1.3371106162907522 
3.620000000003215, -1.336506878179183 
3.630000000003236, -1.3357917167683702 
3.640000000003257, -1.3350590041755388 
3.650000000003278, -1.3344047878586212 
3.6600000000032993, -1.3339075699414127 
3.6700000000033204, -1.3336105808072707 
3.6800000000033415, -1.3335090954006148 
3.6900000000033626, -1.333544646890944 
3.7000000000033837, -1.3336189446777467 
3.710000000003405, -1.333623547199682 
3.720000000003426, -1.3334590085953109 
3.730000000003447, -1.3330315114894502 
3.740000000003468, -1.3322387894510515 
3.750000000003489, -1.3309611056871056 
3.7600000000035103, -1.3290657135433828 
3.7700000000035314, -1.326426347283411 
3.7800000000035525, -1.322956894850456 
3.7900000000035736, -1.3186633301702648 
3.8000000000035947, -1.3137242282123658 
3.810000000003616, -1.3085879063566317 
3.820000000003637, -1.3039843583202078 
3.830000000003658, -1.3006690586644196 
3.840000000003679, -1.298944062084561 
3.8500000000037002, -1.298461210552282 
3.8600000000037213, -1.298579588243808 
3.8700000000037424, -1.2988000758147016 
3.8800000000037635, -1.298873061075192 
3.8900000000037847, -1.2986938678607711 
3.9000000000038058, -1.2981827160720427 
3.910000000003827, -1.2971983333615074 
3.920000000003848, -1.2954593727127874 
3.930000000003869, -1.292451181287125 
3.94000000000389, -1.287358453491874 
3.9500000000039113, -1.279248950016955 
3.9600000000039324, -1.268016975133532 
3.9700000000039535, -1.256179046766272 
3.9800000000039746, -1.2491300101788683 
3.9900000000039957, -1.2507048277117003 
4.000000000004016, -1.258759115187517 
4.010000000003993, -1.2680121620797533 
4.02000000000397, -1.2751572985842357 
4.030000000003946, -1.2796652362801475 
4.040000000003923, -1.2821881700704905 
4.0500000000039, -1.2834538525965942 
4.0600000000038765, -1.2839571666079195 
4.070000000003853, -1.2839767247021645 
4.08000000000383, -1.2836505286267275 
4.090000000003807, -1.2830452567521826 
4.100000000003783, -1.2822335624314474 
4.11000000000376, -1.2814158240204148 
4.120000000003737, -1.2810774575963513 
4.130000000003713, -1.282002700103126 
4.14000000000369, -1.284868848913719 
4.150000000003667, -1.289631683318738 
4.1600000000036434, -1.295458407488984 
4.17000000000362, -1.3013028631773367 
4.180000000003597, -1.3064178011972327 
4.1900000000035735, -1.3104635430860292 
4.20000000000355, -1.3133967160937021 
4.210000000003527, -1.3153376737262659 
4.220000000003504, -1.3164745100209863 
4.23000000000348, -1.31700138798044 
4.240000000003457, -1.3170852386590544 
4.250000000003434, -1.3168575377734488 
4.26000000000341, -1.316425551776285 
4.270000000003387, -1.3158934424568591 
4.280000000003364, -1.3153773412733716 
4.2900000000033405, -1.3149949994026644 
4.300000000003317, -1.3148289125370218 
4.310000000003294, -1.3148956210276102 
4.320000000003271, -1.3151496283964004 
4.330000000003247, -1.3155087020943275 
4.340000000003224, -1.3158774652909717 
4.350000000003201, -1.3161647655958881 
4.360000000003177, -1.3162940312280187 
4.370000000003154, -1.3162045102332125 
4.380000000003131, -1.3158472805877495 
4.390000000003107, -1.315182338741647 
4.400000000003084, -1.3141791308828041 
4.410000000003061, -1.3128195091590575 
4.4200000000030375, -1.311102764692545 
4.430000000003014, -1.3090551061248945 
4.440000000002991, -1.3067471580837728 
4.450000000002968, -1.3043194629727737 
4.460000000002944, -1.3020015049989209 
4.470000000002921, -1.3000821973439223 
4.480000000002898, -1.2987909008284793 
4.490000000002874, -1.298150539565992 
4.500000000002851, -1.2979638105762616 
4.510000000002828, -1.2979568720201988 
4.520000000002804, -1.2979124350101263 
4.530000000002781, -1.2976897364046835 
4.540000000002758, -1.2971724070931072 
4.5500000000027345, -1.2961996221777212 
4.560000000002711, -1.2944919814522602 
4.570000000002688, -1.2915658905289578 
4.580000000002665, -1.2866564932759146 
4.590000000002641, -1.2787546504456422 
4.600000000002618, -1.2670011061155133 
4.610000000002595, -1.2516683765138947 
4.620000000002571, -1.2352633730472975 
4.630000000002548, -1.222020480798571 
4.640000000002525, -1.2149261994077218 
4.6500000000025015, -1.2134222861557284 
4.660000000002478, -1.214784826810382 
4.670000000002455, -1.21672976058518 
4.6800000000024315, -1.2182580663782272 
4.690000000002408, -1.2191844746273977 
4.700000000002385, -1.219598752484663 
4.710000000002362, -1.2196109227386003 
4.720000000002338, -1.219273994120677 
4.730000000002315, -1.2185680873388407 
4.740000000002292, -1.217400377147609 
4.750000000002268, -1.2156307669031707 
4.760000000002245, -1.213196799800199 
4.770000000002222, -1.2104840648381472 
4.7800000000021985, -1.2089744842494696 
4.790000000002175, -1.2114668042746009 
4.800000000002152, -1.2204267165841944 
4.810000000002129, -1.235122162993342 
4.820000000002105, -1.2514961637703215 
4.830000000002082, -1.265480741144313 
4.840000000002059, -1.275400243485088 
4.850000000002035, -1.2816018671780154 
4.860000000002012, -1.2851488159143198 
4.870000000001989, -1.2870178328528354 
4.880000000001965, -1.2878778218598883 
4.890000000001942, -1.288128414210916 
4.900000000001919, -1.2879937195372289 
4.9100000000018955, -1.2876062474866166 
4.920000000001872, -1.2870797686257118 
4.930000000001849, -1.2865794773008334 
4.940000000001826, -1.2863653618904973 
