t, s[1].omega / s[0].omega 
0, -0.4399866917643916 
0.009999999999999995, -0.4387380488363185 
0.019999999999999934, -0.437659360530725 
0.029999999999999874, -0.4367388009794378 
0.04000000000000012, -0.43594706889214735 
0.050000000000000405, -0.4352512244223387 
0.06000000000000069, -0.43462396160116024 
0.07000000000000098, -0.43404816808385915 
0.08000000000000126, -0.43351841936147 
0.09000000000000155, -0.43304168152969735 
0.10000000000000184, -0.4326392955346696 
0.11000000000000212, -0.43235193970569963 
0.12000000000000241, -0.4322492689659909 
0.130000000000002, -0.4324464578497615 
0.1400000000000009, -0.4331306010769045 
0.1499999999999998, -0.4345995491426521 
0.1599999999999987, -0.43731016681754903 
0.1699999999999976, -0.44191131847560233 
0.1799999999999965, -0.44917969416176085 
0.1899999999999954, -0.4596876370456421 
0.1999999999999943, -0.4730767698741848 
0.2099999999999932, -0.48739730432562894 
0.2199999999999921, -0.4997615779889107 
0.229999999999991, -0.5083630786473334 
0.2399999999999899, -0.513452835040084 
0.2499999999999888, -0.5162983160086838 
0.2599999999999877, -0.5179793345864019 
0.2699999999999866, -0.5190811307205283 
0.2799999999999855, -0.519858762077043 
0.2899999999999844, -0.5204174017609259 
0.2999999999999833, -0.5208053176179949 
0.3099999999999822, -0.5210491321443496 
0.3199999999999811, -0.5211645341071147 
0.32999999999998, -0.5211587730284832 
0.3399999999999789, -0.5210312153280894 
0.3499999999999778, -0.5207744464128075 
0.35999999999997667, -0.5203774604691843 
0.36999999999997557, -0.5198320915572983 
0.37999999999997447, -0.5191423353717342 
0.38999999999997337, -0.5183329447511645 
0.39999999999997227, -0.5174508859905461 
0.40999999999997117, -0.5165555310251014 
0.41999999999997006, -0.5157013525317896 
0.42999999999996896, -0.5149228754464678 
0.43999999999996786, -0.5142293214669487 
0.44999999999996676, -0.5136092944103707 
0.45999999999996566, -0.5130409391614296 
0.46999999999996456, -0.5125022510630205 
0.47999999999996346, -0.5119780995175336 
0.48999999999996235, -0.511463352269588 
0.49999999999996125, -0.5109637176898277 
0.5099999999999602, -0.5104966669098951 
0.519999999999959, -0.5100944253031876 
0.529999999999958, -0.5098105067073864 
0.5399999999999568, -0.5097311938443169 
0.5499999999999557, -0.5099937256449035 
0.5599999999999546, -0.5108132358702238 
0.5699999999999535, -0.5125193982318385 
0.5799999999999524, -0.5155978971150207 
0.5899999999999513, -0.5207136068978653 
0.5999999999999502, -0.5286504994103491 
0.6099999999999491, -0.5400453954223352 
0.619999999999948, -0.55482307287704 
0.6299999999999469, -0.5715968154241409 
0.6399999999999458, -0.5878510467584803 
0.6499999999999447, -0.6012754287556016 
0.6599999999999436, -0.6109951543294987 
0.6699999999999425, -0.6174594156509443 
0.6799999999999414, -0.6215865406178989 
0.6899999999999403, -0.62418433999873 
0.6999999999999392, -0.625806065648712 
0.7099999999999381, -0.6267960011953018 
0.719999999999937, -0.6273608191526335 
0.7299999999999359, -0.627620780185111 
0.7399999999999348, -0.6276397963579583 
0.7499999999999337, -0.6274411941599755 
0.7599999999999326, -0.6270147522036369 
0.7699999999999315, -0.6263193061674988 
0.7799999999999304, -0.6252859011348357 
0.7899999999999293, -0.6238289360673515 
0.7999999999999282, -0.6218738193120349 
0.8099999999999271, -0.6194017192439303 
0.819999999999926, -0.6164908776779272 
0.8299999999999249, -0.6133181931874958 
0.8399999999999238, -0.6101069715515732 
0.8499999999999227, -0.6070546656866902 
0.8599999999999216, -0.6042884315131289 
0.8699999999999205, -0.6018630987898022 
0.8799999999999194, -0.5997837863531048 
0.8899999999999183, -0.5980314537159291 
0.8999999999999172, -0.5965808281134851 
0.9099999999999161, -0.5954095972786513 
0.919999999999915, -0.5945014898610498 
0.9299999999999139, -0.5938461337668267 
0.9399999999999128, -0.5934377462226587 
0.9499999999999117, -0.5932738662895229 
0.9599999999999106, -0.5933547525325582 
0.9699999999999095, -0.593683674524823 
0.9799999999999084, -0.5942680123080468 
0.9899999999999073, -0.5951207414041093 
0.9999999999999062, -0.5962614102924643 
1.0099999999999052, -0.5977149991820563 
1.019999999999904, -0.5995061305751456 
1.029999999999903, -0.6016455923884474 
1.039999999999902, -0.6041077726157338 
1.0499999999999008, -0.6068041457012322 
1.0599999999998997, -0.6095696434328384 
1.0699999999998986, -0.6121851451218261 
1.0799999999998975, -0.614440787128666 
1.0899999999998964, -0.6162051209369347 
1.0999999999998953, -0.6174518003888158 
1.1099999999998942, -0.6182336837669068 
1.119999999999893, -0.6186355420949152 
1.129999999999892, -0.6187367973954812 
1.1399999999998909, -0.6185929671723494 
1.1499999999998898, -0.6182294911890066 
1.1599999999998887, -0.6176393038537122 
1.1699999999998876, -0.6167779051579882 
1.1799999999998865, -0.6155512730104834 
1.1899999999998854, -0.6137914360897672 
1.1999999999998843, -0.6112129854842852 
1.2099999999998832, -0.6073469630944033 
1.219999999999882, -0.6014761463635524 
1.229999999999881, -0.5926852924341885 
1.2399999999998799, -0.5802621360787729 
1.2499999999998788, -0.564511101982171 
1.2599999999998777, -0.5472565646556247 
1.2699999999998766, -0.531068919799213 
1.2799999999998755, -0.5178070017421514 
1.2899999999998744, -0.5079960699393161 
1.2999999999998733, -0.5012267634062136 
1.3099999999998722, -0.496767429797058 
1.319999999999871, -0.49392556729581827 
1.32999999999987, -0.49216637468258717 
1.3399999999998689, -0.491113494807718 
1.3499999999998678, -0.4905142790022735 
1.3599999999998666, -0.4902034844015117 
1.3699999999998655, -0.49007488209397315 
1.3799999999998644, -0.4900613786364486 
1.3899999999998633, -0.4901219875596867 
1.3999999999998622, -0.4902339004669026 
1.4099999999998611, -0.4903882425469804 
1.41999999999986, -0.4905881942591927 
1.429999999999859, -0.49084783693126477 
1.4399999999998578, -0.49118959652645644 
1.4499999999998567, -0.4916382192809996 
1.4599999999998556, -0.49221049647770554 
1.4699999999998545, -0.4929025287218466 
1.4799999999998534, -0.49367958804807266 
1.4899999999998523, -0.4944758961241905 
1.4999999999998512, -0.4952090790461243 
1.5099999999998501, -0.49580449138415517 
1.519999999999849, -0.49621535617828566 
1.529999999999848, -0.4964273824801026 
1.5399999999998468, -0.49644904673553814 
1.5499999999998457, -0.49629687148105656 
1.5599999999998446, -0.4959831054440869 
1.5699999999998435, -0.4955074080686523 
1.5799999999998424, -0.49485029974533684 
1.5899999999998413, -0.4939646121597396 
1.5999999999998402, -0.49275987540778576 
1.6099999999998391, -0.4910717720100958 
1.619999999999838, -0.488604848573552 
1.629999999999837, -0.4848404503272986 
1.6399999999998358, -0.47894796887789787 
1.6499999999998347, -0.46988431480817267 
1.6599999999998336, -0.45701017749918194 
1.6699999999998325, -0.4410988423290008 
1.6799999999998314, -0.42450649431615045 
1.6899999999998303, -0.4097769766735069 
1.6999999999998292, -0.3982250389597676 
1.709999999999828, -0.3898619892123334 
1.719999999999827, -0.3840706204971251 
1.729999999999826, -0.3801459466159641 
1.7399999999998248, -0.3775137150847743 
1.7499999999998237, -0.3757633871499009 
1.7599999999998226, -0.37461836523204695 
1.7699999999998215, -0.3738979642218127 
1.7799999999998204, -0.3734871513368915 
1.7899999999998193, -0.37331588285055184 
1.7999999999998182, -0.3733461947959407 
1.809999999999817, -0.3735649590525213 
1.819999999999816, -0.3739807278430788 
1.8299999999998149, -0.37462347908645066 
1.8399999999998138, -0.3755460074985914 
1.8499999999998127, -0.3768249217460969 
1.8599999999998116, -0.3785573694966767 
1.8699999999998105, -0.3808465296427269 
1.8799999999998094, -0.383766065265331 
1.8899999999998083, -0.38729813010040137 
1.8999999999998072, -0.391264424735401 
1.909999999999806, -0.39531204485943705 
1.919999999999805, -0.39901512057794475 
1.9299999999998039, -0.4020495991691737 
1.9399999999998028, -0.4043006252869937 
1.9499999999998017, -0.4058327144438449 
1.9599999999998006, -0.4067906474908046 
1.9699999999997995, -0.4073192574514314 
1.9799999999997984, -0.40752767212940394 
1.9899999999997973, -0.4074826338542401 
1.9999999999997962, -0.40721223211997143 
2.0099999999998173, -0.4067103728643269 
2.0199999999998384, -0.405939838765241 
2.0299999999998595, -0.40483690788291576 
2.0399999999998806, -0.4033248590250942 
2.0499999999999017, -0.401345314350192 
2.059999999999923, -0.3989069744292484 
2.069999999999944, -0.3961260634630904 
2.079999999999965, -0.39321569547786933 
2.089999999999986, -0.3904138102798736 
2.100000000000007, -0.38789967327993813 
2.1100000000000283, -0.38575607825507285 
2.1200000000000494, -0.38398339883221383 
2.1300000000000705, -0.38253525360836066 
2.1400000000000916, -0.38135009885978854 
2.1500000000001127, -0.38037060247443694 
2.160000000000134, -0.3795526876971081 
2.170000000000155, -0.3788684673100898 
2.180000000000176, -0.37830670136626254 
2.190000000000197, -0.3778733830171553 
2.2000000000002182, -0.37759429524892263 
2.2100000000002393, -0.3775211004857548 
2.2200000000002604, -0.37774279895352375 
2.2300000000002815, -0.37840513286171895 
2.2400000000003026, -0.3797412347662898 
2.2500000000003237, -0.3821156902582 
2.260000000000345, -0.3860753190272075 
2.270000000000366, -0.3923682391531094 
2.280000000000387, -0.40181504598194484 
2.290000000000408, -0.4148211412869346 
2.3000000000004293, -0.4304883245371716 
2.3100000000004504, -0.4461594690839023 
2.3200000000004715, -0.45875906725870086 
2.3300000000004926, -0.4670088671796271 
2.3400000000005137, -0.47171030101977884 
2.3500000000005348, -0.47429045384507323 
2.360000000000556, -0.4757853273121152 
2.370000000000577, -0.47673246255179863 
2.380000000000598, -0.4773725029666186 
2.390000000000619, -0.4778111629325529 
2.4000000000006403, -0.4780985775063131 
2.4100000000006614, -0.4782608981162423 
2.4200000000006825, -0.4783116105278126 
2.4300000000007036, -0.4782556036033786 
2.4400000000007247, -0.4780913930117519 
2.450000000000746, -0.47781399254972684 
2.460000000000767, -0.4774198185491076 
2.470000000000788, -0.47691376587278295 
2.480000000000809, -0.4763162474971886 
2.49000000000083, -0.4756655577297053 
2.5000000000008513, -0.4750115729914352 
2.5100000000008724, -0.47440206900870213 
2.5200000000008935, -0.4738685472436015 
2.5300000000009146, -0.4734186865603284 
2.5400000000009357, -0.47303791869876555 
2.550000000000957, -0.4726979655736868 
2.560000000000978, -0.47236783542107086 
2.570000000000999, -0.4720226924661291 
2.58000000000102, -0.4716480512581917 
2.5900000000010412, -0.4712398099719053 
2.6000000000010624, -0.47080263560670305 
2.6100000000010835, -0.47034931353105636 
2.6200000000011046, -0.46990286994425573 
2.6300000000011257, -0.4695027965583932 
2.6400000000011468, -0.46921693063274567 
2.650000000001168, -0.469161010802686 
2.660000000001189, -0.4695271262424268 
2.67000000000121, -0.4706159925155532 
2.680000000001231, -0.47284604972523214 
2.6900000000012523, -0.4766601970315822 
2.7000000000012734, -0.48219007785566104 
2.7100000000012945, -0.4886594904543258 
2.7200000000013156, -0.49413349675132257 
2.7300000000013367, -0.49665097675655 
2.740000000001358, -0.4960133003649908 
2.750000000001379, -0.49374177779379275 
2.7600000000014, -0.49142104320001423 
2.770000000001421, -0.4897683271250859 
2.780000000001442, -0.48882645213039033 
2.7900000000014633, -0.4883933410846498 
2.8000000000014844, -0.4882581365357218 
2.8100000000015055, -0.48826936906171425 
2.8200000000015266, -0.4883333165189618 
2.8300000000015477, -0.4883959515858306 
2.840000000001569, -0.4884266148183534 
2.85000000000159, -0.4884070452164492 
2.860000000001611, -0.4883253300366855 
2.870000000001632, -0.4881738682356702 
2.8800000000016532, -0.48795063593577703 
2.8900000000016743, -0.4876626575277857 
2.9000000000016954, -0.4873293268440377 
2.9100000000017165, -0.4869821060320462 
2.9200000000017377, -0.48665816863489636 
2.9300000000017588, -0.4863892711373672 
2.94000000000178, -0.48619074864936335 
2.950000000001801, -0.4860559048906879 
2.960000000001822, -0.4859584110692977 
2.970000000001843, -0.48586162422449836 
2.9800000000018643, -0.4857304004771703 
2.9900000000018854, -0.48553985439304215 
3.0000000000019065, -0.48527801192206976 
3.0100000000019276, -0.4849434775895358 
3.0200000000019487, -0.48454152304879444 
3.03000000000197, -0.48408152565235313 
3.040000000001991, -0.4835772347682997 
3.050000000002012, -0.48305050881749256 
3.060000000002033, -0.48253911089157187 
3.070000000002054, -0.48210897160431976 
3.0800000000020753, -0.4818688789381381 
3.0900000000020964, -0.48197578657947443 
3.1000000000021175, -0.48259252694541716 
3.1100000000021386, -0.4837155290915495 
3.1200000000021597, -0.4848028183607497 
3.130000000002181, -0.48444732607116914 
3.140000000002202, -0.4809393423603888 
3.150000000002223, -0.4739653537982954 
3.160000000002244, -0.46535184041919464 
3.1700000000022652, -0.4574644803318151 
3.1800000000022863, -0.45153755189974243 
3.1900000000023074, -0.44761415648092384 
3.2000000000023285, -0.44522110420029576 
3.2100000000023496, -0.4438447025706279 
3.2200000000023707, -0.4430941749539203 
3.230000000002392, -0.4427108457301345 
3.240000000002413, -0.44253441076794864 
3.250000000002434, -0.44246878505056736 
3.260000000002455, -0.4424574316300821 
3.2700000000024763, -0.4424677554534361 
3.2800000000024974, -0.44248221940167853 
3.2900000000025185, -0.44249417535928437 
3.3000000000025396, -0.44250685469370127 
3.3100000000025607, -0.4425338762390421 
3.3200000000025818, -0.44259909623898297 
3.330000000002603, -0.4427334019519419 
3.340000000002624, -0.44296705177072093 
3.350000000002645, -0.443318395660218 
3.360000000002666, -0.4437822973723039 
3.3700000000026873, -0.4443235184103741 
3.3800000000027084, -0.4448805983682447 
3.3900000000027295, -0.44538172327699604 
3.4000000000027506, -0.4457656902522257 
3.4100000000027717, -0.4459960205426114 
3.420000000002793, -0.4460615476501384 
3.430000000002814, -0.4459668141407739 
3.440000000002835, -0.4457198366352161 
3.450000000002856, -0.4453218901101267 
3.460000000002877, -0.444759394091216 
3.4700000000028983, -0.4439950854058912 
3.4800000000029194, -0.44295390686076547 
3.4900000000029405, -0.44149680408291214 
3.5000000000029616, -0.4393728315863853 
3.5100000000029827, -0.43614305437407275 
3.520000000003004, -0.4311041009540144 
3.530000000003025, -0.4233507616446174 
3.540000000003046, -0.412246699656725 
3.550000000003067, -0.39827948416424036 
3.5600000000030882, -0.383360041704019 
3.5700000000031094, -0.36976847786458367 
3.5800000000031305, -0.35884012476364974 
3.5900000000031516, -0.3507363304207379 
3.6000000000031727, -0.3449836686660225 
3.6100000000031938, -0.3409762567882978 
3.620000000003215, -0.3382008722378277 
3.630000000003236, -0.33628357151085597 
3.640000000003257, -0.33497018274191137 
3.650000000003278, -0.33409476211737177 
3.6600000000032993, -0.3335533718484393 
3.6700000000033204, -0.33328613853443756 
3.6800000000033415, -0.333266517390132 
3.6900000000033626, -0.3334962348478006 
3.7000000000033837, -0.33400485631545024 
3.710000000003405, -0.33485341597015866 
3.720000000003426, -0.3361416124226272 
3.730000000003447, -0.3380170900061864 
3.740000000003468, -0.34068190830864614 
3.750000000003489, -0.3443829893443625 
3.7600000000035103, -0.34935885119138 
3.7700000000035314, -0.35570606676718897 
3.7800000000035525, -0.36317234617973365 
3.7900000000035736, -0.37102772267081063 
3.8000000000035947, -0.3782658063245202 
3.810000000003616, -0.3841024780958018 
3.820000000003637, -0.3883081686185223 
3.830000000003658, -0.3911031148226965 
3.840000000003679, -0.39286290822135894 
3.8500000000037002, -0.39392178533680233 
3.8600000000037213, -0.39451487728348456 
3.8700000000037424, -0.394788601977983 
3.8800000000037635, -0.3948257447854113 
3.8900000000037847, -0.3946659861065374 
3.9000000000038058, -0.39431960505798563 
3.910000000003827, -0.39377746142796394 
3.920000000003848, -0.39302159256792224 
3.930000000003869, -0.3920400614058864 
3.94000000000389, -0.39084577253076747 
3.9500000000039113, -0.3894913755989656 
3.9600000000039324, -0.38806742446472314 
3.9700000000039535, -0.3866789728241516 
3.9800000000039746, -0.38541337899067596 
3.9900000000039957, -0.38431902828384573 
4.000000000004016, -0.38340318993209144 
4.010000000003993, -0.38264324835375446 
4.02000000000397, -0.38200190293667347 
4.030000000003946, -0.3814402336848975 
4.040000000003923, -0.38092615348716063 
4.0500000000039, -0.38043810800873046 
4.0600000000038765, -0.3799654568913138 
4.070000000003853, -0.3795076971741022 
4.08000000000383, -0.3790745191179146 
4.090000000003807, -0.3786881584408222 
4.100000000003783, -0.3783891904189763 
4.11000000000376, -0.37824678985452287 
4.120000000003737, -0.378373578001004 
4.130000000003713, -0.3789403880164503 
4.14000000000369, -0.38016946480223157 
4.150000000003667, -0.38224100854974574 
4.1600000000036434, -0.38498285105920405 
4.17000000000362, -0.38728563597548477 
4.180000000003597, -0.3868263899952914 
4.1900000000035735, -0.3814753645434398 
4.20000000000355, -0.3718128367367599 
4.210000000003527, -0.36096754279956805 
4.220000000003504, -0.35171727203469405 
4.23000000000348, -0.34500400677237303 
4.240000000003457, -0.3405425463227379 
4.250000000003434, -0.33770665903952973 
4.26000000000341, -0.33594436357503177 
4.270000000003387, -0.3348669503423253 
4.280000000003364, -0.33422428088329564 
4.2900000000033405, -0.3338621158446386 
4.300000000003317, -0.33368824986373546 
4.310000000003294, -0.3336503487125554 
4.320000000003271, -0.33372285198235124 
4.330000000003247, -0.33390010686969296 
4.340000000003224, -0.33419363866606455 
4.350000000003201, -0.33463192273299325 
4.360000000003177, -0.3352609435057126 
4.370000000003154, -0.336143221880505 
4.380000000003131, -0.33735190982711305 
4.390000000003107, -0.33895519393562956 
4.400000000003084, -0.3409862948968287 
4.410000000003061, -0.34340116145301136 
4.4200000000030375, -0.34604505185765905 
4.430000000003014, -0.3486677118543101 
4.440000000002991, -0.3510051206709922 
4.450000000002968, -0.35287917631640164 
4.460000000002944, -0.3542396417332874 
4.470000000002921, -0.3551329825329999 
4.480000000002898, -0.3556442749582861 
4.490000000002874, -0.3558538947395835 
4.500000000002851, -0.3558176274051691 
4.510000000002828, -0.3555612466216946 
4.520000000002804, -0.3550802420193529 
4.530000000002781, -0.35434051796953614 
4.540000000002758, -0.35328117044805235 
4.5500000000027345, -0.351825498107449 
4.560000000002711, -0.3499094638230541 
4.570000000002688, -0.347530007897236 
4.580000000002665, -0.34479120624835424 
4.590000000002641, -0.34190311155832204 
4.600000000002618, -0.3391129801328846 
4.610000000002595, -0.33661454754010267 
4.620000000002571, -0.33450080704619095 
4.630000000002548, -0.3327745577906599 
4.640000000002525, -0.33138575551222116 
4.6500000000025015, -0.330265945140313 
4.660000000002478, -0.32934964520800614 
4.670000000002455, -0.32858442140895644 
4.6800000000024315, -0.3279340613019183 
4.690000000002408, -0.3273785711799021 
4.700000000002385, -0.3269136845232436 
4.710000000002362, -0.32655182116966586 
4.720000000002338, -0.3263260655055352 
4.730000000002315, -0.32629882885786976 
4.740000000002292, -0.32657732863176336 
4.750000000002268, -0.3273381133636627 
4.760000000002245, -0.3288597867492011 
4.770000000002222, -0.33154802832356245 
4.7800000000021985, -0.33588882299197975 
4.790000000002175, -0.342164183340035 
4.800000000002152, -0.34972634694174254 
4.810000000002129, -0.3562022494438303 
4.820000000002105, -0.35834103669321526 
4.830000000002082, -0.3550717135407723 
4.840000000002059, -0.34869143117229473 
4.850000000002035, -0.3422188217060518 
4.860000000002012, -0.33717928760472676 
4.870000000001989, -0.3337419047588589 
4.880000000001965, -0.33155013338210093 
