t, s[1].omega / s[0].omega 
0, -1.4399972665493999 
0.009999999999999995, -1.4395586162653426 
0.019999999999999934, -1.438795214288425 
0.029999999999999874, -1.4377168762879202 
0.04000000000000012, -1.4363481759600696 
0.050000000000000405, -1.434743123988373 
0.06000000000000069, -1.4330078529126653 
0.07000000000000098, -1.4313241336557074 
0.08000000000000126, -1.4299364432971915 
0.09000000000000155, -1.4290451365898331 
0.10000000000000184, -1.4286555273219688 
0.11000000000000212, -1.4285688241489138 
0.12000000000000241, -1.428534335220688 
0.130000000000002, -1.4283625751972748 
0.1400000000000009, -1.427911913753644 
0.1499999999999998, -1.4270099438523212 
0.1599999999999987, -1.42535267106082 
0.1699999999999976, -1.422375277040931 
0.1799999999999965, -1.417106164625558 
0.1899999999999954, -1.4081739144231167 
0.1999999999999943, -1.394523309641603 
0.2099999999999932, -1.377505511636834 
0.2199999999999921, -1.3626813809498062 
0.229999999999991, -1.3561969221753325 
0.2399999999999899, -1.3579859178252218 
0.2499999999999888, -1.3630120606896339 
0.2599999999999877, -1.3674536642251711 
0.2699999999999866, -1.3702999240741642 
0.2799999999999855, -1.3718294378169014 
0.2899999999999844, -1.3724958661669038 
0.2999999999999833, -1.3726112464134415 
0.3099999999999822, -1.3723396605471312 
0.3199999999999811, -1.371755279269356 
0.32999999999998, -1.3709236327642382 
0.3399999999999789, -1.3700409339548016 
0.3499999999999778, -1.3696274679825 
0.35999999999997667, -1.3705380244355507 
0.36999999999997557, -1.3734231655680418 
0.37999999999997447, -1.378027962978972 
0.38999999999997337, -1.383331214998265 
0.39999999999997227, -1.3883223708265073 
0.40999999999997117, -1.3924401247709182 
0.41999999999997006, -1.3955255066340213 
0.42999999999996896, -1.3976407745114106 
0.43999999999996786, -1.3989384444196973 
0.44999999999996676, -1.3995909510439444 
0.45999999999996566, -1.3997558403561003 
0.46999999999996456, -1.3995629935956395 
0.47999999999996346, -1.3991190234039879 
0.48999999999996235, -1.3985230508156432 
0.49999999999996125, -1.3978811362256969 
0.5099999999999602, -1.397302180836514 
0.519999999999959, -1.396873070737763 
0.529999999999958, -1.3966363009864746 
0.5399999999999568, -1.3965845540968196 
0.5499999999999557, -1.396661878172686 
0.5599999999999546, -1.3967734412879955 
0.5699999999999535, -1.3968104253610727 
0.5799999999999524, -1.3966705151001997 
0.5899999999999513, -1.3962563654028364 
0.5999999999999502, -1.3954601807745548 
0.6099999999999491, -1.3941511987599502 
0.619999999999948, -1.392176237831358 
0.6299999999999469, -1.3893772591135185 
0.6399999999999458, -1.38563054997063 
0.6499999999999447, -1.3809221255049233 
0.6599999999999436, -1.3754807420196822 
0.6699999999999425, -1.3699357201389508 
0.6799999999999414, -1.3652851744881562 
0.6899999999999403, -1.3623864996484725 
0.6999999999999392, -1.361287646329688 
0.7099999999999381, -1.3612861179773894 
0.719999999999937, -1.3616171376778274 
0.7299999999999359, -1.361851971594135 
0.7399999999999348, -1.3618328657396104 
0.7499999999999337, -1.361495544696528 
0.7599999999999326, -1.360748259284792 
0.7699999999999315, -1.3593944115064542 
0.7799999999999304, -1.3570696574645906 
0.7899999999999293, -1.3532470845597637 
0.7999999999999282, -1.3475828561277632 
0.8099999999999271, -1.3411133955365162 
0.819999999999926, -1.337830548428995 
0.8299999999999249, -1.3429522093554418 
0.8399999999999238, -1.3565978844459277 
0.8499999999999227, -1.3726043556654592 
0.8599999999999216, -1.3853814921747758 
0.8699999999999205, -1.3935517498077155 
0.8799999999999194, -1.3981456120874922 
0.8899999999999183, -1.4005082734592396 
0.8999999999999172, -1.4015879649535354 
0.9099999999999161, -1.4019322312691818 
0.919999999999915, -1.4018329139319865 
0.9299999999999139, -1.401452680568226 
0.9399999999999128, -1.4009250701216018 
0.9499999999999117, -1.4004406775890934 
0.9599999999999106, -1.4002800112123275 
0.9699999999999095, -1.4007071164935603 
0.9799999999999084, -1.40177156065837 
0.9899999999999073, -1.4032614598535549 
0.9999999999999062, -1.4048690625331273 
1.0099999999999052, -1.4063516305694994 
1.019999999999904, -1.407570177485834 
1.029999999999903, -1.4084617503298318 
1.039999999999902, -1.409006453528414 
1.0499999999999008, -1.4092062535516212 
1.0599999999998997, -1.4090741345764333 
1.0699999999998986, -1.4086297426704992 
1.0799999999998975, -1.4078991750143124 
1.0899999999998964, -1.406918663667982 
1.0999999999998953, -1.4057423202110293 
1.1099999999998942, -1.4044521082263723 
1.119999999999893, -1.403166204629374 
1.129999999999892, -1.4020367729767764 
1.1399999999998909, -1.4012130168320103 
1.1499999999998898, -1.4007588377963898 
1.1599999999998887, -1.4005950784094006 
1.1699999999998876, -1.400546816213534 
1.1799999999998865, -1.4004379630622579 
1.1899999999998854, -1.4001266116850593 
1.1999999999998843, -1.3994704203603119 
1.2099999999998832, -1.398260812032295 
1.219999999999882, -1.3961445819496965 
1.229999999999881, -1.3925421015688688 
1.2399999999998799, -1.386612266628526 
1.2499999999998788, -1.3774224322415904 
1.2599999999998777, -1.364608534935754 
1.2699999999998766, -1.349592626667604 
1.2799999999998755, -1.3361705167595885 
1.2899999999998744, -1.3282675535892998 
1.2999999999998733, -1.3263430555094324 
1.3099999999998722, -1.3276821335258067 
1.319999999999871, -1.329656727872276 
1.32999999999987, -1.331141620169253 
1.3399999999998689, -1.3319731246071917 
1.3499999999998678, -1.3322743202958125 
1.3599999999998666, -1.332165825440912 
1.3699999999998655, -1.3316960370114728 
1.3799999999998644, -1.3308438904540114 
1.3899999999998633, -1.3295649094319488 
1.3999999999998622, -1.327943791770926 
1.4099999999998611, -1.3265600678989282 
1.41999999999986, -1.3269143680665496 
1.429999999999859, -1.3310069005224185 
1.4399999999998578, -1.3394808913035645 
1.4499999999998567, -1.3504844293220413 
1.4599999999998556, -1.361193094320156 
1.4699999999998545, -1.3697875256639052 
1.4799999999998534, -1.3758286852920567 
1.4899999999998523, -1.379671643848949 
1.4999999999998512, -1.381900442307919 
1.5099999999998501, -1.3830416870622255 
1.519999999999849, -1.3834790307037683 
1.529999999999848, -1.38346387125401 
1.5399999999998468, -1.383159964307574 
1.5499999999998457, -1.38269502119335 
1.5599999999998446, -1.3822042915527335 
1.5699999999998435, -1.3818411908071406 
1.5799999999998424, -1.3817330853613368 
1.5899999999998413, -1.3819172106715933 
1.5999999999998402, -1.3823311477158216 
1.6099999999998391, -1.3828615291082111 
1.619999999999838, -1.3833909940601417 
1.629999999999837, -1.3838189119412214 
1.6399999999998358, -1.3840669200862756 
1.6499999999998347, -1.3840765310855496 
1.6599999999998336, -1.3838026198730957 
1.6699999999998325, -1.3832080898402903 
1.6799999999998314, -1.3822624111850386 
1.6899999999998303, -1.380943747519511 
1.6999999999998292, -1.3792450340597324 
1.709999999999828, -1.3771872434334977 
1.719999999999827, -1.3748449010647528 
1.729999999999826, -1.3723842541816602 
1.7399999999998248, -1.3700893303411712 
1.7499999999998237, -1.368304263753597 
1.7599999999998226, -1.3672465336770254 
1.7699999999998215, -1.3668413378223978 
1.7799999999998204, -1.3667944868788298 
1.7899999999998193, -1.3668076682289194 
1.7999999999998182, -1.366685513581402 
1.809999999999817, -1.3663005077376924 
1.819999999999816, -1.3655087906719348 
1.8299999999998149, -1.3640583903850987 
1.8399999999998138, -1.3614777708165127 
1.8499999999998127, -1.3569417506815509 
1.8599999999998116, -1.3492223971699224 
1.8699999999998105, -1.3371254414300986 
1.8799999999998094, -1.3210481778892835 
1.8899999999998083, -1.3050111131189523 
1.8999999999998072, -1.2952617636005104 
1.909999999999806, -1.2942528299296505 
1.919999999999805, -1.2985246412841502 
1.9299999999998039, -1.3035640670075737 
1.9399999999998028, -1.3072928178871233 
1.9499999999998017, -1.3095323725448758 
1.9599999999998006, -1.310687719257714 
1.9699999999997995, -1.3111406835817705 
1.9799999999997984, -1.3111265113220114 
1.9899999999997973, -1.3107586024184346 
1.9999999999997962, -1.310079033340009 
2.0099999999998173, -1.3091314650189267 
2.0199999999998384, -1.308102759572005 
2.0299999999998595, -1.3075493328933416 
2.0399999999998806, -1.3084933031224926 
2.0499999999999017, -1.3119206711875195 
2.059999999999923, -1.317836088336888 
2.069999999999944, -1.3250744074676193 
2.079999999999965, -1.3321734503860583 
2.089999999999986, -1.3381645774486235 
2.100000000000007, -1.3426981566714251 
2.1100000000000283, -1.345829686755872 
2.1200000000000494, -1.3477985885610213 
2.1300000000000705, -1.3488864325490657 
2.1400000000000916, -1.3493433086791051 
2.1500000000001127, -1.3493620284368513 
2.160000000000134, -1.3490839579554184 
2.170000000000155, -1.3486228710352273 
2.180000000000176, -1.3480929810354705 
2.190000000000197, -1.3476211763337638 
2.2000000000002182, -1.3473243573495384 
2.2100000000002393, -1.347264729914939 
2.2200000000002604, -1.347428983769709 
2.2300000000002815, -1.3477478945398427 
2.2400000000003026, -1.3481268534174267 
2.2500000000003237, -1.3484675772455006 
2.260000000000345, -1.3486822832642582 
2.270000000000366, -1.3486994404688863 
2.280000000000387, -1.3484609458156396 
2.290000000000408, -1.3479170089143442 
2.3000000000004293, -1.3470243924800729 
2.3100000000004504, -1.345748733446661 
2.3200000000004715, -1.344069820888979 
2.3300000000004926, -1.3419911456874962 
2.3400000000005137, -1.3395584525471735 
2.3500000000005348, -1.336891707903644 
2.360000000000556, -1.3342222099900103 
2.370000000000577, -1.331889777395794 
2.380000000000598, -1.3302259694110572 
2.390000000000619, -1.3293474577430184 
2.4000000000006403, -1.3290717772535436 
2.4100000000006614, -1.3290727332277064 
2.4200000000006825, -1.329077350687488 
2.4300000000007036, -1.3289189348072836 
2.4400000000007247, -1.3284809013112668 
2.450000000000746, -1.3276154802584859 
2.460000000000767, -1.326058523725925 
2.470000000000788, -1.3233254491156228 
2.480000000000809, -1.318592820536933 
2.49000000000083, -1.3106758503078706 
2.5000000000008513, -1.2984531267612531 
2.5100000000008724, -1.282222908526875 
2.5200000000008935, -1.2654062814081368 
2.5300000000009146, -1.2535896899711136 
2.5400000000009357, -1.2497336970439297 
2.550000000000957, -1.2516794655633063 
2.560000000000978, -1.2554609554517489 
2.570000000000999, -1.258707856980221 
2.58000000000102, -1.2608311755035533 
2.5900000000010412, -1.2620012646140686 
2.6000000000010624, -1.2625051836875927 
2.6100000000010835, -1.262546928490049 
2.6200000000011046, -1.26222763825286 
2.6300000000011257, -1.2615690652470593 
2.6400000000011468, -1.260553317471763 
2.650000000001168, -1.2592141601414075 
2.660000000001189, -1.257854768503962 
2.67000000000121, -1.257392860645623 
2.680000000001231, -1.2594414208359859 
2.6900000000012523, -1.2654038494936484 
2.7000000000012734, -1.274995292966206 
2.7100000000012945, -1.2861286023700935 
2.7200000000013156, -1.2964498309950026 
2.7300000000013367, -1.3046011417284982 
2.740000000001358, -1.3103201437606675 
2.750000000001379, -1.3139688714061748 
2.7600000000014, -1.3160938472756327 
2.770000000001421, -1.3171872687847195 
2.780000000001442, -1.317609619204233 
2.7900000000014633, -1.3175979403953053 
2.8000000000014844, -1.3173065782442275 
2.8100000000015055, -1.316856001547029 
2.8200000000015266, -1.3163779581961288 
2.8300000000015477, -1.3160355931467762 
2.840000000001569, -1.3159882247302732 
2.85000000000159, -1.3163128663464903 
2.860000000001611, -1.3169617908540632 
2.870000000001632, -1.3178024263352968 
2.8800000000016532, -1.3186871564469882 
2.8900000000016743, -1.3194943250476157 
2.9000000000016954, -1.3201376368895552 
2.9100000000017165, -1.3205615840957208 
2.9200000000017377, -1.3207332495056945 
2.9300000000017588, -1.320635016065805 
2.94000000000178, -1.3202600644240818 
2.950000000001801, -1.319610735422282 
2.960000000001822, -1.318699447276658 
2.970000000001843, -1.3175524133144938 
2.9800000000018643, -1.316216453348465 
2.9900000000018854, -1.3147678311886426 
3.0000000000019065, -1.313319559705494 
3.0100000000019276, -1.3120185472335342 
3.0200000000019487, -1.3110149144517413 
3.03000000000197, -1.310394529899348 
3.040000000001991, -1.3101189768544617 
3.050000000002012, -1.3100430063361677 
3.060000000002033, -1.3099944256545106 
3.070000000002054, -1.3098299908807935 
3.0800000000020753, -1.3094305584603796 
3.0900000000020964, -1.30866061700625 
3.1000000000021175, -1.3073193531740548 
3.1100000000021386, -1.3050956743597728 
3.1200000000021597, -1.3015443562072595 
3.130000000002181, -1.2961251466436492 
3.140000000002202, -1.2883735862303571 
3.150000000002223, -1.2782626675189597 
3.160000000002244, -1.2666859785759488 
3.1700000000022652, -1.2556500771237515 
3.1800000000022863, -1.2474986718654661 
3.1900000000023074, -1.2433338204607578 
3.2000000000023285, -1.2423472379524774 
3.2100000000023496, -1.2428941094842505 
3.2200000000023707, -1.2437510483734977 
3.230000000002392, -1.2443890695724327 
3.240000000002413, -1.244684049311839 
3.250000000002434, -1.2446413539873087 
3.260000000002455, -1.2442606297257 
3.2700000000024763, -1.243479195085715 
3.2800000000024974, -1.2421382598789026 
3.2900000000025185, -1.239961277617334 
3.3000000000025396, -1.2366037196650626 
3.3100000000025607, -1.2319637468682558 
3.3200000000025818, -1.2270133053970533 
3.330000000002603, -1.2247560850010604 
3.340000000002624, -1.2292346988634908 
3.350000000002645, -1.2415020111591961 
3.360000000002666, -1.2575155782847882 
3.3700000000026873, -1.2719174692110207 
3.3800000000027084, -1.2821492832436667 
3.3900000000027295, -1.2884209029714824 
3.4000000000027506, -1.2919185712024637 
3.4100000000027717, -1.2937161344349608 
3.420000000002793, -1.294517374755218 
3.430000000002814, -1.294723496835586 
3.440000000002835, -1.2945480991515184 
3.450000000002856, -1.2941101277380278 
3.460000000002877, -1.2935140610013507 
3.4700000000028983, -1.2929375641007224 
3.4800000000029194, -1.292705338288886 
3.4900000000029405, -1.2932440837295929 
3.5000000000029616, -1.2948401166542483 
3.5100000000029827, -1.2973951428017938 
3.520000000003004, -1.3004811159227376 
3.530000000003025, -1.303613945546337 
3.540000000003046, -1.3064459369544346 
3.550000000003067, -1.3087932608600834 
3.5600000000030882, -1.310589457942393 
3.5700000000031094, -1.3118386215322633 
3.5800000000031305, -1.312585815804806 
3.5900000000031516, -1.3128986417399369 
3.6000000000031727, -1.3128536776227353 
3.6100000000031938, -1.3125277808165785 
3.620000000003215, -1.3119971451026964 
3.630000000003236, -1.3113435902442048 
3.640000000003257, -1.3106601748470166 
3.650000000003278, -1.310044548310899 
3.6600000000032993, -1.309578426336906 
3.6700000000033204, -1.309307216965896 
3.6800000000033415, -1.3092302932230369 
3.6900000000033626, -1.3092997181651427 
3.7000000000033837, -1.3094300510899821 
3.710000000003405, -1.3095212010239279 
3.720000000003426, -1.3094791700264952 
3.730000000003447, -1.309220454142339 
3.740000000003468, -1.3086645579665404 
3.750000000003489, -1.307727500689344 
3.7600000000035103, -1.3063240598409895 
3.7700000000035314, -1.3043788965207956 
3.7800000000035525, -1.3018433485155485 
3.7900000000035736, -1.298717887209556 
3.8000000000035947, -1.2950868192928373 
3.810000000003616, -1.2911698597126167 
3.820000000003637, -1.2873651078078046 
3.830000000003658, -1.284197240857681 
3.840000000003679, -1.2820884965649713 
3.8500000000037002, -1.2810834073494832 
3.8600000000037213, -1.2808424590565273 
3.8700000000037424, -1.2809210098059103 
3.8800000000037635, -1.2810005379784557 
3.8900000000037847, -1.2809128919125634 
3.9000000000038058, -1.2805589829890038 
3.910000000003827, -1.2798220365415547 
3.920000000003848, -1.2784899824189793 
3.930000000003869, -1.2761654715534783 
3.94000000000389, -1.27215510790915 
3.9500000000039113, -1.2654053792265754 
3.9600000000039324, -1.254746873219176 
3.9700000000039535, -1.2399144864402578 
3.9800000000039746, -1.2232358786661055 
3.9900000000039957, -1.20977861501509 
4.000000000004016, -1.2036784956669824 
4.010000000003993, -1.2044005895939063 
4.02000000000397, -1.208253832099807 
4.030000000003946, -1.2121807651775385 
4.040000000003923, -1.2150167724314305 
4.0500000000039, -1.2167329515233996 
4.0600000000038765, -1.217620247633764 
4.070000000003853, -1.217941599065852 
4.08000000000383, -1.2178563094964197 
4.090000000003807, -1.2174293285290498 
4.100000000003783, -1.216655337489308 
4.11000000000376, -1.2154961021803883 
4.120000000003737, -1.2139753822447559 
4.130000000003713, -1.2124127636349133 
4.14000000000369, -1.2118061294315592 
4.150000000003667, -1.2139726419766528 
4.1600000000036434, -1.2206460834703226 
4.17000000000362, -1.23175507553209 
4.180000000003597, -1.2449719588265624 
4.1900000000035735, -1.2573641571096015 
4.20000000000355, -1.2671230212780182 
4.210000000003527, -1.2738809415106633 
4.220000000003504, -1.2781226499830645 
4.23000000000348, -1.2805656298343382 
4.240000000003457, -1.281831015588599 
4.250000000003434, -1.2823537736435004 
4.26000000000341, -1.2824064871381835 
4.270000000003387, -1.2821555259107933 
4.280000000003364, -1.2817198030793842 
4.2900000000033405, -1.281226868973459 
4.300000000003317, -1.2808542362161437 
4.310000000003294, -1.2808177840917676 
4.320000000003271, -1.2812807632835308 
4.330000000003247, -1.2822502562505171 
4.340000000003224, -1.2835752302514027 
4.350000000003201, -1.2850420391350814 
4.360000000003177, -1.2864637418622509 
4.370000000003154, -1.287712016261486 
4.380000000003131, -1.2887113394718956 
4.390000000003107, -1.2894233331182356 
4.400000000003084, -1.2898336745191994 
4.410000000003061, -1.2899442024611232 
4.4200000000030375, -1.289769124821706 
4.430000000003014, -1.2893334581113565 
4.440000000002991, -1.288672990461117 
4.450000000002968, -1.2878363678975735 
4.460000000002944, -1.2868887781941742 
4.470000000002921, -1.2859133378171643 
4.480000000002898, -1.2850053923029314 
4.490000000002874, -1.284258481527527 
4.500000000002851, -1.283741883739848 
4.510000000002828, -1.2834715949581383 
4.520000000002804, -1.283393079898838 
4.530000000002781, -1.283399010591912 
4.540000000002758, -1.2833694678971368 
4.5500000000027345, -1.2831970276211047 
4.560000000002711, -1.2827826603834966 
4.570000000002688, -1.2820167927452135 
4.580000000002665, -1.2807637589227698 
4.590000000002641, -1.2788612453101191 
4.600000000002618, -1.2761406328333638 
4.610000000002595, -1.2724687025891241 
4.620000000002571, -1.2678081529414404 
4.630000000002548, -1.2622973149186947 
4.640000000002525, -1.2563420710012898 
4.6500000000025015, -1.2506564949700496 
4.660000000002478, -1.2461008341217672 
4.670000000002455, -1.2432510130180066 
4.6800000000024315, -1.2420295843746203 
4.690000000002408, -1.2418435113331272 
4.700000000002385, -1.242055093481934 
4.710000000002362, -1.2422644405275345 
4.720000000002338, -1.2422924366835078 
4.730000000002315, -1.2420598537519845 
4.740000000002292, -1.2414874783083814 
4.750000000002268, -1.2404244867458756 
4.760000000002245, -1.2385758558171056 
4.770000000002222, -1.2354100587357366 
4.7800000000021985, -1.2300789877972986 
4.790000000002175, -1.2215235436806728 
4.800000000002152, -1.209162784307879 
4.810000000002129, -1.1943760365246594 
4.820000000002105, -1.181390689972233 
4.830000000002082, -1.1748715146742266 
4.840000000002059, -1.1756576593963903 
4.850000000002035, -1.180516997455889 
4.860000000002012, -1.1858338351282014 
4.870000000001989, -1.1898800054627523 
4.880000000001965, -1.1924513005263229 
4.890000000001942, -1.1938937810608934 
4.900000000001919, -1.1945780147527276 
4.9100000000018955, -1.1947553360365923 
4.920000000001872, -1.194558836787896 
4.930000000001849, -1.194032712058185 
4.940000000001826, -1.193162728949105 
