t, s[1].omega / s[0].omega 
0, -1.5198885511071185 
0.009999999999999995, -1.5070830212334472 
0.019999999999999934, -1.4930564607992425 
0.029999999999999874, -1.4827618260093183 
0.04000000000000012, -1.4793308424543414 
0.050000000000000405, -1.4806404966060436 
0.06000000000000069, -1.4830395515597088 
0.07000000000000098, -1.4848126678255875 
0.08000000000000126, -1.4857512734641403 
0.09000000000000155, -1.4860594633558382 
0.10000000000000184, -1.4859165363984317 
0.11000000000000212, -1.4854086363818968 
0.12000000000000241, -1.484577701910451 
0.130000000000002, -1.4835594280317246 
0.1400000000000009, -1.4828412875531534 
0.1499999999999998, -1.4833996906190459 
0.1599999999999987, -1.4860848772888575 
0.1699999999999976, -1.4905959420796573 
0.1799999999999965, -1.4956739278208038 
0.1899999999999954, -1.5002150838740804 
0.1999999999999943, -1.5037448821126125 
0.2099999999999932, -1.506227319284795 
0.2199999999999921, -1.5078040355752311 
0.229999999999991, -1.50865565829297 
0.2399999999999899, -1.5089482233820875 
0.2499999999999888, -1.5088173332999282 
0.2599999999999877, -1.508370603056874 
0.2699999999999866, -1.507701776809146 
0.2799999999999855, -1.5069078567894967 
0.2899999999999844, -1.5060951628414132 
0.2999999999999833, -1.5053698371843223 
0.3099999999999822, -1.5048238184174596 
0.3199999999999811, -1.5045096469156174 
0.32999999999998, -1.5043978062924264 
0.3399999999999789, -1.5043704336735448 
0.3499999999999778, -1.5042758237801361 
0.35999999999997667, -1.5039712623853612 
0.36999999999997557, -1.5033053855041874 
0.37999999999997447, -1.5020592457279558 
0.38999999999997337, -1.4998710368286567 
0.39999999999997227, -1.4961623523087968 
0.40999999999997117, -1.4901233260543012 
0.41999999999997006, -1.480933377098794 
0.42999999999996896, -1.4685518298194062 
0.43999999999996786, -1.4550785537522337 
0.44999999999996676, -1.444829443129122 
0.45999999999996566, -1.4407326112602055 
0.46999999999996456, -1.4412934864645082 
0.47999999999996346, -1.443288816860705 
0.48999999999996235, -1.4449354347931416 
0.49999999999996125, -1.4458672520266063 
0.5099999999999602, -1.4462053861754882 
0.519999999999959, -1.4460994543076773 
0.529999999999958, -1.4456215380059263 
0.5399999999999568, -1.4447841865444329 
0.5499999999999557, -1.4436388239389786 
0.5599999999999546, -1.4425201753505648 
0.5699999999999535, -1.4423770721395106 
0.5799999999999524, -1.4445629152807133 
0.5899999999999513, -1.4495590146019464 
0.5999999999999502, -1.4561893821336773 
0.6099999999999491, -1.462713313830449 
0.619999999999948, -1.4680607008411106 
0.6299999999999469, -1.4719529279347345 
0.6399999999999458, -1.4745306156360296 
0.6499999999999447, -1.4760652533197276 
0.6599999999999436, -1.4768255550754525 
0.6699999999999425, -1.4770305514905362 
0.6799999999999414, -1.4768437060501418 
0.6899999999999403, -1.476388645768991 
0.6999999999999392, -1.4757746746979072 
0.7099999999999381, -1.4751155718192992 
0.719999999999937, -1.4745233286564408 
0.7299999999999359, -1.4740821023321227 
0.7399999999999348, -1.4738313768194176 
0.7499999999999337, -1.4737603489432243 
0.7599999999999326, -1.4738008559117184 
0.7699999999999315, -1.4738400308655557 
0.7799999999999304, -1.4737545535155872 
0.7899999999999293, -1.4734265940864164 
0.7999999999999282, -1.4727256324431335 
0.8099999999999271, -1.4714748513143083 
0.819999999999926, -1.4694225975134445 
0.8299999999999249, -1.4662351118303243 
0.8399999999999238, -1.461536595713361 
0.8499999999999227, -1.4550528787265669 
0.8599999999999216, -1.446948729110053 
0.8699999999999205, -1.43832663044704 
0.8799999999999194, -1.4312692412924009 
0.8899999999999183, -1.4274898583713267 
0.8999999999999172, -1.4267287952130683 
0.9099999999999161, -1.4273848953519401 
0.919999999999915, -1.4281954144775693 
0.9299999999999139, -1.4286838384435625 
0.9399999999999128, -1.4287822183644403 
0.9499999999999117, -1.4285087274412842 
0.9599999999999106, -1.4278387781992619 
0.9699999999999095, -1.42667534494711 
0.9799999999999084, -1.4249055359535288 
0.9899999999999073, -1.422683343954645 
0.9999999999999062, -1.4211232333127273 
1.0099999999999052, -1.4227868187802142 
1.019999999999904, -1.429934031405675 
1.029999999999903, -1.4413959218384949 
1.039999999999902, -1.4533674102620076 
1.0499999999999008, -1.463005034988114 
1.0599999999998997, -1.469603462984151 
1.0699999999998986, -1.4736544400693437 
1.0799999999998975, -1.4759167722556934 
1.0899999999998964, -1.4770232541979003 
1.0999999999998953, -1.4774051744739953 
1.1099999999998942, -1.4773315194467551 
1.119999999999893, -1.476974124198559 
1.129999999999892, -1.4764700492361862 
1.1399999999998909, -1.475963150821411 
1.1499999999998898, -1.4755968707186817 
1.1599999999998887, -1.4754589028207454 
1.1699999999998876, -1.4755449307552184 
1.1799999999998865, -1.4757836572817158 
1.1899999999998854, -1.4760761367391546 
1.1999999999998843, -1.4763163052965989 
1.2099999999998832, -1.4764043152015065 
1.219999999999882, -1.4762517433841889 
1.229999999999881, -1.4757729982127326 
1.2399999999998799, -1.4748719576603793 
1.2499999999998788, -1.4734350319702212 
1.2599999999998777, -1.4713352815244742 
1.2699999999998766, -1.4684513959753793 
1.2799999999998755, -1.4647161475213 
1.2899999999998744, -1.4602261173728974 
1.2999999999998733, -1.455423022805522 
1.3099999999998722, -1.4511855773810067 
1.319999999999871, -1.4484437253335116 
1.32999999999987, -1.4474052151699919 
1.3399999999998689, -1.4474319617145563 
1.3499999999998678, -1.4477540913534497 
1.3599999999998666, -1.4479446301827845 
1.3699999999998655, -1.447853509054799 
1.3799999999998644, -1.4474115312087885 
1.3899999999998633, -1.4465020370764163 
1.3999999999998622, -1.4448867807370507 
1.4099999999998611, -1.4421933488807057 
1.41999999999986, -1.4381671396564468 
1.429999999999859, -1.4336941130338428 
1.4399999999998578, -1.432391095811069 
1.4499999999998567, -1.439137565996042 
1.4599999999998556, -1.4536824610900339 
1.4699999999998545, -1.4697469029936625 
1.4799999999998534, -1.482189070395592 
1.4899999999998523, -1.4900439416856124 
1.4999999999998512, -1.494439680214397 
1.5099999999998501, -1.496683257988264 
1.519999999999849, -1.4976809800524256 
1.529999999999848, -1.497960821790164 
1.5399999999998468, -1.4978131670053827 
1.5499999999998457, -1.497413861503614 
1.5599999999998446, -1.4969169784307321 
1.5699999999998435, -1.4965054540684166 
1.5799999999998424, -1.4963577161478843 
1.5899999999998413, -1.4965456485919089 
1.5999999999998402, -1.4969949894552754 
1.6099999999998391, -1.4975594401776928 
1.619999999999838, -1.498099129266049 
1.629999999999837, -1.4985040473182072 
1.6399999999998358, -1.4986914602601809 
1.6499999999998347, -1.4985970266774162 
1.6599999999998336, -1.4981630038249563 
1.6699999999998325, -1.4973290323938275 
1.6799999999998314, -1.4960293861267953 
1.6899999999998303, -1.494197606506596 
1.6999999999998292, -1.4917827825924526 
1.709999999999828, -1.4887918449000894 
1.719999999999827, -1.4853797650974827 
1.729999999999826, -1.4819702142829858 
1.7399999999998248, -1.4792348999863434 
1.7499999999998237, -1.4776951067391635 
1.7599999999998226, -1.4772552326876762 
1.7699999999998215, -1.4773600629861225 
1.7799999999998204, -1.4775135943342443 
1.7899999999998193, -1.477467562346948 
1.7999999999998182, -1.4771082454018012 
1.809999999999817, -1.476311110117947 
1.819999999999816, -1.474832597673897 
1.8299999999998149, -1.4722279923979777 
1.8399999999998138, -1.467908529952974 
1.8499999999998127, -1.4618418223573528 
1.8599999999998116, -1.4565426999886166 
1.8699999999998105, -1.4580210317890328 
1.8799999999998094, -1.4697047234639682 
1.8899999999998083, -1.4863155776715444 
1.8999999999998072, -1.5004798551305927 
1.909999999999806, -1.5096667015270455 
1.919999999999805, -1.5147981855715347 
1.9299999999998039, -1.5174003126439009 
1.9399999999998028, -1.5185692031952098 
1.9499999999998017, -1.5189344287817703 
1.9599999999998006, -1.5188311793508307 
1.9699999999997995, -1.5184512159837171 
1.9799999999997984, -1.5179535029616158 
1.9899999999997973, -1.5175309418427159 
1.9999999999997962, -1.5173858380586673 
2.0099999999998173, -1.5176116732065195 
2.0199999999998384, -1.5181302320476822 
2.0299999999998595, -1.5187736134837757 
2.0399999999998806, -1.5193850602964512 
2.0499999999999017, -1.5198488835553758 
2.059999999999923, -1.5200832356096965 
2.069999999999944, -1.5200271207889053 
2.079999999999965, -1.5196268100065002 
2.089999999999986, -1.5188256588610032 
2.100000000000007, -1.5175605148891262 
2.1100000000000283, -1.5157656671254824 
2.1200000000000494, -1.5133891308456113 
2.1300000000000705, -1.5104369981540424 
2.1400000000000916, -1.5070699649240529 
2.1500000000001127, -1.5037314608398191 
2.160000000000134, -1.5011133823553466 
2.170000000000155, -1.4997141833504077 
2.180000000000176, -1.4993766512303321 
2.190000000000197, -1.4995165753706925 
2.2000000000002182, -1.4996559600053283 
2.2100000000002393, -1.4995695066138275 
2.2200000000002604, -1.4991490255085762 
2.2300000000002815, -1.4982571934320066 
2.2400000000003026, -1.496622714770731 
2.2500000000003237, -1.4937800426468366 
2.260000000000345, -1.4892485421214672 
2.270000000000366, -1.4835944116351403 
2.280000000000387, -1.4805739818499122 
2.290000000000408, -1.4861705812483936 
2.3000000000004293, -1.500690274998223 
2.3100000000004504, -1.5169493980374145 
2.3200000000004715, -1.5292080730538284 
2.3300000000004926, -1.5366643357142526 
2.3400000000005137, -1.540683168815465 
2.3500000000005348, -1.5426510149756931 
2.360000000000556, -1.5434643402403867 
2.370000000000577, -1.5436213123791647 
2.380000000000598, -1.543390698661159 
2.390000000000619, -1.5429440898654174 
2.4000000000006403, -1.5424481247121131 
2.4100000000006614, -1.5420943451399096 
2.4200000000006825, -1.5420307634331798 
2.4300000000007036, -1.5422675725634751 
2.4400000000007247, -1.5426936529905473 
2.450000000000746, -1.5431672824068463 
2.460000000000767, -1.5435649260535864 
2.470000000000788, -1.5437866234180029 
2.480000000000809, -1.5437509920168746 
2.49000000000083, -1.5433835100736446 
2.5000000000008513, -1.5426016487717635 
2.5100000000008724, -1.5413051959702315 
2.5200000000008935, -1.5393761037373404 
2.5300000000009146, -1.5366930004227393 
2.5400000000009357, -1.5331798184712147 
2.550000000000957, -1.5289314101809175 
2.560000000000978, -1.5244318834627546 
2.570000000000999, -1.5206429866520899 
2.58000000000102, -1.5184690011474236 
2.5900000000010412, -1.5178978467852777 
2.6000000000010624, -1.5181309525659243 
2.6100000000010835, -1.5184483397532191 
2.6200000000011046, -1.5185321256410043 
2.6300000000011257, -1.5182848617785192 
2.6400000000011468, -1.5176294917053321 
2.650000000001168, -1.5164048340106242 
2.660000000001189, -1.5143443954279505 
2.67000000000121, -1.5112869106365534 
2.680000000001231, -1.508062101681135 
2.6900000000012523, -1.50786619553366 
2.7000000000012734, -1.5147328512584421 
2.7100000000012945, -1.5278387420853812 
2.7200000000013156, -1.5416159298163603 
2.7300000000013367, -1.5520959839290112 
2.740000000001358, -1.5587354750069018 
2.750000000001379, -1.5624954142042875 
2.7600000000014, -1.5644224895582508 
2.770000000001421, -1.5652517813285287 
2.780000000001442, -1.5654262969792658 
2.7900000000014633, -1.565202142807567 
2.8000000000014844, -1.5647463106342712 
2.8100000000015055, -1.5642084023870537 
2.8200000000015266, -1.5637429890014833 
2.8300000000015477, -1.5634659699732247 
2.840000000001569, -1.5634040272206606 
2.85000000000159, -1.5635084614227348 
2.860000000001611, -1.5636929636013854 
2.870000000001632, -1.5638495891918727 
2.8800000000016532, -1.5638638818621307 
2.8900000000016743, -1.5636258556554818 
2.9000000000016954, -1.5630167313024201 
2.9100000000017165, -1.5618795448878966 
2.9200000000017377, -1.5599920650163681 
2.9300000000017588, -1.5570560152901547 
2.94000000000178, -1.5527269492282425 
2.950000000001801, -1.5467537585474793 
2.960000000001822, -1.5393578739999225 
2.970000000001843, -1.5318104400685624 
2.9800000000018643, -1.526306191848676 
2.9900000000018854, -1.5241202735886632 
3.0000000000019065, -1.5242977700396265 
3.0100000000019276, -1.5251592526397606 
3.0200000000019487, -1.5258078099480976 
3.03000000000197, -1.5260397653900089 
3.040000000001991, -1.525871242633522 
3.050000000002012, -1.5253078266501148 
3.060000000002033, -1.5242948651044237 
3.070000000002054, -1.5227971994690606 
3.0800000000020753, -1.5211332655362464 
3.0900000000020964, -1.520599783845745 
3.1000000000021175, -1.5233326989470903 
3.1100000000021386, -1.5300440638474568 
3.1200000000021597, -1.538632749782458 
3.130000000002181, -1.5464555124215018 
3.140000000002202, -1.5523086232381957 
3.150000000002223, -1.5561857416062248 
3.160000000002244, -1.5585123868179096 
3.1700000000022652, -1.5597392074945702 
3.1800000000022863, -1.56021801101666 
3.1900000000023074, -1.5601925685617208 
3.2000000000023285, -1.5598276644080449 
3.2100000000023496, -1.5592491941937303 
3.2200000000023707, -1.5585775672937237 
3.230000000002392, -1.5579330940314393 
3.240000000002413, -1.5574132342146665 
3.250000000002434, -1.557075462712635 
3.260000000002455, -1.5569292501809626 
3.2700000000024763, -1.556915887288553 
3.2800000000024974, -1.5569130919734977 
3.2900000000025185, -1.5567792233503523 
3.3000000000025396, -1.5563752268073856 
3.3100000000025607, -1.5555335821854412 
3.3200000000025818, -1.5539956935643853 
3.330000000002603, -1.5513395966795025 
3.340000000002624, -1.546924541596575 
3.350000000002645, -1.5399435640539365 
3.360000000002666, -1.5298365216428045 
3.3700000000026873, -1.5174094235187319 
3.3800000000027084, -1.5060062740788072 
3.3900000000027295, -1.4997386577265963 
3.4000000000027506, -1.4990049532499339 
3.4100000000027717, -1.5007452570099777 
3.420000000002793, -1.5025124369811163 
3.430000000002814, -1.503585572654662 
3.440000000002835, -1.5040171032028624 
3.450000000002856, -1.5039705216587094 
3.460000000002877, -1.5035393556137566 
3.4700000000028983, -1.5027547290039538 
3.4800000000029194, -1.5016917734559114 
3.4900000000029405, -1.5007210731967886 
3.5000000000029616, -1.5007845814649363 
3.5100000000029827, -1.5030122483332529 
3.520000000003004, -1.5074814717851666 
3.530000000003025, -1.5129282956856815 
3.540000000003046, -1.5179763225342302 
3.550000000003067, -1.521953607860134 
3.5600000000030882, -1.524766696987961 
3.5700000000031094, -1.5265690108609316 
3.5800000000031305, -1.5275697944767939 
3.5900000000031516, -1.527960838039201 
3.6000000000031727, -1.5278960009899534 
3.6100000000031938, -1.527493696515285 
3.620000000003215, -1.5268524195824105 
3.630000000003236, -1.5260703648748328 
3.640000000003257, -1.525254540971851 
3.650000000003278, -1.524513003994343 
3.6600000000032993, -1.5239418596954906 
3.6700000000033204, -1.523601891005399 
3.6800000000033415, -1.5234728669326365 
3.6900000000033626, -1.5234397563330462 
3.7000000000033837, -1.523347020770326 
3.710000000003405, -1.5230471836373884 
3.720000000003426, -1.522384855857929 
3.730000000003447, -1.5211334057396306 
3.740000000003468, -1.5189098478815024 
3.750000000003489, -1.5150844819373204 
3.7600000000035103, -1.508748846871232 
3.7700000000035314, -1.4989607673834355 
3.7800000000035525, -1.4857032695873242 
3.7900000000035736, -1.471537212427237 
3.8000000000035947, -1.4614506156717186 
3.810000000003616, -1.4582427874456014 
3.820000000003637, -1.4596134776193472 
3.830000000003658, -1.4620025315569758 
3.840000000003679, -1.4637686851027774 
3.8500000000037002, -1.4647124900509811 
3.8600000000037213, -1.4650317055482716 
3.8700000000037424, -1.4649016520450795 
3.8800000000037635, -1.4644058588197768 
3.8900000000037847, -1.4635779386806285 
3.9000000000038058, -1.462526080541498 
3.910000000003827, -1.4616855473722061 
3.920000000003848, -1.462023847783335 
3.930000000003869, -1.4645584899831117 
3.94000000000389, -1.4692297476377727 
3.9500000000039113, -1.474790559329342 
3.9600000000039324, -1.4799441640388242 
3.9700000000039535, -1.4840441087966842 
3.9800000000039746, -1.4869827766331567 
3.9900000000039957, -1.4888974677128715 
4.000000000004016, -1.4899916875365649 
4.010000000003993, -1.4904599262918898 
4.02000000000397, -1.4904624252132352 
4.030000000003946, -1.4901239385272818 
4.040000000003923, -1.4895472089839419 
4.0500000000039, -1.4888324340744945 
4.0600000000038765, -1.4880873604231413 
4.070000000003853, -1.4874171875019273 
4.08000000000383, -1.4869062846045558 
4.090000000003807, -1.4866027281893013 
4.100000000003783, -1.4864932590651592 
4.11000000000376, -1.4864881125975162 
4.120000000003737, -1.4864527618716799 
4.130000000003713, -1.4862522631069832 
4.14000000000369, -1.4857536233350221 
4.150000000003667, -1.4847875677036966 
4.1600000000036434, -1.4830957542500776 
4.17000000000362, -1.4802827161358478 
4.180000000003597, -1.4758012509069733 
4.1900000000035735, -1.4690458274500227 
4.20000000000355, -1.459710670323668 
4.210000000003527, -1.4485571432599529 
4.220000000003504, -1.4380986229714157 
4.23000000000348, -1.431484591557553 
4.240000000003457, -1.4295503646605068 
4.250000000003434, -1.430330768024085 
4.26000000000341, -1.4316772987375541 
4.270000000003387, -1.4326510037648175 
4.280000000003364, -1.4331066363095295 
4.2900000000033405, -1.4331204189779458 
4.300000000003317, -1.4327521719415464 
4.310000000003294, -1.431994137427337 
4.320000000003271, -1.4308029229516266 
4.330000000003247, -1.4292556194798487 
4.340000000003224, -1.427949859817534 
4.350000000003201, -1.428436454632165 
4.360000000003177, -1.432543675879859 
4.370000000003154, -1.4403057246581403 
4.380000000003131, -1.4495057003295226 
4.390000000003107, -1.4577810473137316 
4.400000000003084, -1.464049784458164 
4.410000000003061, -1.4682833967451998 
4.4200000000030375, -1.4708838087601745 
4.430000000003014, -1.4723099450765695 
4.440000000002991, -1.4729372476629028 
4.450000000002968, -1.473032447556362 
4.460000000002944, -1.4727757151215535 
4.470000000002921, -1.4722998586684226 
4.480000000002898, -1.4717286836647707 
4.490000000002874, -1.4711919109726594 
4.500000000002851, -1.4708000317963612 
4.510000000002828, -1.4706058910148463 
4.520000000002804, -1.470598463318963 
4.530000000002781, -1.4707193589634615 
4.540000000002758, -1.4708754906301946 
4.5500000000027345, -1.470957120020067 
4.560000000002711, -1.4708580335803052 
4.570000000002688, -1.470476539136302 
4.580000000002665, -1.4696981198953973 
4.590000000002641, -1.4683768883758779 
4.600000000002618, -1.46632872979023 
4.610000000002595, -1.4633439182056338 
4.620000000002571, -1.4592329800378248 
4.630000000002548, -1.453940902761104 
4.640000000002525, -1.4477762749213794 
4.6500000000025015, -1.4416757364381376 
4.660000000002478, -1.4370421145649857 
4.670000000002455, -1.4347530058715223 
4.6800000000024315, -1.43437303698965 
4.690000000002408, -1.4348016096266603 
4.700000000002385, -1.435257429824087 
4.710000000002362, -1.435445539596313 
4.720000000002338, -1.4352996678623327 
4.730000000002315, -1.4347790683362605 
4.740000000002292, -1.4337742788035048 
4.750000000002268, -1.4320752817050133 
4.760000000002245, -1.4294567912469311 
4.770000000002222, -1.4261504588042198 
4.7800000000021985, -1.423971637871155 
4.790000000002175, -1.4267754622213225 
4.800000000002152, -1.437046247265086 
4.810000000002129, -1.4518061966682472 
4.820000000002105, -1.465622163661367 
4.830000000002082, -1.4756375952141398 
4.840000000002059, -1.4818629326064525 
4.850000000002035, -1.4853582631240176 
4.860000000002012, -1.4871387114324783 
4.870000000001989, -1.4878967478607676 
4.880000000001965, -1.4880450825333305 
4.890000000001942, -1.48782167115258 
4.900000000001919, -1.4873844359039752 
4.9100000000018955, -1.486883537532739 
4.920000000001872, -1.4864891606318102 
4.930000000001849, -1.4863441835811169 
