t, s[1].omega / s[0].omega 
0, -0.9999981841901923 
0.009999999999999995, -0.9997358840893986 
0.019999999999999934, -0.9993078915893839 
0.029999999999999874, -0.9987200759764032 
0.04000000000000012, -0.9980282560967563 
0.050000000000000405, -0.9973493342064969 
0.06000000000000069, -0.9968293462383705 
0.07000000000000098, -0.996577850744245 
0.08000000000000126, -0.9966188092488446 
0.09000000000000155, -0.9968822156526639 
0.10000000000000184, -0.9972327215160562 
0.11000000000000212, -0.9975330392221504 
0.12000000000000241, -0.9976965112470322 
0.130000000000002, -0.9976962307010574 
0.1400000000000009, -0.997536527002798 
0.1499999999999998, -0.9972157459215187 
0.1599999999999987, -0.9967267845435214 
0.1699999999999976, -0.9960948554970687 
0.1799999999999965, -0.995405910223488 
0.1899999999999954, -0.9947983015961054 
0.1999999999999943, -0.9944106015170968 
0.2099999999999932, -0.9943156569643561 
0.2199999999999921, -0.9944916724533811 
0.229999999999991, -0.9948327840218696 
0.2399999999999899, -0.9951962778237254 
0.2499999999999888, -0.9954662815860895 
0.2599999999999877, -0.9955863233525534 
0.2699999999999866, -0.9955480450545237 
0.2799999999999855, -0.9953527523324125 
0.2899999999999844, -0.9949891630480059 
0.2999999999999833, -0.9944580459462624 
0.3099999999999822, -0.9938112379201773 
0.3199999999999811, -0.99316398021263 
0.32999999999998, -0.9926659959065084 
0.3399999999999789, -0.9924343783363717 
0.3499999999999778, -0.9924989082190285 
0.35999999999997667, -0.9927954986548208 
0.36999999999997557, -0.9931955477334398 
0.37999999999997447, -0.9935644162902683 
0.38999999999997337, -0.9938137491559706 
0.39999999999997227, -0.9939123097640084 
0.40999999999997117, -0.9938575155164502 
0.41999999999997006, -0.9936390827762313 
0.42999999999996896, -0.9932417892850489 
0.43999999999996786, -0.9926850394281549 
0.44999999999996676, -0.9920515418215141 
0.45999999999996566, -0.9914816194437512 
0.46999999999996456, -0.9911238183077894 
0.47999999999996346, -0.9910617792315883 
0.48999999999996235, -0.9912802387981818 
0.49999999999996125, -0.9916806812682811 
0.5099999999999602, -0.9921263438254937 
0.519999999999959, -0.9925014111994387 
0.529999999999958, -0.9927451227056359 
0.5399999999999568, -0.9928414475097742 
0.5499999999999557, -0.9927809545837266 
0.5599999999999546, -0.992541031055506 
0.5699999999999535, -0.9921139459407055 
0.5799999999999524, -0.9915467675342238 
0.5899999999999513, -0.9909539330622372 
0.5999999999999502, -0.990493388268572 
0.6099999999999491, -0.9902984303143456 
0.619999999999948, -0.9904104091427696 
0.6299999999999469, -0.9907714154595368 
0.6399999999999458, -0.9912594901560188 
0.6499999999999447, -0.9917427546327799 
0.6599999999999436, -0.9921296505140034 
0.6699999999999425, -0.9923816050068576 
0.6799999999999414, -0.9924848634812188 
0.6899999999999403, -0.9924156558686276 
0.6999999999999392, -0.9921470955221298 
0.7099999999999381, -0.9916918964030855 
0.719999999999937, -0.9911300989075875 
0.7299999999999359, -0.9906056008224301 
0.7399999999999348, -0.9902829677465513 
0.7499999999999337, -0.9902656702858055 
0.7599999999999326, -0.9905479840898246 
0.7699999999999315, -0.9910357974602161 
0.7799999999999304, -0.9915960228240271 
0.7899999999999293, -0.9921115462487958 
0.7999999999999282, -0.9925152910902808 
0.8099999999999271, -0.9927809503480445 
0.819999999999926, -0.9928853460995126 
0.8299999999999249, -0.9927918286834168 
0.8399999999999238, -0.9924833091304842 
0.8499999999999227, -0.9920030835523289 
0.8599999999999216, -0.9914656351375498 
0.8699999999999205, -0.991038708217848 
0.8799999999999194, -0.9908783528481319 
0.8899999999999183, -0.991044768092576 
0.8999999999999172, -0.9914853607232298 
0.9099999999999161, -0.9920796422978521 
0.919999999999915, -0.9926954530264241 
0.9299999999999139, -0.9932364087740478 
0.9399999999999128, -0.9936551991634516 
0.9499999999999117, -0.9939258053015861 
0.9599999999999106, -0.9940101072762402 
0.9699999999999095, -0.9938694264458098 
0.9799999999999084, -0.993511085939516 
0.9899999999999073, -0.9930140284828931 
0.9999999999999062, -0.9925255885642057 
1.0099999999999052, -0.9922268436549238 
1.019999999999904, -0.9922462690373521 
1.029999999999903, -0.9925913104554551 
1.039999999999902, -0.9931683914466091 
1.0499999999999008, -0.9938428307988106 
1.0599999999998997, -0.994493857641845 
1.0699999999998986, -0.9950473894849388 
1.0799999999998975, -0.9954672289951947 
1.0899999999998964, -0.9957177973065032 
1.0999999999998953, -0.9957501666551275 
1.1099999999998942, -0.9955398717513159 
1.119999999999893, -0.9951285035081096 
1.129999999999892, -0.9946312870049899 
1.1399999999998909, -0.9942233762847458 
1.1499999999998898, -0.9940814224884573 
1.1599999999998887, -0.9942862812179386 
1.1699999999998876, -0.9947907413036402 
1.1799999999998865, -0.9954714831287771 
1.1899999999998854, -0.9961926711288942 
1.1999999999998843, -0.996852498443334 
1.2099999999998832, -0.9973962308977408 
1.219999999999882, -0.9977887044594861 
1.229999999999881, -0.9979817378783545 
1.2399999999998799, -0.9979287576602696 
1.2499999999998788, -0.9976342239192554 
1.2599999999998777, -0.9971772948442286 
1.2699999999998766, -0.996707403736786 
1.2799999999998755, -0.9964159955572444 
1.2899999999998744, -0.9964501238176832 
1.2999999999998733, -0.9968287173945521 
1.3099999999998722, -0.9974577547677456 
1.319999999999871, -0.9981987729738109 
1.32999999999987, -0.9989267662641431 
1.3399999999998689, -0.9995624204233268 
1.3499999999998678, -1.0000637148668197 
1.3599999999998666, -1.0003889694054866 
1.3699999999998655, -1.0004836773327102 
1.3799999999998644, -1.0003202072648416 
1.3899999999998633, -0.9999397708616705 
1.3999999999998622, -0.999458103475014 
1.4099999999998611, -0.9990532001694022 
1.41999999999986, -0.9989107786109577 
1.429999999999859, -0.9991220157704439 
1.4399999999998578, -0.9996428662516553 
1.4499999999998567, -1.0003480550411892 
1.4599999999998556, -1.001098838761053 
1.4699999999998545, -1.0017900902150532 
1.4799999999998534, -1.0023639382135874 
1.4899999999998523, -1.0027830741755248 
1.4999999999998512, -1.0029981138516912 
1.5099999999998501, -1.002961658707272 
1.519999999999849, -1.0026776721518644 
1.529999999999848, -1.002225124904934 
1.5399999999998468, -1.0017534144162967 
1.5499999999998457, -1.001454854926735 
1.5599999999998446, -1.0014784531933447 
1.5699999999998435, -1.001844669164261 
1.5799999999998424, -1.0024599310175033 
1.5899999999998413, -1.0031852163858113 
1.5999999999998402, -1.0038941057942288 
1.6099999999998391, -1.004506123099715 
1.619999999999838, -1.0049798862082058 
1.629999999999837, -1.0052767756145085 
1.6399999999998358, -1.0053460445047864 
1.6499999999998347, -1.0051617975481095 
1.6599999999998336, -1.004764788247446 
1.6699999999998325, -1.004269750822173 
1.6799999999998314, -1.0038523741979324 
1.6899999999998303, -1.0036924499634752 
1.6999999999998292, -1.003874832061616 
1.709999999999828, -1.0043544771033392 
1.719999999999827, -1.0050081082430757 
1.729999999999826, -1.00569774756523 
1.7399999999998248, -1.0063185220697093 
1.7499999999998237, -1.0068146190409895 
1.7599999999998226, -1.007154298703953 
1.7699999999998215, -1.007296399826467 
1.7799999999998204, -1.0071999139238945 
1.7899999999998193, -1.0068701133388132 
1.7999999999998182, -1.0063844785376144 
1.809999999999817, -1.0058897594428144 
1.819999999999816, -1.0055697865783675 
1.8299999999998149, -1.0055592547424115 
1.8399999999998138, -1.0058708296935313 
1.8499999999998127, -1.0064130043625348 
1.8599999999998116, -1.0070496031729146 
1.8699999999998105, -1.0076553649592477 
1.8799999999998094, -1.0081521990135576 
1.8899999999998083, -1.0085047841883825 
1.8999999999998072, -1.008685007290569 
1.909999999999806, -1.0086533250996241 
1.919999999999805, -1.008389497219782 
1.9299999999998039, -1.0079337908635735 
1.9399999999998028, -1.0073984384199628 
1.9499999999998017, -1.0069520619914365 
1.9599999999998006, -1.006757446486256 
1.9699999999997995, -1.006883493599977 
1.9799999999997984, -1.00728318767737 
1.9899999999997973, -1.0078369614060636 
1.9999999999997962, -1.0084082977787765 
2.0099999999998173, -1.0088941215293175 
2.0199999999998384, -1.0092437313143252 
2.0299999999998595, -1.0094355922491147 
2.0399999999998806, -1.009442329912787 
2.0499999999999017, -1.0092336915644209 
2.059999999999923, -1.0088178540122734 
2.069999999999944, -1.008270484702156 
2.079999999999965, -1.0077335313440579 
2.089999999999986, -1.0073764409240302 
2.100000000000007, -1.0073136199838673 
2.1100000000000283, -1.0075492919159847 
2.1200000000000494, -1.007994399750998 
2.1300000000000705, -1.0085139163704269 
2.1400000000000916, -1.0089829371643309 
2.1500000000001127, -1.009326692814277 
2.160000000000134, -1.0095179757174384 
2.170000000000155, -1.0095420670913398 
2.180000000000176, -1.0093735126595385 
2.190000000000197, -1.0089996926838578 
2.2000000000002182, -1.0084612308076146 
2.2100000000002393, -1.0078673640880365 
2.2200000000002604, -1.0073770599935956 
2.2300000000002815, -1.0071340648575193 
2.2400000000003026, -1.00719351122398 
2.2500000000003237, -1.0075077342119818 
2.260000000000345, -1.0079576429693062 
2.270000000000366, -1.008405105990894 
2.280000000000387, -1.0087480596048426 
2.290000000000408, -1.008941081905906 
2.3000000000004293, -1.0089733849618907 
2.3100000000004504, -1.0088320098680195 
2.3200000000004715, -1.0084981271599618 
2.3300000000004926, -1.0079837545233872 
2.3400000000005137, -1.007363318948191 
2.3500000000005348, -1.0067732476740523 
2.360000000000556, -1.0063688701124778 
2.370000000000577, -1.006249215388835 
2.380000000000598, -1.006414286506315 
2.390000000000619, -1.006774863366796 
2.4000000000006403, -1.007192665107324 
2.4100000000006614, -1.0075412310193965 
2.4200000000006825, -1.0077482497499135 
2.4300000000007036, -1.0077936237451337 
2.4400000000007247, -1.0076746941237622 
2.450000000000746, -1.0073786922357197 
2.460000000000767, -1.0069001790582643 
2.470000000000788, -1.006280700948257 
2.480000000000809, -1.005626713956432 
2.49000000000083, -1.005088580486077 
2.5000000000008513, -1.0047968825267406 
2.5100000000008724, -1.0048000723928416 
2.5200000000008935, -1.0050498675788646 
2.5300000000009146, -1.0054236708027762 
2.5400000000009357, -1.005779637656936 
2.550000000000957, -1.0060157050059004 
2.560000000000978, -1.0060901170036096 
2.570000000000999, -1.0060002861060415 
2.58000000000102, -1.0057444123339365 
2.5900000000010412, -1.0053124546576722 
2.6000000000010624, -1.0047194978698941 
2.6100000000010835, -1.004038907839503 
2.6200000000011046, -1.0034025400047952 
2.6300000000011257, -1.0029567624549718 
2.6400000000011468, -1.0027935677717201 
2.650000000001168, -1.0029119358589607 
2.660000000001189, -1.0032205621822021 
2.67000000000121, -1.0035768860445573 
2.680000000001231, -1.003852637619104 
2.6900000000012523, -1.0039766205577023 
2.7000000000012734, -1.0039329929224814 
2.7100000000012945, -1.0037267749189633 
2.7200000000013156, -1.0033531496801327 
2.7300000000013367, -1.0028108494506567 
2.740000000001358, -1.0021414274651528 
2.750000000001379, -1.0014488469945593 
2.7600000000014, -1.000878415663198 
2.770000000001421, -1.00055537459545 
2.780000000001442, -1.0005269358697257 
2.7900000000014633, -1.0007447864388812 
2.8000000000014844, -1.0010838421892834 
2.8100000000015055, -1.0014000343550133 
2.8200000000015266, -1.0015909390695377 
2.8300000000015477, -1.0016161215875143 
2.840000000001569, -1.0014766539950137 
2.85000000000159, -1.001175789070599 
2.860000000001611, -1.0007069278164775 
2.870000000001632, -1.0000853942485768 
2.8800000000016532, -0.9993826655386068 
2.8900000000016743, -0.9987277269165616 
2.9000000000016954, -0.9982641627504767 
2.9100000000017165, -0.9980834281792935 
2.9200000000017377, -0.9981858970724061 
2.9300000000017588, -0.998480932141337 
2.94000000000178, -0.998825592548457 
2.950000000001801, -0.999091121671968 
2.960000000001822, -0.9992060680817468 
2.970000000001843, -0.9991550468598489 
2.9800000000018643, -0.9989443826001349 
2.9900000000018854, -0.9985701618824249 
3.0000000000019065, -0.9980302839932272 
3.0100000000019276, -0.9973640164135281 
3.0200000000019487, -0.996672827072313 
3.03000000000197, -0.996100937305578 
3.040000000001991, -0.9957749695750906 
3.050000000002012, -0.9957447755453267 
3.060000000002033, -0.9959650409877457 
3.070000000002054, -0.9963137198102026 
3.0800000000020753, -0.9966481449149364 
3.0900000000020964, -0.996865422392063 
3.1000000000021175, -0.9969237806714198 
3.1100000000021386, -0.9968224287279676 
3.1200000000021597, -0.9965620979415875 
3.130000000002181, -0.996132865224777 
3.140000000002202, -0.9955463817059731 
3.150000000002223, -0.9948708814629511 
3.160000000002244, -0.9942341708111682 
3.1700000000022652, -0.9937829577858602 
3.1800000000022863, -0.9936139688230657 
3.1900000000023074, -0.9937319407285271 
3.2000000000023285, -0.9940516204084916 
3.2100000000023496, -0.994434986621736 
3.2200000000023707, -0.9947543589715012 
3.230000000002392, -0.9949364572644772 
3.240000000002413, -0.9949622408139739 
3.250000000002434, -0.9948325518187123 
3.260000000002455, -0.9945368979252933 
3.2700000000024763, -0.9940670073738093 
3.2800000000024974, -0.9934574841794876 
3.2900000000025185, -0.9928073024508247 
3.3000000000025396, -0.9922634265414431 
3.3100000000025607, -0.9919610409746427 
3.3200000000025818, -0.9919575664974124 
3.330000000002603, -0.9922134593617468 
3.340000000002624, -0.9926139543092348 
3.350000000002645, -0.9930206990921268 
3.360000000002666, -0.9933298764199452 
3.3700000000026873, -0.9934955293803721 
3.3800000000027084, -0.9935098037072652 
3.3900000000027295, -0.9933640446819858 
3.4000000000027506, -0.9930389476361298 
3.4100000000027717, -0.9925392841900375 
3.420000000002793, -0.991929283235168 
3.430000000002814, -0.9913371092610019 
3.440000000002835, -0.9909185771606263 
3.450000000002856, -0.9907836390897704 
3.460000000002877, -0.9909451122706471 
3.4700000000028983, -0.9913243420893962 
3.4800000000029194, -0.9917901067384889 
3.4900000000029405, -0.9922162422822135 
3.5000000000029616, -0.9925257811747679 
3.5100000000029827, -0.9926923891537663 
3.520000000003004, -0.9927061607446472 
3.530000000003025, -0.9925443827722655 
3.540000000003046, -0.9921888941692552 
3.550000000003067, -0.9916686574893567 
3.5600000000030882, -0.9910806405732225 
3.5700000000031094, -0.9905774594271243 
3.5800000000031305, -0.9903106690594645 
3.5900000000031516, -0.9903529201777029 
3.6000000000031727, -0.9906715546330844 
3.6100000000031938, -0.9911576048395335 
3.620000000003215, -0.9916765374589572 
3.630000000003236, -0.9921224398605692 
3.640000000003257, -0.9924426935912609 
3.650000000003278, -0.9926189060285369 
3.6600000000032993, -0.9926288798719829 
3.6700000000033204, -0.9924404706075663 
3.6800000000033415, -0.9920504770940723 
3.6900000000033626, -0.9915197809353572 
3.7000000000033837, -0.9909778596623936 
3.710000000003405, -0.9905934435040259 
3.720000000003426, -0.9904983020373939 
3.730000000003447, -0.9907187839761429 
3.740000000003468, -0.9911804325045804 
3.750000000003489, -0.9917551845474194 
3.7600000000035103, -0.9923166016856714 
3.7700000000035314, -0.9927823156840182 
3.7800000000035525, -0.993116647109939 
3.7900000000035736, -0.9932967254797552 
3.8000000000035947, -0.9932854919748502 
3.810000000003616, -0.9930540490751463 
3.820000000003637, -0.9926267266774823 
3.830000000003658, -0.992099607984237 
3.840000000003679, -0.9916313824044384 
3.8500000000037002, -0.9913937594426657 
3.8600000000037213, -0.9914820092522814 
3.8700000000037424, -0.9918720414052129 
3.8800000000037635, -0.9924556597170434 
3.8900000000037847, -0.9930979996198495 
3.9000000000038058, -0.9936892399717506 
3.910000000003827, -0.994169016050272 
3.920000000003848, -0.9945078931582684 
3.930000000003869, -0.9946700869346521 
3.94000000000389, -0.9946110083915085 
3.9500000000039113, -0.9943208336912919 
3.9600000000039324, -0.9938589246689835 
3.9700000000039535, -0.9933562945205279 
3.9800000000039746, -0.9929933434104702 
3.9900000000039957, -0.9929257940153099 
4.000000000004016, -0.993197649101494 
4.010000000003993, -0.9937369129048157 
4.02000000000397, -0.9944133421978543 
4.030000000003946, -0.9950972163023765 
4.040000000003923, -0.9957000850195061 
4.0500000000039, -0.9961776154076128 
4.0600000000038765, -0.996495970364668 
4.070000000003853, -0.9966064009302387 
4.08000000000383, -0.9964718061673208 
4.090000000003807, -0.9961140524743964 
4.100000000003783, -0.9956295172335915 
4.11000000000376, -0.9951810313838286 
4.120000000003737, -0.9949560725235607 
4.130000000003713, -0.9950711923886533 
4.14000000000369, -0.9955114099235517 
4.150000000003667, -0.9961665678825269 
4.1600000000036434, -0.9968980908704623 
4.17000000000362, -0.9975914240178597 
4.180000000003597, -0.9981798263824437 
4.1900000000035735, -0.998626200858724 
4.20000000000355, -0.9988862110119123 
4.210000000003527, -0.9989077752164129 
4.220000000003504, -0.9986775381722724 
4.23000000000348, -0.9982547295363643 
4.240000000003457, -0.9977714010927384 
4.250000000003434, -0.9974141468665343 
4.26000000000341, -0.9973535308009496 
4.270000000003387, -0.9976462813783608 
4.280000000003364, -0.9982222130362728 
4.2900000000033405, -0.9989479121289975 
4.300000000003317, -0.9996899574071313 
4.310000000003294, -1.0003555061511542 
4.320000000003271, -1.000895546367021 
4.330000000003247, -1.0012717476426085 
4.340000000003224, -1.0014312841861028 
4.350000000003201, -1.00133428480549 
4.360000000003177, -1.001001876570118 
4.370000000003154, -1.0005306235392355 
4.380000000003131, -1.0000844806115259 
4.390000000003107, -0.9998559777153369 
4.400000000003084, -0.9999693417001747 
4.410000000003061, -1.0004134168250032 
4.4200000000030375, -1.0010773840529799 
4.430000000003014, -1.0018205998090397 
4.440000000002991, -1.0025259281001901 
4.450000000002968, -1.0031242538395957 
4.460000000002944, -1.0035774190039142 
4.470000000002921, -1.0038415244957304 
4.480000000002898, -1.0038652400080648 
4.490000000002874, -1.003635244918344 
4.500000000002851, -1.0032103506566965 
4.510000000002828, -1.0027221274318905 
4.520000000002804, -1.0023563613629378 
4.530000000002781, -1.0022822324263814 
4.540000000002758, -1.002555526654057 
4.5500000000027345, -1.0031065740812097 
4.560000000002711, -1.0038025239920092 
4.570000000002688, -1.0045093727033407 
4.580000000002665, -1.005133614561389 
4.590000000002641, -1.0056273167158158 
4.600000000002618, -1.0059561231485699 
4.610000000002595, -1.0060727382871273 
4.620000000002571, -1.0059407916963123 
4.630000000002548, -1.0055814769348612 
4.640000000002525, -1.0050901265334877 
4.6500000000025015, -1.004628343828069 
4.660000000002478, -1.0043816522944027 
4.670000000002455, -1.0044646254310403 
4.6800000000024315, -1.0048625589526319 
4.690000000002408, -1.0054669189218908 
4.700000000002385, -1.006138750902546 
4.710000000002362, -1.0067615050958496 
4.720000000002338, -1.0072680932592322 
4.730000000002315, -1.0076259121878386 
4.740000000002292, -1.0078001754158294 
4.750000000002268, -1.0077480569529382 
4.760000000002245, -1.0074593405113568 
4.770000000002222, -1.006991633448607 
4.7800000000021985, -1.0064740715400378 
4.790000000002175, -1.0060849632207927 
4.800000000002152, -1.005977980715153 
4.810000000002129, -1.006197255955707 
4.820000000002105, -1.0066735027309877 
4.830000000002082, -1.0072772977227324 
4.840000000002059, -1.007875989662779 
4.850000000002035, -1.0083781007315713 
4.860000000002012, -1.0087410942248103 
4.870000000001989, -1.0089408051344995 
4.880000000001965, -1.008942379132308 
4.890000000001942, -1.0087175302391604 
4.900000000001919, -1.0082883785126675 
4.9100000000018955, -1.007748028162412 
4.920000000001872, -1.007252502996842 
4.930000000001849, -1.0069718185026708 
