t, s[1].omega / s[0].omega 
0, -1.309997264391445 
0.009999999999999995, -1.309535750703397 
0.019999999999999934, -1.3087039813507315 
0.029999999999999874, -1.3075097789252885 
0.04000000000000012, -1.3059726410026524 
0.050000000000000405, -1.3041308488290975 
0.06000000000000069, -1.3020478791457604 
0.07000000000000098, -1.2998208411056609 
0.08000000000000126, -1.2975995934094176 
0.09000000000000155, -1.2956070719777077 
0.10000000000000184, -1.2941013534493886 
0.11000000000000212, -1.2932353105659264 
0.12000000000000241, -1.2929256628623893 
0.130000000000002, -1.2928981698531383 
0.1400000000000009, -1.292847502955443 
0.1499999999999998, -1.2925210458412377 
0.1599999999999987, -1.2916807310260703 
0.1699999999999976, -1.290006743206531 
0.1799999999999965, -1.2869902367517208 
0.1899999999999954, -1.2818426617240413 
0.1999999999999943, -1.2734748285693431 
0.2099999999999932, -1.2606253685967141 
0.2199999999999921, -1.2421798148998233 
0.229999999999991, -1.21764503477089 
0.2399999999999899, -1.1877460077349695 
0.2499999999999888, -1.155064916142266 
0.2599999999999877, -1.1241444328739185 
0.2699999999999866, -1.099981142628435 
0.2799999999999855, -1.0851910807300917 
0.2899999999999844, -1.078629203768096 
0.2999999999999833, -1.0770420342726015 
0.3099999999999822, -1.0775091299189894 
0.3199999999999811, -1.07839417869122 
0.32999999999998, -1.0790457790840318 
0.3399999999999789, -1.0792682066151322 
0.3499999999999778, -1.0789820880918395 
0.35999999999997667, -1.0780482435225263 
0.36999999999997557, -1.0761382880606525 
0.37999999999997447, -1.072552267259173 
0.38999999999997337, -1.0658938652091596 
0.39999999999997227, -1.0535504435647385 
0.40999999999997117, -1.0311732109337424 
0.41999999999997006, -0.9931178575623446 
0.42999999999996896, -0.9356163787367073 
0.43999999999996786, -0.8622626716346712 
0.44999999999996676, -0.7852821194305062 
0.45999999999996566, -0.7180339866214317 
0.46999999999996456, -0.6671375060511885 
0.47999999999996346, -0.6322113173090503 
0.48999999999996235, -0.6097195448757264 
0.49999999999996125, -0.5958608491720948 
0.5099999999999602, -0.587633221121092 
0.519999999999959, -0.5829381603082137 
0.529999999999958, -0.5803920396917186 
0.5399999999999568, -0.5791124787568552 
0.5499999999999557, -0.5785496578017681 
0.5599999999999546, -0.5783670095372017 
0.5699999999999535, -0.5783608361179431 
0.5799999999999524, -0.5784081075139816 
0.5899999999999513, -0.578434405181774 
0.5999999999999502, -0.5783966001253699 
0.6099999999999491, -0.578276376283155 
0.619999999999948, -0.5780804305668662 
0.6299999999999469, -0.5778413875934616 
0.6399999999999458, -0.5776127330129449 
0.6499999999999447, -0.5774546377169654 
0.6599999999999436, -0.5774142455803957 
0.6699999999999425, -0.577508041870496 
0.6799999999999414, -0.5777129190673627 
0.6899999999999403, -0.5779698527862254 
0.6999999999999392, -0.578200738846608 
0.7099999999999381, -0.5783325568033273 
0.719999999999937, -0.5783171888263766 
0.7299999999999359, -0.5781381779892975 
0.7399999999999348, -0.5778061477012063 
0.7499999999999337, -0.5773519050573256 
0.7599999999999326, -0.5768259496163605 
0.7699999999999315, -0.5763102024744963 
0.7799999999999304, -0.5759476775512463 
0.7899999999999293, -0.5760002361279197 
0.7999999999999282, -0.5769538516236153 
0.8099999999999271, -0.5797062351660165 
0.819999999999926, -0.5858942158829421 
0.8299999999999249, -0.5984381588150451 
0.8399999999999238, -0.6223332910553839 
0.8499999999999227, -0.6653468822244154 
0.8599999999999216, -0.7369732633694331 
0.8699999999999205, -0.841929655127393 
0.8799999999999194, -0.9680816527921122 
0.8899999999999183, -1.0856303167381944 
0.8999999999999172, -1.1704583825311012 
0.9099999999999161, -1.220665543934084 
0.919999999999915, -1.246999925068506 
0.9299999999999139, -1.2600201649141933 
0.9399999999999128, -1.2662828359421265 
0.9499999999999117, -1.2691901020596197 
0.9599999999999106, -1.2703799528252118 
0.9699999999999095, -1.2706173805453707 
0.9799999999999084, -1.2702629990698495 
0.9899999999999073, -1.269536706310621 
0.9999999999999062, -1.2687354588925557 
1.0099999999999052, -1.2684547708553828 
1.019999999999904, -1.2696274961029952 
1.029999999999903, -1.2730447088297436 
1.039999999999902, -1.2786317215903624 
1.0499999999999008, -1.2854374685909244 
1.0599999999998997, -1.2923654008838148 
1.0699999999998986, -1.298707747075616 
1.0799999999998975, -1.3041649109749174 
1.0899999999998964, -1.3086659565224705 
1.0999999999998953, -1.3122289944105805 
1.1099999999998942, -1.3149001053031715 
1.119999999999893, -1.3167413053463703 
1.129999999999892, -1.3178358799562553 
1.1399999999998909, -1.3182895615232462 
1.1499999999998898, -1.3182219168146345 
1.1599999999998887, -1.3177573666738682 
1.1699999999998876, -1.3170260644760325 
1.1799999999998865, -1.3161696064231838 
1.1899999999998854, -1.3153317262398658 
1.1999999999998843, -1.3146276106771213 
1.2099999999998832, -1.3141231037340022 
1.219999999999882, -1.3138477125712391 
1.229999999999881, -1.3138052991843572 
1.2399999999998799, -1.3139497104725975 
1.2499999999998788, -1.3141656999103042 
1.2599999999998777, -1.314295595800333 
1.2699999999998766, -1.3141795505090437 
1.2799999999998755, -1.313667023795996 
1.2899999999998744, -1.312605608759035 
1.2999999999998733, -1.3108346826774087 
1.3099999999998722, -1.3081965631170849 
1.319999999999871, -1.304556159001584 
1.32999999999987, -1.2998117457476994 
1.3399999999998689, -1.2938933813025224 
1.3499999999998678, -1.286771627339201 
1.3599999999998666, -1.2785193313446996 
1.3699999999998655, -1.2694682059662148 
1.3799999999998644, -1.2604267564000373 
1.3899999999998633, -1.2526982490032572 
1.3999999999998622, -1.247503439346034 
1.4099999999998611, -1.2450793822490775 
1.41999999999986, -1.2445680641968246 
1.429999999999859, -1.2448429565576455 
1.4399999999998578, -1.2451551735973518 
1.4499999999998567, -1.2451494182464184 
1.4599999999998556, -1.2446254154334746 
1.4699999999998545, -1.2433139417899546 
1.4799999999998534, -1.2406546093297568 
1.4899999999998523, -1.2354415784667847 
1.4999999999998512, -1.2251432750159104 
1.5099999999998501, -1.2047251745105079 
1.519999999999849, -1.165389084115875 
1.529999999999848, -1.095866924127545 
1.5399999999998468, -0.9914278669479689 
1.5499999999998457, -0.8671105250286784 
1.5599999999998446, -0.7526576184297921 
1.5699999999998435, -0.6680017127531273 
1.5799999999998424, -0.614007924356056 
1.5899999999998413, -0.5823919355215553 
1.5999999999998402, -0.5647470334436884 
1.6099999999998391, -0.5552191394353014 
1.619999999999838, -0.5502453148482276 
1.629999999999837, -0.5477704792180338 
1.6399999999998358, -0.5466352686972327 
1.6499999999998347, -0.5461921147526274 
1.6599999999998336, -0.5460807826308136 
1.6699999999998325, -0.5461002579201966 
1.6799999999998314, -0.5461365901844598 
1.6899999999998303, -0.5461234842293603 
1.6999999999998292, -0.5460229932480453 
1.709999999999828, -0.5458193181412937 
1.719999999999827, -0.5455204241011076 
1.729999999999826, -0.5451610033044947 
1.7399999999998248, -0.544799323423178 
1.7499999999998237, -0.5445038761616816 
1.7599999999998226, -0.5443331041546613 
1.7699999999998215, -0.5443163323233658 
1.7799999999998204, -0.5444427169275441 
1.7899999999998193, -0.5446617352425146 
1.7999999999998182, -0.5448964909379967 
1.809999999999817, -0.5450666293766309 
1.819999999999816, -0.5451109170126509 
1.8299999999998149, -0.5449987269196317 
1.8399999999998138, -0.5447282976646821 
1.8499999999998127, -0.5443189350321772 
1.8599999999998116, -0.5438063895336983 
1.8699999999998105, -0.5432479670307548 
1.8799999999998094, -0.5427427817127138 
1.8899999999998083, -0.542476252558167 
1.8999999999998072, -0.5428080441370731 
1.909999999999806, -0.544442610805589 
1.919999999999805, -0.5487585464857853 
1.9299999999998039, -0.558434110493004 
1.9399999999998028, -0.5785643706767538 
1.9499999999998017, -0.6182966167937164 
1.9599999999998006, -0.6917171286712109 
1.9699999999997995, -0.812754336403409 
1.9799999999997984, -0.976787158795804 
1.9899999999997973, -1.1440551254759588 
1.9999999999997962, -1.267937089868171 
2.0099999999998173, -1.3385862932431474 
2.0199999999998384, -1.3732078531111285 
2.0299999999998595, -1.3891586988604212 
2.0399999999998806, -1.3963753254339677 
2.0499999999999017, -1.3995610022959035 
2.059999999999923, -1.4008075627452337 
2.069999999999944, -1.4010355770554195 
2.079999999999965, -1.4006717317029818 
2.089999999999986, -1.400001315705092 
2.100000000000007, -1.3994187954555408 
2.1100000000000283, -1.3995491748559896 
2.1200000000000494, -1.4009873831544315 
2.1300000000000705, -1.4037571201729377 
2.1400000000000916, -1.4072515863033948 
2.1500000000001127, -1.4107705079089168 
2.160000000000134, -1.4138968384155541 
2.170000000000155, -1.4164764762870519 
2.180000000000176, -1.4184824704176715 
2.190000000000197, -1.419931052335312 
2.2000000000002182, -1.420848995119842 
2.2100000000002393, -1.4212627518484495 
2.2200000000002604, -1.4211962308036317 
2.2300000000002815, -1.420673105384401 
2.2400000000003026, -1.4197213709425731 
2.2500000000003237, -1.418378916629955 
2.260000000000345, -1.4166989952709528 
2.270000000000366, -1.4147547334025772 
2.280000000000387, -1.4126523225161267 
2.290000000000408, -1.4105716668904567 
2.3000000000004293, -1.4087992478356923 
2.3100000000004504, -1.4076288617271218 
2.3200000000004715, -1.4071271531862464 
2.3300000000004926, -1.4070483703243952 
2.3400000000005137, -1.4070224644029512 
2.3500000000005348, -1.4067311010495793 
2.360000000000556, -1.4058861365584845 
2.370000000000577, -1.404076011737184 
2.380000000000598, -1.4005315725401182 
2.390000000000619, -1.3937716488650347 
2.4000000000006403, -1.3810941427729189 
2.4100000000006614, -1.3580834315246981 
2.4200000000006825, -1.3188877588188115 
2.4300000000007036, -1.2589405151202093 
2.4400000000007247, -1.1812616590820497 
2.450000000000746, -1.1010959713604078 
2.460000000000767, -1.037919566757007 
2.470000000000788, -1.0004177835500359 
2.480000000000809, -0.9839890291281682 
2.49000000000083, -0.9794577968267122 
2.5000000000008513, -0.9797888879300057 
2.5100000000008724, -0.9813605630228421 
2.5200000000008935, -0.9827936179749245 
2.5300000000009146, -0.9837234673764594 
2.5400000000009357, -0.984117616394354 
2.550000000000957, -0.9839855884260584 
2.560000000000978, -0.9832603979374792 
2.570000000000999, -0.9817185218947992 
2.58000000000102, -0.9788640874289587 
2.5900000000010412, -0.9737241666139217 
2.6000000000010624, -0.9645348464750336 
2.6100000000010835, -0.9484564203467158 
2.6200000000011046, -0.9218889100249981 
2.6300000000011257, -0.8823399801486074 
2.6400000000011468, -0.8315417201915735 
2.650000000001168, -0.7764075061235348 
2.660000000001189, -0.7253358800526749 
2.67000000000121, -0.6836439391324848 
2.680000000001231, -0.6525306638350038 
2.6900000000012523, -0.6306904825000109 
2.7000000000012734, -0.6160238502817365 
2.7100000000012945, -0.60653531748974 
2.7200000000013156, -0.600624029158426 
2.7300000000013367, -0.5971013506889414 
2.740000000001358, -0.5951225821857304 
2.750000000001379, -0.5941061417842568 
2.7600000000014, -0.5936623637155084 
2.770000000001421, -0.5935363585971525 
2.780000000001442, -0.5935645362768461 
2.7900000000014633, -0.5936434226371153 
2.8000000000014844, -0.5937093662382275 
2.8100000000015055, -0.5937277030085116 
2.8200000000015266, -0.593689256439308 
2.8300000000015477, -0.5936102736647492 
2.840000000001569, -0.5935300492093741 
2.85000000000159, -0.5935013092498957 
2.860000000001611, -0.5935732265306969 
2.870000000001632, -0.5937723637518225 
2.8800000000016532, -0.5940886927462096 
2.8900000000016743, -0.5944726613101521 
2.9000000000016954, -0.5948467554003322 
2.9100000000017165, -0.5951290356491028 
2.9200000000017377, -0.5952576999728673 
2.9300000000017588, -0.5952040667022576 
2.94000000000178, -0.5949708847647983 
2.950000000001801, -0.5945837679588252 
2.960000000001822, -0.594086164200798 
2.970000000001843, -0.5935450122766802 
2.9800000000018643, -0.5930721626395381 
2.9900000000018854, -0.5928689640290057 
3.0000000000019065, -0.5933082061798192 
3.0100000000019276, -0.5950789293610917 
3.0200000000019487, -0.5994358443725678 
3.03000000000197, -0.6086115342961353 
3.040000000001991, -0.6264332847516381 
3.050000000002012, -0.6589999836295956 
3.060000000002033, -0.7145331863366537 
3.070000000002054, -0.7998905406911674 
3.0800000000020753, -0.9113855044626704 
3.0900000000020964, -1.0276762311137981 
3.1000000000021175, -1.1220000172910076 
3.1100000000021386, -1.1833764962538205 
3.1200000000021597, -1.217662535502635 
3.130000000002181, -1.2352494426150282 
3.140000000002202, -1.2439113815988805 
3.150000000002223, -1.2480592639547825 
3.160000000002244, -1.2499159061424077 
3.1700000000022652, -1.2505454961692675 
3.1800000000022863, -1.2504473066109185 
3.1900000000023074, -1.2498735532397174 
3.2000000000023285, -1.2490437668496728 
3.2100000000023496, -1.2483654062147642 
3.2200000000023707, -1.2486239442851308 
3.230000000002392, -1.2508409611865883 
3.240000000002413, -1.2555834319761636 
3.250000000002434, -1.262378894766184 
3.260000000002455, -1.2700637270872495 
3.2700000000024763, -1.2775746600051179 
3.2800000000024974, -1.284309293892504 
3.2900000000025185, -1.2900377149157485 
3.3000000000025396, -1.2947159365701022 
3.3100000000025607, -1.2983693807423975 
3.3200000000025818, -1.3010518971477294 
3.330000000002603, -1.3028440535538472 
3.340000000002624, -1.3038572270904367 
3.350000000002645, -1.3042257563136275 
3.360000000002666, -1.3040909531513238 
3.3700000000026873, -1.3035924122407696 
3.3800000000027084, -1.3028737432908735 
3.3900000000027295, -1.302089467155663 
3.4000000000027506, -1.3013888177131745 
3.4100000000027717, -1.3008771772671224 
3.420000000002793, -1.3005967562471985 
3.430000000002814, -1.3005466162115962 
3.440000000002835, -1.3006989674412857 
3.450000000002856, -1.3009842351333616 
3.460000000002877, -1.3012828025328735 
3.4700000000028983, -1.301450318290831 
3.4800000000029194, -1.3013475502717815 
3.4900000000029405, -1.3008479281211405 
3.5000000000029616, -1.2998324567649207 
3.5100000000029827, -1.2981907144913474 
3.520000000003004, -1.2958307915927547 
3.530000000003025, -1.2926871881574244 
3.540000000003046, -1.288718264576078 
3.550000000003067, -1.283899874246198 
3.5600000000030882, -1.2782348792726517 
3.5700000000031094, -1.2718038599130406 
3.5800000000031305, -1.2648780840683695 
3.5900000000031516, -1.2580634130779462 
3.6000000000031727, -1.2522932772951292 
3.6100000000031938, -1.2484176729179388 
3.620000000003215, -1.246588495879595 
3.630000000003236, -1.2461810367952133 
3.640000000003257, -1.2463577857873638 
3.650000000003278, -1.2465310402470815 
3.6600000000032993, -1.2463875623021305 
3.6700000000033204, -1.2457093862102784 
3.6800000000033415, -1.2441799208961082 
3.6900000000033626, -1.241165789088036 
3.7000000000033837, -1.2353722327959218 
3.710000000003405, -1.2242588317085363 
3.720000000003426, -1.2032612928726498 
3.730000000003447, -1.1655518423737168 
3.740000000003468, -1.1044292795435187 
3.750000000003489, -1.0200794216282811 
3.7600000000035103, -0.9254183411183098 
3.7700000000035314, -0.8400160522747384 
3.7800000000035525, -0.7763828778622768 
3.7900000000035736, -0.7354379133707599 
3.8000000000035947, -0.711817486797571 
3.810000000003616, -0.6993737290160564 
3.820000000003637, -0.6934103106003299 
3.830000000003658, -0.6909043339845929 
3.840000000003679, -0.6900927885573885 
3.8500000000037002, -0.6900170085143379 
3.8600000000037213, -0.690183443244265 
3.8700000000037424, -0.6903463142255889 
3.8800000000037635, -0.6903798545645469 
3.8900000000037847, -0.6902077341178241 
3.9000000000038058, -0.6897673487404563 
3.910000000003827, -0.6889975110005192 
3.920000000003848, -0.6878458035522114 
3.930000000003869, -0.6862924534677589 
3.94000000000389, -0.6843782357436531 
3.9500000000039113, -0.6822127963402194 
3.9600000000039324, -0.6799474098338026 
3.9700000000039535, -0.6777256856670644 
3.9800000000039746, -0.675644619849967 
3.9900000000039957, -0.6737447994508617 
4.000000000004016, -0.6720243762351658 
4.010000000003993, -0.6704618469043966 
4.02000000000397, -0.6690363983332996 
4.030000000003946, -0.6677410409091823 
4.040000000003923, -0.666588375240545 
4.0500000000039, -0.6656110358966857 
4.0600000000038765, -0.6648589447181074 
4.070000000003853, -0.6643946037249734 
4.08000000000383, -0.6642870863382847 
4.090000000003807, -0.6646056297981919 
4.100000000003783, -0.6654143279819241 
4.11000000000376, -0.6667696221728092 
4.120000000003737, -0.6687217001630781 
4.130000000003713, -0.6713196734350626 
4.14000000000369, -0.6746188132327201 
4.150000000003667, -0.6786862152181076 
4.1600000000036434, -0.6835986792784491 
4.17000000000362, -0.6894231865400254 
4.180000000003597, -0.6961680721387741 
4.1900000000035735, -0.7036999599653547 
4.20000000000355, -0.7116535397120354 
4.210000000003527, -0.7194179387917392 
4.220000000003504, -0.7262920596406687 
4.23000000000348, -0.7317617057351821 
4.240000000003457, -0.7356815380117661 
4.250000000003434, -0.7382239582121778 
4.26000000000341, -0.7396957870772717 
4.270000000003387, -0.7403865543966617 
4.280000000003364, -0.7405032143109721 
4.2900000000033405, -0.7401624402151887 
4.300000000003317, -0.7394032989068076 
4.310000000003294, -0.7382028493162729 
4.320000000003271, -0.7364961460636005 
4.330000000003247, -0.7342210940156592 
4.340000000003224, -0.7314407212621422 
4.350000000003201, -0.728657508792757 
4.360000000003177, -0.7275289282471926 
4.370000000003154, -0.7322277188566423 
4.380000000003131, -0.7512728915501112 
4.390000000003107, -0.7981596632255686 
4.400000000003084, -0.8877174306921142 
4.410000000003061, -1.0265398134504284 
4.4200000000030375, -1.1937716515218144 
4.430000000003014, -1.3351224504964372 
4.440000000002991, -1.4183334528347011 
4.450000000002968, -1.4572816719192072 
4.460000000002944, -1.4740214034067018 
4.470000000002921, -1.481119576253971 
4.480000000002898, -1.4840698557716812 
4.490000000002874, -1.485119226973466 
4.500000000002851, -1.485187069189792 
4.510000000002828, -1.484683805531126 
4.520000000002804, -1.4839270812036152 
4.530000000002781, -1.4834438933382352 
4.540000000002758, -1.4840173521747162 
4.5500000000027345, -1.486137497651644 
4.560000000002711, -1.4894203637701136 
4.570000000002688, -1.4929924816784128 
4.580000000002665, -1.4962144397551844 
4.590000000002641, -1.4988395533984338 
4.600000000002618, -1.500831321529302 
4.610000000002595, -1.5022171115381129 
4.620000000002571, -1.5030334756258108 
4.630000000002548, -1.503311426132457 
4.640000000002525, -1.5030727672917454 
4.6500000000025015, -1.5023304007609681 
4.660000000002478, -1.5010911530357791 
4.670000000002455, -1.4993606616425306 
4.6800000000024315, -1.4971505290935496 
4.690000000002408, -1.494494658910519 
4.700000000002385, -1.4915044929905594 
4.710000000002362, -1.488488186236461 
4.720000000002338, -1.486004355503405 
4.730000000002315, -1.4845603304463975 
4.740000000002292, -1.484124468194521 
4.750000000002268, -1.484173026722644 
4.760000000002245, -1.4841670637895144 
4.770000000002222, -1.4837434461078953 
4.7800000000021985, -1.4825501930643847 
4.790000000002175, -1.479927619613623 
4.800000000002152, -1.474349660439666 
4.810000000002129, -1.4621894900643664 
4.820000000002105, -1.4350227295626512 
4.830000000002082, -1.3754598728575076 
4.840000000002059, -1.2590599528643478 
4.850000000002035, -1.0824105816382519 
4.860000000002012, -0.8927720798687024 
4.870000000001989, -0.7449404801165084 
4.880000000001965, -0.6531081245840068 
4.890000000001942, -0.6036121180253735 
4.900000000001919, -0.5791298574261694 
4.9100000000018955, -0.567738111977522 
4.920000000001872, -0.5627837262196662 
4.930000000001849, -0.5608667651739152 
