t, s[1].omega / s[0].omega 
0, -0.5200112039204442 
0.009999999999999995, -0.5211787826212342 
0.019999999999999934, -0.5223792992413692 
0.029999999999999874, -0.5235064943226799 
0.04000000000000012, -0.5244595350557343 
0.050000000000000405, -0.525172895012512 
0.06000000000000069, -0.5256266203233918 
0.07000000000000098, -0.5258350734229533 
0.08000000000000126, -0.5258267546010759 
0.09000000000000155, -0.5256271030651083 
0.10000000000000184, -0.5252477671439335 
0.11000000000000212, -0.5246798604132156 
0.12000000000000241, -0.5238868755422594 
0.130000000000002, -0.522792454447085 
0.1400000000000009, -0.5212567792234581 
0.1499999999999998, -0.5190325790389931 
0.1599999999999987, -0.5156923099420356 
0.1699999999999976, -0.5105426501914972 
0.1799999999999965, -0.5026377137055116 
0.1899999999999954, -0.4911571080381772 
0.1999999999999943, -0.47627115570074663 
0.2099999999999932, -0.45973684388489494 
0.2199999999999921, -0.44411363392691194 
0.229999999999991, -0.431232808558416 
0.2399999999999899, -0.4215870796743303 
0.2499999999999888, -0.414776061816185 
0.2599999999999877, -0.41011896489755956 
0.2699999999999866, -0.4069887728326953 
0.2799999999999855, -0.4049095349852716 
0.2899999999999844, -0.4035491988746179 
0.2999999999999833, -0.4026852954444899 
0.3099999999999822, -0.40217227270391814 
0.3199999999999811, -0.40191728562580237 
0.32999999999998, -0.4018640539108048 
0.3399999999999789, -0.4019828981017195 
0.3499999999999778, -0.4022652392264252 
0.35999999999997667, -0.4027212460666959 
0.36999999999997557, -0.4033794347666446 
0.37999999999997447, -0.40428665632929317 
0.38999999999997337, -0.40550593898450815 
0.39999999999997227, -0.4071081166784187 
0.40999999999997117, -0.4091517170962288 
0.41999999999997006, -0.4116469811028904 
0.42999999999996896, -0.41451038801280554 
0.43999999999996786, -0.41753852136378333 
0.44999999999996676, -0.4204432296979263 
0.45999999999996566, -0.4229523444241076 
0.46999999999996456, -0.42490878058260034 
0.47999999999996346, -0.4262944843992161 
0.48999999999996235, -0.42718267307055663 
0.49999999999996125, -0.4276743656834709 
0.5099999999999602, -0.42785702000456727 
0.519999999999959, -0.4277877820964061 
0.529999999999958, -0.4274896320933467 
0.5399999999999568, -0.426950501697098 
0.5499999999999557, -0.4261208289637831 
0.5599999999999546, -0.4249100714232991 
0.5699999999999535, -0.42318894405821117 
0.5799999999999524, -0.4208126091296773 
0.5899999999999513, -0.41768289892622457 
0.5999999999999502, -0.41384272833776253 
0.6099999999999491, -0.40953730666769744 
0.619999999999948, -0.4051578087467414 
0.6299999999999469, -0.40108404351663607 
0.6399999999999458, -0.39755266296352815 
0.6499999999999447, -0.3946338090710388 
0.6599999999999436, -0.39228471053796665 
0.6699999999999425, -0.3904143989754354 
0.6799999999999414, -0.3889269471340647 
0.6899999999999403, -0.38774198973464447 
0.6999999999999392, -0.38680127603826175 
0.7099999999999381, -0.3860689663904826 
0.719999999999937, -0.38553034727469115 
0.7299999999999359, -0.38519146045145825 
0.7399999999999348, -0.385081036254845 
0.7499999999999337, -0.3852557973672215 
0.7599999999999326, -0.3858103837847518 
0.7699999999999315, -0.386893558774161 
0.7799999999999304, -0.38873241173930273 
0.7899999999999293, -0.3916643274178497 
0.7999999999999282, -0.3961680473193884 
0.8099999999999271, -0.4028604731785534 
0.819999999999926, -0.41237462725886137 
0.8299999999999249, -0.4249882205994881 
0.8399999999999238, -0.44000989855929384 
0.8499999999999227, -0.45546389822247607 
0.8599999999999216, -0.46889958843058926 
0.8699999999999205, -0.4788803471287363 
0.8799999999999194, -0.4854884136985663 
0.8899999999999183, -0.4896015927676306 
0.8999999999999172, -0.49211207663522505 
0.9099999999999161, -0.4936436116490522 
0.919999999999915, -0.49457220842029165 
0.9299999999999139, -0.4951124702783158 
0.9399999999999128, -0.4953842088048946 
0.9499999999999117, -0.4954514709173595 
0.9599999999999106, -0.4953433468591354 
0.9699999999999095, -0.49506510569651824 
0.9799999999999084, -0.49460555647328847 
0.9899999999999073, -0.4939451302085856 
0.9999999999999062, -0.4930680320876199 
1.0099999999999052, -0.49197859446646086 
1.019999999999904, -0.49071558795914205 
1.029999999999903, -0.4893533453188093 
1.039999999999902, -0.4879839353897669 
1.0499999999999008, -0.4866893231011116 
1.0599999999998997, -0.4855205196089131 
1.0699999999998986, -0.4844930854683124 
1.0799999999998975, -0.48359585972054153 
1.0899999999998964, -0.48280458996280784 
1.0999999999998953, -0.4820939875432935 
1.1099999999998942, -0.48144547825618095 
1.119999999999893, -0.4808508961971937 
1.129999999999892, -0.48031398143841997 
1.1399999999998909, -0.4798518650062409 
1.1499999999998898, -0.4794983247832847 
1.1599999999998887, -0.4793101917567137 
1.1699999999998876, -0.4793782688775624 
1.1799999999998865, -0.47984445701150447 
1.1899999999998854, -0.4809270192951053 
1.1999999999998843, -0.4829548078008979 
1.2099999999998832, -0.4864054804843244 
1.219999999999882, -0.4919245994915397 
1.229999999999881, -0.50026077840891 
1.2399999999998799, -0.5119948076781274 
1.2499999999998788, -0.5269753289102618 
1.2599999999998777, -0.5437413845611054 
1.2699999999998766, -0.5597597696417966 
1.2799999999998755, -0.5727966531009343 
1.2899999999998744, -0.58209935566871 
1.2999999999998733, -0.5882040074995825 
1.3099999999998722, -0.5920578717771954 
1.319999999999871, -0.5944625409085175 
1.32999999999987, -0.5959535373771292 
1.3399999999998689, -0.5968573918613602 
1.3499999999998678, -0.5973666083594437 
1.3599999999998666, -0.597591251611642 
1.3699999999998655, -0.5975884841752476 
1.3799999999998644, -0.5973778874869459 
1.3899999999998633, -0.596948676005322 
1.3999999999998622, -0.5962635352814861 
1.4099999999998611, -0.5952643241249926 
1.41999999999986, -0.5938863482943013 
1.429999999999859, -0.5920864809900883 
1.4399999999998578, -0.5898801140464178 
1.4499999999998567, -0.5873646944785482 
1.4599999999998556, -0.5847042962651767 
1.4699999999998545, -0.5820776917477157 
1.4799999999998534, -0.5796250266934997 
1.4899999999998523, -0.5774244504147601 
1.4999999999998512, -0.5754999147379705 
1.5099999999998501, -0.5738427494215974 
1.519999999999849, -0.5724319136979367 
1.529999999999848, -0.5712470940034926 
1.5399999999998468, -0.5702750176255307 
1.5499999999998457, -0.5695113834605717 
1.5599999999998446, -0.5689606374198357 
1.5699999999998435, -0.5686350471730696 
1.5799999999998424, -0.5685538868091977 
1.5899999999998413, -0.568743170280779 
1.5999999999998402, -0.5692361572772378 
1.6099999999998391, -0.5700746161758792 
1.619999999999838, -0.571310379135779 
1.629999999999837, -0.5730058516960563 
1.6399999999998358, -0.5752306235538989 
1.6499999999998347, -0.5780492157064888 
1.6599999999998336, -0.5814935357111599 
1.6699999999998325, -0.5855170152446876 
1.6799999999998314, -0.5899429847676972 
1.6899999999998303, -0.5944474368780532 
1.6999999999998292, -0.5986250718465641 
1.709999999999828, -0.6021303124197779 
1.719999999999827, -0.6047973567875033 
1.729999999999826, -0.6066511766751141 
1.7399999999998248, -0.6078288546886998 
1.7499999999998237, -0.6084912229420657 
1.7599999999998226, -0.608771269144305 
1.7699999999998215, -0.6087573030178272 
1.7799999999998204, -0.6084925042155402 
1.7899999999998193, -0.60797666882131 
1.7999999999998182, -0.6071625903726916 
1.809999999999817, -0.6059427379659129 
1.819999999999816, -0.6041230474164971 
1.8299999999998149, -0.6013844778664686 
1.8399999999998138, -0.5972496825671365 
1.8499999999998127, -0.5911157897580605 
1.8599999999998116, -0.5824670786940813 
1.8699999999998105, -0.5713103688593819 
1.8799999999998094, -0.5585364457780809 
1.8899999999998083, -0.5456923450594726 
1.8999999999998072, -0.534219823005696 
1.909999999999806, -0.5248835977424092 
1.919999999999805, -0.5177686210490952 
1.9299999999998039, -0.5125784593956015 
1.9399999999998028, -0.5089039387870073 
1.9499999999998017, -0.5063635378444938 
1.9599999999998006, -0.5046498308277951 
1.9699999999997995, -0.5035314958456516 
1.9799999999997984, -0.5028405633091535 
1.9899999999997973, -0.5024577452772782 
1.9999999999997962, -0.5023000772094162 
2.0099999999998173, -0.5023116653059432 
2.0199999999998384, -0.5024572575360192 
2.0299999999998595, -0.5027181380119764 
2.0399999999998806, -0.5030897757528596 
2.0499999999999017, -0.503580403179122 
2.059999999999923, -0.5042091520616938 
2.069999999999944, -0.5050017343690352 
2.079999999999965, -0.5059814987483848 
2.089999999999986, -0.5071548925408111 
2.100000000000007, -0.5084938850837222 
2.1100000000000283, -0.5099238061611645 
2.1200000000000494, -0.5113291978375055 
2.1300000000000705, -0.5125834737435967 
2.1400000000000916, -0.5135888385102643 
2.1500000000001127, -0.5143006628778636 
2.160000000000134, -0.514723515213798 
2.170000000000155, -0.514888992749158 
2.180000000000176, -0.5148325739466209 
2.190000000000197, -0.514578059798336 
2.2000000000002182, -0.5141286497476784 
2.2100000000002393, -0.5134598408053701 
2.2200000000002604, -0.5125088583044238 
2.2300000000002815, -0.5111549647419406 
2.2400000000003026, -0.5091839470028255 
2.2500000000003237, -0.5062320265136123 
2.260000000000345, -0.5017238673951516 
2.270000000000366, -0.4948862380770306 
2.280000000000387, -0.485025136590847 
2.290000000000408, -0.4721716442290777 
2.3000000000004293, -0.4576089772209773 
2.3100000000004504, -0.4434185276726839 
2.3200000000004715, -0.43129309118098413 
2.3300000000004926, -0.42187784408281015 
2.3400000000005137, -0.4149924819789681 
2.3500000000005348, -0.41012147024928425 
2.360000000000556, -0.4067338876368517 
2.370000000000577, -0.4044022734227247 
2.380000000000598, -0.4028164478112469 
2.390000000000619, -0.40176241338119967 
2.4000000000006403, -0.4010968839251613 
2.4100000000006614, -0.4007267846208199 
2.4200000000006825, -0.4005950079665067 
2.4300000000007036, -0.40067145572694624 
2.4400000000007247, -0.40094814640467746 
2.450000000000746, -0.40143738861347134 
2.460000000000767, -0.402172120435508 
2.470000000000788, -0.4032071834191056 
2.480000000000809, -0.4046192509871435 
2.49000000000083, -0.40650107121517404 
2.5000000000008513, -0.40894275481350356 
2.5100000000008724, -0.41199147706816913 
2.5200000000008935, -0.4155892671236795 
2.5300000000009146, -0.419517109113203 
2.5400000000009357, -0.4234080070031327 
2.550000000000957, -0.42686758569298605 
2.560000000000978, -0.4296327604961151 
2.570000000000999, -0.43164119184973215 
2.58000000000102, -0.4329802219956103 
2.5900000000010412, -0.4337929083903088 
2.6000000000010624, -0.43421159221693567 
2.6100000000010835, -0.43433119479054405 
2.6200000000011046, -0.43420540239714683 
2.6300000000011257, -0.4338497608361684 
2.6400000000011468, -0.4332440072572446 
2.650000000001168, -0.43233239722158806 
2.660000000001189, -0.4310258912500375 
2.67000000000121, -0.4292158312396537 
2.680000000001231, -0.4268123905770243 
2.6900000000012523, -0.42381026589302595 
2.7000000000012734, -0.42034837113919854 
2.7100000000012945, -0.41670112051273556 
2.7200000000013156, -0.41318160669064835 
2.7300000000013367, -0.41002637767939965 
2.740000000001358, -0.4073441824255248 
2.750000000001379, -0.4051365491547343 
2.7600000000014, -0.4033462849466455 
2.770000000001421, -0.40189847642653104 
2.780000000001442, -0.40072419228679257 
2.7900000000014633, -0.3997706526033388 
2.8000000000014844, -0.39900399774687256 
2.8100000000015055, -0.3984092691336872 
2.8200000000015266, -0.39799043787010124 
2.8300000000015477, -0.3977721697632633 
2.840000000001569, -0.3978045315626929 
2.85000000000159, -0.3981718933712089 
2.860000000001611, -0.39900766541328875 
2.870000000001632, -0.4005168047423068 
2.8800000000016532, -0.4030070484195285 
2.8900000000016743, -0.40692418302869715 
2.9000000000016954, -0.4128682129411067 
2.9100000000017165, -0.4215234930812527 
2.9200000000017377, -0.43337521897420983 
2.9300000000017588, -0.4481294464360839 
2.94000000000178, -0.4641725988027191 
2.950000000001801, -0.4789623359314697 
2.960000000001822, -0.4905136593909544 
2.970000000001843, -0.49842034389736645 
2.9800000000018643, -0.5034223727986935 
2.9900000000018854, -0.5064924487333995 
3.0000000000019065, -0.5083717662659945 
3.0100000000019276, -0.509522534929505 
3.0200000000019487, -0.5102119111255462 
3.03000000000197, -0.5105905932062629 
3.040000000001991, -0.5107414387560131 
3.050000000002012, -0.5107057582554682 
3.060000000002033, -0.5104970085294795 
3.070000000002054, -0.5101086277375699 
3.0800000000020753, -0.5095208832512912 
3.0900000000020964, -0.5087108088398608 
3.1000000000021175, -0.5076675350211115 
3.1100000000021386, -0.5064101446970781 
3.1200000000021597, -0.5049978865756118 
3.130000000002181, -0.5035216200045286 
3.140000000002202, -0.5020775238717231 
3.150000000002223, -0.5007390107760614 
3.160000000002244, -0.49954285126674564 
3.1700000000022652, -0.49849236546614123 
3.1800000000022863, -0.49757017308958523 
3.1900000000023074, -0.49675201242961825 
3.2000000000023285, -0.49601693276698 
3.2100000000023496, -0.4953529534864122 
3.2200000000023707, -0.49475956121985043 
3.230000000002392, -0.49424917152080283 
3.240000000002413, -0.49384942645850777 
3.250000000002434, -0.4936076627150068 
3.260000000002455, -0.4935985803492599 
3.2700000000024763, -0.4939361733699929 
3.2800000000024974, -0.4947911076848543 
3.2900000000025185, -0.49641429065312065 
3.3000000000025396, -0.4991647340746428 
3.3100000000025607, -0.5035311591292596 
3.3200000000025818, -0.5101152841532512 
3.330000000002603, -0.5195065449845033 
3.340000000002624, -0.5319546875967469 
3.350000000002645, -0.5468653320424238 
3.360000000002666, -0.5625269968898791 
3.3700000000026873, -0.5766907503819481 
3.3800000000027084, -0.5877846310342494 
3.3900000000027295, -0.5955420538216165 
3.4000000000027506, -0.6005872752015395 
3.4100000000027717, -0.6037463524733085 
3.420000000002793, -0.605684385390165 
3.430000000002814, -0.6068444065785101 
3.440000000002835, -0.6074974445656467 
3.450000000002856, -0.607801046411473 
3.460000000002877, -0.6078397033899698 
3.4700000000028983, -0.6076477976621908 
3.4800000000029194, -0.6072205130565238 
3.4900000000029405, -0.6065177526146189 
3.5000000000029616, -0.6054664822174796 
3.5100000000029827, -0.6039695184760668 
3.520000000003004, -0.6019315033254238 
3.530000000003025, -0.5993076145038131 
3.540000000003046, -0.5961583144942717 
3.550000000003067, -0.5926672194541858 
3.5600000000030882, -0.5890918062408973 
3.5700000000031094, -0.5856752565772281 
3.5800000000031305, -0.5825816973782036 
3.5900000000031516, -0.5798845784653467 
3.6000000000031727, -0.5775912809351443 
3.6100000000031938, -0.5756752380424255 
3.620000000003215, -0.5740997491556484 
3.630000000003236, -0.572830850932824 
3.640000000003257, -0.5718422422088625 
3.650000000003278, -0.5711158947587023 
3.6600000000032993, -0.570640947759929 
3.6700000000033204, -0.5704123830910055 
3.6800000000033415, -0.5704302302175024 
3.6900000000033626, -0.570699602582834 
3.7000000000033837, -0.5712315684202725 
3.710000000003405, -0.5720445616425694 
3.720000000003426, -0.5731655951324506 
3.730000000003447, -0.5746297891912419 
3.740000000003468, -0.5764756061132635 
3.750000000003489, -0.5787320789301239 
3.7600000000035103, -0.5813948188602678 
3.7700000000035314, -0.584393077071353 
3.7800000000035525, -0.587563495194628 
3.7900000000035736, -0.5906599876290031 
3.8000000000035947, -0.5934184616013285 
3.810000000003616, -0.5956476103555801 
3.820000000003637, -0.5972816425866888 
3.830000000003658, -0.5983638347027966 
3.840000000003679, -0.5989908282707828 
3.8500000000037002, -0.5992622476857877 
3.8600000000037213, -0.5992535899866415 
3.8700000000037424, -0.599006994940767 
3.8800000000037635, -0.5985288387880505 
3.8900000000037847, -0.597785845449824 
3.9000000000038058, -0.5966941549507828 
3.910000000003827, -0.5950963658000938 
3.920000000003848, -0.5927216808599021 
3.930000000003869, -0.5891305156412516 
3.94000000000389, -0.583674523423878 
3.9500000000039113, -0.5755779241945046 
3.9600000000039324, -0.5643137091519945 
3.9700000000039535, -0.5502470520300623 
3.9800000000039746, -0.5349364508651955 
3.9900000000039957, -0.5204632926298596 
4.000000000004016, -0.508336910155625 
4.010000000003993, -0.4990444129383925 
4.02000000000397, -0.49233583909401135 
4.030000000003946, -0.4876745946164789 
4.040000000003923, -0.4845194474886007 
4.0500000000039, -0.4824304937115329 
4.0600000000038765, -0.48108261064728897 
4.070000000003853, -0.4802465197397018 
4.08000000000383, -0.4797646424375495 
4.090000000003807, -0.479530704312874 
4.100000000003783, -0.4794747120649254 
4.11000000000376, -0.4795526738157368 
4.120000000003737, -0.4797400422938779 
4.130000000003713, -0.4800279412501928 
4.14000000000369, -0.48042121560606965 
4.150000000003667, -0.48093700744529466 
4.1600000000036434, -0.4816019708833699 
4.17000000000362, -0.4824458151644869 
4.180000000003597, -0.48348931785760946 
4.1900000000035735, -0.4847271838616942 
4.20000000000355, -0.48611099180540834 
4.210000000003527, -0.48754367804274024 
4.220000000003504, -0.4888972906373003 
4.23000000000348, -0.49005149573527645 
4.240000000003457, -0.49093017837422126 
4.250000000003434, -0.4915127536577315 
4.26000000000341, -0.4918190548244648 
4.270000000003387, -0.491884447084834 
4.280000000003364, -0.49173954408496634 
4.2900000000033405, -0.4913979097618939 
4.300000000003317, -0.4908481152527659 
4.310000000003294, -0.49004475641710166 
4.320000000003271, -0.488893017533765 
4.330000000003247, -0.4872212172435296 
4.340000000003224, -0.4847376181054468 
4.350000000003201, -0.4809814776649314 
4.360000000003177, -0.4753246875843802 
4.370000000003154, -0.4671596720531273 
4.380000000003131, -0.45637976982607675 
4.390000000003107, -0.4438612782839243 
4.400000000003084, -0.4312652375491194 
4.410000000003061, -0.4201333610989824 
4.4200000000030375, -0.4112118844410424 
4.430000000003014, -0.4044971079052571 
4.440000000002991, -0.3996166949120239 
4.450000000002968, -0.3961298807760393 
4.460000000002944, -0.39366031912668575 
4.470000000002921, -0.39192586927229156 
4.480000000002898, -0.39072809337398595 
4.490000000002874, -0.3899328198586783 
4.500000000002851, -0.38945296331824986 
4.510000000002828, -0.38923618506765667 
4.520000000002804, -0.38925717512231367 
4.530000000002781, -0.3895137687293112 
4.540000000002758, -0.3900262054797756 
4.5500000000027345, -0.39083894319252027 
4.560000000002711, -0.3920241685471447 
4.570000000002688, -0.39368504233790985 
4.580000000002665, -0.39595405707029685 
4.590000000002641, -0.39897694603128847 
4.600000000002618, -0.40286680636812305 
4.610000000002595, -0.4076163749637726 
4.620000000002571, -0.41299122472754474 
4.630000000002548, -0.41849639159123714 
4.640000000002525, -0.42352134629830224 
4.6500000000025015, -0.4276069388765852 
4.660000000002478, -0.43060822757668166 
4.670000000002455, -0.4326405378592731 
4.6800000000024315, -0.43392468153320546 
4.690000000002408, -0.43467120984947194 
4.700000000002385, -0.4350357015218204 
4.710000000002362, -0.4351158416946753 
4.720000000002338, -0.4349613627807952 
4.730000000002315, -0.43458349744759656 
4.740000000002292, -0.4339610154449097 
4.750000000002268, -0.43304520421762416 
4.760000000002245, -0.431769784975912 
4.770000000002222, -0.4300739449747488 
4.7800000000021985, -0.42794198333236544 
4.790000000002175, -0.4254449460537221 
4.800000000002152, -0.42274921386723613 
4.810000000002129, -0.42006931226855715 
4.820000000002105, -0.4175921116405301 
4.830000000002082, -0.41542625255440935 
4.840000000002059, -0.41359936220982874 
4.850000000002035, -0.41208488735278265 
4.860000000002012, -0.41083268665249345 
4.870000000001989, -0.40979071622644037 
4.880000000001965, -0.4089166439550501 
4.890000000001942, -0.4081825506365392 
