t, s[1].omega / s[0].omega 
0, -0.5399977473022515 
0.009999999999999995, -0.5398000707825911 
0.019999999999999934, -0.5396463288382964 
0.029999999999999874, -0.5395088400702027 
0.04000000000000012, -0.5393534985111643 
0.050000000000000405, -0.5391511703967338 
0.06000000000000069, -0.5388847165444183 
0.07000000000000098, -0.5385500700316771 
0.08000000000000126, -0.538153800001421 
0.09000000000000155, -0.5377109190841682 
0.10000000000000184, -0.5372457562631467 
0.11000000000000212, -0.5367976446785079 
0.12000000000000241, -0.5364331700621816 
0.130000000000002, -0.5362677193580476 
0.1400000000000009, -0.5365002769123702 
0.1499999999999998, -0.5374649166153466 
0.1599999999999987, -0.5396948237898543 
0.1699999999999976, -0.5439666845165891 
0.1799999999999965, -0.5512247046964305 
0.1899999999999954, -0.5621921092152732 
0.1999999999999943, -0.5765699984171058 
0.2099999999999932, -0.5923839486190347 
0.2199999999999921, -0.6067066449626642 
0.229999999999991, -0.6175988287621501 
0.2399999999999899, -0.6249971391255754 
0.2499999999999888, -0.6298391880329332 
0.2599999999999877, -0.6330450671463027 
0.2699999999999866, -0.6352091920149532 
0.2799999999999855, -0.6366758226961113 
0.2899999999999844, -0.6376509105148588 
0.2999999999999833, -0.6382652559008795 
0.3099999999999822, -0.6386029453384507 
0.3199999999999811, -0.6387139808338398 
0.32999999999998, -0.6386200784551088 
0.3399999999999789, -0.6383170418033401 
0.3499999999999778, -0.6377757195596996 
0.35999999999997667, -0.6369445563429635 
0.36999999999997557, -0.6357589313519209 
0.37999999999997447, -0.6341631855743688 
0.38999999999997337, -0.6321450138635424 
0.39999999999997227, -0.6297664215635943 
0.40999999999997117, -0.6271646296843248 
0.41999999999997006, -0.6245129006008401 
0.42999999999996896, -0.6219659924672523 
0.43999999999996786, -0.6196256766667545 
0.44999999999996676, -0.6175382422310319 
0.45999999999996566, -0.6157116429337093 
0.46999999999996456, -0.6141358067713351 
0.47999999999996346, -0.6127973439474148 
0.48999999999996235, -0.6116872115912064 
0.49999999999996125, -0.6108031612737743 
0.5099999999999602, -0.6101492623637551 
0.519999999999959, -0.6097342295217987 
0.529999999999958, -0.6095696581230634 
0.5399999999999568, -0.609668850400367 
0.5499999999999557, -0.6100466197747436 
0.5599999999999546, -0.6107201522498886 
0.5699999999999535, -0.6117105845858656 
0.5799999999999524, -0.6130443488785225 
0.5899999999999513, -0.6147524409259396 
0.5999999999999502, -0.616864621655061 
0.6099999999999491, -0.6193947486569115 
0.619999999999948, -0.6223149062063517 
0.6299999999999469, -0.6255233054103498 
0.6399999999999458, -0.6288254336837007 
0.6499999999999447, -0.6319580769909919 
0.6599999999999436, -0.6346656149776744 
0.6699999999999425, -0.6367872066545306 
0.6799999999999414, -0.6382921608829227 
0.6899999999999403, -0.6392480709465732 
0.6999999999999392, -0.6397613716467546 
0.7099999999999381, -0.639931181287275 
0.719999999999937, -0.6398273785045765 
0.7299999999999359, -0.6394844507115881 
0.7399999999999348, -0.6389001774113924 
0.7499999999999337, -0.6380317515983721 
0.7599999999999326, -0.6367843174158143 
0.7699999999999315, -0.6349864557135926 
0.7799999999999304, -0.6323445369769024 
0.7899999999999293, -0.6283672245099003 
0.7999999999999282, -0.6222709697271371 
0.8099999999999271, -0.6129663148375787 
0.819999999999926, -0.5994075932563201 
0.8299999999999249, -0.5815546515929072 
0.8399999999999238, -0.5612931439882463 
0.8499999999999227, -0.5418263996484648 
0.8599999999999216, -0.52574417947771 
0.8699999999999205, -0.5139117655895935 
0.8799999999999194, -0.5058713563099949 
0.8899999999999183, -0.5006864928668012 
0.8999999999999172, -0.4974638177054548 
0.9099999999999161, -0.49552280447088853 
0.919999999999915, -0.49439460552182546 
0.9299999999999139, -0.49377195025477344 
0.9399999999999128, -0.493458732138268 
0.9499999999999117, -0.4933317490375311 
0.9599999999999106, -0.4933146070044193 
0.9699999999999095, -0.4933609810124945 
0.9799999999999084, -0.4934445914491404 
0.9899999999999073, -0.4935539353319499 
0.9999999999999062, -0.4936901547890401 
1.0099999999999052, -0.493866193617555 
1.019999999999904, -0.4941048647821118 
1.029999999999903, -0.4944334628017747 
1.039999999999902, -0.4948739195368222 
1.0499999999999008, -0.49543013645470096 
1.0599999999998997, -0.49607715132279023 
1.0699999999998986, -0.49675887981739464 
1.0799999999998975, -0.49739949719663273 
1.0899999999998964, -0.4979255614971 
1.0999999999998953, -0.498286677395343 
1.1099999999998942, -0.49846283376985034 
1.119999999999893, -0.4984573897058331 
1.129999999999892, -0.49828369853394855 
1.1399999999998909, -0.49795304535479906 
1.1499999999998898, -0.49746637696789014 
1.1599999999998887, -0.4968082730853152 
1.1699999999998876, -0.49593982703796274 
1.1799999999998865, -0.49478561821451306 
1.1899999999998854, -0.4932063541554437 
1.1999999999998843, -0.49094119482562093 
1.2099999999998832, -0.48749590826815536 
1.219999999999882, -0.4819766045276891 
1.229999999999881, -0.4730236169981853 
1.2399999999998799, -0.45933070750341176 
1.2499999999998788, -0.44107244766401876 
1.2599999999998777, -0.4208798565372945 
1.2699999999998766, -0.40238071973424827 
1.2799999999998755, -0.38778949880002905 
1.2899999999998744, -0.3773512076159506 
1.2999999999998733, -0.37027273962426144 
1.3099999999998722, -0.3655897754437055 
1.319999999999871, -0.36252223357749586 
1.32999999999987, -0.36052498259046956 
1.3399999999998689, -0.3592401695930866 
1.3499999999998678, -0.3584395945034668 
1.3599999999998666, -0.3579806703049328 
1.3699999999998655, -0.35777729343572356 
1.3799999999998644, -0.3577820086693114 
1.3899999999998633, -0.35797599260337376 
1.3999999999998622, -0.3583644363903411 
1.4099999999998611, -0.3589757115621667 
1.41999999999986, -0.35986293172943373 
1.429999999999859, -0.36110597083854584 
1.4399999999998578, -0.3628103103749888 
1.4499999999998567, -0.36509579260597264 
1.4599999999998556, -0.36806410304077397 
1.4699999999998545, -0.3717346713407187 
1.4799999999998534, -0.3759605012700572 
1.4899999999998523, -0.3803859590643399 
1.4999999999998512, -0.3845320007781981 
1.5099999999998501, -0.38799475797333355 
1.519999999999849, -0.3905992587217786 
1.529999999999848, -0.3923917012269123 
1.5399999999998468, -0.3935288117631831 
1.5499999999998457, -0.39417740014075453 
1.5599999999998446, -0.3944666249577914 
1.5699999999998435, -0.3944779292789187 
1.5799999999998424, -0.39424938553303995 
1.5899999999998413, -0.39378174276566213 
1.5999999999998402, -0.3930429213346739 
1.6099999999998391, -0.39197369388424075 
1.619999999999838, -0.3905018325523934 
1.629999999999837, -0.38857350663602297 
1.6399999999998358, -0.3862012353287267 
1.6499999999998347, -0.3835028086821891 
1.6599999999998336, -0.3806893333763943 
1.6699999999998325, -0.3779933883941924 
1.6799999999998314, -0.3755874488882972 
1.6899999999998303, -0.37354823966256684 
1.6999999999998292, -0.3718717425060883 
1.709999999999828, -0.3705086183614724 
1.719999999999827, -0.3693952006649898 
1.729999999999826, -0.36847250550171284 
1.7399999999998248, -0.3676951717397295 
1.7499999999998237, -0.3670343307245737 
1.7599999999998226, -0.3664779229175694 
1.7699999999998215, -0.3660311425607836 
1.7799999999998204, -0.3657190458101558 
1.7899999999998193, -0.3655931532343722 
1.7999999999998182, -0.3657443067669549 
1.809999999999817, -0.36632511450877375 
1.819999999999816, -0.36758654358316273 
1.8299999999998149, -0.369932312402561 
1.8399999999998138, -0.3739834948619608 
1.8499999999998127, -0.380601294184964 
1.8599999999998116, -0.3907003693523935 
1.8699999999998105, -0.4045450666754465 
1.8799999999998094, -0.42053780507811567 
1.8899999999998083, -0.4349517159699666 
1.8999999999998072, -0.4444192895168813 
1.909999999999806, -0.448713918267371 
1.919999999999805, -0.44991659947121015 
1.9299999999998039, -0.4499868523974452 
1.9399999999998028, -0.4498795740483067 
1.9499999999998017, -0.44986648654802625 
1.9599999999998006, -0.449953794740723 
1.9699999999997995, -0.45008831124943693 
1.9799999999997984, -0.45022292522905766 
1.9899999999997973, -0.45032723046600925 
1.9999999999997962, -0.4503833614717285 
2.0099999999998173, -0.4503804571586193 
2.0199999999998384, -0.45031122263397716 
2.0299999999998595, -0.45017124430705124 
2.0399999999998806, -0.44996102344105615 
2.0499999999999017, -0.4496899803556526 
2.059999999999923, -0.44938026263795194 
2.069999999999944, -0.4490668870238518 
2.079999999999965, -0.44879154794094117 
2.089999999999986, -0.44859101982232064 
2.100000000000007, -0.44848480844305305 
2.1100000000000283, -0.4484674521707289 
2.1200000000000494, -0.44850891032851353 
2.1300000000000705, -0.44856344839613954 
2.1400000000000916, -0.448583585860701 
2.1500000000001127, -0.4485325209841733 
2.160000000000134, -0.44838946794916223 
2.170000000000155, -0.44814740360675104 
2.180000000000176, -0.44780692599207156 
2.190000000000197, -0.4473701678705396 
2.2000000000002182, -0.4468365372505209 
2.2100000000002393, -0.4461999962412729 
2.2200000000002604, -0.4454461998474474 
2.2300000000002815, -0.44454579910130276 
2.2400000000003026, -0.4434347881208754 
2.2500000000003237, -0.4419593676865546 
2.260000000000345, -0.4397396528433064 
2.270000000000366, -0.43590775805039084 
2.280000000000387, -0.42886017142869903 
2.290000000000408, -0.41671471961697015 
2.3000000000004293, -0.39918280983827853 
2.3100000000004504, -0.37911709394550713 
2.3200000000004715, -0.3607238771129953 
2.3300000000004926, -0.34646984053540997 
2.3400000000005137, -0.33651165695937546 
2.3500000000005348, -0.32991311119645017 
2.360000000000556, -0.3256337881224404 
2.370000000000577, -0.32287600685099316 
2.380000000000598, -0.3211045885287673 
2.390000000000619, -0.319979845146238 
2.4000000000006403, -0.3192917616377393 
2.4100000000006614, -0.3189135831057809 
2.4200000000006825, -0.3187727625438257 
2.4300000000007036, -0.318834136559384 
2.4400000000007247, -0.319091309111199 
2.450000000000746, -0.31956370303780773 
2.460000000000767, -0.3202976901594044 
2.470000000000788, -0.3213704071670585 
2.480000000000809, -0.3228939864908368 
2.49000000000083, -0.3250151885029936 
2.5000000000008513, -0.32789965539120014 
2.5100000000008724, -0.3316823154208772 
2.5200000000008935, -0.3363679012500605 
2.5300000000009146, -0.3417078556753651 
2.5400000000009357, -0.3471666040205221 
2.550000000000957, -0.35209817352671763 
2.560000000000978, -0.3560460858745502 
2.570000000000999, -0.3588978888246249 
2.58000000000102, -0.3607992223869027 
2.5900000000010412, -0.36198321123645727 
2.6000000000010624, -0.36265863828899286 
2.6100000000010835, -0.36297372700804237 
2.6200000000011046, -0.363018604613362 
2.6300000000011257, -0.36283772789299806 
2.6400000000011468, -0.3624411448898387 
2.650000000001168, -0.3618136163045494 
2.660000000001189, -0.3609251551460134 
2.67000000000121, -0.3597480051264132 
2.680000000001231, -0.3582820200179865 
2.6900000000012523, -0.3565801849558258 
2.7000000000012734, -0.3547546483784454 
2.7100000000012945, -0.3529493569455877 
2.7200000000013156, -0.35129274794122584 
2.7300000000013367, -0.34986218138380204 
2.740000000001358, -0.34867736161635443 
2.750000000001379, -0.3477151407690449 
2.7600000000014, -0.34693020950357606 
2.770000000001421, -0.34627233274449093 
2.780000000001442, -0.34569747636849446 
2.7900000000014633, -0.34517317001825887 
2.8000000000014844, -0.34467964464934936 
2.8100000000015055, -0.3442089048840481 
2.8200000000015266, -0.34376388648471146 
2.8300000000015477, -0.34335935386759203 
2.840000000001569, -0.3430256988166516 
2.85000000000159, -0.3428164444537677 
2.860000000001611, -0.3428191907648295 
2.870000000001632, -0.34316489246621645 
2.8800000000016532, -0.34401315036175495 
2.8900000000016743, -0.34544383980633475 
2.9000000000016954, -0.3471039628505456 
2.9100000000017165, -0.34751026397775114 
2.9200000000017377, -0.3436821540133913 
2.9300000000017588, -0.3330186702854693 
2.94000000000178, -0.31685783333619866 
2.950000000001801, -0.30003262562724353 
2.960000000001822, -0.2863583620055746 
2.970000000001843, -0.27673305110983176 
2.9800000000018643, -0.27041542229633153 
2.9900000000018854, -0.26637681862156926 
3.0000000000019065, -0.263809349595012 
3.0100000000019276, -0.2621778876823472 
3.0200000000019487, -0.26115077866671565 
3.03000000000197, -0.26052891933117406 
3.040000000001991, -0.260196801380148 
3.050000000002012, -0.26009298677780096 
3.060000000002033, -0.2601940100739649 
3.070000000002054, -0.260507284428891 
3.0800000000020753, -0.26107047330806954 
3.0900000000020964, -0.2619560197199336 
3.1000000000021175, -0.26327984086211687 
3.1100000000021386, -0.2652119081078088 
3.1200000000021597, -0.2679815524508873 
3.130000000002181, -0.27185836615937087 
3.140000000002202, -0.27707081414408735 
3.150000000002223, -0.28362487190732905 
3.160000000002244, -0.29107726486119734 
3.1700000000022652, -0.2985106351586416 
3.1800000000022863, -0.3049285224334237 
3.1900000000023074, -0.3097815158340192 
3.2000000000023285, -0.31309619575647596 
3.2100000000023496, -0.31521181493439554 
3.2200000000023707, -0.3165001980592236 
3.230000000002392, -0.3172439888310731 
3.240000000002413, -0.317625754390196 
3.250000000002434, -0.31775275153509025 
3.260000000002455, -0.31768231387890344 
3.2700000000024763, -0.3174401523749192 
3.2800000000024974, -0.31703353803579215 
3.2900000000025185, -0.31646317196216744 
3.3000000000025396, -0.3157362955399645 
3.3100000000025607, -0.31487993607134884 
3.3200000000025818, -0.3139482964483319 
3.330000000002603, -0.31301713076765286 
3.340000000002624, -0.31216507333274734 
3.350000000002645, -0.31145192378258557 
3.360000000002666, -0.310905257420752 
3.3700000000026873, -0.31051881700861583 
3.3800000000027084, -0.31025941566183923 
3.3900000000027295, -0.3100783154777364 
3.4000000000027506, -0.30992396336328565 
3.4100000000027717, -0.30975252277954807 
3.420000000002793, -0.3095329129912722 
3.430000000002814, -0.30924566169430234 
3.440000000002835, -0.30887760599907593 
3.450000000002856, -0.30841487024556735 
3.460000000002877, -0.30783480402717067 
3.4700000000028983, -0.3070949811700703 
3.4800000000029194, -0.30611414114554825 
3.4900000000029405, -0.3047351846801712 
3.5000000000029616, -0.3026547801621213 
3.5100000000029827, -0.2993106824111428 
3.520000000003004, -0.2937868453138553 
3.530000000003025, -0.28500013627877835 
3.540000000003046, -0.2725476294552919 
3.550000000003067, -0.2577598886048609 
3.5600000000030882, -0.24330004357538387 
3.5700000000031094, -0.23130358114550592 
3.5800000000031305, -0.22238400792234594 
3.5900000000031516, -0.21611946765247278 
3.6000000000031727, -0.21180534109999122 
3.6100000000031938, -0.20882922428626283 
3.620000000003215, -0.20675377826164915 
3.630000000003236, -0.2052917875744716 
3.640000000003257, -0.2042635822057997 
3.650000000003278, -0.20356340783598076 
3.6600000000032993, -0.20313829054171345 
3.6700000000033204, -0.202977673410436 
3.6800000000033415, -0.20311240702199237 
3.6900000000033626, -0.20362350735615756 
3.7000000000033837, -0.20466357676093277 
3.710000000003405, -0.20649670981893622 
3.720000000003426, -0.2095643581837098 
3.730000000003447, -0.21457597285301316 
3.740000000003468, -0.2225715800521649 
3.750000000003489, -0.23473217277256272 
3.7600000000035103, -0.2514255679731396 
3.7700000000035314, -0.27035770549471627 
3.7800000000035525, -0.2862518080928821 
3.7900000000035736, -0.29503003786776294 
3.8000000000035947, -0.29746730181769915 
3.810000000003616, -0.2968131483112113 
3.820000000003637, -0.2954289713066537 
3.830000000003658, -0.2942428825099253 
3.840000000003679, -0.2934304801394077 
3.8500000000037002, -0.29292806334415405 
3.8600000000037213, -0.29263786884017695 
3.8700000000037424, -0.29248329274930873 
3.8800000000037635, -0.29241459717285634 
3.8900000000037847, -0.29240335921821153 
3.9000000000038058, -0.292436971618792 
3.910000000003827, -0.29251565856163536 
3.920000000003848, -0.292651991629843 
3.930000000003869, -0.29287212597863854 
3.94000000000389, -0.29321744378344566 
3.9500000000039113, -0.29374473649182475 
3.9600000000039324, -0.29452254700737657 
3.9700000000039535, -0.29562065315634667 
3.9800000000039746, -0.2970890697289733 
3.9900000000039957, -0.29892530487330754 
4.000000000004016, -0.30103994930000877 
4.010000000003993, -0.3032490853208695 
4.02000000000397, -0.30532132277674656 
4.030000000003946, -0.3070628692847573 
4.040000000003923, -0.3083787566056845 
4.0500000000039, -0.3092711416907727 
4.0600000000038765, -0.3097960539254555 
4.070000000003853, -0.310019514938479 
4.08000000000383, -0.30999176253967486 
4.090000000003807, -0.30973692133294495 
4.100000000003783, -0.30925006903415825 
4.11000000000376, -0.30849699177012324 
4.120000000003737, -0.3074173046728676 
4.130000000003713, -0.30593711567940424 
4.14000000000369, -0.3040002514910087 
4.150000000003667, -0.30161849025052934 
4.1600000000036434, -0.29891468430641066 
4.17000000000362, -0.2961121310718394 
4.180000000003597, -0.29345697963995854 
4.1900000000035735, -0.2911283989676426 
4.20000000000355, -0.2892002300207252 
4.210000000003527, -0.28765925743010223 
4.220000000003504, -0.2864447303899116 
4.23000000000348, -0.2854813925642412 
4.240000000003457, -0.28469894554431574 
4.250000000003434, -0.284040922807433 
4.26000000000341, -0.2834671441480638 
4.270000000003387, -0.28295286981050777 
4.280000000003364, -0.2824869637117683 
4.2900000000033405, -0.2820707774464666 
4.300000000003317, -0.2817188891425923 
4.310000000003294, -0.28146225421437443 
4.320000000003271, -0.2813532561946995 
4.330000000003247, -0.2814685306664516 
4.340000000003224, -0.28189321707755416 
4.350000000003201, -0.28263545891060665 
4.360000000003177, -0.2833495833126616 
4.370000000003154, -0.2827315258654949 
4.380000000003131, -0.2779807657632445 
4.390000000003107, -0.2661316055875814 
4.400000000003084, -0.2478936874427123 
4.410000000003061, -0.22840468458631796 
4.4200000000030375, -0.2123499995821295 
4.430000000003014, -0.20101036927360422 
4.440000000002991, -0.19355345532993368 
4.450000000002968, -0.18875393494986054 
4.460000000002944, -0.18565595854836936 
4.470000000002921, -0.18363654068771282 
4.480000000002898, -0.18231614935552126 
4.490000000002874, -0.18147129129270945 
4.500000000002851, -0.1809764719577731 
4.510000000002828, -0.18077086072096024 
4.520000000002804, -0.18084199521510708 
4.530000000002781, -0.18122175601153523 
4.540000000002758, -0.18199308905800982 
4.5500000000027345, -0.18330881125856305 
4.560000000002711, -0.18542614020910117 
4.570000000002688, -0.18876030053562554 
4.580000000002665, -0.1939486775651717 
4.590000000002641, -0.2018668055368785 
4.600000000002618, -0.21340673090502565 
4.610000000002595, -0.2286990801608107 
4.620000000002571, -0.2459442030485405 
4.630000000002548, -0.2615443277064911 
4.640000000002525, -0.2726777950431861 
4.6500000000025015, -0.27920994396291027 
4.660000000002478, -0.2826213097508418 
4.670000000002455, -0.2843455887985503 
4.6800000000024315, -0.2852429201688273 
4.690000000002408, -0.2857362635957013 
4.700000000002385, -0.286018781751054 
4.710000000002362, -0.2861784071359814 
4.720000000002338, -0.2862568753037741 
4.730000000002315, -0.28627581619591086 
4.740000000002292, -0.2862488444947918 
4.750000000002268, -0.2861884361281455 
4.760000000002245, -0.2861112183177995 
4.770000000002222, -0.2860425506071263 
4.7800000000021985, -0.28601947960922447 
4.790000000002175, -0.2860902569714793 
4.800000000002152, -0.2863090467791128 
4.810000000002129, -0.2867257166618793 
4.820000000002105, -0.2873714441278379 
4.830000000002082, -0.28824183361330086 
4.840000000002059, -0.28928317531369696 
4.850000000002035, -0.2903933635780137 
4.860000000002012, -0.2914465445713436 
4.870000000001989, -0.2923327136293787 
