t, s[1].omega / s[0].omega 
0, -0.19982526898351002 
0.009999999999999995, -0.1830606759259811 
0.019999999999999934, -0.1695751331300335 
0.029999999999999874, -0.16007622318037956 
0.04000000000000012, -0.15377093903385847 
0.050000000000000405, -0.14964714545687943 
0.06000000000000069, -0.1469319184812665 
0.07000000000000098, -0.1451218155069197 
0.08000000000000126, -0.14390912774002323 
0.09000000000000155, -0.1431131449454241 
0.10000000000000184, -0.14263512414762175 
0.11000000000000212, -0.14243325301919701 
0.12000000000000241, -0.14251218453355058 
0.130000000000002, -0.14292438370214416 
0.1400000000000009, -0.1437837289115234 
0.1499999999999998, -0.14529504033559373 
0.1599999999999987, -0.14780560673372262 
0.1699999999999976, -0.15188065743754692 
0.1799999999999965, -0.1583714096192063 
0.1899999999999954, -0.16832131374523102 
0.1999999999999943, -0.18230279319144177 
0.2099999999999932, -0.19887749385159265 
0.2199999999999921, -0.2137618426197577 
0.229999999999991, -0.222805453787553 
0.2399999999999899, -0.22587402743829563 
0.2499999999999888, -0.2256450807135452 
0.2599999999999877, -0.22442020123058307 
0.2699999999999866, -0.2232309344024467 
0.2799999999999855, -0.22234289512754982 
0.2899999999999844, -0.22174407409626884 
0.2999999999999833, -0.22136271586224726 
0.3099999999999822, -0.22113499666374561 
0.3199999999999811, -0.22101824642622656 
0.32999999999998, -0.22098954429122478 
0.3399999999999789, -0.22104260448352758 
0.3499999999999778, -0.22118637718405862 
0.35999999999997667, -0.22144591178517156 
0.36999999999997557, -0.2218651494643984 
0.37999999999997447, -0.22251079730081122 
0.38999999999997337, -0.22347561538272992 
0.39999999999997227, -0.22487755779643265 
0.40999999999997117, -0.2268471414514457 
0.41999999999997006, -0.22948990902501606 
0.42999999999996896, -0.2328132316205412 
0.43999999999996786, -0.2366383453198717 
0.44999999999996676, -0.24057902101073747 
0.45999999999996566, -0.2441683297366449 
0.46999999999996456, -0.24706900745877375 
0.47999999999996346, -0.24918403364894798 
0.48999999999996235, -0.2506023791144043 
0.49999999999996125, -0.2514824443312927 
0.5099999999999602, -0.25197154649493464 
0.519999999999959, -0.2521769839443041 
0.529999999999958, -0.2521657225635338 
0.5399999999999568, -0.2519731634385622 
0.5499999999999557, -0.2516130109489908 
0.5599999999999546, -0.2510873188021535 
0.5699999999999535, -0.25039818599348596 
0.5799999999999524, -0.24956138995149685 
0.5899999999999513, -0.24861809222550768 
0.5999999999999502, -0.24763685380824682 
0.6099999999999491, -0.24670089265641498 
0.619999999999948, -0.24588583580803736 
0.6299999999999469, -0.2452406035751781 
0.6399999999999458, -0.244779696313904 
0.6499999999999447, -0.24448580022950134 
0.6599999999999436, -0.2443180101641543 
0.6699999999999425, -0.24422280883463277 
0.6799999999999414, -0.24414596763360427 
0.6899999999999403, -0.2440422143005499 
0.6999999999999392, -0.24387934526503097 
0.7099999999999381, -0.24363606425328438 
0.719999999999937, -0.243295532084865 
0.7299999999999359, -0.24283683741963874 
0.7399999999999348, -0.24222473277970108 
0.7499999999999337, -0.24139562400493902 
0.7599999999999326, -0.24023603435980112 
0.7699999999999315, -0.23855046599461938 
0.7799999999999304, -0.23602568858608558 
0.7899999999999293, -0.23223309640385126 
0.7999999999999282, -0.2267688680281184 
0.8099999999999271, -0.21960323655770336 
0.819999999999926, -0.21140415379137306 
0.8299999999999249, -0.20333568373016067 
0.8399999999999238, -0.19638544873500424 
0.8499999999999227, -0.19094394476875404 
0.8599999999999216, -0.18691263095611793 
0.8699999999999205, -0.18399389058645693 
0.8799999999999194, -0.18188311981732172 
0.8899999999999183, -0.18033858337840858 
0.8999999999999172, -0.1791885367299261 
0.9099999999999161, -0.1783187084815236 
0.919999999999915, -0.1776581773612988 
0.9299999999999139, -0.17716899123850402 
0.9399999999999128, -0.17684057153895422 
0.9499999999999117, -0.17668910401733048 
0.9599999999999106, -0.1767624077878153 
0.9699999999999095, -0.17715113211605665 
0.9799999999999084, -0.17800596172211805 
0.9899999999999073, -0.17955262349241305 
0.9999999999999062, -0.18206606313402607 
1.0099999999999052, -0.18567902280556944 
1.019999999999904, -0.18976994727921384 
1.029999999999903, -0.19192920769781535 
1.039999999999902, -0.1881769569932019 
1.0499999999999008, -0.1768653673439992 
1.0599999999998997, -0.16177390230282912 
1.0699999999998986, -0.14809755687751397 
1.0799999999998975, -0.1380508605374518 
1.0899999999998964, -0.1313537441448342 
1.0999999999998953, -0.12702959571266628 
1.1099999999998942, -0.12423838124106705 
1.119999999999893, -0.12241908205756931 
1.129999999999892, -0.12122933964513752 
1.1399999999998909, -0.12046973299705202 
1.1499999999998898, -0.12003164299998625 
1.1599999999998887, -0.11986772530407586 
1.1699999999998876, -0.11997882969549267 
1.1799999999998865, -0.12041366867150707 
1.1899999999998854, -0.1212809978613052 
1.1999999999998843, -0.12277750974335203 
1.2099999999998832, -0.12523732448188168 
1.219999999999882, -0.12920585357714134 
1.229999999999881, -0.13551119223116828 
1.2399999999998799, -0.14519328739909462 
1.2499999999998788, -0.1589097449965646 
1.2599999999998777, -0.17549176679344106 
1.2699999999998766, -0.19102248986890363 
1.2799999999998755, -0.20139446708279013 
1.2899999999998744, -0.2060304297603198 
1.2999999999998733, -0.20713987889252042 
1.3099999999998722, -0.20686229792748753 
1.319999999999871, -0.20628175344546978 
1.32999999999987, -0.2057684783454165 
1.3399999999998689, -0.20539667329321848 
1.3499999999998678, -0.2051517963548987 
1.3599999999998666, -0.2050052178133066 
1.3699999999998655, -0.20493554813913234 
1.3799999999998644, -0.2049330174728198 
1.3899999999998633, -0.20500004147791043 
1.3999999999998622, -0.20515213191754572 
1.4099999999998611, -0.20542022517685812 
1.41999999999986, -0.20585435575720862 
1.429999999999859, -0.20652789204046598 
1.4399999999998578, -0.2075405407509412 
1.4499999999998567, -0.20901603594820878 
1.4599999999998556, -0.2110856760586802 
1.4699999999998545, -0.2138434705398847 
1.4799999999998534, -0.21726516857631117 
1.4899999999998523, -0.22112440033657338 
1.4999999999998512, -0.22499930915739447 
1.5099999999998501, -0.22843218991378333 
1.519999999999849, -0.23113562426565867 
1.529999999999848, -0.23306432381921177 
1.5399999999998468, -0.23433376015123733 
1.5499999999998457, -0.23510523375852008 
1.5599999999998446, -0.2355180822534854 
1.5699999999998435, -0.23566993074402603 
1.5799999999998424, -0.23562013879900326 
1.5899999999998413, -0.2353995530144175 
1.5999999999998402, -0.23502068875552723 
1.6099999999998391, -0.23448819542867158 
1.619999999999838, -0.23381074815540623 
1.629999999999837, -0.23301348023055457 
1.6399999999998358, -0.2321460803690365 
1.6499999999998347, -0.23127989158258005 
1.6599999999998336, -0.23049253178612267 
1.6699999999998325, -0.22984775824091722 
1.6799999999998314, -0.22938115322309138 
1.6899999999998303, -0.22909579686548426 
1.6999999999998292, -0.22896543836152974 
1.709999999999828, -0.22894217458963748 
1.719999999999827, -0.22896758273834777 
1.729999999999826, -0.22898536699707103 
1.7399999999998248, -0.22895108703666187 
1.7499999999998237, -0.22883506568889267 
1.7599999999998226, -0.228618390769833 
1.7699999999998215, -0.22828483315185313 
1.7799999999998204, -0.22781112470630377 
1.7899999999998193, -0.22715575230501045 
1.7999999999998182, -0.22624439126124057 
1.809999999999817, -0.22494989245880195 
1.819999999999816, -0.22306936712831754 
1.8299999999998149, -0.22031742786193606 
1.8399999999998138, -0.21638692085318922 
1.8499999999998127, -0.21113796188066133 
1.8599999999998116, -0.20485255227348725 
1.8699999999998105, -0.19826870858177015 
1.8799999999998094, -0.1922221741658794 
1.8899999999998083, -0.18722700751578591 
1.8999999999998072, -0.18338026630066323 
1.909999999999806, -0.18052522077362487 
1.919999999999805, -0.17843013555891898 
1.9299999999998039, -0.17688299280533545 
1.9399999999998028, -0.17572022215452854 
1.9499999999998017, -0.17482601080895055 
1.9599999999998006, -0.17412336220936167 
1.9699999999997995, -0.17356517280016837 
1.9799999999997984, -0.1731278166247546 
1.9899999999997973, -0.17280784151635364 
1.9999999999997962, -0.17262188336603143 
2.0099999999998173, -0.1726095086853187 
2.0199999999998384, -0.17283702515001736 
2.0299999999998595, -0.17339381728851497 
2.0399999999998806, -0.17435194511535163 
2.0499999999999017, -0.17560692700147598 
2.059999999999923, -0.17644635959372496 
2.069999999999944, -0.17486732398498714 
2.079999999999965, -0.16776709757210112 
2.089999999999986, -0.15390625583410597 
2.100000000000007, -0.1367512798778906 
2.1100000000000283, -0.121371143625202 
2.1200000000000494, -0.11006870605706642 
2.1300000000000705, -0.10252967095258761 
2.1400000000000916, -0.09765628257528707 
2.1500000000001127, -0.09449806712462369 
2.160000000000134, -0.0924198664406041 
2.170000000000155, -0.09103415421822811 
2.180000000000176, -0.09011429892440369 
2.190000000000197, -0.0895347271165022 
2.2000000000002182, -0.08923684298420445 
2.2100000000002393, -0.08921343538631674 
2.2200000000002604, -0.08950718110521023 
2.2300000000002815, -0.09022284673383252 
2.2400000000003026, -0.0915566898141302 
2.2500000000003237, -0.09384920684346382 
2.260000000000345, -0.09766111928009764 
2.270000000000366, -0.10382528912509252 
2.280000000000387, -0.1132506417592396 
2.290000000000408, -0.12590818104039314 
2.3000000000004293, -0.1388161295937449 
2.3100000000004504, -0.14612508826476234 
2.3200000000004715, -0.14490014684054608 
2.3300000000004926, -0.13849890447606975 
2.3400000000005137, -0.1315568639453882 
2.3500000000005348, -0.1261498890318528 
2.360000000000556, -0.12243786079443675 
2.370000000000577, -0.12000049619879494 
2.380000000000598, -0.11841913031551916 
2.390000000000619, -0.11740060149899237 
2.4000000000006403, -0.11676338306358003 
2.4100000000006614, -0.11640441413271492 
2.4200000000006825, -0.11627467466593155 
2.4300000000007036, -0.11636622754117854 
2.4400000000007247, -0.1167091119998283 
2.450000000000746, -0.11737736046872475 
2.460000000000767, -0.11850531360789755 
2.470000000000788, -0.12031705213489585 
2.480000000000809, -0.12317071999431717 
2.49000000000083, -0.12760691833521104 
2.5000000000008513, -0.1343420784871888 
2.5100000000008724, -0.14403454434132376 
2.5200000000008935, -0.15658453538936162 
2.5300000000009146, -0.17026125447686552 
2.5400000000009357, -0.18213396122775669 
2.550000000000957, -0.1902565747023816 
2.560000000000978, -0.19482468127866995 
2.570000000000999, -0.19709321025460919 
2.58000000000102, -0.19816016437340708 
2.5900000000010412, -0.19866001427562152 
2.6000000000010624, -0.19889867205444262 
2.6100000000010835, -0.1990135952519606 
2.6200000000011046, -0.1990666968409036 
2.6300000000011257, -0.19908837405765195 
2.6400000000011468, -0.19909743129622343 
2.650000000001168, -0.1991108831389769 
2.660000000001189, -0.19915002585620334 
2.67000000000121, -0.19924525306927138 
2.680000000001231, -0.1994400575296831 
2.6900000000012523, -0.19979353067348535 
2.7000000000012734, -0.20038001801707955 
2.7100000000012945, -0.20128371866441425 
2.7200000000013156, -0.20258407568747133 
2.7300000000013367, -0.2043262376356972 
2.740000000001358, -0.20647682666482514 
2.750000000001379, -0.20888686232938122 
2.7600000000014, -0.21130630322591615 
2.770000000001421, -0.2134704099304549 
2.780000000001442, -0.2152031359151993 
2.7900000000014633, -0.21645690006687163 
2.8000000000014844, -0.21727775305352268 
2.8100000000015055, -0.2177470856143339 
2.8200000000015266, -0.21794089029429461 
2.8300000000015477, -0.21791293050563199 
2.840000000001569, -0.21769241407576537 
2.85000000000159, -0.2172878875539855 
2.860000000001611, -0.2166943334053077 
2.870000000001632, -0.21590405928095918 
2.8800000000016532, -0.2149221967780249 
2.8900000000016743, -0.21378345487718345 
2.9000000000016954, -0.21256025126304587 
2.9100000000017165, -0.21135197656157217 
2.9200000000017377, -0.21025754758669918 
2.9300000000017588, -0.20934779354439614 
2.94000000000178, -0.20865264754482538 
2.950000000001801, -0.2081638532756767 
2.960000000001822, -0.20784516493624916 
2.970000000001843, -0.207644054958036 
2.9800000000018643, -0.20750320511554773 
2.9900000000018854, -0.20737056986042823 
3.0000000000019065, -0.20720554058562693 
3.0100000000019276, -0.20697944098094223 
3.0200000000019487, -0.20667099296234528 
3.03000000000197, -0.2062587200477095 
3.040000000001991, -0.20571137737890566 
3.050000000002012, -0.2049754642279377 
3.060000000002033, -0.2039570763133472 
3.070000000002054, -0.20249552846381902 
3.0800000000020753, -0.20033337495396775 
3.0900000000020964, -0.19711298467302818 
3.1000000000021175, -0.19247622356513297 
3.1100000000021386, -0.18633764494439115 
3.1200000000021597, -0.17918325945324856 
3.130000000002181, -0.17198340167891374 
3.140000000002202, -0.16565273855295584 
3.150000000002223, -0.1606215018273954 
3.160000000002244, -0.1568614225254263 
3.1700000000022652, -0.15412880124943829 
3.1800000000022863, -0.15215072524233836 
3.1900000000023074, -0.15070180859403054 
3.2000000000023285, -0.1496176186799176 
3.2100000000023496, -0.14878583618426885 
3.2200000000023707, -0.14813380839585621 
3.230000000002392, -0.14761837519402324 
3.240000000002413, -0.14721913893977973 
3.250000000002434, -0.1469350690588844 
3.260000000002455, -0.14678391843454927 
3.2700000000024763, -0.1468029448085165 
3.2800000000024974, -0.14704566795604068 
3.2900000000025185, -0.14755710537285535 
3.3000000000025396, -0.1482765194310406 
3.3100000000025607, -0.14875520408663478 
3.3200000000025818, -0.14759909324557594 
3.330000000002603, -0.1421580582148265 
3.340000000002624, -0.13024138177899044 
3.350000000002645, -0.11358089333523927 
3.360000000002666, -0.09716279224599889 
3.3700000000026873, -0.0844205939476686 
3.3800000000027084, -0.07572975332587559 
3.3900000000027295, -0.07009068413926643 
3.4000000000027506, -0.06644983909829731 
3.4100000000027717, -0.06406294710301644 
3.420000000002793, -0.062467314069839505 
3.430000000002814, -0.0613892593020872 
3.440000000002835, -0.06067304859227942 
3.450000000002856, -0.060238282848164584 
3.460000000002877, -0.06005822212559869 
3.4700000000028983, -0.06015304055287372 
3.4800000000029194, -0.060595800385596074 
3.4900000000029405, -0.061532231049186314 
3.5000000000029616, -0.06321643209363492 
3.5100000000029827, -0.06605525581941231 
3.520000000003004, -0.07060309406078007 
3.530000000003025, -0.07727656225654228 
3.540000000003046, -0.08526975976062544 
3.550000000003067, -0.09077795559982475 
3.5600000000030882, -0.08820340164346624 
3.5700000000031094, -0.07701811674147103 
3.5800000000031305, -0.0632335822590639 
3.5900000000031516, -0.051917381890888535 
3.6000000000031727, -0.044160110730744134 
3.6100000000031938, -0.039178456299190326 
3.620000000003215, -0.03601062519008126 
3.630000000003236, -0.033973462282301484 
3.640000000003257, -0.0326492967034784 
3.650000000003278, -0.031797931834323216 
3.6600000000032993, -0.03128995365471268 
3.6700000000033204, -0.031068633665781924 
3.6800000000033415, -0.03113321705854951 
3.6900000000033626, -0.031538723134159584 
3.7000000000033837, -0.03241221460335968 
3.710000000003405, -0.033990363319123536 
3.720000000003426, -0.03668573058504325 
3.730000000003447, -0.04117574518515099 
3.740000000003468, -0.048422649502466455 
3.750000000003489, -0.059237425525994335 
3.7600000000035103, -0.07260720173172261 
3.7700000000035314, -0.08352036320773848 
3.7800000000035525, -0.08584259042858906 
3.7900000000035736, -0.07994474624680323 
3.8000000000035947, -0.07145878090751451 
3.810000000003616, -0.06427933372089129 
3.820000000003637, -0.0592454552204145 
3.830000000003658, -0.055939564863421186 
3.840000000003679, -0.05380023832346993 
3.8500000000037002, -0.052415505668426475 
3.8600000000037213, -0.051528473081442136 
3.8700000000037424, -0.050992162851282996 
3.8800000000037635, -0.05073328991458598 
3.8900000000037847, -0.05073235545229078 
3.9000000000038058, -0.051017940275617665 
3.910000000003827, -0.051674251482201894 
3.920000000003848, -0.05286452184140339 
3.930000000003869, -0.054876989564531894 
3.94000000000389, -0.05820173969620385 
3.9500000000039113, -0.06362957489030929 
3.9600000000039324, -0.07227022142035866 
3.9700000000039535, -0.0851059530151961 
3.9800000000039746, -0.10145434783431517 
3.9900000000039957, -0.11724603707846123 
4.000000000004016, -0.12727962556784353 
4.010000000003993, -0.1305169384916568 
4.02000000000397, -0.12984449629413056 
4.030000000003946, -0.12804183209298847 
4.040000000003923, -0.12635834881115632 
4.0500000000039, -0.12509531982104838 
4.0600000000038765, -0.1242222713712497 
4.070000000003853, -0.12364509535537076 
4.08000000000383, -0.1232850076807633 
4.090000000003807, -0.1230924365157013 
4.100000000003783, -0.12304494718692124 
4.11000000000376, -0.12314436150137868 
4.120000000003737, -0.1234171107891461 
4.130000000003713, -0.12391901951096615 
4.14000000000369, -0.12474538865245392 
4.150000000003667, -0.12604728065206317 
4.1600000000036434, -0.1280533812159585 
4.17000000000362, -0.1310892019741159 
4.180000000003597, -0.13556211584626485 
4.1900000000035735, -0.14183572570994657 
4.20000000000355, -0.1499031479049064 
4.210000000003527, -0.15897709041360863 
4.220000000003504, -0.1675589294068971 
4.23000000000348, -0.17431618813115682 
4.240000000003457, -0.1788702000765813 
4.250000000003434, -0.18163461870246878 
4.26000000000341, -0.18322365249194225 
4.270000000003387, -0.18411588812333685 
4.280000000003364, -0.18460670190576478 
4.2900000000033405, -0.18486161705717677 
4.300000000003317, -0.18497095387916782 
4.310000000003294, -0.18498518025340002 
4.320000000003271, -0.18493537694300538 
4.330000000003247, -0.1848455677067262 
4.340000000003224, -0.18474115679089326 
4.350000000003201, -0.1846551458358178 
4.360000000003177, -0.18463194808628874 
4.370000000003154, -0.18472781285360568 
4.380000000003131, -0.18500716311335758 
4.390000000003107, -0.18553449441108213 
4.400000000003084, -0.18636062056740849 
4.410000000003061, -0.1875015083987431 
4.4200000000030375, -0.18891301233057206 
4.430000000003014, -0.19047755937123814 
4.440000000002991, -0.19202534221340192 
4.450000000002968, -0.1933906442358138 
4.460000000002944, -0.1944669438212953 
4.470000000002921, -0.19522296302998374 
4.480000000002898, -0.19568050015096075 
4.490000000002874, -0.1958812802292041 
4.500000000002851, -0.1958628983788182 
4.510000000002828, -0.19564733681734187 
4.520000000002804, -0.1952380073507416 
4.530000000002781, -0.1946220137009744 
4.540000000002758, -0.19377763353981028 
4.5500000000027345, -0.19268911651023057 
4.560000000002711, -0.19136859503425052 
4.570000000002688, -0.18987630593148935 
4.580000000002665, -0.18832188848860557 
4.590000000002641, -0.1868368923985259 
4.600000000002618, -0.1855329441164747 
4.610000000002595, -0.1844731166814167 
4.620000000002571, -0.18366866356845254 
4.630000000002548, -0.18309204053107672 
4.640000000002525, -0.18269300238660635 
4.6500000000025015, -0.18241205125455512 
4.660000000002478, -0.18219096218658196 
4.670000000002455, -0.18198021819356974 
4.6800000000024315, -0.1817420980144202 
4.690000000002408, -0.18144889760596117 
4.700000000002385, -0.18107731797350266 
4.710000000002362, -0.18060033750667356 
4.720000000002338, -0.17997657056443464 
4.730000000002315, -0.17913517349212624 
4.740000000002292, -0.17795309593844055 
4.750000000002268, -0.17622390840577065 
4.760000000002245, -0.17363224011435424 
4.770000000002222, -0.16978778025214944 
4.7800000000021985, -0.16441431045653243 
4.790000000002175, -0.15769020240856796 
4.800000000002152, -0.1504108534403291 
4.810000000002129, -0.14361550228358622 
