t, s[1].omega / s[0].omega 
0, -0.6399977141407271 
0.009999999999999995, -0.6397708383390647 
0.019999999999999934, -0.6395408631361039 
0.029999999999999874, -0.6392916259349836 
0.04000000000000012, -0.6390049046429591 
0.050000000000000405, -0.638668028985059 
0.06000000000000069, -0.6382781096681585 
0.07000000000000098, -0.6378427098136779 
0.08000000000000126, -0.6373792546787125 
0.09000000000000155, -0.6369157607296653 
0.10000000000000184, -0.6364944341993948 
0.11000000000000212, -0.6361786502441144 
0.12000000000000241, -0.6360631771126145 
0.130000000000002, -0.6362869505954586 
0.1400000000000009, -0.6370467720650516 
0.1499999999999998, -0.6386084902567376 
0.1599999999999987, -0.6413086935894101 
0.1699999999999976, -0.6455334083424403 
0.1799999999999965, -0.6516507181213324 
0.1899999999999954, -0.6598694734861117 
0.1999999999999943, -0.6700239926576038 
0.2099999999999932, -0.6813831430603914 
0.2199999999999921, -0.692706122413175 
0.229999999999991, -0.7026838599419295 
0.2399999999999899, -0.7105032381451049 
0.2499999999999888, -0.7160589021144202 
0.2599999999999877, -0.7197261888168869 
0.2699999999999866, -0.7220179636068822 
0.2799999999999855, -0.7233767732319472 
0.2899999999999844, -0.724116109296877 
0.2999999999999833, -0.7244338352545536 
0.3099999999999822, -0.7244414789636788 
0.3199999999999811, -0.7241869988245078 
0.32999999999998, -0.7236657918689107 
0.3399999999999789, -0.7228196395965355 
0.3499999999999778, -0.7215236151124935 
0.35999999999997667, -0.7195617592518804 
0.36999999999997557, -0.7165989676945551 
0.37999999999997447, -0.7121768936495265 
0.38999999999997337, -0.7057966910055912 
0.39999999999997227, -0.6971584198314933 
0.40999999999997117, -0.6865025420373754 
0.41999999999997006, -0.6747619968476969 
0.42999999999996896, -0.6632559822757808 
0.43999999999996786, -0.6531216475556915 
0.44999999999996676, -0.6449552262525388 
0.45999999999996566, -0.6388275223394453 
0.46999999999996456, -0.6344904459331698 
0.47999999999996346, -0.6315754872977677 
0.48999999999996235, -0.6297144563983762 
0.49999999999996125, -0.6285932938318088 
0.5099999999999602, -0.6279666825910526 
0.519999999999959, -0.6276539546213921 
0.529999999999958, -0.6275277192296467 
0.5399999999999568, -0.6275009527655673 
0.5499999999999557, -0.6275153313693854 
0.5599999999999546, -0.6275321101733254 
0.5699999999999535, -0.627526088097532 
0.5799999999999524, -0.6274826684666198 
0.5899999999999513, -0.6273973187891307 
0.5999999999999502, -0.6272756903688934 
0.6099999999999491, -0.6271318822918386 
0.619999999999948, -0.6269830944046738 
0.6299999999999469, -0.6268416189784761 
0.6399999999999458, -0.6267079485742635 
0.6499999999999447, -0.6265691049324286 
0.6599999999999436, -0.6264034753503455 
0.6699999999999425, -0.626189444203588 
0.6799999999999414, -0.625913026720629 
0.6899999999999403, -0.6255712878554724 
0.6999999999999392, -0.6251719508219074 
0.7099999999999381, -0.6247320119390991 
0.719999999999937, -0.6242781711107175 
0.7299999999999359, -0.6238507298632567 
0.7399999999999348, -0.6235117123605225 
0.7499999999999337, -0.6233576008807369 
0.7599999999999326, -0.6235367480015784 
0.7699999999999315, -0.6242704967160932 
0.7799999999999304, -0.6258743066812816 
0.7899999999999293, -0.6287690616290837 
0.7999999999999282, -0.6334608289356634 
0.8099999999999271, -0.6404498071787087 
0.819999999999926, -0.6500215722767068 
0.8299999999999249, -0.6619279488805223 
0.8399999999999238, -0.6751393552631068 
0.8499999999999227, -0.6880182310574885 
0.8599999999999216, -0.6990147245079797 
0.8699999999999205, -0.70735363177839 
0.8799999999999194, -0.713120570168095 
0.8899999999999183, -0.7168623202120379 
0.8999999999999172, -0.7191846121082455 
0.9099999999999161, -0.7205655536756583 
0.919999999999915, -0.7213282261567231 
0.9299999999999139, -0.7216717404259068 
0.9399999999999128, -0.7217073127131852 
0.9499999999999117, -0.7214830220124997 
0.9599999999999106, -0.7209954093354969 
0.9699999999999095, -0.7201891808481304 
0.9799999999999084, -0.7189462728183275 
0.9899999999999073, -0.7170671592595729 
0.9999999999999062, -0.7142552825848579 
1.0099999999999052, -0.7101343593196293 
1.019999999999904, -0.7043493716535918 
1.029999999999903, -0.6967780671970567 
1.039999999999902, -0.6877547246757959 
1.0499999999999008, -0.6780819044648329 
1.0599999999998997, -0.6687370964677204 
1.0699999999998986, -0.6604967865504409 
1.0799999999998975, -0.6537532037792734 
1.0899999999998964, -0.6485562709321856 
1.0999999999998953, -0.6447484962355873 
1.1099999999998942, -0.642085541820328 
1.119999999999893, -0.640310909378712 
1.129999999999892, -0.6391929048654812 
1.1399999999998909, -0.6385389441078374 
1.1499999999998898, -0.6381978854058727 
1.1599999999998887, -0.6380563691697565 
1.1699999999998876, -0.6380324578150938 
1.1799999999998865, -0.6380686211833808 
1.1899999999998854, -0.63812547894797 
1.1999999999998843, -0.638177233888811 
1.2099999999998832, -0.6382091677644179 
1.219999999999882, -0.6382167381537949 
1.229999999999881, -0.6382047630206424 
1.2399999999998799, -0.6381845946545084 
1.2499999999998788, -0.6381681397408208 
1.2599999999998777, -0.6381601648118335 
1.2699999999998766, -0.6381527155070753 
1.2799999999998755, -0.6381253512228962 
1.2899999999998744, -0.6380517360253197 
1.2999999999998733, -0.6379090175768136 
1.3099999999998722, -0.6376848257611336 
1.319999999999871, -0.6373791999066382 
1.32999999999987, -0.6370028170527673 
1.3399999999998689, -0.6365749488773031 
1.3499999999998678, -0.6361240110822928 
1.3599999999998666, -0.6356921959346459 
1.3699999999998655, -0.6353448739670604 
1.3799999999998644, -0.6351852161026345 
1.3899999999998633, -0.6353741167683707 
1.3999999999998622, -0.6361540996908697 
1.4099999999998611, -0.6378722630640735 
1.41999999999986, -0.6409895443993322 
1.429999999999859, -0.6460493825261194 
1.4399999999998578, -0.6535604763172044 
1.4499999999998567, -0.6637487351273429 
1.4599999999998556, -0.6762149415192424 
1.4699999999998545, -0.6897378532481365 
1.4799999999998534, -0.7025801576024301 
1.4899999999998523, -0.7132690326162223 
1.4999999999998512, -0.7212048321407415 
1.5099999999998501, -0.7266097477901085 
1.519999999999849, -0.7300802012984916 
1.529999999999848, -0.732215876364825 
1.5399999999998468, -0.7334715657533242 
1.5499999999998457, -0.7341482704154781 
1.5599999999998446, -0.7344285660946895 
1.5699999999998435, -0.7344116303287801 
1.5799999999998424, -0.7341357640664389 
1.5899999999998413, -0.7335876703916692 
1.5999999999998402, -0.7326997032126475 
1.6099999999998391, -0.7313360918967076 
1.619999999999838, -0.7292712556565277 
1.629999999999837, -0.7261729696242056 
1.6399999999998358, -0.7216252213108799 
1.6499999999998347, -0.7152485782704039 
1.6599999999998336, -0.7069429242357093 
1.6699999999998325, -0.6971288114554697 
1.6799999999998314, -0.6867319148269568 
1.6899999999998303, -0.6768310216018475 
1.6999999999998292, -0.6682438254023363 
1.709999999999828, -0.6613477793671702 
1.719999999999827, -0.6561473208095376 
1.729999999999826, -0.652431585207616 
1.7399999999998248, -0.6499082460518446 
1.7499999999998237, -0.6482839307687571 
1.7599999999998226, -0.6473024178833926 
1.7699999999998215, -0.6467576196560567 
1.7799999999998204, -0.6464932540138901 
1.7899999999998193, -0.6463961254758042 
1.7999999999998182, -0.6463870286498999 
1.809999999999817, -0.6464117410529989 
1.819999999999816, -0.6464336426977474 
1.8299999999998149, -0.6464288251901237 
1.8399999999998138, -0.6463838806495504 
1.8499999999998127, -0.6462956220012821 
1.8599999999998116, -0.6461708280142443 
1.8699999999998105, -0.6460235819800515 
1.8799999999998094, -0.6458690934879908 
1.8899999999998083, -0.6457158656039901 
1.8999999999998072, -0.6455603420015676 
1.909999999999806, -0.645387430281368 
1.919999999999805, -0.6451767978488896 
1.9299999999998039, -0.644911244091301 
1.9399999999998028, -0.6445827123221566 
1.9499999999998017, -0.6441941232517557 
1.9599999999998006, -0.6437585659522979 
1.9699999999997995, -0.643298760675916 
1.9799999999997984, -0.642849031178706 
1.9899999999997973, -0.642460800084679 
1.9999999999997962, -0.642211785925993 
2.0099999999998173, -0.6422185401554007 
2.0199999999998384, -0.6426512124387027 
2.0299999999998595, -0.6437479589329859 
2.0399999999998806, -0.6458235672234555 
2.0499999999999017, -0.649261579168188 
2.059999999999923, -0.6544704433870916 
2.069999999999944, -0.6617750964080802 
2.079999999999965, -0.6712236722504866 
2.089999999999986, -0.6823544871304038 
2.100000000000007, -0.6941028667773208 
2.1100000000000283, -0.7050769469756304 
2.1200000000000494, -0.7141439979129856 
2.1300000000000705, -0.720864030568888 
2.1400000000000916, -0.725438409456841 
2.1500000000001127, -0.7283649092587978 
2.160000000000134, -0.7301452753583646 
2.170000000000155, -0.731162617844348 
2.180000000000176, -0.7316707274341807 
2.190000000000197, -0.7318213534184215 
2.2000000000002182, -0.73169211595561 
2.2100000000002393, -0.7313037167157211 
2.2200000000002604, -0.7306248347560304 
2.2300000000002815, -0.7295648011837254 
2.2400000000003026, -0.7279540085535199 
2.2500000000003237, -0.7255147333055796 
2.260000000000345, -0.721837448132517 
2.270000000000366, -0.7164074604815233 
2.280000000000387, -0.7087605257796559 
2.290000000000408, -0.6988045895623052 
2.3000000000004293, -0.6871354824766792 
2.3100000000004504, -0.6749863223997783 
2.3200000000004715, -0.663718370679493 
2.3300000000004926, -0.6542715063835768 
2.3400000000005137, -0.6469791421452968 
2.3500000000005348, -0.6417141177525986 
2.360000000000556, -0.6381233330136843 
2.370000000000577, -0.6358020202910277 
2.380000000000598, -0.634384300669912 
2.390000000000619, -0.6335760497597739 
2.4000000000006403, -0.6331574792625241 
2.4100000000006614, -0.6329726719480167 
2.4200000000006825, -0.6329151520643694 
2.4300000000007036, -0.6329139244884437 
2.4400000000007247, -0.6329220142550309 
2.450000000000746, -0.6329083349251821 
2.460000000000767, -0.6328530863933791 
2.470000000000788, -0.6327463246685239 
2.480000000000809, -0.6325884404501241 
2.49000000000083, -0.6323901573383489 
2.5000000000008513, -0.6321694233447003 
2.5100000000008724, -0.6319444536983944 
2.5200000000008935, -0.6317254914666142 
2.5300000000009146, -0.6315097768247312 
2.5400000000009357, -0.6312827817982529 
2.550000000000957, -0.6310249676299398 
2.560000000000978, -0.6307200771901769 
2.570000000000999, -0.6303607939004072 
2.58000000000102, -0.6299503996572653 
2.5900000000010412, -0.6295021460802225 
2.6000000000010624, -0.6290391202175154 
2.6100000000010835, -0.6285966506138372 
2.6200000000011046, -0.6282281970351808 
2.6300000000011257, -0.6280149707406351 
2.6400000000011468, -0.6280790898442142 
2.650000000001168, -0.628599372527012 
2.660000000001189, -0.6298273065953571 
2.67000000000121, -0.6320974044100174 
2.680000000001231, -0.6358195492344838 
2.6900000000012523, -0.6414298214237989 
2.7000000000012734, -0.649265154561369 
2.7100000000012945, -0.6593399931895069 
2.7200000000013156, -0.6710893050857849 
2.7300000000013367, -0.6833024094193263 
2.740000000001358, -0.6944910358939086 
2.750000000001379, -0.7035472787888826 
2.7600000000014, -0.710139057745111 
2.770000000001421, -0.7145671901174377 
2.780000000001442, -0.7173775139003101 
2.7900000000014633, -0.7190801754727794 
2.8000000000014844, -0.7200504227790867 
2.8100000000015055, -0.7205316396687076 
2.8200000000015266, -0.7206671917347337 
2.8300000000015477, -0.7205287258217 
2.840000000001569, -0.7201325749364635 
2.85000000000159, -0.7194438244896958 
2.860000000001611, -0.7183686878596264 
2.870000000001632, -0.716736099382569 
2.8800000000016532, -0.714273599515236 
2.8900000000016743, -0.7105969679274203 
2.9000000000016954, -0.7052607433486685 
2.9100000000017165, -0.6979324429699707 
2.9200000000017377, -0.6886786821302802 
2.9300000000017588, -0.6781606171318103 
2.94000000000178, -0.6674757055584233 
2.950000000001801, -0.6577021847452744 
2.960000000001822, -0.6495214823185048 
2.970000000001843, -0.6431454239637266 
2.9800000000018643, -0.6384547359771553 
2.9900000000018854, -0.6351719783943058 
3.0000000000019065, -0.6329823192039546 
3.0100000000019276, -0.6315961520412694 
3.0200000000019487, -0.6307734866494074 
3.03000000000197, -0.6303281125198695 
3.040000000001991, -0.6301223668727818 
3.050000000002012, -0.6300582464085542 
3.060000000002033, -0.6300679172330654 
3.070000000002054, -0.6301053416585894 
3.0800000000020753, -0.6301400008711696 
3.0900000000020964, -0.6301531462061905 
3.1000000000021175, -0.6301363536826436 
3.1100000000021386, -0.6300911956991124 
3.1200000000021597, -0.6300279035563423 
3.130000000002181, -0.6299610205831331 
3.140000000002202, -0.629902052701773 
3.150000000002223, -0.6298520326089923 
3.160000000002244, -0.6297982500912445 
3.1700000000022652, -0.6297175999581226 
3.1800000000022863, -0.6295850020787689 
3.1900000000023074, -0.6293821487072996 
3.2000000000023285, -0.6291022548608354 
3.2100000000023496, -0.6287500961206218 
3.2200000000023707, -0.628339932343235 
3.230000000002392, -0.6278945986744019 
3.240000000002413, -0.6274479243259409 
3.250000000002434, -0.6270515183255728 
3.260000000002455, -0.6267865252535009 
3.2700000000024763, -0.6267808034750896 
3.2800000000024974, -0.6272313206059438 
3.2900000000025185, -0.6284293683313484 
3.3000000000025396, -0.6307808224040239 
3.3100000000025607, -0.6348025067382781 
3.3200000000025818, -0.6410570854882455 
3.330000000002603, -0.6499723340726586 
3.340000000002624, -0.661520428887815 
3.350000000002645, -0.6748857866920124 
3.360000000002666, -0.6884767710616841 
3.3700000000026873, -0.7005392481683078 
3.3800000000027084, -0.7099792287597849 
3.3900000000027295, -0.7166585191275466 
3.4000000000027506, -0.7210613442210316 
3.4100000000027717, -0.7238295700114064 
3.420000000002793, -0.725503842218085 
3.430000000002814, -0.7264618251454642 
3.440000000002835, -0.7269421125016611 
3.450000000002856, -0.7270833411527917 
3.460000000002877, -0.7269539005528733 
3.4700000000028983, -0.7265680858231909 
3.4800000000029194, -0.7258898428769068 
3.4900000000029405, -0.724825509128362 
3.5000000000029616, -0.7232075258566866 
3.5100000000029827, -0.7207762954418697 
3.520000000003004, -0.7171821140986778 
3.530000000003025, -0.7120515234610695 
3.540000000003046, -0.7051607318664055 
3.550000000003067, -0.6966704623695223 
3.5600000000030882, -0.6872297086961017 
3.5700000000031094, -0.6777811130853779 
3.5800000000031305, -0.6691876561516891 
3.5900000000031516, -0.661972842188709 
3.6000000000031727, -0.6562949303895559 
3.6100000000031938, -0.6520600308177863 
3.620000000003215, -0.6490500108993372 
3.630000000003236, -0.6470113246914839 
3.640000000003257, -0.6457032594419564 
3.650000000003278, -0.6449193780167104 
3.6600000000032993, -0.644493978837035 
3.6700000000033204, -0.6443006443944396 
3.6800000000033415, -0.6442468306867015 
3.6900000000033626, -0.6442669461591952 
3.7000000000033837, -0.6443156330056569 
3.710000000003405, -0.6443624512232697 
3.720000000003426, -0.6443886247329477 
3.730000000003447, -0.6443857486912489 
3.740000000003468, -0.6443552995469986 
3.750000000003489, -0.6443068784315475 
3.7600000000035103, -0.644253433948551 
3.7700000000035314, -0.6442038850938246 
3.7800000000035525, -0.6441563481404516 
3.7900000000035736, -0.6440960570744096 
3.8000000000035947, -0.6439997823181204 
3.810000000003616, -0.6438444740526371 
3.820000000003637, -0.6436152316293682 
3.830000000003658, -0.6433089246407622 
3.840000000003679, -0.6429335992403805 
3.8500000000037002, -0.6425066022267434 
3.8600000000037213, -0.6420544923333021 
3.8700000000037424, -0.641616533766987 
3.8800000000037635, -0.6412524999375647 
3.8900000000037847, -0.6410550277286782 
3.9000000000038058, -0.6411663357970647 
3.910000000003827, -0.6417980262384361 
3.920000000003848, -0.6432501112635395 
3.930000000003869, -0.6459201313923091 
3.94000000000389, -0.6502835715578474 
3.9500000000039113, -0.6568128907230872 
3.9600000000039324, -0.6657959250784067 
3.9700000000039535, -0.6770549647362388 
3.9800000000039746, -0.6897065625165413 
3.9900000000039957, -0.7022599324779595 
4.000000000004016, -0.7131993992972464 
4.010000000003993, -0.7216559694292365 
4.02000000000397, -0.7275905899219863 
4.030000000003946, -0.7314747778983197 
4.040000000003923, -0.7338934660919554 
4.0500000000039, -0.7353310454407812 
4.0600000000038765, -0.7361231401073758 
4.070000000003853, -0.7364794247064659 
4.08000000000383, -0.7365182348027924 
4.090000000003807, -0.7362919992103921 
4.100000000003783, -0.7357996616203021 
4.11000000000376, -0.7349865854160827 
4.120000000003737, -0.7337324426194248 
4.130000000003713, -0.7318282934747342 
4.14000000000369, -0.7289505824494338 
4.150000000003667, -0.7246592508495453 
4.1600000000036434, -0.7184792988457287 
4.17000000000362, -0.7101285608283449 
4.180000000003597, -0.6998360677335352 
4.1900000000035735, -0.688481089212537 
4.20000000000355, -0.6773108472893644 
4.210000000003527, -0.6674159300881158 
4.220000000003504, -0.6593900060410841 
4.23000000000348, -0.6533302954760176 
4.240000000003457, -0.6490207503032747 
4.250000000003434, -0.6461168900029515 
4.26000000000341, -0.6442636178652947 
4.270000000003387, -0.6431515360440964 
4.280000000003364, -0.6425352383941896 
4.2900000000033405, -0.6422321115591157 
4.300000000003317, -0.6421126114439183 
4.310000000003294, -0.6420879792234403 
4.320000000003271, -0.6420985884713541 
4.330000000003247, -0.6421045855835259 
4.340000000003224, -0.6420796083461229 
4.350000000003201, -0.6420077487061313 
4.360000000003177, -0.6418831529558633 
4.370000000003154, -0.6417105167414598 
4.380000000003131, -0.6415038188936844 
4.390000000003107, -0.6412813151129553 
4.400000000003084, -0.6410576052722095 
4.410000000003061, -0.6408365805708451 
4.4200000000030375, -0.6406094063561941 
4.430000000003014, -0.6403588064729794 
4.440000000002991, -0.6400670212340762 
4.450000000002968, -0.6397229721130753 
4.460000000002944, -0.6393257439357637 
4.470000000002921, -0.6388847937319388 
4.480000000002898, -0.6384194065238125 
4.490000000002874, -0.6379598534957622 
4.500000000002851, -0.6375515896026569 
4.510000000002828, -0.6372628519042847 
4.520000000002804, -0.6371954153261613 
4.530000000002781, -0.6374976622424503 
4.540000000002758, -0.6383780671630294 
4.5500000000027345, -0.6401151570752742 
4.560000000002711, -0.6430560697120755 
4.570000000002688, -0.6475887476218135 
4.580000000002665, -0.6540632669303182 
4.590000000002641, -0.6626362837461436 
4.600000000002618, -0.6730504916224894 
4.610000000002595, -0.6844712229963592 
4.620000000002571, -0.6956092067820755 
4.630000000002548, -0.7052130731098727 
4.640000000002525, -0.7125979541334031 
4.6500000000025015, -0.7177683721612416 
4.660000000002478, -0.7211449363199256 
4.670000000002455, -0.7232361352164569 
4.6800000000024315, -0.7244614559736657 
4.690000000002408, -0.7251111132691256 
4.700000000002385, -0.7253650474992867 
4.710000000002362, -0.7253218142238262 
4.720000000002338, -0.7250192917302629 
4.730000000002315, -0.7244434524607077 
4.740000000002292, -0.7235250811382702 
4.750000000002268, -0.7221243909502929 
4.760000000002245, -0.7200048169892815 
4.770000000002222, -0.7168056894419411 
4.7800000000021985, -0.7120471082873137 
4.790000000002175, -0.7052362379111993 
4.800000000002152, -0.6961373510268775 
4.810000000002129, -0.6851126297485671 
4.820000000002105, -0.67320914039613 
4.830000000002082, -0.6617736630983422 
4.840000000002059, -0.6518791889096888 
4.850000000002035, -0.6440262008237104 
4.860000000002012, -0.6382102913831009 
4.870000000001989, -0.6341428218563134 
4.880000000001965, -0.6314413837522835 
4.890000000001942, -0.6297389077234105 
4.900000000001919, -0.6287291519745863 
4.9100000000018955, -0.6281765727508881 
4.920000000001872, -0.6279098198259103 
