t, s[1].omega / s[0].omega 
0, -1.3999960403459084 
0.009999999999999995, -1.3993805883906292 
0.019999999999999934, -1.3983307818865847 
0.029999999999999874, -1.3968474794229 
0.04000000000000012, -1.3949329944436188 
0.050000000000000405, -1.3925925926285758 
0.06000000000000069, -1.389836387156253 
0.07000000000000098, -1.3866815339789815 
0.08000000000000126, -1.383154980731363 
0.09000000000000155, -1.3792979336408822 
0.10000000000000184, -1.375174306144915 
0.11000000000000212, -1.3708849787421757 
0.12000000000000241, -1.3665851891175966 
0.130000000000002, -1.3624933909904182 
0.1400000000000009, -1.3588724183776417 
0.1499999999999998, -1.3559703083173436 
0.1599999999999987, -1.3539361384171176 
0.1699999999999976, -1.3527578737299308 
0.1799999999999965, -1.3522660015212946 
0.1899999999999954, -1.3521995882393387 
0.1999999999999943, -1.3522870982372555 
0.2099999999999932, -1.3522963333463796 
0.2199999999999921, -1.3520412428663375 
0.229999999999991, -1.351358456276633 
0.2399999999999899, -1.3500694196462135 
0.2499999999999888, -1.3479355125211452 
0.2599999999999877, -1.344605117519887 
0.2699999999999866, -1.3395475683712037 
0.2799999999999855, -1.3319699174550748 
0.2899999999999844, -1.3207203089038337 
0.2999999999999833, -1.3042009052469752 
0.3099999999999822, -1.2803489367664644 
0.3199999999999811, -1.246793420493191 
0.32999999999998, -1.2013261756268045 
0.3399999999999789, -1.1427578522485895 
0.3499999999999778, -1.0719640713562155 
0.35999999999997667, -0.9925241959625679 
0.36999999999997557, -0.9102437397513805 
0.37999999999997447, -0.8314981730950449 
0.38999999999997337, -0.7613283163953493 
0.39999999999997227, -0.7024056508426871 
0.40999999999997117, -0.655157636136994 
0.41999999999997006, -0.6185412564209489 
0.42999999999996896, -0.5908548822127953 
0.43999999999996786, -0.5702948155798294 
0.44999999999996676, -0.5552392242220999 
0.45999999999996566, -0.5443474560066082 
0.46999999999996456, -0.5365624894934234 
0.47999999999996346, -0.5310735913922461 
0.48999999999996235, -0.5272689902706537 
0.49999999999996125, -0.5246915342676333 
0.5099999999999602, -0.5230016460999075 
0.519999999999959, -0.521948040209319 
0.529999999999958, -0.5213452433684941 
0.5399999999999568, -0.521056626715973 
0.5499999999999557, -0.5209817528465335 
0.5599999999999546, -0.5210470675749043 
0.5699999999999535, -0.521199198794808 
0.5799999999999524, -0.5214003172722673 
0.5899999999999513, -0.5216251476780903 
0.5999999999999502, -0.5218592832885075 
0.6099999999999491, -0.5220984519881657 
0.619999999999948, -0.5223483173708231 
0.6299999999999469, -0.5226243165232247 
0.6399999999999458, -0.5229510015127422 
0.6499999999999447, -0.5233604304367928 
0.6599999999999436, -0.5238893637480863 
0.6699999999999425, -0.5245753002956749 
0.6799999999999414, -0.5254516243215595 
0.6899999999999403, -0.526542261828388 
0.6999999999999392, -0.5278563138791318 
0.7099999999999381, -0.5293832864679419 
0.719999999999937, -0.5310898536504608 
0.7299999999999359, -0.5329194259687572 
0.7399999999999348, -0.5347957465423894 
0.7499999999999337, -0.5366308926077308 
0.7599999999999326, -0.5383364664245941 
0.7699999999999315, -0.5398351826168021 
0.7799999999999304, -0.5410695795638725 
0.7899999999999293, -0.5420056757293814 
0.7999999999999282, -0.5426314198646224 
0.8099999999999271, -0.5429515251132596 
0.819999999999926, -0.542980927528296 
0.8299999999999249, -0.5427387293574472 
0.8399999999999238, -0.542243657189921 
0.8499999999999227, -0.5415113289196478 
0.8599999999999216, -0.5405532249089544 
0.8699999999999205, -0.5393771922594672 
0.8799999999999194, -0.5379894773815425 
0.8899999999999183, -0.5363985954720557 
0.8999999999999172, -0.5346217653992915 
0.9099999999999161, -0.5326951450870955 
0.919999999999915, -0.5306896209686452 
0.9299999999999139, -0.5287341233013323 
0.9399999999999128, -0.5270473556937343 
0.9499999999999117, -0.5259736580879998 
0.9599999999999106, -0.5260024719761546 
0.9699999999999095, -0.5277078197737554 
0.9799999999999084, -0.531444784583822 
0.9899999999999073, -0.5364472977015137 
0.9999999999999062, -0.5386983046329911 
1.0099999999999052, -0.5268229758640168 
1.019999999999904, -0.47613857960994044 
1.029999999999903, -0.34591670551888276 
1.039999999999902, -0.10228098939140055 
1.0499999999999008, 0.20661315461053723 
1.0599999999998997, 0.4528940872499288 
1.0699999999998986, 0.5901878808892802 
1.0799999999998975, 0.6566875891528356 
1.0899999999998964, 0.6890140537414303 
1.0999999999998953, 0.7055615164831615 
1.1099999999998942, 0.7144956726619921 
1.119999999999893, 0.7195066074553259 
1.129999999999892, 0.7223610562129784 
1.1399999999998909, 0.7239636441611595 
1.1499999999998898, 0.7248112886621989 
1.1599999999998887, 0.7251986658549127 
1.1699999999998876, 0.7253166779675743 
1.1799999999998865, 0.7253021100842311 
1.1899999999998854, 0.7252633636591396 
1.1999999999998843, 0.7252932231157133 
1.2099999999998832, 0.7254734636704031 
1.219999999999882, 0.7258733995700536 
1.229999999999881, 0.726543644719754 
1.2399999999998799, 0.7275068719340272 
1.2499999999998788, 0.7287487306447088 
1.2599999999998777, 0.7302132806503837 
1.2699999999998766, 0.7318067992197403 
1.2799999999998755, 0.7334107253587664 
1.2899999999998744, 0.7348999405723836 
1.2999999999998733, 0.7361594398138324 
1.3099999999998722, 0.7370928951731034 
1.319999999999871, 0.7376199067405071 
1.32999999999987, 0.737661895996474 
1.3399999999998689, 0.7371169861069079 
1.3499999999998678, 0.7358207458595435 
1.3599999999998666, 0.7334815663777432 
1.3699999999998655, 0.7295635830973751 
1.3799999999998644, 0.7230578337853046 
1.3899999999998633, 0.7120173434558782 
1.3999999999998622, 0.6926272811230895 
1.4099999999998611, 0.6576036747544366 
1.41999999999986, 0.5950127305081346 
1.429999999999859, 0.49436502054490544 
1.4399999999998578, 0.36949602454835456 
1.4499999999998567, 0.26624290162671954 
1.4599999999998556, 0.2138811593074864 
1.4699999999998545, 0.20156196412968097 
1.4799999999998534, 0.20753170232366377 
1.4899999999998523, 0.21822093085968117 
1.4999999999998512, 0.22819524158734386 
1.5099999999998501, 0.23604701758833949 
1.519999999999849, 0.24181428030626836 
1.529999999999848, 0.24589762146780667 
1.5399999999998468, 0.2486986821493352 
1.5499999999998457, 0.25052993930326234 
1.5599999999998446, 0.25161004697844624 
1.5699999999998435, 0.25207918019273723 
1.5799999999998424, 0.25201387223674576 
1.5899999999998413, 0.25143578179045734 
1.5999999999998402, 0.2503128727863204 
1.6099999999998391, 0.24855159717826425 
1.619999999999838, 0.2459769226341084 
1.629999999999837, 0.24229348676394444 
1.6399999999998358, 0.23701451709510604 
1.6499999999998347, 0.22933252699570303 
1.6599999999998336, 0.2178817026029168 
1.6699999999998325, 0.20029807994221285 
1.6799999999998314, 0.17241761335698982 
1.6899999999998303, 0.12692117381508486 
1.6999999999998292, 0.05156718551813621 
1.709999999999828, -0.07078737633053946 
1.719999999999827, -0.25678268878928745 
1.729999999999826, -0.5079302350924823 
1.7399999999998248, -0.804653428664395 
1.7499999999998237, -1.1189671740218856 
1.7599999999998226, -1.412708786532253 
1.7699999999998215, -1.6394813731171578 
1.7799999999998204, -1.7822852843416823 
1.7899999999998193, -1.8608408317875949 
1.7999999999998182, -1.9017812734524577 
1.809999999999817, -1.9229954420000495 
1.819999999999816, -1.9340873100861196 
1.8299999999998149, -1.939874608846315 
1.8399999999998138, -1.9427611430917235 
1.8499999999998127, -1.9439712659251513 
1.8599999999998116, -1.9441572023148295 
1.8699999999998105, -1.9437072186640705 
1.8799999999998094, -1.9429112965096784 
1.8899999999998083, -1.9420359583813853 
1.8999999999998072, -1.941310107827329 
1.909999999999806, -1.9408514928399512 
1.919999999999805, -1.9406327643864234 
1.9299999999998039, -1.9405545824279844 
1.9399999999998028, -1.9405554052963252 
1.9499999999998017, -1.940641405084314 
1.9599999999998006, -1.9408193569122607 
1.9699999999997995, -1.9410187289648009 
1.9799999999997984, -1.9410806501224476 
1.9899999999997973, -1.9407952909440427 
1.9999999999997962, -1.9399170618869823 
2.0099999999998173, -1.938119102827489 
2.0199999999998384, -1.9348804842392224 
2.0299999999998595, -1.929282797275727 
2.0399999999998806, -1.9196392083466038 
2.0499999999999017, -1.9027956196134397 
2.059999999999923, -1.8728431246400266 
2.069999999999944, -1.819055935364238 
2.079999999999965, -1.7240754658501132 
2.089999999999986, -1.567818295157581 
2.100000000000007, -1.346185633176167 
2.1100000000000283, -1.0913150663657543 
2.1200000000000494, -0.8530561885460376 
2.1300000000000705, -0.6615558408368386 
2.1400000000000916, -0.5212079756851764 
2.1500000000001127, -0.4236686994174523 
2.160000000000134, -0.3577507151279437 
2.170000000000155, -0.31367208706030797 
2.180000000000176, -0.2841662662753128 
2.190000000000197, -0.2642581946129739 
2.2000000000002182, -0.2506750804096105 
2.2100000000002393, -0.24129726301738985 
2.2200000000002604, -0.23475384971909374 
2.2300000000002815, -0.23015256910498927 
2.2400000000003026, -0.2269068858860723 
2.2500000000003237, -0.22462716791046164 
2.260000000000345, -0.22305236830102604 
2.270000000000366, -0.2220069876274339 
2.280000000000387, -0.2213738322715719 
2.290000000000408, -0.22107675872209379 
2.3000000000004293, -0.2210698641634433 
2.3100000000004504, -0.22133097387648684 
2.3200000000004715, -0.22185813079647262 
2.3300000000004926, -0.22266832683992124 
2.3400000000005137, -0.22379806078745668 
2.3500000000005348, -0.2253055445469677 
2.360000000000556, -0.2272745567938952 
2.370000000000577, -0.229820079046248 
2.380000000000598, -0.23309591985604527 
2.390000000000619, -0.23730443584305883 
2.4000000000006403, -0.2427079521407521 
2.4100000000006614, -0.2496401003433388 
2.4200000000006825, -0.2585122616104175 
2.4300000000007036, -0.269804710045136 
2.4400000000007247, -0.2840238103540058 
2.450000000000746, -0.3015994114075513 
2.460000000000767, -0.32270294660173465 
2.470000000000788, -0.34700888750719744 
2.480000000000809, -0.3735085578593975 
2.49000000000083, -0.4005554760228666 
2.5000000000008513, -0.42624339962825103 
2.5100000000008724, -0.44896635137366 
2.5200000000008935, -0.4678277982566108 
2.5300000000009146, -0.48269206102452905 
2.5400000000009357, -0.4939562036451513 
2.550000000000957, -0.5022544132101746 
2.560000000000978, -0.5082398485608057 
2.570000000000999, -0.5124743275385267 
2.58000000000102, -0.515395549621011 
2.5900000000010412, -0.5173235773548084 
2.6000000000010624, -0.5184807349746742 
2.6100000000010835, -0.5190119996662713 
2.6200000000011046, -0.5190009336164516 
2.6300000000011257, -0.5184799867238428 
2.6400000000011468, -0.5174354217120172 
2.650000000001168, -0.5158075359896875 
2.660000000001189, -0.5134871117049203 
2.67000000000121, -0.5103096994172003 
2.680000000001231, -0.506050968201225 
2.6900000000012523, -0.5004293679119541 
2.7000000000012734, -0.4931264608714345 
2.7100000000012945, -0.48383802835258966 
2.7200000000013156, -0.4723642398891163 
2.7300000000013367, -0.4587268727454514 
2.740000000001358, -0.4432672723143854 
2.750000000001379, -0.426656234119174 
2.7600000000014, -0.40977554107735364 
2.770000000001421, -0.3935103981297083 
2.780000000001442, -0.37855484122731387 
2.7900000000014633, -0.36531493482879135 
2.8000000000014844, -0.3539209994966535 
2.8100000000015055, -0.3443035041988422 
2.8200000000015266, -0.3362803290850896 
2.8300000000015477, -0.32962546522880504 
2.840000000001569, -0.3241120290658052 
2.85000000000159, -0.31953431600956056 
2.860000000001611, -0.3157164051771486 
2.870000000001632, -0.31251348069198287 
2.8800000000016532, -0.30980982028118415 
2.8900000000016743, -0.30751562768931046 
2.9000000000016954, -0.3055637875520724 
2.9100000000017165, -0.30390705083724895 
2.9200000000017377, -0.3025159093677963 
2.9300000000017588, -0.30137733608628964 
2.94000000000178, -0.30049456954347664 
2.950000000001801, -0.29988817558135056 
2.960000000001822, -0.2995987282360989 
2.970000000001843, -0.2996916375143935 
2.9800000000018643, -0.30026495320517005 
2.9900000000018854, -0.30146145399842317 
3.0000000000019065, -0.30348708916100026 
3.0100000000019276, -0.3066390293398469 
3.0200000000019487, -0.3113484254563403 
3.03000000000197, -0.3182457400673303 
3.040000000001991, -0.32826036747214443 
3.050000000002012, -0.3427706676528044 
3.060000000002033, -0.36382247132427564 
3.070000000002054, -0.3944231866033121 
3.0800000000020753, -0.438866395731839 
3.0900000000020964, -0.5028865641043024 
3.1000000000021175, -0.5931041258900313 
3.1100000000021386, -0.7147770532316692 
3.1200000000021597, -0.8671166020981871 
3.130000000002181, -1.0381087268302174 
3.140000000002202, -1.2052814465480743 
3.150000000002223, -1.3464210146291595 
3.160000000002244, -1.4511691667196889 
3.1700000000022652, -1.5219270686221353 
3.1800000000022863, -1.5670168652992809 
3.1900000000023074, -1.5948554698732573 
3.2000000000023285, -1.6117671960566644 
3.2100000000023496, -1.6219280292410432 
3.2200000000023707, -1.6279328060101295 
3.230000000002392, -1.631350027478233 
3.240000000002413, -1.6331189062158193 
3.250000000002434, -1.6338054884128719 
3.260000000002455, -1.6337643481620054 
3.2700000000024763, -1.6332441227112986 
3.2800000000024974, -1.6324585882909546 
3.2900000000025185, -1.631626296614997 
3.3000000000025396, -1.630967850725316 
3.3100000000025607, -1.630657867838196 
3.3200000000025818, -1.6307650027220182 
3.330000000002603, -1.6312374163363044 
3.340000000002624, -1.631953360561126 
3.350000000002645, -1.632792223083883 
3.360000000002666, -1.6336702635127447 
3.3700000000026873, -1.6345295659292551 
3.3800000000027084, -1.6353087230160706 
3.3900000000027295, -1.6359257702040217 
3.4000000000027506, -1.6362800740252224 
3.4100000000027717, -1.6362602359261784 
3.420000000002793, -1.635744845217564 
3.430000000002814, -1.6345931309708854 
3.440000000002835, -1.6326294725680455 
3.450000000002856, -1.6296262102662549 
3.460000000002877, -1.6252868901291124 
3.4700000000028983, -1.619229944491858 
3.4800000000029194, -1.610971860194695 
3.4900000000029405, -1.5999101155572653 
3.5000000000029616, -1.5853122043158772 
3.5100000000029827, -1.5663328244264978 
3.520000000003004, -1.5421123736673097 
3.530000000003025, -1.5120519124471212 
3.540000000003046, -1.4763650576660832 
3.550000000003067, -1.4368412820714402 
3.5600000000030882, -1.3972976447199572 
3.5700000000031094, -1.3628175905478763 
3.5800000000031305, -1.3375916107560506 
3.5900000000031516, -1.3228766164532488 
3.6000000000031727, -1.3168767234279166 
3.6100000000031938, -1.3163684634505153 
3.620000000003215, -1.318413181518476 
3.630000000003236, -1.3211070833644618 
3.640000000003257, -1.3235055265266173 
3.650000000003278, -1.3252599912457732 
3.6600000000032993, -1.3263008359858912 
3.6700000000033204, -1.3266449623652954 
3.6800000000033415, -1.3262968765911618 
3.6900000000033626, -1.3251963156469018 
3.7000000000033837, -1.3231784961500503 
3.710000000003405, -1.3199253763081094 
3.720000000003426, -1.3148936700566476 
3.730000000003447, -1.3072136193960524 
3.740000000003468, -1.2955768583061211 
3.750000000003489, -1.2782036758922743 
3.7600000000035103, -1.2531459400476135 
3.7700000000035314, -1.2194339618778793 
3.7800000000035525, -1.179642694010251 
3.7900000000035736, -1.1437379366107328 
3.8000000000035947, -1.132650023032334 
3.810000000003616, -1.1794796385175186 
3.820000000003637, -1.3241110997755345 
3.830000000003658, -1.5819377590007822 
3.840000000003679, -1.8801081732809835 
3.8500000000037002, -2.1001962716649953 
3.8600000000037213, -2.2183235186909793 
3.8700000000037424, -2.274426649932789 
3.8800000000037635, -2.3009131710191686 
3.8900000000037847, -2.3137492581612458 
3.9000000000038058, -2.320035905749577 
3.910000000003827, -2.3229634918766298 
3.920000000003848, -2.324023927323934 
3.930000000003869, -2.3239519802161848 
3.94000000000389, -2.323141984882515 
3.9500000000039113, -2.321833061984789 
3.9600000000039324, -2.32016441096062 
3.9700000000039535, -2.3181745247101833 
3.9800000000039746, -2.3158692774939516 
3.9900000000039957, -2.313423134623655 
4.000000000004016, -2.3113257425113023 
4.010000000003993, -2.3101231851121917 
4.02000000000397, -2.3098710234641686 
4.030000000003946, -2.3100556867348048 
4.040000000003923, -2.3100521731829993 
4.0500000000039, -2.309391060061687 
4.0600000000038765, -2.3076314669640046 
4.070000000003853, -2.3040632708944173 
4.08000000000383, -2.297361781886065 
4.090000000003807, -2.285552659353527 
4.100000000003783, -2.2684537849833992 
4.11000000000376, -2.2572114346085983 
4.120000000003737, -2.278087532193675 
4.130000000003713, -2.3336606841274237 
4.14000000000369, -2.3900454007610423 
4.150000000003667, -2.4281454767682913 
4.1600000000036434, -2.4503688835070547 
4.17000000000362, -2.462949512371723 
4.180000000003597, -2.470056221686168 
4.1900000000035735, -2.473948805172918 
4.20000000000355, -2.475798251074104 
4.210000000003527, -2.476194559075528 
4.220000000003504, -2.475394891205522 
4.23000000000348, -2.4734269353387424 
4.240000000003457, -2.470104254109718 
4.250000000003434, -2.46497098651264 
4.26000000000341, -2.4572185431463534 
4.270000000003387, -2.4458285137243365 
4.280000000003364, -2.4307236273928683 
4.2900000000033405, -2.4154305435445123 
4.300000000003317, -2.4068148175272355 
4.310000000003294, -2.406910564254869 
4.320000000003271, -2.41075294454414 
4.330000000003247, -2.414126705169419 
4.340000000003224, -2.4159537148927233 
4.350000000003201, -2.416408999072185 
4.360000000003177, -2.4157763545222832 
4.370000000003154, -2.414274639596146 
4.380000000003131, -2.412335668662237 
4.390000000003107, -2.4110517005906487 
4.400000000003084, -2.4119377542804443 
4.410000000003061, -2.415356403304289 
4.4200000000030375, -2.419887021721703 
4.430000000003014, -2.4239693894547285 
4.440000000002991, -2.4270074072113332 
4.450000000002968, -2.429042483704775 
4.460000000002944, -2.4302267359544443 
4.470000000002921, -2.4306084147772666 
4.480000000002898, -2.4300990563587015 
4.490000000002874, -2.4284424644277265 
4.500000000002851, -2.4251006417105363 
4.510000000002828, -2.4189893781896674 
4.520000000002804, -2.4078970653564062 
4.530000000002781, -2.3871764417793933 
4.540000000002758, -2.346914168121953 
4.5500000000027345, -2.2675072947405286 
4.560000000002711, -2.123742892200885 
4.570000000002688, -1.9317864457104166 
4.580000000002665, -1.79115361977252 
4.590000000002641, -1.7640275386153477 
4.600000000002618, -1.8041914258027765 
4.610000000002595, -1.851446471014775 
4.620000000002571, -1.883948785342696 
4.630000000002548, -1.9026523265801807 
4.640000000002525, -1.912743519229929 
4.6500000000025015, -1.918000618839219 
4.660000000002478, -1.9205547693244458 
4.670000000002455, -1.921524407750807 
4.6800000000024315, -1.9214979714760911 
4.690000000002408, -1.9208277849692232 
4.700000000002385, -1.91982565645939 
4.710000000002362, -1.9188937569562257 
4.720000000002338, -1.9185253922134422 
4.730000000002315, -1.9190984300550575 
4.740000000002292, -1.920610535276297 
4.750000000002268, -1.9226845648848796 
4.760000000002245, -1.9248585951974653 
4.770000000002222, -1.926828729238422 
4.7800000000021985, -1.9284719085420774 
4.790000000002175, -1.9297485905512481 
4.800000000002152, -1.9306188074586526 
4.810000000002129, -1.9310120875452297 
4.820000000002105, -1.930824438070018 
4.830000000002082, -1.9299096822232158 
4.840000000002059, -1.9280533698723943 
4.850000000002035, -1.9249292138486906 
4.860000000002012, -1.920035330919041 
4.870000000001989, -1.9125992634086584 
4.880000000001965, -1.9014329249548414 
4.890000000001942, -1.8847195509892953 
4.900000000001919, -1.8597569794278874 
4.9100000000018955, -1.8228668777951587 
4.920000000001872, -1.7702000664897224 
4.930000000001849, -1.700867955258598 
