t, s[1].omega / s[0].omega 
0, -1.3999964059766181 
0.009999999999999995, -1.3994175108446072 
0.019999999999999934, -1.3984042307818874 
0.029999999999999874, -1.3969575837138155 
0.04000000000000012, -1.3950807611753997 
0.050000000000000405, -1.3927814138078343 
0.06000000000000069, -1.390074493354828 
0.07000000000000098, -1.3869857318705494 
0.08000000000000126, -1.3835571609219737 
0.09000000000000155, -1.3798582957075303 
0.10000000000000184, -1.3760065767409488 
0.11000000000000212, -1.37219230440491 
0.12000000000000241, -1.3686852865553814 
0.130000000000002, -1.3657887494697152 
0.1400000000000009, -1.3637318973354002 
0.1499999999999998, -1.3625582453912894 
0.1599999999999987, -1.3621000783013928 
0.1699999999999976, -1.3620615561023925 
0.1799999999999965, -1.3621351163841795 
0.1899999999999954, -1.362067946101109 
0.1999999999999943, -1.3616601323284416 
0.2099999999999932, -1.3607206418278337 
0.2199999999999921, -1.3590052877114476 
0.229999999999991, -1.3561415561613617 
0.2399999999999899, -1.351531270775712 
0.2499999999999888, -1.3442188665220711 
0.2599999999999877, -1.332723807338734 
0.2699999999999866, -1.3148719878215478 
0.2799999999999855, -1.2877412064566984 
0.2899999999999844, -1.247960711043618 
0.2999999999999833, -1.1926861118718246 
0.3099999999999822, -1.12134011663488 
0.3199999999999811, -1.0373782073282145 
0.32999999999998, -0.9484110725985133 
0.3399999999999789, -0.8636848391293581 
0.3499999999999778, -0.7904653239888185 
0.35999999999997667, -0.7320527940216766 
0.36999999999997557, -0.6882190666162522 
0.37999999999997447, -0.6567828141225074 
0.38999999999997337, -0.6349964755186791 
0.39999999999997227, -0.6203149772170058 
0.40999999999997117, -0.6106757208254665 
0.41999999999997006, -0.6045212785514664 
0.42999999999996896, -0.6007231122119835 
0.43999999999996786, -0.5984844880378327 
0.44999999999996676, -0.5972529426781604 
0.45999999999996566, -0.596650429292445 
0.46999999999996456, -0.5964206965160099 
0.47999999999996346, -0.5963909070563359 
0.48999999999996235, -0.5964442680383688 
0.49999999999996125, -0.5965009559995029 
0.5099999999999602, -0.5965052850313037 
0.519999999999959, -0.5964176766955982 
0.529999999999958, -0.5962104498704337 
0.5399999999999568, -0.5958666750753723 
0.5499999999999557, -0.5953812565243785 
0.5599999999999546, -0.5947630299040929 
0.5699999999999535, -0.5940362183679357 
0.5799999999999524, -0.5932395212490769 
0.5899999999999513, -0.5924218217728572 
0.5999999999999502, -0.5916348927220041 
0.6099999999999491, -0.5909248210829249 
0.619999999999948, -0.5903243552872829 
0.6299999999999469, -0.589847863375532 
0.6399999999999458, -0.589489661686214 
0.6499999999999447, -0.5892257493468204 
0.6599999999999436, -0.5890185484933524 
0.6699999999999425, -0.5888238083980317 
0.6799999999999414, -0.5885982747123897 
0.6899999999999403, -0.5883063962888386 
0.6999999999999392, -0.5879246821265366 
0.7099999999999381, -0.58744331417146 
0.719999999999937, -0.5868657278424095 
0.7299999999999359, -0.5862075195815057 
0.7399999999999348, -0.585496081099277 
0.7499999999999337, -0.5847720487701291 
0.7599999999999326, -0.5840933380141696 
0.7699999999999315, -0.5835424076528133 
0.7799999999999304, -0.5832375030668628 
0.7899999999999293, -0.5833489094697962 
0.7999999999999282, -0.5841216397089963 
0.8099999999999271, -0.5859064037757937 
0.819999999999926, -0.5892009947395176 
0.8299999999999249, -0.5947039439758186 
0.8399999999999238, -0.6033803500084794 
0.8499999999999227, -0.6165336754739104 
0.8599999999999216, -0.6358621143257052 
0.8699999999999205, -0.6634462994740241 
0.8799999999999194, -0.7015617714519621 
0.8899999999999183, -0.7521550109906063 
0.8999999999999172, -0.8158595478801187 
0.9099999999999161, -0.8907401219756701 
0.919999999999915, -0.9715710252641812 
0.9299999999999139, -1.050744312747419 
0.9399999999999128, -1.1208703230342218 
0.9499999999999117, -1.1773932385056092 
0.9599999999999106, -1.2194230766249132 
0.9699999999999095, -1.248745708713749 
0.9799999999999084, -1.2682526673617585 
0.9899999999999073, -1.2807847453259595 
0.9999999999999062, -1.2886128712260236 
1.0099999999999052, -1.2933559968047783 
1.019999999999904, -1.2960911440792149 
1.029999999999903, -1.2975052856821119 
1.039999999999902, -1.298027528128828 
1.0499999999999008, -1.2979294588215613 
1.0599999999998997, -1.2974013897987828 
1.0699999999998986, -1.296616223227362 
1.0799999999998975, -1.2957867160215646 
1.0899999999998964, -1.2952061359771998 
1.0999999999998953, -1.2952419371821056 
1.1099999999998942, -1.296252079520725 
1.119999999999893, -1.298444320069111 
1.129999999999892, -1.3017712405855169 
1.1399999999998909, -1.3059493691966184 
1.1499999999998898, -1.3105860816154575 
1.1599999999998887, -1.3153154229359838 
1.1699999999998876, -1.3198693070798806 
1.1799999999998865, -1.3240823744745622 
1.1899999999998854, -1.3278653336866655 
1.1999999999998843, -1.3311758080632858 
1.2099999999998832, -1.3339977099525908 
1.219999999999882, -1.3363289335053512 
1.229999999999881, -1.3381743336653902 
1.2399999999998799, -1.3395418973107138 
1.2499999999998788, -1.3404412075380008 
1.2599999999998777, -1.3408837005501808 
1.2699999999998766, -1.340884073736366 
1.2799999999998755, -1.3404620783347407 
1.2899999999998744, -1.3396441666961711 
1.2999999999998733, -1.3384649381821943 
1.3099999999998722, -1.3369685153403612 
1.319999999999871, -1.3352095054388036 
1.32999999999987, -1.3332525426169488 
1.3399999999998689, -1.331169945206564 
1.3499999999998678, -1.3290394657971074 
1.3599999999998666, -1.326946024268347 
1.3699999999998655, -1.3249879258745083 
1.3799999999998644, -1.323278958450243 
1.3899999999998633, -1.321932278931638 
1.3999999999998622, -1.3210223127356184 
1.4099999999998611, -1.320544243405233 
1.41999999999986, -1.3204021223549123 
1.429999999999859, -1.320436201969736 
1.4399999999998578, -1.320467203107008 
1.4499999999998567, -1.3203265084945082 
1.4599999999998556, -1.3198594656849094 
1.4699999999998545, -1.3189081132017422 
1.4799999999998534, -1.3172851653484032 
1.4899999999998523, -1.3147482368881047 
1.4999999999998512, -1.3109806235248513 
1.5099999999998501, -1.305585075408935 
1.519999999999849, -1.298097587711244 
1.529999999999848, -1.2880256269777564 
1.5399999999998468, -1.274908299016902 
1.5499999999998457, -1.2583891524734516 
1.5599999999998446, -1.2382930217374095 
1.5699999999998435, -1.2147077591096451 
1.5799999999998424, -1.1880783045247914 
1.5899999999998413, -1.159306124497656 
1.5999999999998402, -1.1298044428756109 
1.6099999999998391, -1.101413734311173 
1.619999999999838, -1.0760958270683476 
1.629999999999837, -1.0554494597280428 
1.6399999999998358, -1.0402614772873926 
1.6499999999998347, -1.0303488513644872 
1.6599999999998336, -1.0247718264271435 
1.6699999999998325, -1.0222599810518225 
1.6799999999998314, -1.0216067240522209 
1.6899999999998303, -1.0218855705411745 
1.6999999999998292, -1.0224878763404395 
1.709999999999828, -1.023058832801952 
1.719999999999827, -1.0234059440879917 
1.729999999999826, -1.0234192995225095 
1.7399999999998248, -1.023013249265087 
1.7499999999998237, -1.0220845738969413 
1.7599999999998226, -1.020478520837143 
1.7699999999998215, -1.017955405809284 
1.7799999999998204, -1.0141543006246696 
1.7899999999998193, -1.0085572508625251 
1.7999999999998182, -1.0004695879641614 
1.809999999999817, -0.9890490498519111 
1.819999999999816, -0.9734286820078398 
1.8299999999998149, -0.9529601221659848 
1.8399999999998138, -0.9275293426850746 
1.8499999999998127, -0.89779345998179 
1.8599999999998116, -0.8651626436147921 
1.8699999999998105, -0.8314870131775669 
1.8799999999998094, -0.7986070130229941 
1.8899999999998083, -0.767992127700428 
1.8999999999998072, -0.7405858641412549 
1.909999999999806, -0.716831770760402 
1.919999999999805, -0.696790981482433 
1.9299999999998039, -0.6802747475773526 
1.9399999999998028, -0.6669535419692666 
1.9499999999998017, -0.6564336153902935 
1.9599999999998006, -0.6483057050329661 
1.9699999999997995, -0.6421740630265835 
1.9799999999997984, -0.6376728860833514 
1.9899999999997973, -0.6344749965434396 
1.9999999999997962, -0.6322956748880424 
2.0099999999998173, -0.6308932536494302 
2.0199999999998384, -0.6300673965424385 
2.0299999999998595, -0.629655711807774 
2.0399999999998806, -0.6295292871374408 
2.0499999999999017, -0.6295877373941239 
2.059999999999923, -0.6297543426514502 
2.069999999999944, -0.6299717910862379 
2.079999999999965, -0.6301989197354568 
2.089999999999986, -0.6304086536486986 
2.100000000000007, -0.6305870616701901 
2.1100000000000283, -0.6307330820950312 
2.1200000000000494, -0.6308581117274729 
2.1300000000000705, -0.6309844851705123 
2.1400000000000916, -0.6311420928994838 
2.1500000000001127, -0.6313630138878397 
2.160000000000134, -0.6316748129869756 
2.170000000000155, -0.6320937119153375 
2.180000000000176, -0.6326190271051075 
2.190000000000197, -0.6332301945060725 
2.2000000000002182, -0.6338874726749332 
2.2100000000002393, -0.6345368531755929 
2.2200000000002604, -0.6351185669332149 
2.2300000000002815, -0.6355771116118627 
2.2400000000003026, -0.6358698558393433 
2.2500000000003237, -0.6359718395570824 
2.260000000000345, -0.6358761925930478 
2.270000000000366, -0.6355914767152866 
2.280000000000387, -0.6351381757816434 
2.290000000000408, -0.6345463893266502 
2.3000000000004293, -0.633856110657332 
2.3100000000004504, -0.633120909802344 
2.3200000000004715, -0.6324156715009307 
2.3300000000004926, -0.6318492357628381 
2.3400000000005137, -0.6315832125421669 
2.3500000000005348, -0.631858747416547 
2.360000000000556, -0.6330334555967208 
2.370000000000577, -0.6356308775004357 
2.380000000000598, -0.6404040842377225 
2.390000000000619, -0.6484121283755772 
2.4000000000006403, -0.6610998754329648 
2.4100000000006614, -0.6803525367611059 
2.4200000000006825, -0.7084576530940969 
2.4300000000007036, -0.7478469149860433 
2.4400000000007247, -0.8004418998997723 
2.450000000000746, -0.8665162703695457 
2.460000000000767, -0.9434067619878901 
2.470000000000788, -1.0250679979075434 
2.480000000000809, -1.1034971874867037 
2.49000000000083, -1.171617426646532 
2.5000000000008513, -1.225618895118056 
2.5100000000008724, -1.2652828571857784 
2.5200000000008935, -1.292729321455658 
2.5300000000009146, -1.3108924823604946 
2.5400000000009357, -1.3225153747245502 
2.550000000000957, -1.3297429855152063 
2.560000000000978, -1.334089092897502 
2.570000000000999, -1.3365565827243968 
2.58000000000102, -1.337784952195679 
2.5900000000010412, -1.3381758920393652 
2.6000000000010624, -1.3379891656433673 
2.6100000000010835, -1.3374168666050392 
2.6200000000011046, -1.3366453395538818 
2.6300000000011257, -1.3359046774867664 
2.6400000000011468, -1.3354882300744524 
2.650000000001168, -1.335713266600032 
2.660000000001189, -1.3368182285043224 
2.67000000000121, -1.3388545678160086 
2.680000000001231, -1.341661570921129 
2.6900000000012523, -1.3449474361820057 
2.7000000000012734, -1.348407812659913 
2.7100000000012945, -1.3518032460105072 
2.7200000000013156, -1.3549759156526107 
2.7300000000013367, -1.3578316033470812 
2.740000000001358, -1.3603160555299167 
2.750000000001379, -1.3623985838016222 
2.7600000000014, -1.3640630384027062 
2.770000000001421, -1.365302657405577 
2.780000000001442, -1.3661164752728294 
2.7900000000014633, -1.366506638702485 
2.8000000000014844, -1.366476720935943 
2.8100000000015055, -1.366031187821602 
2.8200000000015266, -1.3651759820883793 
2.8300000000015477, -1.3639200071430393 
2.840000000001569, -1.3622772171203987 
2.85000000000159, -1.360269000772558 
2.860000000001611, -1.3579264709507248 
2.870000000001632, -1.3552923757519206 
2.8800000000016532, -1.3524233609740703 
2.8900000000016743, -1.349395284420694 
2.9000000000016954, -1.3463145112852544 
2.9100000000017165, -1.3433319196766509 
2.9200000000017377, -1.340643860765123 
2.9300000000017588, -1.3384581257963861 
2.94000000000178, -1.3369220248100304 
2.950000000001801, -1.3360506865746475 
2.960000000001822, -1.3357113928169861 
2.970000000001843, -1.3356775299115127 
2.9800000000018643, -1.3357060959552753 
2.9900000000018854, -1.3355848844496843 
3.0000000000019065, -1.3351334472419103 
3.0100000000019276, -1.3341723508514538 
3.0200000000019487, -1.3324779922746077 
3.03000000000197, -1.329730543950386 
3.040000000001991, -1.3254561538960128 
3.050000000002012, -1.3189665485689805 
3.060000000002033, -1.3093098910107765 
3.070000000002054, -1.2952641649290868 
3.0800000000020753, -1.2754214552419885 
3.0900000000020964, -1.2484137308653191 
3.1000000000021175, -1.213300788686843 
3.1100000000021386, -1.1700689808103786 
3.1200000000021597, -1.1200811442923129 
3.130000000002181, -1.0662156798542328 
3.140000000002202, -1.0124500997869685 
3.150000000002223, -0.9629052066341957 
3.160000000002244, -0.9207607975089158 
3.1700000000022652, -0.8875922951818495 
3.1800000000022863, -0.863370893639972 
3.1900000000023074, -0.8469413964406235 
3.2000000000023285, -0.8366260970810809 
3.2100000000023496, -0.8307066653966046 
3.2200000000023707, -0.8277043663583888 
3.230000000002392, -0.8264852682005762 
3.240000000002413, -0.8262526713631262 
3.250000000002434, -0.8264850558766219 
3.260000000002455, -0.8268598321843569 
3.2700000000024763, -0.827184518891015 
3.2800000000024974, -0.8273432229327023 
3.2900000000025185, -0.8272584742506951 
3.3000000000025396, -0.8268653192610819 
3.3100000000025607, -0.8260943148136917 
3.3200000000025818, -0.8248612916385307 
3.330000000002603, -0.8230636302870494 
3.340000000002624, -0.8205846635068744 
3.350000000002645, -0.8173086776113514 
3.360000000002666, -0.8131472447575918 
3.3700000000026873, -0.8080721323793972 
3.3800000000027084, -0.8021426430894957 
3.3900000000027295, -0.7955121625306701 
3.4000000000027506, -0.7884060655144604 
3.4100000000027717, -0.781078398946527 
3.420000000002793, -0.7737660698548176 
3.430000000002814, -0.7666576671254901 
3.440000000002835, -0.7598830078662385 
3.450000000002856, -0.7535191026923695 
3.460000000002877, -0.7476042195658054 
3.4700000000028983, -0.7421530201259073 
3.4800000000029194, -0.7371688483044193 
3.4900000000029405, -0.7326518621422812 
3.5000000000029616, -0.7286032072434233 
3.5100000000029827, -0.7250260672830295 
3.520000000003004, -0.7219245734812207 
3.530000000003025, -0.7193014865827221 
3.540000000003046, -0.7171554322827451 
3.550000000003067, -0.7154783352692347 
3.5600000000030882, -0.7142535639150979 
3.5700000000031094, -0.7134551468461522 
3.5800000000031305, -0.7130482351750013 
3.5900000000031516, -0.7129907653540832 
3.6000000000031727, -0.7132360654944601 
3.6100000000031938, -0.7137360001148655 
3.620000000003215, -0.7144442096704592 
3.630000000003236, -0.7153190730039503 
3.640000000003257, -0.716326150982056 
3.650000000003278, -0.7174399747143779 
3.6600000000032993, -0.7186450520303581 
3.6700000000033204, -0.7199358719209831 
3.6800000000033415, -0.7213155630484865 
3.6900000000033626, -0.7227928428393324 
3.7000000000033837, -0.7243770960010091 
3.710000000003405, -0.7260718730067283 
3.720000000003426, -0.7278677314661095 
3.730000000003447, -0.7297360361376398 
3.740000000003468, -0.7316258817735387 
3.750000000003489, -0.7334662821147991 
3.7600000000035103, -0.7351745997260275 
3.7700000000035314, -0.7366697578703643 
3.7800000000035525, -0.7378861729467368 
3.7900000000035736, -0.7387835251368157 
3.8000000000035947, -0.7393494487173329 
3.810000000003616, -0.7395957224787041 
3.820000000003637, -0.7395511765482127 
3.830000000003658, -0.7392550192296393 
3.840000000003679, -0.738753189023794 
3.8500000000037002, -0.738098952897628 
3.8600000000037213, -0.7373581242566369 
3.8700000000037424, -0.736619033251131 
3.8800000000037635, -0.7360074008772018 
3.8900000000037847, -0.7357061219690607 
3.9000000000038058, -0.7359793003521305 
3.910000000003827, -0.7371984826572421 
3.920000000003848, -0.7398668728552162 
3.930000000003869, -0.7446345776510889 
3.94000000000389, -0.752295040127938 
3.9500000000039113, -0.763750322479329 
3.9600000000039324, -0.7799317007516785 
3.9700000000039535, -0.8016641504184138 
3.9800000000039746, -0.8294728095028795 
3.9900000000039957, -0.8633517129326024 
4.000000000004016, -0.9025510045588321 
4.010000000003993, -0.9454753683868161 
4.02000000000397, -0.9897923135887026 
4.030000000003946, -1.032792089090549 
4.040000000003923, -1.071925410614872 
4.0500000000039, -1.105332140904793 
4.0600000000038765, -1.1321502034606847 
4.070000000003853, -1.152497299139711 
4.08000000000383, -1.1671861440371747 
4.090000000003807, -1.1773455156149961 
4.100000000003783, -1.1841077403113274 
4.11000000000376, -1.1884319989528223 
4.120000000003737, -1.1910486765599073 
4.130000000003713, -1.1924760238107828 
4.14000000000369, -1.1930660092502057 
4.150000000003667, -1.1930551287224564 
4.1600000000036434, -1.192612005642665 
4.17000000000362, -1.1918825116545972 
4.180000000003597, -1.1910349758151422 
4.1900000000035735, -1.190302495921899 
4.20000000000355, -1.190006549263762 
4.210000000003527, -1.19053378687146 
4.220000000003504, -1.1922467172740328 
4.23000000000348, -1.1953540459930052 
4.240000000003457, -1.199817349433275 
4.250000000003434, -1.2053618854908823 
4.26000000000341, -1.211582243026545 
4.270000000003387, -1.2180689722747386 
4.280000000003364, -1.224490965911478 
4.2900000000033405, -1.230619069137811 
4.300000000003317, -1.236311897853139 
4.310000000003294, -1.2414892973901912 
4.320000000003271, -1.2461082251400006 
4.330000000003247, -1.2501457833580272 
4.340000000003224, -1.2535893775581988 
4.350000000003201, -1.2564327828426698 
4.360000000003177, -1.258676654376779 
4.370000000003154, -1.2603315400084194 
4.380000000003131, -1.2614209994073218 
4.390000000003107, -1.261982793855481 
4.400000000003084, -1.262067545051801 
4.410000000003061, -1.2617360188176618 
4.4200000000030375, -1.2610570507808707 
4.430000000003014, -1.2601073983864919 
4.440000000002991, -1.2589727708292064 
4.450000000002968, -1.257747155775491 
4.460000000002944, -1.256527219047506 
4.470000000002921, -1.2554015593322472 
4.480000000002898, -1.2544396580659638 
4.490000000002874, -1.253687310446453 
4.500000000002851, -1.2531702201500872 
4.510000000002828, -1.252899394865807 
4.520000000002804, -1.2528701955094095 
4.530000000002781, -1.2530543353381671 
4.540000000002758, -1.2533929744117276 
4.5500000000027345, -1.2537993735692594 
4.560000000002711, -1.254171091189752 
4.570000000002688, -1.2544040161286854 
4.580000000002665, -1.2544009174261594 
4.590000000002641, -1.254073084033198 
4.600000000002618, -1.2533384401647973 
4.610000000002595, -1.2521203753920507 
4.620000000002571, -1.2503495759966656 
4.630000000002548, -1.2479684361150463 
4.640000000002525, -1.2449356623980383 
4.6500000000025015, -1.2412284072089326 
4.660000000002478, -1.2368408084059883 
4.670000000002455, -1.231780175134304 
4.6800000000024315, -1.2260637255793654 
4.690000000002408, -1.2197190074438937 
4.700000000002385, -1.2127903932190784 
4.710000000002362, -1.2053531537871995 
4.720000000002338, -1.197535396930866 
4.730000000002315, -1.189544840415797 
4.740000000002292, -1.1816897878306474 
4.750000000002268, -1.1743731801265416 
4.760000000002245, -1.1680354467730625 
4.770000000002222, -1.1630426616115896 
4.7800000000021985, -1.159562359235342 
4.790000000002175, -1.1575019252335026 
4.800000000002152, -1.1565544914518082 
4.810000000002129, -1.1563198823091494 
4.820000000002105, -1.1564222286417711 
4.830000000002082, -1.156570386998043 
4.840000000002059, -1.1565592927374462 
4.850000000002035, -1.1562381770389167 
4.860000000002012, -1.1554691420893648 
4.870000000001989, -1.154086533033647 
4.880000000001965, -1.1518581600834492 
4.890000000001942, -1.1484470820533128 
4.900000000001919, -1.1433765337883866 
4.9100000000018955, -1.136009781704929 
4.920000000001872, -1.125568985254893 
4.930000000001849, -1.1112243989049118 
