t, s[1].omega / s[0].omega 
0, -0.6499977108866177 
0.009999999999999995, -0.6497713192762902 
0.019999999999999934, -0.6495426734062281 
0.029999999999999874, -0.6492937436765517 
0.04000000000000012, -0.6490042750939959 
0.050000000000000405, -0.648660346720984 
0.06000000000000069, -0.6482591279662887 
0.07000000000000098, -0.6478096621229502 
0.08000000000000126, -0.6473323127547547 
0.09000000000000155, -0.6468597835615748 
0.10000000000000184, -0.6464413756538218 
0.11000000000000212, -0.6461508831347017 
0.12000000000000241, -0.646097698702045 
0.130000000000002, -0.6464399945281024 
0.1400000000000009, -0.6473978610108861 
0.1499999999999998, -0.6492626439897944 
0.1599999999999987, -0.6523956431450987 
0.1699999999999976, -0.6572033607568433 
0.1799999999999965, -0.664066976254938 
0.1899999999999954, -0.6731975135328654 
0.1999999999999943, -0.6844125451331653 
0.2099999999999932, -0.6969284482514604 
0.2199999999999921, -0.7094012214003529 
0.229999999999991, -0.7203880195858258 
0.2399999999999899, -0.7289750234289669 
0.2499999999999888, -0.7350378475484142 
0.2599999999999877, -0.7390000505698587 
0.2699999999999866, -0.7414430996808659 
0.2799999999999855, -0.7428662534153184 
0.2899999999999844, -0.7436193642944355 
0.2999999999999833, -0.7439196293091374 
0.3099999999999822, -0.7438860181368794 
0.3199999999999811, -0.7435652055010509 
0.32999999999998, -0.7429429633585423 
0.3399999999999789, -0.7419402567641704 
0.3499999999999778, -0.7403927119563224 
0.35999999999997667, -0.7380114150394245 
0.36999999999997557, -0.7343290165612352 
0.37999999999997447, -0.7286620309412101 
0.38999999999997337, -0.7201843081222374 
0.39999999999997227, -0.708267642357111 
0.40999999999997117, -0.6931023016741414 
0.41999999999997006, -0.6761195653227383 
0.42999999999996896, -0.659545780336049 
0.43999999999996786, -0.6453063015262066 
0.44999999999996676, -0.6343001244794989 
0.45999999999996566, -0.6264711076834002 
0.46999999999996456, -0.6212582189052355 
0.47999999999996346, -0.6179800591785304 
0.48999999999996235, -0.6160320025962946 
0.49999999999996125, -0.6149478637003488 
0.5099999999999602, -0.6143960474946847 
0.519999999999959, -0.6141529555949288 
0.529999999999958, -0.6140733293197089 
0.5399999999999568, -0.614064893836441 
0.5499999999999557, -0.614069239858272 
0.5599999999999546, -0.6140488407703961 
0.5699999999999535, -0.6139795499539035 
0.5799999999999524, -0.6138477767063791 
0.5899999999999513, -0.6136510198792577 
0.5999999999999502, -0.6133992513529601 
0.6099999999999491, -0.6131136713652983 
0.619999999999948, -0.6128204653426091 
0.6299999999999469, -0.6125408656031837 
0.6399999999999458, -0.6122823564256146 
0.6499999999999447, -0.6120359510922959 
0.6599999999999436, -0.6117809869687715 
0.6699999999999425, -0.6114945120270922 
0.6799999999999414, -0.611160123570275 
0.6899999999999403, -0.6107726115072104 
0.6999999999999392, -0.6103384809116859 
0.7099999999999381, -0.6098751359493322 
0.719999999999937, -0.609411736971331 
0.7299999999999359, -0.6089936312863623 
0.7399999999999348, -0.6086913093030305 
0.7499999999999337, -0.6086144534657675 
0.7599999999999326, -0.6089313955596778 
0.7699999999999315, -0.6098934465413921 
0.7799999999999304, -0.6118610002888046 
0.7899999999999293, -0.615321877694788 
0.7999999999999282, -0.6208783257089184 
0.8099999999999271, -0.6291549313443799 
0.819999999999926, -0.6405597009739769 
0.8299999999999249, -0.6548797724736125 
0.8399999999999238, -0.6709138007293531 
0.8499999999999227, -0.6866197213747481 
0.8599999999999216, -0.7000013076914757 
0.8699999999999205, -0.7100548206440864 
0.8799999999999194, -0.7169091420874455 
0.8899999999999183, -0.7212860785770594 
0.8999999999999172, -0.7239629367796511 
0.9099999999999161, -0.7255369929787185 
0.919999999999915, -0.7264018354471447 
0.9299999999999139, -0.7267947280025902 
0.9399999999999128, -0.7268457062736021 
0.9499999999999117, -0.7266097539200869 
0.9599999999999106, -0.7260813544940614 
0.9699999999999095, -0.7251936094722142 
0.9799999999999084, -0.723803216395557 
0.9899999999999073, -0.7216638318985737 
0.9999999999999062, -0.7184001499163372 
1.0099999999999052, -0.7135212779666495 
1.019999999999904, -0.7065465590883563 
1.029999999999903, -0.6972928603375654 
1.039999999999902, -0.6861929256456262 
1.0499999999999008, -0.6743141874458811 
1.0599999999998997, -0.6629379102388029 
1.0699999999998986, -0.6530381350369117 
1.0799999999998975, -0.6450581549633652 
1.0899999999998964, -0.639000657270933 
1.0999999999998953, -0.6346242684485001 
1.1099999999998942, -0.6316018728599487 
1.119999999999893, -0.6296098557596996 
1.129999999999892, -0.6283671539395356 
1.1399999999998909, -0.6276469353033358 
1.1499999999998898, -0.6272752770769056 
1.1599999999998887, -0.6271241834113502 
1.1699999999998876, -0.6271026104374376 
1.1799999999998865, -0.6271475669952247 
1.1899999999998854, -0.6272166194044233 
1.1999999999998843, -0.6272826259592418 
1.2099999999998832, -0.6273309407177299 
1.219999999999882, -0.6273584220415087 
1.229999999999881, -0.6273724289963918 
1.2399999999998799, -0.6273873975580644 
1.2499999999998788, -0.6274177636742707 
1.2599999999998777, -0.6274689545193788 
1.2699999999998766, -0.6275308393201924 
1.2799999999998755, -0.6275779423112845 
1.2899999999998744, -0.6275772421889452 
1.2999999999998733, -0.6274995299465271 
1.3099999999998722, -0.627328038302022 
1.319999999999871, -0.6270607825065257 
1.32999999999987, -0.6267080977600527 
1.3399999999998689, -0.6262895814017047 
1.3499999999998678, -0.6258340307482203 
1.3599999999998666, -0.625384311277888 
1.3699999999998655, -0.6250082638383503 
1.3799999999998644, -0.6248168483647105 
1.3899999999998633, -0.6249908604367255 
1.3999999999998622, -0.6258165330028869 
1.4099999999998611, -0.627726217079105 
1.41999999999986, -0.6313294388056633 
1.429999999999859, -0.6373961554049632 
1.4399999999998578, -0.6467165565058737 
1.4499999999998567, -0.6597425786004448 
1.4599999999998556, -0.6760310070367563 
1.4699999999998545, -0.6938709945924526 
1.4799999999998534, -0.7107395693503386 
1.4899999999998523, -0.7245528380283047 
1.4999999999998512, -0.7345773235741253 
1.5099999999998501, -0.7412484079500314 
1.519999999999849, -0.7454506223877652 
1.529999999999848, -0.7480043687753237 
1.5399999999998468, -0.7495008037453141 
1.5499999999998457, -0.7503177823411066 
1.5599999999998446, -0.7506794991507165 
1.5699999999998435, -0.7507067276548205 
1.5799999999998424, -0.7504473046731432 
1.5899999999998413, -0.7498886417626027 
1.5999999999998402, -0.7489547688672248 
1.6099999999998391, -0.747489098061323 
1.619999999999838, -0.7452258411957192 
1.629999999999837, -0.7417644199344559 
1.6399999999998358, -0.7365898870035916 
1.6499999999998347, -0.72921630823178 
1.6599999999998336, -0.719494221315272 
1.6699999999998325, -0.7079272243630325 
1.6799999999998314, -0.6956566773947702 
1.6899999999998303, -0.6840068120061983 
1.6999999999998292, -0.6739599761698875 
1.709999999999828, -0.6659470572318832 
1.719999999999827, -0.6599482327787908 
1.729999999999826, -0.655694346747217 
1.7399999999998248, -0.6528288938537793 
1.7499999999998237, -0.6510012716307525 
1.7599999999998226, -0.64990917763897 
1.7699999999998215, -0.6493118857004505 
1.7799999999998204, -0.6490285565968598 
1.7899999999998193, -0.6489294937370347 
1.7999999999998182, -0.6489248931252575 
1.809999999999817, -0.6489539107428959 
1.819999999999816, -0.6489758128704451 
1.8299999999998149, -0.6489641891101307 
1.8399999999998138, -0.6489044284937473 
1.8499999999998127, -0.648793561804187 
1.8599999999998116, -0.6486401920571205 
1.8699999999998105, -0.6484615962606222 
1.8799999999998094, -0.6482766554143777 
1.8899999999998083, -0.6480967827853761 
1.8999999999998072, -0.6479196271876082 
1.909999999999806, -0.6477294295360183 
1.919999999999805, -0.6475039630740678 
1.9299999999998039, -0.6472239695951072 
1.9399999999998028, -0.646880101261685 
1.9499999999998017, -0.6464752350531966 
1.9599999999998006, -0.6460238104576852 
1.9699999999997995, -0.6455514478902271 
1.9799999999997984, -0.6450973596104559 
1.9899999999997973, -0.6447206562838043 
1.9999999999997962, -0.6445106587174606 
2.0099999999998173, -0.6446006655663002 
2.0199999999998384, -0.6451837958806422 
2.0299999999998595, -0.6465280484439908 
2.0399999999998806, -0.6489849751805508 
2.0499999999999017, -0.6529810817721622 
2.059999999999923, -0.6589716170816137 
2.069999999999944, -0.6673248862979835 
2.079999999999965, -0.6781097106526974 
2.089999999999986, -0.6908256096947923 
2.100000000000007, -0.7042721031962282 
2.1100000000000283, -0.716839781283056 
2.1200000000000494, -0.7271949765720698 
2.1300000000000705, -0.7348163225931115 
2.1400000000000916, -0.7399491472324934 
2.1500000000001127, -0.7431903865709103 
2.160000000000134, -0.7451342304445128 
2.170000000000155, -0.7462273666530419 
2.180000000000176, -0.7467604998575137 
2.190000000000197, -0.7469038594622799 
2.2000000000002182, -0.7467415264647911 
2.2100000000002393, -0.7462916697510033 
2.2200000000002604, -0.745511120659621 
2.2300000000002815, -0.7442839656152301 
2.2400000000003026, -0.7423924921653465 
2.2500000000003237, -0.7394704567103607 
2.260000000000345, -0.7349530596778068 
2.270000000000366, -0.7280821174430455 
2.280000000000387, -0.7180965196018798 
2.290000000000408, -0.7047234656395778 
2.3000000000004293, -0.6887592020748807 
2.3100000000004504, -0.6720861527989552 
2.3200000000004715, -0.6568295884963654 
2.3300000000004926, -0.6443869005404952 
2.3400000000005137, -0.6351347841594779 
2.3500000000005348, -0.6287381239295776 
2.360000000000556, -0.6245746124954118 
2.370000000000577, -0.6220120146281962 
2.380000000000598, -0.6205265284409 
2.390000000000619, -0.6197276588599222 
2.4000000000006403, -0.6193429023454275 
2.4100000000006614, -0.6191906618718973 
2.4200000000006825, -0.6191536885343888 
2.4300000000007036, -0.6191574184853293 
2.4400000000007247, -0.6191541805300164 
2.450000000000746, -0.6191130239056484 
2.460000000000767, -0.6190145802760169 
2.470000000000788, -0.6188500597748281 
2.480000000000809, -0.6186225741479908 
2.49000000000083, -0.61834767306347 
2.5000000000008513, -0.6180497906504636 
2.5100000000008724, -0.6177538029991959 
2.5200000000008935, -0.6174750007865631 
2.5300000000009146, -0.6172128876495624 
2.5400000000009357, -0.6169523000859753 
2.550000000000957, -0.6166709949399849 
2.560000000000978, -0.6163492599417505 
2.570000000000999, -0.6159767810558516 
2.58000000000102, -0.615554986109111 
2.5900000000010412, -0.6150965975433456 
2.6000000000010624, -0.6146255128881697 
2.6100000000010835, -0.6141794408804269 
2.6200000000011046, -0.613816548221793 
2.6300000000011257, -0.6136266744219052 
2.6400000000011468, -0.6137473401093765 
2.650000000001168, -0.6143842242284963 
2.660000000001189, -0.6158342372567872 
2.67000000000121, -0.6185054323092642 
2.680000000001231, -0.6229192082872962 
2.6900000000012523, -0.6296632961321336 
2.7000000000012734, -0.6392418189451512 
2.7100000000012945, -0.6517729123606418 
2.7200000000013156, -0.6665980809011103 
2.7300000000013367, -0.6821273034649215 
2.740000000001358, -0.6963310387019499 
2.750000000001379, -0.7077045364697443 
2.7600000000014, -0.7158440725409889 
2.770000000001421, -0.7212106907665644 
2.780000000001442, -0.7245609963841966 
2.7900000000014633, -0.7265684823108202 
2.8000000000014844, -0.7277104324746833 
2.8100000000015055, -0.7282876741046844 
2.8200000000015266, -0.728473961267518 
2.8300000000015477, -0.7283555021623405 
2.840000000001569, -0.7279529966208858 
2.85000000000159, -0.7272273069371817 
2.860000000001611, -0.7260700981847026 
2.870000000001632, -0.7242802139311217 
2.8800000000016532, -0.7215309960934677 
2.8900000000016743, -0.7173517820974074 
2.9000000000016954, -0.7111844795622979 
2.9100000000017165, -0.702602099275219 
2.9200000000017377, -0.6916804567139004 
2.9300000000017588, -0.6792511910879628 
2.94000000000178, -0.666681517770623 
2.950000000001801, -0.6552763528747317 
2.960000000001822, -0.6458166930208011 
2.970000000001843, -0.6385050404651518 
2.9800000000018643, -0.6331613947130086 
2.9900000000018854, -0.6294387657950496 
3.0000000000019065, -0.6269624196806924 
3.0100000000019276, -0.6253965691647666 
3.0200000000019487, -0.6244673312540303 
3.03000000000197, -0.6239642614752929 
3.040000000001991, -0.6237327230539649 
3.050000000002012, -0.6236630937994474 
3.060000000002033, -0.6236798162353566 
3.070000000002054, -0.6237319408503436 
3.0800000000020753, -0.6237861055632712 
3.0900000000020964, -0.6238223530372473 
3.1000000000021175, -0.623832476954987 
3.1100000000021386, -0.6238195204337484 
3.1200000000021597, -0.6237960251254532 
3.130000000002181, -0.6237788376202427 
3.140000000002202, -0.6237805771635656 
3.150000000002223, -0.6238011001340684 
3.160000000002244, -0.6238237824854689 
3.1700000000022652, -0.6238195134255914 
3.1800000000022863, -0.6237567704589992 
3.1900000000023074, -0.6236121943049701 
3.2000000000023285, -0.623376289499513 
3.2100000000023496, -0.6230532019088101 
3.2200000000023707, -0.6226577265346867 
3.230000000002392, -0.6222136246173615 
3.240000000002413, -0.6217559508868429 
3.250000000002434, -0.6213387786595302 
3.260000000002455, -0.621049400158529 
3.2700000000024763, -0.6210302953362632 
3.2800000000024974, -0.6215098968630322 
3.2900000000025185, -0.6228409975378064 
3.3000000000025396, -0.6255389207453479 
3.3100000000025607, -0.6302954305496594 
3.3200000000025818, -0.6379133006570571 
3.330000000002603, -0.6490696588945439 
3.340000000002624, -0.6638422574506335 
3.350000000002645, -0.6811690526396618 
3.360000000002666, -0.6988181006048874 
3.3700000000026873, -0.7143226017806849 
3.3800000000027084, -0.7262285777341599 
3.3900000000027295, -0.7344658948911186 
3.4000000000027506, -0.7397818071207194 
3.4100000000027717, -0.7430676139878953 
3.420000000002793, -0.7450329519789716 
3.430000000002814, -0.7461545492787058 
3.440000000002835, -0.7467253762862605 
3.450000000002856, -0.7469125633763444 
3.460000000002877, -0.7467978229290532 
3.4700000000028983, -0.7463985743131072 
3.4800000000029194, -0.7456726460368652 
3.4900000000029405, -0.7445084318183373 
3.5000000000029616, -0.7427020649974654 
3.5100000000029827, -0.7399288435317989 
3.520000000003004, -0.7357353981278718 
3.530000000003025, -0.7296133095625154 
3.540000000003046, -0.7212243385989067 
3.550000000003067, -0.710733532268999 
3.5600000000030882, -0.6989801691899773 
3.5700000000031094, -0.687220707609479 
3.5800000000031305, -0.6766011318193589 
3.5900000000031516, -0.6677928644014844 
3.6000000000031727, -0.6609688680081119 
3.6100000000031938, -0.6559718145449359 
3.620000000003215, -0.6524931562267363 
3.630000000003236, -0.6501915542121024 
3.640000000003257, -0.6487536206989184 
3.650000000003278, -0.6479184035273954 
3.6600000000032993, -0.6474824148664389 
3.6700000000033204, -0.6472948884268094 
3.6800000000033415, -0.6472486182976944 
3.6900000000033626, -0.647269632493853 
3.7000000000033837, -0.6473078416432433 
3.710000000003405, -0.6473300290540552 
3.720000000003426, -0.6473158434138947 
3.730000000003447, -0.6472565536545428 
3.740000000003468, -0.6471550469436365 
3.750000000003489, -0.6470243977645781 
3.7600000000035103, -0.6468826957783478 
3.7700000000035314, -0.6467445119829913 
3.7800000000035525, -0.6466127618313935 
3.7900000000035736, -0.6464757123545655 
3.8000000000035947, -0.6463112404139034 
3.810000000003616, -0.6460959880279141 
3.820000000003637, -0.6458142111260765 
3.830000000003658, -0.6454622947292875 
3.840000000003679, -0.6450488767854372 
3.8500000000037002, -0.6445935664534074 
3.8600000000037213, -0.6441274965351595 
3.8700000000037424, -0.6436976101340919 
3.8800000000037635, -0.6433753419549458 
3.8900000000037847, -0.6432696523562405 
3.9000000000038058, -0.6435437425685142 
3.910000000003827, -0.64443361391509 
3.920000000003848, -0.6462643175667995 
3.930000000003869, -0.6494552285088944 
3.94000000000389, -0.6544971425656808 
3.9500000000039113, -0.6618706554786811 
3.9600000000039324, -0.6718663280165762 
3.9700000000039535, -0.684299908654775 
3.9800000000039746, -0.6982488957002326 
3.9900000000039957, -0.71211729997025 
4.000000000004016, -0.7242296160469278 
4.010000000003993, -0.733585622487864 
4.02000000000397, -0.7401154013254884 
4.030000000003946, -0.744345597819433 
4.040000000003923, -0.7469426974902906 
4.0500000000039, -0.7484584377296046 
4.0600000000038765, -0.7492713978413834 
4.070000000003853, -0.7496141630110051 
4.08000000000383, -0.7496143411528925 
4.090000000003807, -0.7493240072781653 
4.100000000003783, -0.7487329576118475 
4.11000000000376, -0.7477659630514092 
4.120000000003737, -0.7462633274102419 
4.130000000003713, -0.7439434370854716 
4.14000000000369, -0.7403524945820793 
4.150000000003667, -0.7348336797760997 
4.1600000000036434, -0.7266083117355189 
4.17000000000362, -0.7151094775380465 
4.180000000003597, -0.7005564271731365 
4.1900000000035735, -0.6843122635436305 
4.20000000000355, -0.6684464664504268 
4.210000000003527, -0.6547431953930056 
4.220000000003504, -0.6440571603406509 
4.23000000000348, -0.6363715125822843 
4.240000000003457, -0.6311928380496178 
4.250000000003434, -0.627897377719412 
4.26000000000341, -0.6259166930811682 
4.270000000003387, -0.62480236401629 
4.280000000003364, -0.6242289242854681 
4.2900000000033405, -0.6239730329103774 
4.300000000003317, -0.6238874568989197 
4.310000000003294, -0.6238775667171369 
4.320000000003271, -0.6238829320810851 
4.330000000003247, -0.6238644590504672 
4.340000000003224, -0.6237967621633854 
4.350000000003201, -0.6236651677821226 
4.360000000003177, -0.6234661394884002 
4.370000000003154, -0.623208675584843 
4.380000000003131, -0.6229131943417054 
4.390000000003107, -0.622605461664117 
4.400000000003084, -0.6223067784292431 
4.410000000003061, -0.6220252371616521 
4.4200000000030375, -0.6217529808845893 
4.430000000003014, -0.6214708813494518 
4.440000000002991, -0.6211576894257892 
4.450000000002968, -0.6207986109088284 
4.460000000002944, -0.6203898345856825 
4.470000000002921, -0.6199391822746063 
4.480000000002898, -0.6194656016413961 
4.490000000002874, -0.6190003620793509 
4.500000000002851, -0.6185916757796646 
4.510000000002828, -0.6183134599309016 
4.520000000002804, -0.6182784310775357 
4.530000000002781, -0.618655277989904 
4.540000000002758, -0.6196886827021164 
4.5500000000027345, -0.6217185930538851 
4.560000000002711, -0.6251897560095061 
4.570000000002688, -0.6306313592556123 
4.580000000002665, -0.6385684202916935 
4.590000000002641, -0.6493136997838395 
4.600000000002618, -0.6626321973851403 
4.610000000002595, -0.6774451354222066 
4.620000000002571, -0.6919559984176291 
4.630000000002548, -0.7043879754270524 
4.640000000002525, -0.7138033124669588 
4.6500000000025015, -0.7202690831722387 
4.660000000002478, -0.7244146863803793 
4.670000000002455, -0.7269487961565286 
4.6800000000024315, -0.7284287908402096 
4.690000000002408, -0.7292265852117106 
4.700000000002385, -0.7295671123330415 
4.710000000002362, -0.7295724021134209 
4.720000000002338, -0.7292910196647095 
4.730000000002315, -0.7287107161660795 
4.740000000002292, -0.7277554950883162 
4.750000000002268, -0.7262674402793278 
4.760000000002245, -0.7239746188914393 
4.770000000002222, -0.7204564026600917 
4.7800000000021985, -0.7151472786775438 
4.790000000002175, -0.7074662102120157 
4.800000000002152, -0.6971480043509128 
4.810000000002129, -0.6846494285492863 
4.820000000002105, -0.6712195715772763 
4.830000000002082, -0.6584025129376021 
4.840000000002059, -0.6473712812310818 
4.850000000002035, -0.6386319316461344 
4.860000000002012, -0.6321421548899735 
4.870000000001989, -0.6275700320794596 
4.880000000001965, -0.6244976875620859 
4.890000000001942, -0.6225306127486504 
4.900000000001919, -0.62134046496827 
4.9100000000018955, -0.6206731026431964 
4.920000000001872, -0.6203414574380945 
