t, s[1].omega / s[0].omega 
0, -1.029985416505488 
0.009999999999999995, -1.028436891453839 
0.019999999999999934, -1.0267104575032635 
0.029999999999999874, -1.0248070653816004 
0.04000000000000012, -1.0227276293120036 
0.050000000000000405, -1.0204730343149468 
0.06000000000000069, -1.0180441483404283 
0.07000000000000098, -1.0154418389092794 
0.08000000000000126, -1.0126669938512463 
0.09000000000000155, -1.0097205456488683 
0.10000000000000184, -1.0066034988320964 
0.11000000000000212, -1.0033169598206626 
0.12000000000000241, -0.9998621685803794 
0.130000000000002, -0.9962405314460527 
0.1400000000000009, -0.9924536544672614 
0.1499999999999998, -0.9885033766528483 
0.1599999999999987, -0.9843918025242592 
0.1699999999999976, -0.980121333434696 
0.1799999999999965, -0.9756946971682701 
0.1899999999999954, -0.9711149753982721 
0.1999999999999943, -0.9663856286536663 
0.2099999999999932, -0.9615105185152721 
0.2199999999999921, -0.9564939268352693 
0.229999999999991, -0.9513405718433089 
0.2399999999999899, -0.9460556210677121 
0.2499999999999888, -0.9406447010593341 
0.2599999999999877, -0.9351139039575748 
0.2699999999999866, -0.929469790982015 
0.2799999999999855, -0.9237193929689861 
0.2899999999999844, -0.9178702081001716 
0.2999999999999833, -0.9119301969906178 
0.3099999999999822, -0.9059077753169548 
0.3199999999999811, -0.899811804174242 
0.32999999999998, -0.8936515783525768 
0.3399999999999789, -0.8874368127236463 
0.3499999999999778, -0.8811776269236749 
0.35999999999997667, -0.8748845285137231 
0.36999999999997557, -0.8685683947918323 
0.37999999999997447, -0.862240453424649 
0.38999999999997337, -0.8559122620593841 
0.39999999999997227, -0.8495956870704854 
0.40999999999997117, -0.843302881589302 
0.41999999999997006, -0.8370462629591962 
0.42999999999996896, -0.8308384897527987 
0.43999999999996786, -0.8246924384820745 
0.44999999999996676, -0.8186211801252319 
0.45999999999996566, -0.8126379565868179 
0.46999999999996456, -0.8067561571982331 
0.47999999999996346, -0.8009892953550074 
0.48999999999996235, -0.7953509853742552 
0.49999999999996125, -0.7898549196404551 
0.5099999999999602, -0.7845148460900998 
0.519999999999959, -0.7793445460657159 
0.529999999999958, -0.7743578125474108 
0.5399999999999568, -0.7695684287456208 
0.5499999999999557, -0.764990147012432 
0.5599999999999546, -0.7606366680010971 
0.5699999999999535, -0.7565216199746093 
0.5799999999999524, -0.7526585381350056 
0.5899999999999513, -0.7490608438159713 
0.5999999999999502, -0.7457418233530583 
0.6099999999999491, -0.7427146064189771 
0.619999999999948, -0.7399921435868239 
0.6299999999999469, -0.7375871828624475 
0.6399999999999458, -0.7355122449092982 
0.6499999999999447, -0.7337795966758235 
0.6599999999999436, -0.732401223127673 
0.6699999999999425, -0.7313887967855034 
0.6799999999999414, -0.7307536447749117 
0.6899999999999403, -0.7305067131088984 
0.6999999999999392, -0.7306585279460861 
0.7099999999999381, -0.7312191536005797 
0.719999999999937, -0.7321981471225363 
0.7299999999999359, -0.7336045093229312 
0.7399999999999348, -0.735446632182049 
0.7499999999999337, -0.7377322426592312 
0.7599999999999326, -0.7404683430112496 
0.7699999999999315, -0.7436611478280071 
0.7799999999999304, -0.7473160181062358 
0.7899999999999293, -0.7514373928030947 
0.7999999999999282, -0.7560287184401706 
0.8099999999999271, -0.7610923774617965 
0.819999999999926, -0.766629616186571 
0.8299999999999249, -0.7726404733236728 
0.8399999999999238, -0.7791237101514285 
0.8499999999999227, -0.7860767435696636 
0.8599999999999216, -0.7934955833341154 
0.8699999999999205, -0.801374774854969 
0.8799999999999194, -0.8097073489867713 
0.8899999999999183, -0.8184847802482959 
0.8999999999999172, -0.827696954883648 
0.9099999999999161, -0.8373321501064428 
0.919999999999915, -0.8473770257550064 
0.9299999999999139, -0.857816629427565 
0.9399999999999128, -0.8686344159636931 
0.9499999999999117, -0.8798122818953703 
0.9599999999999106, -0.8913306152133726 
0.9699999999999095, -0.9031683604900448 
0.9799999999999084, -0.9153030990772623 
0.9899999999999073, -0.9277111437693288 
0.9999999999999062, -0.9403676469964465 
1.0099999999999052, -0.9532467213071624 
1.019999999999904, -0.9663215706193392 
1.029999999999903, -0.979564630479182 
1.039999999999902, -0.9929477153753501 
1.0499999999999008, -1.006442171016678 
1.0599999999998997, -1.0200190294015328 
1.0699999999998986, -1.033649164485489 
1.0799999999998975, -1.0473034462905149 
1.0899999999998964, -1.060952891389333 
1.0999999999998953, -1.0745688078372135 
1.1099999999998942, -1.0881229328028557 
1.119999999999893, -1.1015875613617954 
1.129999999999892, -1.1149356651512539 
1.1399999999998909, -1.1281409998358363 
1.1499999999998898, -1.1411782005908662 
1.1599999999998887, -1.1540228650670967 
1.1699999999998876, -1.166651623550712 
1.1799999999998865, -1.179042196270703 
1.1899999999998854, -1.1911734380276278 
1.1999999999998843, -1.2030253705201668 
1.2099999999998832, -1.214579202926319 
1.219999999999882, -1.2258173414527456 
1.229999999999881, -1.2367233886975582 
1.2399999999998799, -1.2472821337778843 
1.2499999999998788, -1.2574795342537401 
1.2599999999998777, -1.2673026909340808 
1.2699999999998766, -1.2767398166799784 
1.2799999999998755, -1.2857802003246503 
1.2899999999998744, -1.2944141668118998 
1.2999999999998733, -1.3026330346152906 
1.3099999999998722, -1.3104290714422395 
1.319999999999871, -1.3177954491528985 
1.32999999999987, -1.3247261987360421 
1.3399999999998689, -1.3312161660865252 
1.3499999999998678, -1.3372609692244684 
1.3599999999998666, -1.3428569574887235 
1.3699999999998655, -1.3480011731296857 
1.3799999999998644, -1.3526913156224631 
1.3899999999998633, -1.356925708923787 
1.3999999999998622, -1.360703271807477 
1.4099999999998611, -1.36402349133606 
1.41999999999986, -1.366886399461798 
1.429999999999859, -1.3692925527002375 
1.4399999999998578, -1.3712430147835535 
1.4499999999998567, -1.3727393421794243 
1.4599999999998556, -1.3737835723527116 
1.4699999999998545, -1.3743782146503243 
1.4799999999998534, -1.3745262437017873 
1.4899999999998523, -1.374231095246535 
1.4999999999998512, -1.3734966643202997 
1.5099999999998501, -1.3723273057537357 
1.519999999999849, -1.3707278369528269 
1.529999999999848, -1.3687035429392367 
1.5399999999998468, -1.3662601836263935 
1.5499999999998457, -1.363404003291155 
1.5599999999998446, -1.3601417421697362 
1.5699999999998435, -1.3564806500593518 
1.5799999999998424, -1.35242850174439 
1.5899999999998413, -1.3479936139893562 
1.5999999999998402, -1.3431848637537123 
1.6099999999998391, -1.3380117071900333 
1.619999999999838, -1.332484198892351 
1.629999999999837, -1.32661301077221 
1.6399999999998358, -1.320409449862747 
1.6499999999998347, -1.3138854742927724 
1.6599999999998336, -1.3070537066399128 
1.6699999999998325, -1.299927443869576 
1.6799999999998314, -1.2925206630988273 
1.6899999999998303, -1.2848480224927605 
1.6999999999998292, -1.2769248567050633 
1.709999999999828, -1.2687671664105364 
1.719999999999827, -1.2603916016393468 
1.729999999999826, -1.2518154388019742 
1.7399999999998248, -1.2430565514794873 
1.7499999999998237, -1.2341333752341552 
1.7599999999998226, -1.2250648668581225 
1.7699999999998215, -1.2158704586116003 
1.7799999999998204, -1.2065700080971227 
1.7899999999998193, -1.1971837444660416 
1.7999999999998182, -1.1877322116544355 
1.809999999999817, -1.1782362092986631 
1.819999999999816, -1.1687167318908889 
1.8299999999998149, -1.1591949066105682 
1.8399999999998138, -1.1496919301209183 
1.8499999999998127, -1.1402290044635048 
1.8599999999998116, -1.130827272033923 
1.8699999999998105, -1.1215077494913095 
1.8799999999998094, -1.1122912603565662 
1.8899999999998083, -1.1031983659985076 
1.8999999999998072, -1.094249294699803 
1.909999999999806, -1.085463868537845 
1.919999999999805, -1.0768614279075777 
1.9299999999998039, -1.068460753648263 
1.9399999999998028, -1.060279986905141 
1.9499999999998017, -1.0523365470486514 
1.9599999999998006, -1.0446470481755705 
1.9699999999997995, -1.0372272149148236 
1.9799999999997984, -1.030091798443312 
1.9899999999997973, -1.0232544937725756 
1.9999999999997962, -1.0167278594865212 
2.0099999999998173, -1.0105232411872354 
2.0199999999998384, -1.004650699936524 
2.0299999999998595, -0.9991189469644063 
2.0399999999998806, -0.9939352858542064 
2.0499999999999017, -0.9891055633111961 
2.059999999999923, -0.9846341294838256 
2.069999999999944, -0.980523808640465 
2.079999999999965, -0.9767758808180321 
2.089999999999986, -0.9733900748596988 
2.100000000000007, -0.9703645730545865 
2.1100000000000283, -0.9676960273897341 
2.1200000000000494, -0.9653795872295022 
2.1300000000000705, -0.9634089380546794 
2.1400000000000916, -0.9617763507265029 
2.1500000000001127, -0.9604727405920328 
2.160000000000134, -0.9594877356184837 
2.170000000000155, -0.9588097526358627 
2.180000000000176, -0.9584260806798355 
2.190000000000197, -0.9583229703598187 
2.2000000000002182, -0.9584857281303893 
2.2100000000002393, -0.9588988143166196 
2.2200000000002604, -0.9595459437351653 
2.2300000000002815, -0.9604101877623332 
2.2400000000003026, -0.9614740767273044 
2.2500000000003237, -0.9627197015526141 
2.260000000000345, -0.9641288136242604 
2.270000000000366, -0.9656829219496833 
2.280000000000387, -0.9673633867522917 
2.290000000000408, -0.9691515087549719 
2.3000000000004293, -0.9710286135204572 
2.3100000000004504, -0.9729761303415422 
2.3200000000004715, -0.9749756653064906 
2.3300000000004926, -0.9770090683018108 
2.3400000000005137, -0.979058493852842 
2.3500000000005348, -0.9811064558388912 
2.360000000000556, -0.9831358762505956 
2.370000000000577, -0.9851301282792911 
2.380000000000598, -0.9870730741380395 
2.390000000000619, -0.9889490981084635 
2.4000000000006403, -0.9907431353838891 
2.4100000000006614, -0.9924406973349761 
2.4200000000006825, -0.9940278938573207 
2.4300000000007036, -0.9954914534699467 
2.4400000000007247, -0.9968187418186453 
2.450000000000746, -0.9979977791987075 
2.460000000000767, -0.9990172576484332 
2.470000000000788, -0.9998665580793876 
2.480000000000809, -1.0005357678038513 
2.49000000000083, -1.001015698697166 
2.5000000000008513, -1.0012979060964102 
2.5100000000008724, -1.0013747083912437 
2.5200000000008935, -1.001239207112839 
2.5300000000009146, -1.000885307177916 
2.5400000000009357, -1.0003077368028144 
2.550000000000957, -0.9995020664733202 
2.560000000000978, -0.9984647262454844 
2.570000000000999, -0.9971930205666936 
2.58000000000102, -0.9956851397498728 
2.5900000000010412, -0.9939401672111852 
2.6000000000010624, -0.9919580815960317 
2.6100000000010835, -0.9897397529712265 
2.6200000000011046, -0.9872869323529411 
2.6300000000011257, -0.9846022339685953 
2.6400000000011468, -0.9816891098127457 
2.650000000001168, -0.978551816246802 
2.660000000001189, -0.9751953726031585 
2.67000000000121, -0.9716255119778907 
2.680000000001231, -0.9678486246235133 
2.6900000000012523, -0.9638716945749283 
2.7000000000012734, -0.959702230348463 
2.7100000000012945, -0.955348190737091 
2.7200000000013156, -0.9508179068771659 
2.7300000000013367, -0.9461200018773108 
2.740000000001358, -0.9412633093744321 
2.750000000001379, -0.936256792413102 
2.7600000000014, -0.9311094640326463 
2.770000000001421, -0.9258303108931792 
2.780000000001442, -0.9204282211809521 
2.7900000000014633, -0.9149119179098149 
2.8000000000014844, -0.9092898985852677 
2.8100000000015055, -0.9035703820271196 
2.8200000000015266, -0.8977612629630994 
2.8300000000015477, -0.8918700748156119 
2.840000000001569, -0.8859039609135896 
2.85000000000159, -0.8798696541768664 
2.860000000001611, -0.8737734651465173 
2.870000000001632, -0.8676212780753633 
2.8800000000016532, -0.8614185546514127 
2.8900000000016743, -0.855170344805633 
2.9000000000016954, -0.8488813039555706 
2.9100000000017165, -0.8425557159585888 
2.9200000000017377, -0.8361975209928536 
2.9300000000017588, -0.8298103475500791 
2.94000000000178, -0.8233975477104468 
2.950000000001801, -0.8169622348755521 
2.960000000001822, -0.8105073231579824 
2.970000000001843, -0.8040355676643188 
2.9800000000018643, -0.797549604959673 
2.9900000000018854, -0.7910519930642669 
3.0000000000019065, -0.784545250403586 
3.0100000000019276, -0.7780318932110043 
3.0200000000019487, -0.7715144709632377 
3.03000000000197, -0.7649955995123232 
3.040000000001991, -0.7584779916609242 
3.050000000002012, -0.7519644850088475 
3.060000000002033, -0.7454580669759814 
3.070000000002054, -0.7389618969790517 
3.0800000000020753, -0.7324793258054533 
3.0900000000020964, -0.7260139122861459 
3.1000000000021175, -0.7195694374205882 
3.1100000000021386, -0.71314991614961 
3.1200000000021597, -0.70675960700699 
3.130000000002181, -0.7004030199074626 
3.140000000002202, -0.694084922348364 
3.150000000002223, -0.687810344314606 
3.160000000002244, -0.6815845821829103 
3.1700000000022652, -0.6754132019219371 
3.1800000000022863, -0.6693020418809096 
3.1900000000023074, -0.6632572154513668 
3.2000000000023285, -0.6572851138755953 
3.2100000000023496, -0.6513924094617923 
3.2200000000023707, -0.6455860594507389 
3.230000000002392, -0.639873310762396 
3.240000000002413, -0.6342617058337374 
3.250000000002434, -0.6287590897418042 
3.260000000002455, -0.62337361878858 
3.2700000000024763, -0.618113770707135 
3.2800000000024974, -0.6129883566315325 
3.2900000000025185, -0.6080065349563099 
3.3000000000025396, -0.6031778271947236 
3.3100000000025607, -0.5985121359282416 
3.3200000000025818, -0.5940197649225984 
3.330000000002603, -0.5897114414677339 
3.340000000002624, -0.5855983409795805 
3.350000000002645, -0.5816921138803443 
3.360000000002666, -0.5780049147499163 
3.3700000000026873, -0.5745494337135321 
3.3800000000027084, -0.5713389299987803 
3.3900000000027295, -0.5683872675574541 
3.4000000000027506, -0.5657089526032943 
3.4100000000027717, -0.5633191728639463 
3.420000000002793, -0.5612338382828598 
3.430000000002814, -0.5594696228326296 
3.440000000002835, -0.5580440070134091 
3.450000000002856, -0.5569753205064031 
3.460000000002877, -0.55628278433072 
3.4700000000028983, -0.5559865517096199 
3.4800000000029194, -0.5561077466869007 
3.4900000000029405, -0.5566684993433326 
3.5000000000029616, -0.5576919762443723 
3.5100000000029827, -0.5592024045018522 
3.520000000003004, -0.5612250875526321 
3.530000000003025, -0.5637864104458388 
3.540000000003046, -0.5669138320883743 
3.550000000003067, -0.5706358615287507 
3.5600000000030882, -0.5749820149676722 
3.5700000000031094, -0.5799827497792528 
3.5800000000031305, -0.5856693714230238 
3.5900000000031516, -0.5920739087430941 
3.6000000000031727, -0.5992289528130835 
3.6100000000031938, -0.6071674542276566 
3.620000000003215, -0.6159224736065944 
3.630000000003236, -0.6255268801179753 
3.640000000003257, -0.636012993105586 
3.650000000003278, -0.6474121624933927 
3.6600000000032993, -0.6597542846147054 
3.6700000000033204, -0.673067251555941 
3.6800000000033415, -0.6873763340909204 
3.6900000000033626, -0.7027035008744226 
3.7000000000033837, -0.7190666798005063 
3.710000000003405, -0.7364789713083769 
3.720000000003426, -0.7549478278748484 
3.730000000003447, -0.7744742188308694 
3.740000000003468, -0.7950518047523722 
3.750000000003489, -0.8166661506747385 
3.7600000000035103, -0.8392940118373517 
3.7700000000035314, -0.8629027290672635 
3.7800000000035525, -0.8874497726951546 
3.7900000000035736, -0.9128824735021017 
3.8000000000035947, -0.939137976138246 
3.810000000003616, -0.966143444412611 
3.820000000003637, -0.993816538754675 
3.830000000003658, -1.022066174242225 
3.840000000003679, -1.0507935534869002 
3.8500000000037002, -1.0798934533304791 
3.8600000000037213, -1.109255728975794 
3.8700000000037424, -1.1387669852550641 
3.8800000000037635, -1.1683123536074478 
3.8900000000037847, -1.197777306170239 
3.9000000000038058, -1.2270494359751323 
3.910000000003827, -1.2560201348648816 
3.920000000003848, -1.2845861081323866 
3.930000000003869, -1.3126506762415395 
3.94000000000389, -1.3401248281258564 
3.9500000000039113, -1.3669280060613458 
3.9600000000039324, -1.3929886175318915 
3.9700000000039535, -1.4182442835623137 
3.9800000000039746, -1.4426418446957736 
3.9900000000039957, -1.4661371545219524 
4.000000000004016, -1.48869469619275 
4.010000000003993, -1.5102870598120122 
4.02000000000397, -1.530894318341425 
4.030000000003946, -1.550503337281949 
4.040000000003923, -1.5691070494961925 
4.0500000000039, -1.5867037217482032 
4.0600000000038765, -1.6032962343964687 
4.070000000003853, -1.6188913906183642 
4.08000000000383, -1.6334992668821604 
4.090000000003807, -1.6471326123102819 
4.100000000003783, -1.6598063011871576 
4.11000000000376, -1.671536840169671 
4.120000000003737, -1.682341929714929 
4.130000000003713, -1.6922400777727393 
4.14000000000369, -1.701250262806428 
4.150000000003667, -1.7093916426112843 
4.1600000000036434, -1.7166833051070902 
4.17000000000362, -1.7231440572132837 
4.180000000003597, -1.7287922480089932 
4.1900000000035735, -1.7336456225850982 
4.20000000000355, -1.7377212032726197 
4.210000000003527, -1.741035195251773 
4.220000000003504, -1.7436029138868545 
4.23000000000348, -1.7454387314772193 
4.240000000003457, -1.746556041451237 
4.250000000003434, -1.7469672383483552 
4.26000000000341, -1.746683712226295 
4.270000000003387, -1.7457158563894861 
4.280000000003364, -1.7440730875565074 
4.2900000000033405, -1.7417638777651314 
4.300000000003317, -1.738795797452953 
4.310000000003294, -1.7351755692510509 
4.320000000003271, -1.7309091320930383 
4.330000000003247, -1.7260017152810267 
4.340000000003224, -1.7204579221767862 
4.350000000003201, -1.7142818232180561 
4.360000000003177, -1.707477058017348 
4.370000000003154, -1.7000469464065049 
4.380000000003131, -1.691994608466836 
4.390000000003107, -1.6833230938501182 
4.400000000003084, -1.6740355210594713 
4.410000000003061, -1.6641352278170845 
4.4200000000030375, -1.6536259341746413 
4.430000000003014, -1.6425119205759813 
4.440000000002991, -1.6307982235879452 
4.450000000002968, -1.6184908523776853 
4.460000000002944, -1.605597029115815 
4.470000000002921, -1.5921254561966993 
4.480000000002898, -1.578086612365288 
4.490000000002874, -1.5634930784210088 
4.500000000002851, -1.5483598910719631 
4.510000000002828, -1.5327049207376395 
4.520000000002804, -1.5165492657256738 
4.530000000002781, -1.499917651408393 
4.540000000002758, -1.482838819060924 
4.5500000000027345, -1.465345885241014 
4.560000000002711, -1.447476649399159 
4.570000000002688, -1.429273825241533 
4.580000000002665, -1.4107851706450276 
4.590000000002641, -1.3920634919913952 
4.600000000002618, -1.3731665018701644 
4.610000000002595, -1.3541565142496177 
4.620000000002571, -1.3350999682762212 
4.630000000002548, -1.316066780459244 
4.640000000002525, -1.297129534545978 
4.6500000000025015, -1.2783625281501803 
4.660000000002478, -1.2598407043301547 
4.670000000002455, -1.2416385039979576 
4.6800000000024315, -1.2238286805595682 
4.690000000002408, -1.2064811210195219 
4.700000000002385, -1.1896617176815363 
4.710000000002362, -1.173431331586378 
4.720000000002338, -1.1578448832828918 
4.730000000002315, -1.1429505989964213 
4.740000000002292, -1.1287894314631963 
4.750000000002268, -1.1153946654209366 
4.760000000002245, -1.1027917087303452 
4.770000000002222, -1.090998061981266 
4.7800000000021985, -1.080023452676549 
4.790000000002175, -1.0698701149620389 
4.800000000002152, -1.0605331924729373 
4.810000000002129, -1.052001240125773 
4.820000000002105, -1.0442568004113424 
4.830000000002082, -1.0372770306709402 
4.840000000002059, -1.0310343596658218 
4.850000000002035, -1.0254971541796787 
4.860000000002012, -1.0206303791553124 
4.870000000001989, -1.0163962377335307 
4.880000000001965, -1.012754780359631 
4.890000000001942, -1.0096644747277184 
4.900000000001919, -1.0070827306690993 
4.9100000000018955, -1.004966376120845 
4.920000000001872, -1.0032720820269956 
4.930000000001849, -1.0019567354414987 
