t, s[1].omega / s[0].omega 
0, -0.759935471003661 
0.009999999999999995, -0.7534861554940667 
0.019999999999999934, -0.7473510919562936 
0.029999999999999874, -0.7418776769161542 
0.04000000000000012, -0.7372544727531662 
0.050000000000000405, -0.7335385381702624 
0.06000000000000069, -0.7306962490934168 
0.07000000000000098, -0.728636990652149 
0.08000000000000126, -0.7272375235527578 
0.09000000000000155, -0.7263607685814091 
0.10000000000000184, -0.7258713518764148 
0.11000000000000212, -0.7256475445265014 
0.12000000000000241, -0.7255882817933655 
0.130000000000002, -0.7256149457090854 
0.1400000000000009, -0.7256692050435628 
0.1499999999999998, -0.7257091817914869 
0.1599999999999987, -0.7257061505267084 
0.1699999999999976, -0.7256430187555978 
0.1799999999999965, -0.7255142322509748 
0.1899999999999954, -0.72532510039031 
0.1999999999999943, -0.725088201585329 
0.2099999999999932, -0.7248166082201865 
0.2199999999999921, -0.7245169215618065 
0.229999999999991, -0.724186328269137 
0.2399999999999899, -0.7238155145096112 
0.2499999999999888, -0.7233953529254549 
0.2599999999999877, -0.7229233181700773 
0.2699999999999866, -0.7224070317039308 
0.2799999999999855, -0.7218653045263788 
0.2899999999999844, -0.7213286969096193 
0.2999999999999833, -0.720841118979888 
0.3099999999999822, -0.7204624710547105 
0.3199999999999811, -0.7202709952186594 
0.32999999999998, -0.72036344881484 
0.3399999999999789, -0.7208515989312876 
0.3499999999999778, -0.7218547383963827 
0.35999999999997667, -0.7234892053435792 
0.36999999999997557, -0.7258560481498169 
0.37999999999997447, -0.7290262493339003 
0.38999999999997337, -0.7330201111044703 
0.39999999999997227, -0.7377766235054681 
0.40999999999997117, -0.7431152605685579 
0.41999999999997006, -0.7487107872435967 
0.42999999999996896, -0.7541215213465111 
0.43999999999996786, -0.7588981000913153 
0.44999999999996676, -0.7627305370016858 
0.45999999999996566, -0.7655322524783371 
0.46999999999996456, -0.7674068433475255 
0.47999999999996346, -0.76854709237945 
0.48999999999996235, -0.7691460370241748 
0.49999999999996125, -0.7693531369024362 
0.5099999999999602, -0.7692651315928115 
0.519999999999959, -0.7689316477454832 
0.529999999999958, -0.7683630355624383 
0.5399999999999568, -0.7675360502327895 
0.5499999999999557, -0.7663980267167105 
0.5599999999999546, -0.7648736521347579 
0.5699999999999535, -0.7628816652756545 
0.5799999999999524, -0.7603699476908996 
0.5899999999999513, -0.7573686679510157 
0.5999999999999502, -0.7540328929866691 
0.6099999999999491, -0.7506189516875952 
0.619999999999948, -0.7473965604199312 
0.6299999999999469, -0.7446342406626034 
0.6399999999999458, -0.7426833745126714 
0.6499999999999447, -0.7418717688519963 
0.6599999999999436, -0.7422051502113388 
0.6699999999999425, -0.7433172606348055 
0.6799999999999414, -0.7447269967592394 
0.6899999999999403, -0.7460733716649756 
0.6999999999999392, -0.7471746552643899 
0.7099999999999381, -0.7479800105468084 
0.719999999999937, -0.7485037317653396 
0.7299999999999359, -0.7487789458198729 
0.7399999999999348, -0.7488324144050231 
0.7499999999999337, -0.7486720173649868 
0.7599999999999326, -0.7482794604974076 
0.7699999999999315, -0.7476042920420418 
0.7799999999999304, -0.7465594268958838 
0.7899999999999293, -0.745023644375691 
0.7999999999999282, -0.7428621386505068 
0.8099999999999271, -0.7399752355131927 
0.819999999999926, -0.73636603426345 
0.8299999999999249, -0.7321849784910537 
0.8399999999999238, -0.7277054327480189 
0.8499999999999227, -0.7232374289660451 
0.8599999999999216, -0.7190403376070892 
0.8699999999999205, -0.7152827965541186 
0.8799999999999194, -0.7120486599893984 
0.8899999999999183, -0.709362056115513 
0.8999999999999172, -0.707210558239538 
0.9099999999999161, -0.7055595965150402 
0.919999999999915, -0.7043597820669038 
0.9299999999999139, -0.7035510887075249 
0.9399999999999128, -0.7030668483126535 
0.9499999999999117, -0.7028385823395664 
0.9599999999999106, -0.7028011196556245 
0.9699999999999095, -0.7028968563609446 
0.9799999999999084, -0.7030783792609294 
0.9899999999999073, -0.7033094713787289 
0.9999999999999062, -0.7035650692227463 
1.0099999999999052, -0.7038306099071894 
1.019999999999904, -0.7041004452536852 
1.029999999999903, -0.7043743025022945 
1.039999999999902, -0.7046512239542021 
1.0499999999999008, -0.7049224459265131 
1.0599999999998997, -0.7051669541395945 
1.0699999999998986, -0.7053534714557302 
1.0799999999998975, -0.7054491005404157 
1.0899999999998964, -0.7054299619391456 
1.0999999999998953, -0.7052876754786988 
1.1099999999998942, -0.705029331981808 
1.119999999999893, -0.7046737417600989 
1.129999999999892, -0.7042485841781888 
1.1399999999998909, -0.7037916292797014 
1.1499999999998898, -0.703357151331504 
1.1599999999998887, -0.703027407559613 
1.1699999999998876, -0.7029281674416089 
1.1799999999998865, -0.7032458497562704 
1.1899999999998854, -0.7042414723500635 
1.1999999999998843, -0.7062535806401813 
1.2099999999998832, -0.7096789177453648 
1.219999999999882, -0.7149158444232515 
1.229999999999881, -0.7222533240213389 
1.2399999999998799, -0.7316988898065458 
1.2499999999998788, -0.7427881385163395 
1.2599999999998777, -0.7545142451188696 
1.2699999999998766, -0.765557344731931 
1.2799999999998755, -0.7747919082277603 
1.2899999999998744, -0.7817128368290807 
1.2999999999998733, -0.7864506224357597 
1.3099999999998722, -0.7894732401179759 
1.319999999999871, -0.7912880903782968 
1.32999999999987, -0.7922962255551091 
1.3399999999998689, -0.7927671219249992 
1.3499999999998678, -0.7928616928299042 
1.3599999999998666, -0.7926605574118505 
1.3699999999998655, -0.7921824565002588 
1.3799999999998644, -0.7913898373157641 
1.3899999999998633, -0.7901813265443356 
1.3999999999998622, -0.7883703223908228 
1.4099999999998611, -0.7856493176068484 
1.41999999999986, -0.7815461314104922 
1.429999999999859, -0.7754020397305513 
1.4399999999998578, -0.7664572510246214 
1.4499999999998567, -0.7541897080858715 
1.4599999999998556, -0.7389408417003922 
1.4699999999998545, -0.7223686125722345 
1.4799999999998534, -0.7069504092008817 
1.4899999999998523, -0.6946815503581807 
1.4999999999998512, -0.686221405715677 
1.5099999999998501, -0.6810927015262844 
1.519999999999849, -0.6783530455373014 
1.529999999999848, -0.67709929866075 
1.5399999999998468, -0.6766639152962153 
1.5499999999998457, -0.6766209181744891 
1.5599999999998446, -0.6767241636284412 
1.5699999999998435, -0.6768411103825528 
1.5799999999998424, -0.6769026143016209 
1.5899999999998413, -0.6768701298730474 
1.5999999999998402, -0.676716120153171 
1.6099999999998391, -0.6764136548186875 
1.619999999999838, -0.6759331771915031 
1.629999999999837, -0.6752462569897206 
1.6399999999998358, -0.674336060070937 
1.6499999999998347, -0.6732108362075011 
1.6599999999998336, -0.6719117673128052 
1.6699999999998325, -0.6705067631089048 
1.6799999999998314, -0.6690713121579513 
1.6899999999998303, -0.6676680364698219 
1.6999999999998292, -0.6663363994671552 
1.709999999999828, -0.6650947372696131 
1.719999999999827, -0.6639492048720588 
1.729999999999826, -0.6629032656337707 
1.7399999999998248, -0.6619642694482188 
1.7499999999998237, -0.6611466170646008 
1.7599999999998226, -0.6604723839072394 
1.7699999999998215, -0.6599703561704691 
1.7799999999998204, -0.6596741032804513 
1.7899999999998193, -0.6596195568836458 
1.7999999999998182, -0.6598426430719226 
1.809999999999817, -0.6603775719266596 
1.819999999999816, -0.6612561625995925 
1.8299999999998149, -0.6625079577560475 
1.8399999999998138, -0.6641598984268268 
1.8499999999998127, -0.6662331483416101 
1.8599999999998116, -0.6687337085408266 
1.8699999999998105, -0.6716339788239465 
1.8799999999998094, -0.6748469151137227 
1.8899999999998083, -0.6782050680273445 
1.8999999999998072, -0.6814684731131033 
1.909999999999806, -0.6843793102981127 
1.919999999999805, -0.6867441139429663 
1.9299999999998039, -0.6884888338365427 
1.9399999999998028, -0.6896510825546274 
1.9499999999998017, -0.6903290446939236 
1.9599999999998006, -0.690629625212084 
1.9699999999997995, -0.6906383300899256 
1.9799999999997984, -0.6904089772271552 
1.9899999999997973, -0.6899631636919568 
1.9999999999997962, -0.6892917384144818 
2.0099999999998173, -0.6883545255521021 
2.0199999999998384, -0.687076995942555 
2.0299999999998595, -0.6853433432629956 
2.0399999999998806, -0.6829844117195213 
2.0499999999999017, -0.6797556880726653 
2.059999999999923, -0.6752997950682854 
2.069999999999944, -0.6691175060932377 
2.079999999999965, -0.6606804640325781 
2.089999999999986, -0.6499011733278245 
2.100000000000007, -0.6377643502117416 
2.1100000000000283, -0.626200212256141 
2.1200000000000494, -0.6169366351081615 
2.1300000000000705, -0.6105883251021009 
2.1400000000000916, -0.6067862797199332 
2.1500000000001127, -0.6047819474621536 
2.160000000000134, -0.6038774160614219 
2.170000000000155, -0.6035714813656847 
2.180000000000176, -0.6035506103680984 
2.190000000000197, -0.6036347606564461 
2.2000000000002182, -0.6037259201407753 
2.2100000000002393, -0.6037713572095742 
2.2200000000002604, -0.6037404684240755 
2.2300000000002815, -0.6036114784256095 
2.2400000000003026, -0.6033651378962107 
2.2500000000003237, -0.6029840782334611 
2.260000000000345, -0.602457207353234 
2.270000000000366, -0.6017874300270728 
2.280000000000387, -0.6009981604602446 
2.290000000000408, -0.6001324842430807 
2.3000000000004293, -0.5992424297303149 
2.3100000000004504, -0.5983733544705941 
2.3200000000004715, -0.5975524261132406 
2.3300000000004926, -0.596786567652223 
2.3400000000005137, -0.5960686286459074 
2.3500000000005348, -0.5953868125068774 
2.360000000000556, -0.5947327792642192 
2.370000000000577, -0.5941064868884627 
2.380000000000598, -0.5935184262208802 
2.390000000000619, -0.5929910452589697 
2.4000000000006403, -0.5925608884873524 
2.4100000000006614, -0.59228216815764 
2.4200000000006825, -0.5922318240323009 
2.4300000000007036, -0.5925157738471641 
2.4400000000007247, -0.5932758359977586 
2.450000000000746, -0.5946963585241108 
2.460000000000767, -0.5970082541399792 
2.470000000000788, -0.6004847732558463 
2.480000000000809, -0.6054166098240358 
2.49000000000083, -0.6120446549936078 
2.5000000000008513, -0.6204272276797441 
2.5100000000008724, -0.6302546636972759 
2.5200000000008935, -0.6407260290198723 
2.5300000000009146, -0.6506908820561063 
2.5400000000009357, -0.659102845541618 
2.550000000000957, -0.6654567356467854 
2.560000000000978, -0.6698408941611664 
2.570000000000999, -0.6726674378097175 
2.58000000000102, -0.6743912326387325 
2.5900000000010412, -0.6753727527266864 
2.6000000000010624, -0.6758544150842108 
2.6100000000010835, -0.6759811226288519 
2.6200000000011046, -0.675825085709934 
2.6300000000011257, -0.67540130228565 
2.6400000000011468, -0.6746709950838381 
2.650000000001168, -0.6735327975176671 
2.660000000001189, -0.6718023298075606 
2.67000000000121, -0.669185930205521 
2.680000000001231, -0.6652714552658066 
2.6900000000012523, -0.6595914222663647 
2.7000000000012734, -0.6518277423080326 
2.7100000000012945, -0.6421267815416142 
2.7200000000013156, -0.6312702330762541 
2.7300000000013367, -0.6204311078966761 
2.740000000001358, -0.6106612362463856 
2.750000000001379, -0.6025478826041749 
2.7600000000014, -0.5962123983633345 
2.770000000001421, -0.5914886085955149 
2.780000000001442, -0.5880958846234902 
2.7900000000014633, -0.5857427657326959 
2.8000000000014844, -0.5841722695271846 
2.8100000000015055, -0.5831748246505747 
2.8200000000015266, -0.5825870252454673 
2.8300000000015477, -0.5822854308540732 
2.840000000001569, -0.5821793145452232 
2.85000000000159, -0.5822038666873455 
2.860000000001611, -0.5823144835173282 
2.870000000001632, -0.5824824675689606 
2.8800000000016532, -0.5826922262504949 
2.8900000000016743, -0.5829395927114134 
2.9000000000016954, -0.5832301524432159 
2.9100000000017165, -0.583575810692607 
2.9200000000017377, -0.5839881032563927 
2.9300000000017588, -0.5844685739598502 
2.94000000000178, -0.5849994574270982 
2.950000000001801, -0.5855401524416611 
2.960000000001822, -0.5860339941912985 
2.970000000001843, -0.5864240917260715 
2.9800000000018643, -0.5866698022583198 
2.9900000000018854, -0.5867543752292713 
3.0000000000019065, -0.5866814770209888 
3.0100000000019276, -0.586465918939548 
3.0200000000019487, -0.5861251980573992 
3.03000000000197, -0.5856752669270856 
3.040000000001991, -0.5851311171047634 
3.050000000002012, -0.5845121749008084 
3.060000000002033, -0.5838534640997681 
3.070000000002054, -0.5832246894894602 
3.0800000000020753, -0.5827590054550904 
3.0900000000020964, -0.5826870222211061 
3.1000000000021175, -0.5833506281371875 
3.1100000000021386, -0.5851274112561823 
3.1200000000021597, -0.5881644418312727 
3.130000000002181, -0.5919619931078809 
3.140000000002202, -0.5952982347531437 
3.150000000002223, -0.5970581213062507 
3.160000000002244, -0.5972390732657986 
3.1700000000022652, -0.5967354296300948 
3.1800000000022863, -0.5963488781419388 
3.1900000000023074, -0.5963479581063578 
3.2000000000023285, -0.596650142661763 
3.2100000000023496, -0.597086134386681 
3.2200000000023707, -0.597523855212269 
3.230000000002392, -0.5978886868394379 
3.240000000002413, -0.5981470726105897 
3.250000000002434, -0.5982865466581027 
3.260000000002455, -0.598301305976302 
3.2700000000024763, -0.5981835428490435 
3.2800000000024974, -0.5979191822410999 
3.2900000000025185, -0.597487579989049 
3.3000000000025396, -0.596865977810886 
3.3100000000025607, -0.5960395117697223 
3.3200000000025818, -0.5950147247713886 
3.330000000002603, -0.5938293786937507 
3.340000000002624, -0.5925494426048037 
3.350000000002645, -0.5912514509989208 
3.360000000002666, -0.5900001697244075 
3.3700000000026873, -0.5888346925140625 
3.3800000000027084, -0.587767998813452 
3.3900000000027295, -0.5867958270717665 
3.4000000000027506, -0.5859078929032233 
3.4100000000027717, -0.5850967340708 
3.420000000002793, -0.5843628795499176 
3.430000000002814, -0.5837173094942549 
3.440000000002835, -0.583182801985372 
3.450000000002856, -0.5827953277913671 
3.460000000002877, -0.5826059768861332 
3.4700000000028983, -0.5826834562703742 
3.4800000000029194, -0.583117040887949 
3.4900000000029405, -0.5840197892291626 
3.5000000000029616, -0.5855314923753218 
3.5100000000029827, -0.587819647919665 
3.520000000003004, -0.5910739464080879 
3.530000000003025, -0.5954846865845786 
3.540000000003046, -0.6011896031247803 
3.550000000003067, -0.6081753539625685 
3.5600000000030882, -0.6161500426222517 
3.5700000000031094, -0.6244748319329554 
3.5800000000031305, -0.632289973805235 
3.5900000000031516, -0.6388445866764229 
3.6000000000031727, -0.6437919885744423 
3.6100000000031938, -0.6472118866314923 
3.620000000003215, -0.649415236364444 
3.630000000003236, -0.6507439332535059 
3.640000000003257, -0.6514705500894895 
3.650000000003278, -0.6517784304979815 
3.6600000000032993, -0.6517742855945584 
3.6700000000033204, -0.651504245464882 
3.6800000000033415, -0.6509623992472864 
3.6900000000033626, -0.6500887043317078 
3.7000000000033837, -0.6487552151558099 
3.710000000003405, -0.6467414733530255 
3.720000000003426, -0.6437082507303674 
3.730000000003447, -0.639202405596384 
3.740000000003468, -0.6327617323917014 
3.750000000003489, -0.6241797461095923 
3.7600000000035103, -0.6138279069287116 
3.7700000000035314, -0.6027070659236762 
3.7800000000035525, -0.5920453883006138 
3.7900000000035736, -0.5827685859047097 
3.8000000000035947, -0.5752742737703304 
3.810000000003616, -0.5695362895824688 
3.820000000003637, -0.5653122344034681 
3.830000000003658, -0.5622999051261411 
3.840000000003679, -0.5602164746539987 
3.8500000000037002, -0.5588262713037828 
3.8600000000037213, -0.5579439114264825 
3.8700000000037424, -0.5574283599057301 
3.8800000000037635, -0.5571749192214885 
3.8900000000037847, -0.5571077313366819 
3.9000000000038058, -0.5571735675665875 
3.910000000003827, -0.5573370880138384 
3.920000000003848, -0.5575775624931554 
3.930000000003869, -0.5578868215032983 
3.94000000000389, -0.5582677274594963 
3.9500000000039113, -0.5587317705379062 
3.9600000000039324, -0.5592939751297792 
3.9700000000039535, -0.5599639460477619 
3.9800000000039746, -0.560734120017852 
3.9900000000039957, -0.5615697149619735 
4.000000000004016, -0.5624075058404507 
4.010000000003993, -0.5631685407648643 
4.02000000000397, -0.5637810151090903 
4.030000000003946, -0.5642001876582501 
4.040000000003923, -0.5644137797462493 
4.0500000000039, -0.5644331098615333 
4.0600000000038765, -0.5642789474216808 
4.070000000003853, -0.563969978836241 
4.08000000000383, -0.5635163158820446 
4.090000000003807, -0.5629168710890536 
4.100000000003783, -0.56215863143546 
4.11000000000376, -0.5612161106607619 
4.120000000003737, -0.5600486445070926 
4.130000000003713, -0.55858955899804 
4.14000000000369, -0.5567115939851872 
4.150000000003667, -0.5541384900147295 
4.1600000000036434, -0.5502850496416698 
4.17000000000362, -0.5441525376207081 
4.180000000003597, -0.5347149946828434 
4.1900000000035735, -0.522050662701856 
4.20000000000355, -0.5080674253417649 
4.210000000003527, -0.4953864538808457 
4.220000000003504, -0.4856008882463718 
4.23000000000348, -0.47887297600963963 
4.240000000003457, -0.47459055576615816 
4.250000000003434, -0.47200475356830146 
4.26000000000341, -0.4705075528623664 
4.270000000003387, -0.46967754815735496 
4.280000000003364, -0.4692438981613817 
4.2900000000033405, -0.4690391136195016 
4.300000000003317, -0.46896171771451944 
4.310000000003294, -0.46895101321011295 
4.320000000003271, -0.4689713847354806 
4.330000000003247, -0.46900334191120524 
4.340000000003224, -0.46903923285960125 
4.350000000003201, -0.4690820056948259 
4.360000000003177, -0.46914523142584763 
4.370000000003154, -0.46925208728248446 
4.380000000003131, -0.4694309935839306 
4.390000000003107, -0.4697069340581577 
4.400000000003084, -0.47008997526064206 
4.410000000003061, -0.47056505605023646 
4.4200000000030375, -0.47108867406743427 
4.430000000003014, -0.4715969426427421 
4.440000000002991, -0.47202360485423656 
4.450000000002968, -0.47231876348595997 
4.460000000002944, -0.47245777272249584 
4.470000000002921, -0.47243756943120896 
4.480000000002898, -0.47226600796727103 
4.490000000002874, -0.47195095759719824 
4.500000000002851, -0.47149207117110004 
4.510000000002828, -0.4708743571561116 
4.520000000002804, -0.47006064967327604 
4.530000000002781, -0.4689785028084903 
4.540000000002758, -0.4674940884150973 
4.5500000000027345, -0.4653605876900431 
4.560000000002711, -0.4621267158380574 
4.570000000002688, -0.45702114510754815 
4.580000000002665, -0.44895976064466847 
4.590000000002641, -0.4370340154956933 
4.600000000002618, -0.4215890260449264 
4.610000000002595, -0.40478462324848835 
4.620000000002571, -0.3894010361240536 
4.630000000002548, -0.3771208703729906 
4.640000000002525, -0.3681606931532873 
4.6500000000025015, -0.36194025495910265 
4.660000000002478, -0.3577208002290112 
4.670000000002455, -0.3548851156210195 
4.6800000000024315, -0.35299005739523337 
4.690000000002408, -0.35173814347586063 
4.700000000002385, -0.3509364168285858 
4.710000000002362, -0.35046318633455453 
4.720000000002338, -0.35024537178143456 
4.730000000002315, -0.3502445016364037 
4.740000000002292, -0.35044904304068625 
4.750000000002268, -0.35087135568515754 
4.760000000002245, -0.351548093669637 
4.770000000002222, -0.3525429460490795 
4.7800000000021985, -0.3539498607026913 
4.790000000002175, -0.35589273968131907 
4.800000000002152, -0.35851324860334316 
4.810000000002129, -0.3619325439898756 
4.820000000002105, -0.3661732497374951 
4.830000000002082, -0.3710558352961029 
4.840000000002059, -0.37614900215211555 
4.850000000002035, -0.3808818600014722 
4.860000000002012, -0.3847916876989565 
4.870000000001989, -0.38770105892146023 
4.880000000001965, -0.3896906562352156 
4.890000000001942, -0.3909579901559009 
4.900000000001919, -0.39170138380676056 
4.9100000000018955, -0.3920710235229713 
