t, s[1].omega / s[0].omega 
0, -0.800016880160114 
0.009999999999999995, -0.8016340496107122 
0.019999999999999934, -0.8030420918406496 
0.029999999999999874, -0.8041582877670137 
0.04000000000000012, -0.8049428284730824 
0.050000000000000405, -0.8054024942715573 
0.06000000000000069, -0.8055762795947905 
0.07000000000000098, -0.8055154109684277 
0.08000000000000126, -0.8052694894790694 
0.09000000000000155, -0.8048829892313462 
0.10000000000000184, -0.8044015684778127 
0.11000000000000212, -0.8038873988201581 
0.12000000000000241, -0.8034438902480139 
0.130000000000002, -0.8032492835258443 
0.1400000000000009, -0.8035929692874824 
0.1499999999999998, -0.8048975846838623 
0.1599999999999987, -0.8076984334325392 
0.1699999999999976, -0.812549800057956 
0.1799999999999965, -0.8198456369287269 
0.1899999999999954, -0.8295842756507087 
0.1999999999999943, -0.841172108265811 
0.2099999999999932, -0.8534255107242631 
0.2199999999999921, -0.8648976245387645 
0.229999999999991, -0.8744232996235919 
0.2399999999999899, -0.8815128321555095 
0.2499999999999888, -0.8863269488088381 
0.2599999999999877, -0.8893628781081752 
0.2699999999999866, -0.8911526041776605 
0.2799999999999855, -0.8921152453537777 
0.2899999999999844, -0.892531677167919 
0.2999999999999833, -0.8925693905265139 
0.3099999999999822, -0.8923139411923376 
0.3199999999999811, -0.8917922824102004 
0.32999999999998, -0.8909877780096274 
0.3399999999999789, -0.889853407519768 
0.3499999999999778, -0.8883361530847935 
0.35999999999997667, -0.8864352688404908 
0.36999999999997557, -0.8843244006938225 
0.37999999999997447, -0.8825449107998434 
0.38999999999997337, -0.8821736526947198 
0.39999999999997227, -0.8846867989320566 
0.40999999999997117, -0.8912338024558222 
0.41999999999997006, -0.9016059407388596 
0.42999999999996896, -0.9139466029478882 
0.43999999999996786, -0.9257813162602451 
0.44999999999996676, -0.9353923002500254 
0.45999999999996566, -0.9422970712439002 
0.46999999999996456, -0.9468476149397299 
0.47999999999996346, -0.9496655198427781 
0.48999999999996235, -0.9513134613797527 
0.49999999999996125, -0.9521957556305207 
0.5099999999999602, -0.9525675175832721 
0.519999999999959, -0.9525704947341236 
0.529999999999958, -0.9522623768892293 
0.5399999999999568, -0.9516309727624856 
0.5499999999999557, -0.9505926234633272 
0.5599999999999546, -0.9489763491389634 
0.5699999999999535, -0.9464993262565505 
0.5799999999999524, -0.9427533416153848 
0.5899999999999513, -0.9372534526985585 
0.5999999999999502, -0.9296377063185645 
0.6099999999999491, -0.9200734303102862 
0.619999999999948, -0.9096868632738759 
0.6299999999999469, -0.9004809187374987 
0.6399999999999458, -0.8943791194618409 
0.6499999999999447, -0.8920484217882576 
0.6599999999999436, -0.8926749704800013 
0.6699999999999425, -0.89479534813951 
0.6799999999999414, -0.8971975687329335 
0.6899999999999403, -0.899241672150503 
0.6999999999999392, -0.9007349833700209 
0.7099999999999381, -0.9017070485088766 
0.719999999999937, -0.9022533585589647 
0.7299999999999359, -0.9024607884452219 
0.7399999999999348, -0.9023802234086492 
0.7499999999999337, -0.9020165862762812 
0.7599999999999326, -0.9013192243535088 
0.7699999999999315, -0.900163609901678 
0.7799999999999304, -0.8983199067067987 
0.7899999999999293, -0.8954116062827288 
0.7999999999999282, -0.8908886066297217 
0.8099999999999271, -0.8840815384055732 
0.819999999999926, -0.8744383664857684 
0.8299999999999249, -0.8619592816356875 
0.8399999999999238, -0.8475667875488171 
0.8499999999999227, -0.8329723956003086 
0.8599999999999216, -0.8199844969610025 
0.8699999999999205, -0.8097856720391725 
0.8799999999999194, -0.8026752363387631 
0.8899999999999183, -0.7982701428754301 
0.8999999999999172, -0.7958722274547808 
0.9099999999999161, -0.7947697122661219 
0.919999999999915, -0.7943955904105298 
0.9299999999999139, -0.7943651433345095 
0.9399999999999128, -0.794446735449816 
0.9499999999999117, -0.7945119617907858 
0.9599999999999106, -0.794490346253495 
0.9699999999999095, -0.7943365930945735 
0.9799999999999084, -0.7940098187704416 
0.9899999999999073, -0.7934624800103326 
0.9999999999999062, -0.7926385340058839 
1.0099999999999052, -0.7914824432064443 
1.019999999999904, -0.7899591867276132 
1.029999999999903, -0.7880779643926423 
1.039999999999902, -0.785903933009457 
1.0499999999999008, -0.7835459902756787 
1.0599999999998997, -0.7811267074890634 
1.0699999999998986, -0.778754063983635 
1.0799999999998975, -0.776508906451597 
1.0899999999998964, -0.7744472353571504 
1.0999999999998953, -0.7726085083868306 
1.1099999999998942, -0.7710224490455283 
1.119999999999893, -0.7697113677308569 
1.129999999999892, -0.768688507029865 
1.1399999999998909, -0.7679546264814491 
1.1499999999998898, -0.7674954005607748 
1.1599999999998887, -0.7672815593723675 
1.1699999999998876, -0.7672723200480808 
1.1799999999998865, -0.7674211215153369 
1.1899999999998854, -0.7676817958773364 
1.1999999999998843, -0.7680135144126312 
1.2099999999998832, -0.7683837566911303 
1.219999999999882, -0.7687693013523654 
1.229999999999881, -0.7691552748112206 
1.2399999999998799, -0.7695319679750464 
1.2499999999998788, -0.769889494547326 
1.2599999999998777, -0.7702120058304743 
1.2699999999998766, -0.7704749467909789 
1.2799999999998755, -0.770648327727774 
1.2899999999998744, -0.7707052392551631 
1.2999999999998733, -0.7706306662578164 
1.3099999999998722, -0.7704255342427093 
1.319999999999871, -0.7701052886809988 
1.32999999999987, -0.7696965637389152 
1.3399999999998689, -0.7692360828057923 
1.3499999999998678, -0.7687738121536205 
1.3599999999998666, -0.7683799562456872 
1.3699999999998655, -0.7681534717117107 
1.3799999999998644, -0.7682282038075963 
1.3899999999998633, -0.7687719002268133 
1.3999999999998622, -0.7699743765880911 
1.4099999999998611, -0.7720243675852327 
1.41999999999986, -0.7750781254180322 
1.429999999999859, -0.7792234436869568 
1.4399999999998578, -0.7844402390202018 
1.4499999999998567, -0.7905588746980168 
1.4599999999998556, -0.7972289217848603 
1.4699999999998545, -0.8039335537194272 
1.4799999999998534, -0.8100903000317894 
1.4899999999998523, -0.8152249390957997 
1.4999999999998512, -0.8191173741183713 
1.5099999999998501, -0.8218162912640515 
1.519999999999849, -0.8235344280194583 
1.529999999999848, -0.8245226682779314 
1.5399999999998468, -0.8249928031531202 
1.5499999999998457, -0.8250931517957454 
1.5599999999998446, -0.8249125722245955 
1.5699999999998435, -0.8244926898967904 
1.5799999999998424, -0.8238399437240294 
1.5899999999998413, -0.8229376938658322 
1.5999999999998402, -0.8217647627639199 
1.6099999999998391, -0.8203329197472611 
1.619999999999838, -0.8187608914055898 
1.629999999999837, -0.8173956561404637 
1.6399999999998358, -0.816947062999879 
1.6499999999998347, -0.818497852370139 
1.6599999999998336, -0.8231615331661232 
1.6699999999998325, -0.8313426309907971 
1.6799999999998314, -0.8421290579621117 
1.6899999999998303, -0.8535887929740567 
1.6999999999998292, -0.8638433459480469 
1.709999999999828, -0.8718871839799022 
1.719999999999827, -0.8776179190448398 
1.729999999999826, -0.8814293878529073 
1.7399999999998248, -0.8838344087348864 
1.7499999999998237, -0.8852730342608158 
1.7599999999998226, -0.8860606969555601 
1.7699999999998215, -0.8863987081047735 
1.7799999999998204, -0.8863991078245659 
1.7899999999998193, -0.8861036942794629 
1.7999999999998182, -0.8854907224863885 
1.809999999999817, -0.8844667884504094 
1.819999999999816, -0.8828414840868563 
1.8299999999998149, -0.8802835510629095 
1.8399999999998138, -0.8762674253236094 
1.8499999999998127, -0.8700526380065746 
1.8599999999998116, -0.8608042567341141 
1.8699999999998105, -0.8480005425356605 
1.8799999999998094, -0.8320847448121697 
1.8899999999998083, -0.8148283432171368 
1.8999999999998072, -0.7987538988502544 
1.909999999999806, -0.7858953962361669 
1.919999999999805, -0.7769948108633369 
1.9299999999998039, -0.7716359659686156 
1.9399999999998028, -0.7688588831162846 
1.9499999999998017, -0.7676867273423701 
1.9599999999998006, -0.7673737381690895 
1.9699999999997995, -0.7674412046894004 
1.9799999999997984, -0.767618495107913 
1.9899999999997973, -0.7677668304683626 
1.9999999999997962, -0.7678181043603752 
2.0099999999998173, -0.7677343220356599 
2.0199999999998384, -0.7674831813988285 
2.0299999999998595, -0.7670244111028611 
2.0399999999998806, -0.7663043085387928 
2.0499999999999017, -0.7652595796567866 
2.059999999999923, -0.7638333372217098 
2.069999999999944, -0.7620019964618214 
2.079999999999965, -0.7598008625819774 
2.089999999999986, -0.7573287812625216 
2.100000000000007, -0.7547234710115601 
2.1100000000000283, -0.7521228312323238 
2.1200000000000494, -0.7496365501056251 
2.1300000000000705, -0.7473386166981061 
2.1400000000000916, -0.7452745821288159 
2.1500000000001127, -0.7434725289879748 
2.160000000000134, -0.7419507466946857 
2.170000000000155, -0.7407203583143166 
2.180000000000176, -0.739784239417766 
2.190000000000197, -0.7391346314143068 
2.2000000000002182, -0.7387517018739348 
2.2100000000002393, -0.7386044339354747 
2.2200000000002604, -0.7386539874819971 
2.2300000000002815, -0.7388585646132488 
2.2400000000003026, -0.7391783361402784 
2.2500000000003237, -0.739579261213241 
2.260000000000345, -0.7400352404867043 
2.270000000000366, -0.7405283795385026 
2.280000000000387, -0.7410470099205397 
2.290000000000408, -0.7415810885876186 
2.3000000000004293, -0.7421156056773148 
2.3100000000004504, -0.7426247623128608 
2.3200000000004715, -0.7430712077530595 
2.3300000000004926, -0.743412942911268 
2.3400000000005137, -0.743615279679764 
2.3500000000005348, -0.7436608000569918 
2.360000000000556, -0.7435517913937841 
2.370000000000577, -0.7433059386529954 
2.380000000000598, -0.7429505798176467 
2.390000000000619, -0.7425204594346144 
2.4000000000006403, -0.7420612188254905 
2.4100000000006614, -0.7416387964527924 
2.4200000000006825, -0.7413537562886192 
2.4300000000007036, -0.741358137631122 
2.4400000000007247, -0.7418699780164917 
2.450000000000746, -0.743177747817837 
2.460000000000767, -0.7456251049443995 
2.470000000000788, -0.7495667419029214 
2.480000000000809, -0.7552883165459539 
2.49000000000083, -0.762888785739078 
2.5000000000008513, -0.7721416651361823 
2.5100000000008724, -0.7823976649849691 
2.5200000000008935, -0.7926452069528584 
2.5300000000009146, -0.8018061071903121 
2.5400000000009357, -0.8091378167412971 
2.550000000000957, -0.8144475398152276 
2.560000000000978, -0.8179854724095137 
2.570000000000999, -0.8201829140249615 
2.58000000000102, -0.8214491660764354 
2.5900000000010412, -0.8220895977238512 
2.6000000000010624, -0.8223014865298962 
2.6100000000010835, -0.8221959888868071 
2.6200000000011046, -0.8218195437398966 
2.6300000000011257, -0.8211665385143005 
2.6400000000011468, -0.8201829121032906 
2.650000000001168, -0.8187632171075776 
2.660000000001189, -0.8167462713362184 
2.67000000000121, -0.8139194951400339 
2.680000000001231, -0.8100488942234764 
2.6900000000012523, -0.8049536494137964 
2.7000000000012734, -0.7986296113705982 
2.7100000000012945, -0.7913953741035396 
2.7200000000013156, -0.7839981416865779 
2.7300000000013367, -0.7775354187107657 
2.740000000001358, -0.7730203323535332 
2.750000000001379, -0.7708092078042137 
2.7600000000014, -0.7704797490876839 
2.770000000001421, -0.7712442620937396 
2.780000000001442, -0.7724043818759411 
2.7900000000014633, -0.7735328197698357 
2.8000000000014844, -0.7744401076851248 
2.8100000000015055, -0.7750774305919006 
2.8200000000015266, -0.7754565799481373 
2.8300000000015477, -0.7756026518392053 
2.840000000001569, -0.7755301421172064 
2.85000000000159, -0.7752306461017409 
2.860000000001611, -0.7746644075465619 
2.870000000001632, -0.7737527136653295 
2.8800000000016532, -0.7723735141547301 
2.8900000000016743, -0.770369661769285 
2.9000000000016954, -0.7675847843418858 
2.9100000000017165, -0.763933838716967 
2.9200000000017377, -0.7594822147539901 
2.9300000000017588, -0.7544727209175919 
2.94000000000178, -0.7492627439386658 
2.950000000001801, -0.7442112907364 
2.960000000001822, -0.7395925877614211 
2.970000000001843, -0.7355706342249198 
2.9800000000018643, -0.7322160655625536 
2.9900000000018854, -0.7295342298500385 
3.0000000000019065, -0.7274875652930244 
3.0100000000019276, -0.7260098723306665 
3.0200000000019487, -0.7250161543068032 
3.03000000000197, -0.7244115594806703 
3.040000000001991, -0.7241004631707808 
3.050000000002012, -0.7239945926959375 
3.060000000002033, -0.7240185666839288 
3.070000000002054, -0.7241121406552573 
3.0800000000020753, -0.7242298163739812 
3.0900000000020964, -0.7243393053654115 
3.1000000000021175, -0.7244201943732904 
3.1100000000021386, -0.7244631093135627 
3.1200000000021597, -0.7244682776223138 
3.130000000002181, -0.724441817514337 
3.140000000002202, -0.7243894429835975 
3.150000000002223, -0.7243099884720247 
3.160000000002244, -0.7241926767353399 
3.1700000000022652, -0.724020337049647 
3.1800000000022863, -0.723776823858304 
3.1900000000023074, -0.7234541778101603 
3.2000000000023285, -0.7230561637377212 
3.2100000000023496, -0.7225983912167602 
3.2200000000023707, -0.7221077184519749 
3.230000000002392, -0.7216234657424222 
3.240000000002413, -0.7212012693444831 
3.250000000002434, -0.720918683846091 
3.260000000002455, -0.7208804161952074 
3.2700000000024763, -0.7212204474613465 
3.2800000000024974, -0.7220985211192879 
3.2900000000025185, -0.7236896236715032 
3.3000000000025396, -0.726166355256147 
3.3100000000025607, -0.7296739451641813 
3.3200000000025818, -0.7342954738623235 
3.330000000002603, -0.7400033846247364 
3.340000000002624, -0.7466002676895049 
3.350000000002645, -0.7536755431752612 
3.360000000002666, -0.7606353734198092 
3.3700000000026873, -0.7668510479295768 
3.3800000000027084, -0.7718731282771907 
3.3900000000027295, -0.7755626258633115 
3.4000000000027506, -0.7780509676223791 
3.4100000000027717, -0.7795974671459736 
3.420000000002793, -0.780463223660688 
3.430000000002814, -0.7808506397835056 
3.440000000002835, -0.7808925202929498 
3.450000000002856, -0.7806613272322046 
3.460000000002877, -0.7801805487325549 
3.4700000000028983, -0.7794314976453789 
3.4800000000029194, -0.7783547764456513 
3.4900000000029405, -0.7768485383675934 
3.5000000000029616, -0.7747682407409162 
3.5100000000029827, -0.7719356169600794 
3.520000000003004, -0.7681656125954881 
3.530000000003025, -0.7633142753588447 
3.540000000003046, -0.7573443660576052 
3.550000000003067, -0.7504280068256539 
3.5600000000030882, -0.7431160909202229 
3.5700000000031094, -0.7364058974793796 
3.5800000000031305, -0.7313561841926995 
3.5900000000031516, -0.7284451917293037 
3.6000000000031727, -0.727386592656412 
3.6100000000031938, -0.7275049841659387 
3.620000000003215, -0.7281624249710199 
3.630000000003236, -0.7289391121257801 
3.640000000003257, -0.7296213429333316 
3.650000000003278, -0.7301268381609958 
3.6600000000032993, -0.7304378026202336 
3.6700000000033204, -0.7305582206837494 
3.6800000000033415, -0.7304903456465748 
3.6900000000033626, -0.7302220452536975 
3.7000000000033837, -0.7297193549053321 
3.710000000003405, -0.7289225490022687 
3.720000000003426, -0.7277484424207126 
3.730000000003447, -0.7261055618381074 
3.740000000003468, -0.7239278422013594 
3.750000000003489, -0.7212197936683815 
3.7600000000035103, -0.7180857162763004 
3.7700000000035314, -0.714713624867324 
3.7800000000035525, -0.711318108358882 
3.7900000000035736, -0.7080812060372981 
3.8000000000035947, -0.7051242217028936 
3.810000000003616, -0.7025114581588361 
3.820000000003637, -0.700268226189835 
3.830000000003658, -0.6983979265676037 
3.840000000003679, -0.6968923382990996 
3.8500000000037002, -0.6957356401710542 
3.8600000000037213, -0.694904965192416 
3.8700000000037424, -0.6943702138128929 
3.8800000000037635, -0.694094860575819 
3.8900000000037847, -0.6940382964978847 
3.9000000000038058, -0.6941592726632092 
3.910000000003827, -0.6944195370476717 
3.920000000003848, -0.6947868343241966 
3.930000000003869, -0.6952367943499203 
3.94000000000389, -0.6957534343646198 
3.9500000000039113, -0.6963278039007633 
3.9600000000039324, -0.6969540186717633 
3.9700000000039535, -0.6976224102756127 
3.9800000000039746, -0.6983114281325572 
3.9900000000039957, -0.6989825600009085 
4.000000000004016, -0.6995833195782999 
4.010000000003993, -0.7000595520648104 
4.02000000000397, -0.7003711737769731 
4.030000000003946, -0.7005018481862345 
4.040000000003923, -0.7004579395576991 
4.0500000000039, -0.7002603922866155 
4.0600000000038765, -0.6999366469599311 
4.070000000003853, -0.6995174816411118 
4.08000000000383, -0.6990404881470746 
4.090000000003807, -0.698560711967721 
4.100000000003783, -0.698169386312198 
4.11000000000376, -0.6980219820418075 
4.120000000003737, -0.6983751867035011 
4.130000000003713, -0.6996269667989923 
4.14000000000369, -0.702342335475583 
4.150000000003667, -0.7072282932570745 
4.1600000000036434, -0.7149988401838208 
4.17000000000362, -0.7260713564769062 
4.180000000003597, -0.7401288535953673 
4.1900000000035735, -0.7558229788267177 
4.20000000000355, -0.7710655953259029 
4.210000000003527, -0.7839550218288142 
4.220000000003504, -0.7936015237158596 
4.23000000000348, -0.8001683725632756 
4.240000000003457, -0.8043507309255983 
4.250000000003434, -0.8068895037418706 
4.26000000000341, -0.8083573860537008 
4.270000000003387, -0.8091344354183461 
4.280000000003364, -0.8094500502997196 
4.2900000000033405, -0.8094283187224436 
4.300000000003317, -0.8091180940104742 
4.310000000003294, -0.8085059260381119 
4.320000000003271, -0.8075128802899527 
4.330000000003247, -0.8059748154957639 
4.340000000003224, -0.8036048010846315 
4.350000000003201, -0.7999418470008219 
4.360000000003177, -0.7943141078876851 
4.370000000003154, -0.7859022651825298 
4.380000000003131, -0.7740518047040358 
4.390000000003107, -0.7588815472966959 
4.400000000003084, -0.741785810781924 
4.410000000003061, -0.7251086126777536 
4.4200000000030375, -0.7110032500302604 
4.430000000003014, -0.7005102191097146 
4.440000000002991, -0.6935260276025598 
4.450000000002968, -0.6893192545224449 
4.460000000002944, -0.6870282667069815 
4.470000000002921, -0.6859251865208944 
4.480000000002898, -0.6854892893768436 
4.490000000002874, -0.6853855413204419 
4.500000000002851, -0.6854139673961046 
4.510000000002828, -0.6854608184639178 
4.520000000002804, -0.6854615122351133 
4.530000000002781, -0.6853758502600928 
4.540000000002758, -0.6851731714200316 
4.5500000000027345, -0.684825383821815 
4.560000000002711, -0.6843069847724347 
4.570000000002688, -0.6836014310419989 
4.580000000002665, -0.6827111145771841 
4.590000000002641, -0.6816644668264628 
4.600000000002618, -0.680512958318434 
4.610000000002595, -0.6793170728367448 
4.620000000002571, -0.6781292516598738 
4.630000000002548, -0.6769837395632556 
4.640000000002525, -0.6758968661836858 
4.6500000000025015, -0.6748742788046169 
4.660000000002478, -0.6739195611701532 
4.670000000002455, -0.6730406420915399 
4.6800000000024315, -0.6722531631496755 
4.690000000002408, -0.6715815069525206 
4.700000000002385, -0.6710583351452115 
4.710000000002362, -0.6707230785510319 
4.720000000002338, -0.6706195975859918 
4.730000000002315, -0.6707933750642334 
4.740000000002292, -0.6712888679723197 
4.750000000002268, -0.672147653968223 
4.760000000002245, -0.6734075107323603 
4.770000000002222, -0.6751015407828515 
4.7800000000021985, -0.6772550930201474 
4.790000000002175, -0.6798770092860302 
4.800000000002152, -0.6829418306880115 
4.810000000002129, -0.686363534793798 
4.820000000002105, -0.6899718201286503 
4.830000000002082, -0.6935152669452278 
4.840000000002059, -0.6967135503501382 
4.850000000002035, -0.6993450270836927 
4.860000000002012, -0.7013133478701058 
4.870000000001989, -0.7026477929981946 
4.880000000001965, -0.7034511029733475 
4.890000000001942, -0.7038412593868777 
4.900000000001919, -0.7039157914290965 
4.9100000000018955, -0.7037389479063383 
4.920000000001872, -0.703340933690137 
