t, s[1].omega / s[0].omega 
0, -0.6899976968882287 
0.009999999999999995, -0.6897685822541892 
0.019999999999999934, -0.6895329456943321 
0.029999999999999874, -0.6892688612356344 
0.04000000000000012, -0.6889523405703255 
0.050000000000000405, -0.6885682603884928 
0.06000000000000069, -0.688116413689739 
0.07000000000000098, -0.6876126865080984 
0.08000000000000126, -0.6870889128757983 
0.09000000000000155, -0.6865949151546098 
0.10000000000000184, -0.6862040722403275 
0.11000000000000212, -0.6860215551927346 
0.12000000000000241, -0.6861928613991861 
0.130000000000002, -0.6869095242165655 
0.1400000000000009, -0.6884090532565403 
0.1499999999999998, -0.6909671714745558 
0.1599999999999987, -0.6948809700236244 
0.1699999999999976, -0.7004392457661426 
0.1799999999999965, -0.7078694433689197 
0.1899999999999954, -0.7172432211667811 
0.1999999999999943, -0.7283315736724241 
0.2099999999999932, -0.7404567032025319 
0.2199999999999921, -0.7524912529993808 
0.229999999999991, -0.7631686524533311 
0.2399999999999899, -0.7716008634312767 
0.2499999999999888, -0.7775869785448952 
0.2599999999999877, -0.7814783169606105 
0.2699999999999866, -0.7838281754054144 
0.2799999999999855, -0.7851345739944858 
0.2899999999999844, -0.7857508406098523 
0.2999999999999833, -0.7858922809947615 
0.3099999999999822, -0.7856680316396836 
0.3199999999999811, -0.785106081551574 
0.32999999999998, -0.7841630130938171 
0.3399999999999789, -0.7827176114420525 
0.3499999999999778, -0.7805483040458883 
0.35999999999997667, -0.7772940819470554 
0.36999999999997557, -0.7723994580306426 
0.37999999999997447, -0.7650474437037861 
0.38999999999997337, -0.7541049892966036 
0.39999999999997227, -0.7382225296541685 
0.40999999999997117, -0.7165345137888284 
0.41999999999997006, -0.6902648928816711 
0.42999999999996896, -0.6636128337831639 
0.43999999999996786, -0.6414888818399005 
0.44999999999996676, -0.6262318749909753 
0.45999999999996566, -0.6172100453426794 
0.46999999999996456, -0.6125354400030665 
0.47999999999996346, -0.6104358309691206 
0.48999999999996235, -0.6096910928933499 
0.49999999999996125, -0.6095801922300544 
0.5099999999999602, -0.6097144151543464 
0.519999999999959, -0.609896875137146 
0.529999999999958, -0.6100312127867524 
0.5399999999999568, -0.61006850789502 
0.5499999999999557, -0.6099783609315506 
0.5599999999999546, -0.6097345991825625 
0.5699999999999535, -0.6093109344680643 
0.5799999999999524, -0.608685133322543 
0.5899999999999513, -0.6078504090917318 
0.5999999999999502, -0.6068287804303599 
0.6099999999999491, -0.6056760736153469 
0.619999999999948, -0.6044703237729901 
0.6299999999999469, -0.6032876245435965 
0.6399999999999458, -0.6021801773522331 
0.6499999999999447, -0.6011682579459033 
0.6599999999999436, -0.6002464442614779 
0.6699999999999425, -0.5993970017157804 
0.6799999999999414, -0.5986029968401707 
0.6899999999999403, -0.5978571074361752 
0.6999999999999392, -0.5971659311828191 
0.7099999999999381, -0.5965518973076465 
0.719999999999937, -0.5960550946610232 
0.7299999999999359, -0.5957363049341826 
0.7399999999999348, -0.5956814561157946 
0.7499999999999337, -0.5960071605049325 
0.7599999999999326, -0.596866950390475 
0.7699999999999315, -0.598457945107272 
0.7799999999999304, -0.6010273463399183 
0.7899999999999293, -0.6048761824311517 
0.7999999999999282, -0.6103521303945596 
0.8099999999999271, -0.6178117849948053 
0.819999999999926, -0.6275170675929316 
0.8299999999999249, -0.6394301781766994 
0.8399999999999238, -0.6529425746402118 
0.8499999999999227, -0.6667563037867845 
0.8599999999999216, -0.6792351532952978 
0.8699999999999205, -0.6891529961432213 
0.8799999999999194, -0.6961884463627876 
0.8899999999999183, -0.7007587511088084 
0.8999999999999172, -0.7035397801372689 
0.9099999999999161, -0.705130168389986 
0.919999999999915, -0.7059474486997244 
0.9299999999999139, -0.7062445538792451 
0.9399999999999128, -0.7061523745236338 
0.9499999999999117, -0.7057104566065746 
0.9599999999999106, -0.7048765749338233 
0.9699999999999095, -0.7035121960912747 
0.9799999999999084, -0.7013378447607626 
0.9899999999999073, -0.6978490479124722 
0.9999999999999062, -0.6921954053136504 
1.0099999999999052, -0.6830938845408826 
1.019999999999904, -0.6690258450397232 
1.029999999999903, -0.6491064044131987 
1.039999999999902, -0.6244370308531303 
1.0499999999999008, -0.5983987222546486 
1.0599999999998997, -0.5748421751439011 
1.0699999999998986, -0.5560111349542913 
1.0799999999998975, -0.5421997228124159 
1.0899999999998964, -0.53261361335739 
1.0999999999998953, -0.5261930635437587 
1.1099999999998942, -0.5220053129621641 
1.119999999999893, -0.5193432740681203 
1.129999999999892, -0.5177054265572081 
1.1399999999998909, -0.5167472502527851 
1.1499999999998898, -0.5162361645548459 
1.1599999999998887, -0.5160171745341217 
1.1699999999998876, -0.5159885702352429 
1.1799999999998865, -0.5160854798512944 
1.1899999999998854, -0.5162693536431175 
1.1999999999998843, -0.5165219322723132 
1.2099999999998832, -0.5168423341757629 
1.219999999999882, -0.5172453966377446 
1.229999999999881, -0.5177586193554795 
1.2399999999998799, -0.5184148550032485 
1.2499999999998788, -0.519239159105064 
1.2599999999998777, -0.5202311796793511 
1.2699999999998766, -0.5213489797028221 
1.2799999999998755, -0.5225049434299485 
1.2899999999998744, -0.5235834895003781 
1.2999999999998733, -0.524476775110366 
1.3099999999998722, -0.5251170925333135 
1.319999999999871, -0.5254856254856433 
1.32999999999987, -0.5255978615120893 
1.3399999999998689, -0.525481030604341 
1.3499999999998678, -0.525156024942782 
1.3599999999998666, -0.5246263313745468 
1.3699999999998655, -0.5238703884865424 
1.3799999999998644, -0.5228318189712436 
1.3899999999998633, -0.5213999823596275 
1.3999999999998622, -0.5193665921789158 
1.4099999999998611, -0.516327159000967 
1.41999999999986, -0.5114677296093711 
1.429999999999859, -0.5031883763476738 
1.4399999999998578, -0.48881114553688565 
1.4499999999998567, -0.46552640228400016 
1.4599999999998556, -0.4337272045533096 
1.4699999999998545, -0.39930714518199695 
1.4799999999998534, -0.3695698082888075 
1.4899999999998523, -0.34779113159179736 
1.4999999999998512, -0.3332679720730666 
1.5099999999998501, -0.32396224364754556 
1.519999999999849, -0.31805473980292753 
1.529999999999848, -0.3142904875220302 
1.5399999999998468, -0.3118806456634615 
1.5499999999998457, -0.31034537415740426 
1.5599999999998446, -0.3093961708640755 
1.5699999999998435, -0.3088620439832655 
1.5799999999998424, -0.3086463531721823 
1.5899999999998413, -0.30870297262907864 
1.5999999999998402, -0.3090247004393929 
1.6099999999998391, -0.30964009128966247 
1.619999999999838, -0.31061690568799033 
1.629999999999837, -0.31207131290798235 
1.6399999999998358, -0.31418153446506863 
1.6499999999998347, -0.3172011533148055 
1.6599999999998336, -0.32145681229903794 
1.6699999999998325, -0.32729256342376195 
1.6799999999998314, -0.3348994238622464 
1.6899999999998303, -0.34401411156610867 
1.6999999999998292, -0.3536936778825711 
1.709999999999828, -0.3625787807712356 
1.719999999999827, -0.36962826338615334 
1.729999999999826, -0.37458786509074177 
1.7399999999998248, -0.37779735413450155 
1.7499999999998237, -0.37976298950544607 
1.7599999999998226, -0.3809068036368606 
1.7699999999998215, -0.3815106443610018 
1.7799999999998204, -0.3817407174640713 
1.7899999999998193, -0.38168298167887105 
1.7999999999998182, -0.3813690939961171 
1.809999999999817, -0.38079330343497353 
1.819999999999816, -0.3799267281254505 
1.8299999999998149, -0.3787367521309276 
1.8399999999998138, -0.3772161882856477 
1.8499999999998127, -0.3754153795603253 
1.8599999999998116, -0.3734548652947569 
1.8699999999998105, -0.37149842134001854 
1.8799999999998094, -0.3696979584213357 
1.8899999999998083, -0.36814848409661216 
1.8999999999998072, -0.36687729166983574 
1.909999999999806, -0.3658599594362973 
1.919999999999805, -0.3650443201864285 
1.9299999999998039, -0.36437096094458776 
1.9399999999998028, -0.36378706581814313 
1.9499999999998017, -0.3632536670850064 
1.9599999999998006, -0.36274762505145086 
1.9699999999997995, -0.36226076563419457 
1.9799999999997984, -0.3617990655279887 
1.9899999999997973, -0.3613844444043273 
1.9999999999997962, -0.3610614079570865 
2.0099999999998173, -0.3609111742325019 
2.0199999999998384, -0.3610767704116678 
2.0299999999998595, -0.36180145688681764 
2.0399999999998806, -0.3634698338199863 
2.0499999999999017, -0.36658339937384066 
2.059999999999923, -0.3714260235244369 
2.069999999999944, -0.37689241735523904 
2.079999999999965, -0.3784810455083057 
2.089999999999986, -0.36893726496965057 
2.100000000000007, -0.34610194739030264 
2.1100000000000283, -0.3180360660748188 
2.1200000000000494, -0.29420772330032596 
2.1300000000000705, -0.27775143285997145 
2.1400000000000916, -0.2674256236864189 
2.1500000000001127, -0.2611530728285728 
2.160000000000134, -0.2573529017171327 
2.170000000000155, -0.2550363282492159 
2.180000000000176, -0.2536237255145151 
2.190000000000197, -0.2527821296466447 
2.2000000000002182, -0.2523228005711323 
2.2100000000002393, -0.25214314648680364 
2.2200000000002604, -0.2521957346026276 
2.2300000000002815, -0.2524734904662963 
2.2400000000003026, -0.25300528248249265 
2.2500000000003237, -0.2538591859931823 
2.260000000000345, -0.25515232552768136 
2.270000000000366, -0.2570662944634919 
2.280000000000387, -0.25986416883069163 
2.290000000000408, -0.2638943299648033 
2.3000000000004293, -0.26954056839779217 
2.3100000000004504, -0.2770455677310491 
2.3200000000004715, -0.28617519168016375 
2.3300000000004926, -0.29594628357343855 
2.3400000000005137, -0.3049050986545146 
2.3500000000005348, -0.31195119270876026 
2.360000000000556, -0.3168466899880983 
2.370000000000577, -0.3199768444559029 
2.380000000000598, -0.32187834400476256 
2.390000000000619, -0.3229834053586963 
2.4000000000006403, -0.3235740732905064 
2.4100000000006614, -0.32381514427523117 
2.4200000000006825, -0.32379397801496523 
2.4300000000007036, -0.32354909992111325 
2.4400000000007247, -0.3230895157195058 
2.450000000000746, -0.32241091750739265 
2.460000000000767, -0.3215138647348975 
2.470000000000788, -0.32042410324513015 
2.480000000000809, -0.3192069313350971 
2.49000000000083, -0.31796304839386363 
2.5000000000008513, -0.3168027899781488 
2.5100000000008724, -0.3158134789621938 
2.5200000000008935, -0.31503925224242557 
2.5300000000009146, -0.3144792645714105 
2.5400000000009357, -0.31409757315464504 
2.550000000000957, -0.313837326705051 
2.560000000000978, -0.31363575791997983 
2.570000000000999, -0.31343720635876154 
2.58000000000102, -0.3132006609163517 
2.5900000000010412, -0.3129001430826749 
2.6000000000010624, -0.3125196179306035 
2.6100000000010835, -0.3120454493569752 
2.6200000000011046, -0.31145785090829203 
2.6300000000011257, -0.3107196671653489 
2.6400000000011468, -0.3097563532964964 
2.650000000001168, -0.3084126421208328 
2.660000000001189, -0.30635437050324127 
2.67000000000121, -0.3028607266141309 
2.680000000001231, -0.2964853131712244 
2.6900000000012523, -0.28490865659169906 
2.7000000000012734, -0.2661337908208992 
2.7100000000012945, -0.24151539703788766 
2.7200000000013156, -0.21651588311673747 
2.7300000000013367, -0.19619428521383211 
2.740000000001358, -0.18189120799354025 
2.750000000001379, -0.17248187010279034 
2.7600000000014, -0.16639326425922804 
2.770000000001421, -0.16241373355850988 
2.780000000001442, -0.15976018562794297 
2.7900000000014633, -0.1579574083786075 
2.8000000000014844, -0.15672485082547077 
2.8100000000015055, -0.15590294085789352 
2.8200000000015266, -0.15541133499523652 
2.8300000000015477, -0.15522896346888335 
2.840000000001569, -0.15539031159191438 
2.85000000000159, -0.1559975430498811 
2.860000000001611, -0.15725385254545426 
2.870000000001632, -0.1595313207460944 
2.8800000000016532, -0.1634965807337576 
2.8900000000016743, -0.1703173156177839 
2.9000000000016954, -0.1818892907311644 
2.9100000000017165, -0.2005960978575144 
2.9200000000017377, -0.22704159001432078 
2.9300000000017588, -0.25486989358327683 
2.94000000000178, -0.2710389036842833 
2.950000000001801, -0.2701890454702861 
2.960000000001822, -0.2602956426981382 
2.970000000001843, -0.2501082688636674 
2.9800000000018643, -0.24272762424005 
2.9900000000018854, -0.23802202674621165 
3.0000000000019065, -0.23515496578216216 
3.0100000000019276, -0.2334328280946833 
3.0200000000019487, -0.2324087937264348 
3.03000000000197, -0.23181800622379356 
3.040000000001991, -0.2315096903461935 
3.050000000002012, -0.23140271765532655 
3.060000000002033, -0.23146063872047096 
3.070000000002054, -0.2316795960522259 
3.0800000000020753, -0.23208471515015394 
3.0900000000020964, -0.23273254478799843 
3.1000000000021175, -0.23371817923081664 
3.1100000000021386, -0.23518567455968778 
3.1200000000021597, -0.23733816704551725 
3.130000000002181, -0.24043647069791074 
3.140000000002202, -0.24475771313248956 
3.150000000002223, -0.25046678173582093 
3.160000000002244, -0.2573864970913958 
3.1700000000022652, -0.2648189613594748 
3.1800000000022863, -0.27172832574666017 
3.1900000000023074, -0.2772875413718686 
3.2000000000023285, -0.281252546972778 
3.2100000000023496, -0.28384585694195874 
3.2200000000023707, -0.2854408318785139 
3.230000000002392, -0.28636159821789836 
3.240000000002413, -0.2868297769759745 
3.250000000002434, -0.286978000809316 
3.260000000002455, -0.2868761658735617 
3.2700000000024763, -0.2865531915911683 
3.2800000000024974, -0.2860140013851197 
3.2900000000025185, -0.28525611706430315 
3.3000000000025396, -0.28428906501583506 
3.3100000000025607, -0.2831538574456945 
3.3200000000025818, -0.2819318830096746 
3.330000000002603, -0.2807323705276724 
3.340000000002624, -0.2796619155810938 
3.350000000002645, -0.27879486076518634 
3.360000000002666, -0.2781600763795604 
3.3700000000026873, -0.2777438915011873 
3.3800000000027084, -0.2775008609485078 
3.3900000000027295, -0.2773671849666699 
3.4000000000027506, -0.2772752516951877 
3.4100000000027717, -0.2771665908888593 
3.420000000002793, -0.2769988876760531 
3.430000000002814, -0.2767450144194813 
3.440000000002835, -0.27638597860615766 
3.450000000002856, -0.27590083443733826 
3.460000000002877, -0.2752543283283805 
3.4700000000028983, -0.27437906474310214 
3.4800000000029194, -0.27314371384144687 
3.4900000000029405, -0.27129130615074903 
3.5000000000029616, -0.26832593106951796 
3.5100000000029827, -0.2633538821837537 
3.520000000003004, -0.2550473685586791 
3.530000000003025, -0.2422407952339003 
3.540000000003046, -0.22543610492203645 
3.550000000003067, -0.20755469209464056 
3.5600000000030882, -0.1919856843946451 
3.5700000000031094, -0.18027187113600066 
3.5800000000031305, -0.17214287081486726 
3.5900000000031516, -0.16666925573520056 
3.6000000000031727, -0.16298174345011274 
3.6100000000031938, -0.16045802172767445 
3.620000000003215, -0.15869485663259003 
3.630000000003236, -0.15744224531115503 
3.640000000003257, -0.15655102687849617 
3.650000000003278, -0.1559398155070657 
3.6600000000032993, -0.1555774187451044 
3.6700000000033204, -0.1554775087255231 
3.6800000000033415, -0.15570514631149798 
3.6900000000033626, -0.15639837409444385 
3.7000000000033837, -0.15781267923037762 
3.710000000003405, -0.16040014038321293 
3.720000000003426, -0.1649252445948471 
3.730000000003447, -0.17253248305758784 
3.740000000003468, -0.1843116214912069 
3.750000000003489, -0.19907919318318482 
3.7600000000035103, -0.20904575378802875 
3.7700000000035314, -0.2020028561603521 
3.7800000000035525, -0.1776865141896869 
3.7900000000035736, -0.15022589243956283 
3.8000000000035947, -0.1295691781517911 
3.810000000003616, -0.11649832266088236 
3.820000000003637, -0.1086531435584875 
3.830000000003658, -0.10393747256321444 
3.840000000003679, -0.10104696758954539 
3.8500000000037002, -0.09924539870364578 
3.8600000000037213, -0.0981287035042 
3.8700000000037424, -0.0974807640426754 
3.8800000000037635, -0.09719708555241564 
3.8900000000037847, -0.0972489551787416 
3.9000000000038058, -0.09767301422280986 
3.910000000003827, -0.09858147508675502 
3.920000000003848, -0.10019683686193104 
3.930000000003869, -0.10292474064116522 
3.94000000000389, -0.10749053531865918 
3.9500000000039113, -0.11516644214944896 
3.9600000000039324, -0.12802953811941822 
3.9700000000039535, -0.14874896046601213 
3.9800000000039746, -0.1783939051506493 
3.9900000000039957, -0.21180330700694686 
4.000000000004016, -0.23819780498386106 
4.010000000003993, -0.2520637008118669 
4.02000000000397, -0.2568649792762284 
4.030000000003946, -0.25774814064919627 
4.040000000003923, -0.2575139709595887 
4.0500000000039, -0.2571442427006648 
4.0600000000038765, -0.2568744491730989 
4.070000000003853, -0.25671778768513176 
4.08000000000383, -0.2566424797607091 
4.090000000003807, -0.2566193662355632 
4.100000000003783, -0.25663092178571734 
4.11000000000376, -0.2566714367692322 
4.120000000003737, -0.25674686553798304 
4.130000000003713, -0.25687631408150174 
4.14000000000369, -0.2570950012038332 
4.150000000003667, -0.2574574976789454 
4.1600000000036434, -0.25803942748872327 
4.17000000000362, -0.2589353804671747 
4.180000000003597, -0.26024953036717774 
4.1900000000035735, -0.2620724419173966 
4.20000000000355, -0.2644364934757479 
4.210000000003527, -0.26725563652601775 
4.220000000003504, -0.27029051501974694 
4.23000000000348, -0.2732000486576777 
4.240000000003457, -0.2756769412645487 
4.250000000003434, -0.27756309747880187 
4.26000000000341, -0.27885806185458667 
4.270000000003387, -0.2796493799748815 
4.280000000003364, -0.2800404959477186 
4.2900000000033405, -0.28011100419490303 
4.300000000003317, -0.27990355748103835 
4.310000000003294, -0.2794229241159584 
4.320000000003271, -0.27863935855701627 
4.330000000003247, -0.27749694733574926 
4.340000000003224, -0.27593410146844854 
4.350000000003201, -0.2739235778195742 
4.360000000003177, -0.271523996803341 
4.370000000003154, -0.26890585266977085 
4.380000000003131, -0.26631154509854216 
4.390000000003107, -0.2639645823266166 
4.400000000003084, -0.261997130134349 
4.410000000003061, -0.26043876242220554 
4.4200000000030375, -0.259247799414687 
4.430000000003014, -0.25834880688696216 
4.440000000002991, -0.25765898248866587 
4.450000000002968, -0.2571031961434308 
4.460000000002944, -0.2566213766638096 
4.470000000002921, -0.25617045470449307 
4.480000000002898, -0.2557223313578258 
4.490000000002874, -0.2552596370294925 
4.500000000002851, -0.2547707941503237 
4.510000000002828, -0.25424453516205736 
4.520000000002804, -0.25366142294145766 
4.530000000002781, -0.2529743995386219 
4.540000000002758, -0.25205648583196905 
4.5500000000027345, -0.2505604352674264 
4.560000000002711, -0.2475808835606655 
4.570000000002688, -0.2410602574645569 
4.580000000002665, -0.22759738767368884 
4.590000000002641, -0.20485868998691686 
4.600000000002618, -0.17628076752847927 
4.610000000002595, -0.14975303475059706 
4.620000000002571, -0.130120343993888 
4.630000000002548, -0.11726912573474882 
4.640000000002525, -0.10920748343241811 
4.6500000000025015, -0.10413784203727114 
4.660000000002478, -0.10087887908260976 
4.670000000002455, -0.0987284028459998 
4.6800000000024315, -0.0972818169097677 
4.690000000002408, -0.09631026938026309 
4.700000000002385, -0.09569157604449588 
4.710000000002362, -0.09537509109702716 
4.720000000002338, -0.09536857934409118 
4.730000000002315, -0.09574269784814766 
4.740000000002292, -0.09665536005063588 
4.750000000002268, -0.09840530240740655 
4.760000000002245, -0.10153031247751103 
4.770000000002222, -0.10695252815593234 
4.7800000000021985, -0.1160470783253901 
4.790000000002175, -0.12996189098224548 
4.800000000002152, -0.1464126363220677 
4.810000000002129, -0.15464897235276956 
4.820000000002105, -0.14220668454309465 
4.830000000002082, -0.11460860203937469 
4.840000000002059, -0.08824240790176643 
4.850000000002035, -0.07018729790750934 
4.860000000002012, -0.0592658953622414 
4.870000000001989, -0.05281378895633324 
