t, s[1].omega / s[0].omega 
0, -0.6999976927053202 
0.009999999999999995, -0.6997624164333571 
0.019999999999999934, -0.6995108359620382 
0.029999999999999874, -0.6992251294355739 
0.04000000000000012, -0.6988863411788205 
0.050000000000000405, -0.6984836077062587 
0.06000000000000069, -0.6980192019675909 
0.07000000000000098, -0.697509564621164 
0.08000000000000126, -0.6969853563401162 
0.09000000000000155, -0.6964933576175917 
0.10000000000000184, -0.6961011113041207 
0.11000000000000212, -0.6959032850826757 
0.12000000000000241, -0.6960274760542755 
0.130000000000002, -0.6966367178895456 
0.1400000000000009, -0.6979264323967801 
0.1499999999999998, -0.7001147544687146 
0.1599999999999987, -0.7034258046618389 
0.1699999999999976, -0.7080636939011853 
0.1799999999999965, -0.7141701847307004 
0.1899999999999954, -0.7217548864358047 
0.1999999999999943, -0.7305959208836591 
0.2099999999999932, -0.7401493014781876 
0.2199999999999921, -0.7495685918222741 
0.229999999999991, -0.7579310338148794 
0.2399999999999899, -0.7645894080027873 
0.2499999999999888, -0.7693809280184846 
0.2599999999999877, -0.772542613553514 
0.2699999999999866, -0.7744734415144131 
0.2799999999999855, -0.7755472161342059 
0.2899999999999844, -0.776037980115529 
0.2999999999999833, -0.7761169378603235 
0.3099999999999822, -0.7758720440593251 
0.3199999999999811, -0.775325312600006 
0.32999999999998, -0.7744400084672359 
0.3399999999999789, -0.7731165471584176 
0.3499999999999778, -0.771177635130569 
0.35999999999997667, -0.7683440846335718 
0.36999999999997557, -0.7642046611157538 
0.37999999999997447, -0.7581871615979844 
0.38999999999997337, -0.7495531013118784 
0.39999999999997227, -0.7375108374256338 
0.40999999999997117, -0.7217004084762502 
0.41999999999997006, -0.7031475861306977 
0.42999999999996896, -0.6846798166878862 
0.43999999999996786, -0.6694910617708077 
0.44999999999996676, -0.6591262278818173 
0.45999999999996566, -0.6531665223067389 
0.46999999999996456, -0.6502883249559998 
0.47999999999996346, -0.6492074374100811 
0.48999999999996235, -0.6490252522617137 
0.49999999999996125, -0.6492129888877077 
0.5099999999999602, -0.6494933967407686 
0.519999999999959, -0.6497334341174852 
0.529999999999958, -0.6498725443228597 
0.5399999999999568, -0.6498806171299331 
0.5499999999999557, -0.6497350496050889 
0.5599999999999546, -0.6494093599367715 
0.5699999999999535, -0.6488700405971437 
0.5799999999999524, -0.6480816840510336 
0.5899999999999513, -0.6470210465402408 
0.5999999999999502, -0.6456963427346281 
0.6099999999999491, -0.644160155944315 
0.619999999999948, -0.6425026966337837 
0.6299999999999469, -0.6408252167792694 
0.6399999999999458, -0.6392102677287006 
0.6499999999999447, -0.637706373185843 
0.6599999999999436, -0.6363307117723757 
0.6699999999999425, -0.6350819034007323 
0.6799999999999414, -0.6339536914737585 
0.6899999999999403, -0.6329445853905675 
0.6999999999999392, -0.6320627534211853 
0.7099999999999381, -0.6313275218154827 
0.719999999999937, -0.6307690128757557 
0.7299999999999359, -0.630426847393531 
0.7399999999999348, -0.6303483520539265 
0.7499999999999337, -0.6305866393120645 
0.7599999999999326, -0.6311990736784041 
0.7699999999999315, -0.6322466428255009 
0.7799999999999304, -0.6337943011986953 
0.7899999999999293, -0.6359112471959572 
0.7999999999999282, -0.6386682209751438 
0.8099999999999271, -0.6421263814560147 
0.819999999999926, -0.6463102824144927 
0.8299999999999249, -0.6511600248536332 
0.8399999999999238, -0.6564730161496127 
0.8499999999999227, -0.6618771354329439 
0.8599999999999216, -0.6668954354826103 
0.8699999999999205, -0.6711076045851702 
0.8799999999999194, -0.6743032652853537 
0.8899999999999183, -0.6765084435744382 
0.8999999999999172, -0.6778931632551392 
0.9099999999999161, -0.6786591727244701 
0.919999999999915, -0.6789729310051025 
0.9299999999999139, -0.6789442676031269 
0.9399999999999128, -0.6786269707947048 
0.9499999999999117, -0.6780226159321334 
0.9599999999999106, -0.677077929499459 
0.9699999999999095, -0.6756698800059943 
0.9799999999999084, -0.6735715773539531 
0.9899999999999073, -0.6703877820806087 
0.9999999999999062, -0.6654468736262471 
1.0099999999999052, -0.6576614788504794 
1.019999999999904, -0.6454964425022542 
1.029999999999903, -0.627464066659956 
1.039999999999902, -0.6035473924784243 
1.0499999999999008, -0.5765543017860657 
1.0599999999998997, -0.551083554055788 
1.0699999999998986, -0.5305869456099472 
1.0799999999998975, -0.515938656544498 
1.0899999999998964, -0.5062597219340812 
1.0999999999998953, -0.500174999937234 
1.1099999999998942, -0.4964788556157881 
1.119999999999893, -0.49429985593671066 
1.129999999999892, -0.49306008785635314 
1.1399999999998909, -0.4923918245812988 
1.1499999999998898, -0.49206590103560066 
1.1599999999998887, -0.49194115404621985 
1.1699999999998876, -0.49193146526922016 
1.1799999999998865, -0.49198529760666165 
1.1899999999998854, -0.49207376707824063 
1.1999999999998843, -0.4921845657987717 
1.2099999999998832, -0.4923196654343463 
1.219999999999882, -0.4924945395435419 
1.229999999999881, -0.49273608310491995 
1.2399999999998799, -0.4930765279467028 
1.2499999999998788, -0.49354232301263645 
1.2599999999998777, -0.49413986134363397 
1.2699999999998766, -0.4948431176945681 
1.2799999999998755, -0.49559065306199646 
1.2899999999998744, -0.4962980219612893 
1.2999999999998733, -0.49688279940298996 
1.3099999999998722, -0.49728833234338427 
1.319999999999871, -0.49749223636902196 
1.32999999999987, -0.4974983212168433 
1.3399999999998689, -0.4973212943840684 
1.3499999999998678, -0.49697312486355383 
1.3599999999998666, -0.4964537724885908 
1.3699999999998655, -0.4957443084061068 
1.3799999999998644, -0.4947983523403326 
1.3899999999998633, -0.4935256417660653 
1.3999999999998622, -0.49175599108587165 
1.4099999999998611, -0.48915925690733647 
1.41999999999986, -0.4850797802271877 
1.429999999999859, -0.4782681939162887 
1.4399999999998578, -0.4667346722857486 
1.4499999999998567, -0.4485396491826349 
1.4599999999998556, -0.424109216765323 
1.4699999999998545, -0.39763130099520105 
1.4799999999998534, -0.374305397255532 
1.4899999999998523, -0.3567095066287509 
1.4999999999998512, -0.3446093911659412 
1.5099999999998501, -0.3366453136721992 
1.519999999999849, -0.331479784900372 
1.529999999999848, -0.32813381969086197 
1.5399999999998468, -0.32596533227596947 
1.5499999999998457, -0.32457116932740243 
1.5599999999998446, -0.3237029927364537 
1.5699999999998435, -0.32321072217423985 
1.5799999999998424, -0.323007945612952 
1.5899999999998413, -0.32305214582731984 
1.5999999999998402, -0.32333470540869286 
1.6099999999998391, -0.32387772872153997 
1.619999999999838, -0.32473606454565657 
1.629999999999837, -0.3260034103857068 
1.6399999999998358, -0.3278206679354604 
1.6499999999998347, -0.3303816363337576 
1.6599999999998336, -0.33392331049024887 
1.6699999999998325, -0.338674088988942 
1.6799999999998314, -0.344724586941486 
1.6899999999998303, -0.3518288227850304 
1.6999999999998292, -0.35928494185056314 
1.709999999999828, -0.3661360821489909 
1.719999999999827, -0.3716467322432215 
1.729999999999826, -0.3756073094821094 
1.7399999999998248, -0.3782267871629627 
1.7499999999998237, -0.37985620858731395 
1.7599999999998226, -0.3808066669072504 
1.7699999999998215, -0.3812953788642034 
1.7799999999998204, -0.38145407060707737 
1.7899999999998193, -0.38135089823382545 
1.7999999999998182, -0.3810084188590725 
1.809999999999817, -0.3804161241750682 
1.819999999999816, -0.3795420441741884 
1.8299999999998149, -0.3783500163056962 
1.8399999999998138, -0.3768271450536155 
1.8499999999998127, -0.3750156977497686 
1.8599999999998116, -0.37302825671190143 
1.8699999999998105, -0.37102472508147266 
1.8799999999998094, -0.3691590496217251 
1.8899999999998083, -0.3675322920917429 
1.8999999999998072, -0.36617866542079003 
1.909999999999806, -0.36507980401676554 
1.919999999999805, -0.36418854107780474 
1.9299999999998039, -0.3634495517877639 
1.9399999999998028, -0.36281304766746547 
1.9499999999998017, -0.36224182077096667 
1.9599999999998006, -0.361713334378489 
1.9699999999997995, -0.3612192894293057 
1.9799999999997984, -0.3607652604848482 
1.9899999999997973, -0.36037264186483264 
1.9999999999997962, -0.36008488082330603 
2.0099999999998173, -0.3599802918104559 
2.0199999999998384, -0.3601944359634427 
2.0299999999998595, -0.3609542639343192 
2.0399999999998806, -0.36261690325089196 
2.0499999999999017, -0.3656660518982269 
2.059999999999923, -0.37050110422598775 
2.069999999999944, -0.37666531205671816 
2.079999999999965, -0.3814312132618335 
2.089999999999986, -0.37970344097255726 
2.100000000000007, -0.3684836500719557 
2.1100000000000283, -0.35140776971929183 
2.1200000000000494, -0.33496424307741984 
2.1300000000000705, -0.32260398210604446 
2.1400000000000916, -0.3144308737257593 
2.1500000000001127, -0.30933206253669304 
2.160000000000134, -0.30622114809952444 
2.170000000000155, -0.3043385772290226 
2.180000000000176, -0.303210279459267 
2.190000000000197, -0.3025529777777223 
2.2000000000002182, -0.3022009552307343 
2.2100000000002393, -0.30206005107982487 
2.2200000000002604, -0.3020811829441238 
2.2300000000002815, -0.30224629412817955 
2.2400000000003026, -0.30256215025762684 
2.2500000000003237, -0.30305922148834 
2.260000000000345, -0.30379369035053483 
2.270000000000366, -0.30485048239963036 
2.280000000000387, -0.30634394377752555 
2.290000000000408, -0.3084096514008675 
2.3000000000004293, -0.31117548514624677 
2.3100000000004504, -0.3146975349433322 
2.3200000000004715, -0.31886482300250746 
2.3300000000004926, -0.32333377659706 
2.3400000000005137, -0.32759761734796544 
2.3500000000005348, -0.331200744391619 
2.360000000000556, -0.33392644803913335 
2.370000000000577, -0.33580519829401706 
2.380000000000598, -0.3369962038594049 
2.390000000000619, -0.3376741747879714 
2.4000000000006403, -0.3379747451059569 
2.4100000000006614, -0.3379828436265198 
2.4200000000006825, -0.3377377687173085 
2.4300000000007036, -0.3372409995958197 
2.4400000000007247, -0.33646385988442884 
2.450000000000746, -0.33535879161572985 
2.460000000000767, -0.3338812332857677 
2.470000000000788, -0.3320256051741011 
2.480000000000809, -0.32986317492642864 
2.49000000000083, -0.3275504827367876 
2.5000000000008513, -0.3252863095321302 
2.5100000000008724, -0.323240945615017 
2.5200000000008935, -0.32150854148754726 
2.5300000000009146, -0.32010467471136284 
2.5400000000009357, -0.3189917780884652 
2.550000000000957, -0.3181079859153823 
2.560000000000978, -0.3173881668661712 
2.570000000000999, -0.316776188006097 
2.58000000000102, -0.3162303662551219 
2.5900000000010412, -0.3157242910592094 
2.6000000000010624, -0.3152453441824493 
2.6100000000010835, -0.31479317886475056 
2.6200000000011046, -0.3143799220522524 
2.6300000000011257, -0.31403326295751355 
2.6400000000011468, -0.31380295859811075 
2.650000000001168, -0.3137693982875828 
2.660000000001189, -0.3140451606952922 
2.67000000000121, -0.3147336574024525 
2.680000000001231, -0.3157346648373055 
2.6900000000012523, -0.31616430530429307 
2.7000000000012734, -0.31331741550801673 
2.7100000000012945, -0.3026249380924289 
2.7200000000013156, -0.2817539816112244 
2.7300000000013367, -0.25554028344711327 
2.740000000001358, -0.23194413288073396 
2.750000000001379, -0.2147844440709903 
2.7600000000014, -0.2035760220530997 
2.770000000001421, -0.19652543489587618 
2.780000000001442, -0.19209698832216804 
2.7900000000014633, -0.18928152404519089 
2.8000000000014844, -0.18747216078342124 
2.8100000000015055, -0.18631538552320467 
2.8200000000015266, -0.18561014742037268 
2.8300000000015477, -0.18524933571033722 
2.840000000001569, -0.18518902647292682 
2.85000000000159, -0.1854355794793253 
2.860000000001611, -0.18604591705240908 
2.870000000001632, -0.18714047180345092 
2.8800000000016532, -0.18893183329468646 
2.8900000000016743, -0.19177491607688396 
2.9000000000016954, -0.19624262050737978 
2.9100000000017165, -0.20320792322829412 
2.9200000000017377, -0.21382292385908377 
2.9300000000017588, -0.22907706633858696 
2.94000000000178, -0.24855069531656943 
2.950000000001801, -0.2691297825131336 
2.960000000001822, -0.2863041341929006 
2.970000000001843, -0.2977439205456777 
2.9800000000018643, -0.3042480658190118 
2.9900000000018854, -0.30769630112363866 
3.0000000000019065, -0.3095294126318467 
3.0100000000019276, -0.31054386815413154 
3.0200000000019487, -0.3111279268697262 
3.03000000000197, -0.3114655160224569 
3.040000000001991, -0.31164540359048043 
3.050000000002012, -0.3117119384454904 
3.060000000002033, -0.31168837084755774 
3.070000000002054, -0.3115888875730848 
3.0800000000020753, -0.3114267285856981 
3.0900000000020964, -0.3112211913697835 
3.1000000000021175, -0.31100335245980265 
3.1100000000021386, -0.31081826778304994 
3.1200000000021597, -0.3107212491260219 
3.130000000002181, -0.3107680687984021 
3.140000000002202, -0.31100155281971203 
3.150000000002223, -0.31143756961712565 
3.160000000002244, -0.3120534103959628 
3.1700000000022652, -0.3127840375465944 
3.1800000000022863, -0.31353346649496794 
3.1900000000023074, -0.3142014516953306 
3.2000000000023285, -0.3147118911708251 
3.2100000000023496, -0.3150257755733429 
3.2200000000023707, -0.31513447145490214 
3.230000000002392, -0.3150425582144605 
3.240000000002413, -0.31475031875230053 
3.250000000002434, -0.3142391314146026 
3.260000000002455, -0.31345727516285343 
3.2700000000024763, -0.31230172150491786 
3.2800000000024974, -0.3105934452193935 
3.2900000000025185, -0.3080535603773124 
3.3000000000025396, -0.30431454155173293 
3.3100000000025607, -0.299040700376471 
3.3200000000025818, -0.29220657003613365 
3.330000000002603, -0.2843620850525893 
3.340000000002624, -0.2765068694016263 
3.350000000002645, -0.26956081901417256 
3.360000000002666, -0.26396425414970104 
3.3700000000026873, -0.2597045319002653 
3.3800000000027084, -0.2565470815658959 
3.3900000000027295, -0.2542183624179931 
3.4000000000027506, -0.25248671864894295 
3.4100000000027717, -0.25118068899042706 
3.420000000002793, -0.25018331258845494 
3.430000000002814, -0.24942142884285395 
3.440000000002835, -0.24885694694397914 
3.450000000002856, -0.24848238192589114 
3.460000000002877, -0.24832185756211117 
3.4700000000028983, -0.24843929471878745 
3.4800000000029194, -0.2489571034828922 
3.4900000000029405, -0.25009129930755136 
3.5000000000029616, -0.2522115467672517 
3.5100000000029827, -0.2559306828460377 
3.520000000003004, -0.26219034555298754 
3.530000000003025, -0.27215475982924703 
3.540000000003046, -0.2863514829385859 
3.550000000003067, -0.30244955434948556 
3.5600000000030882, -0.31377203551542276 
3.5700000000031094, -0.31425622255861996 
3.5800000000031305, -0.3057590513382245 
3.5900000000031516, -0.29495401491632134 
3.6000000000031727, -0.28612113565839015 
3.6100000000031938, -0.2801026422089765 
3.620000000003215, -0.27630876100537083 
3.630000000003236, -0.2739895575227834 
3.640000000003257, -0.27259048169927513 
3.650000000003278, -0.27175958927099003 
3.6600000000032993, -0.27128639005742655 
3.6700000000033204, -0.27104932945106053 
3.6800000000033415, -0.27098208187746586 
3.6900000000033626, -0.2710544293224414 
3.7000000000033837, -0.2712628248021939 
3.710000000003405, -0.27162732836349707 
3.720000000003426, -0.27219281304115034 
3.730000000003447, -0.2730327524103276 
3.740000000003468, -0.27425339780763985 
3.750000000003489, -0.2759941283035981 
3.7600000000035103, -0.2784148577581947 
3.7700000000035314, -0.2816537517950948 
3.7800000000035525, -0.2857382915754694 
3.7900000000035736, -0.2904684134610281 
3.8000000000035947, -0.29537238139340954 
3.810000000003616, -0.29985551282941125 
3.820000000003637, -0.30347708180917016 
3.830000000003658, -0.3061074065027209 
3.840000000003679, -0.3078612624345372 
3.8500000000037002, -0.30894302189661305 
3.8600000000037213, -0.30954011281147137 
3.8700000000037424, -0.30978582295336726 
3.8800000000037635, -0.3097592702848056 
3.8900000000037847, -0.3094960114958366 
3.9000000000038058, -0.3089989989883754 
3.910000000003827, -0.30824961686370334 
3.920000000003848, -0.3072229204397959 
3.930000000003869, -0.3059108366242494 
3.94000000000389, -0.3043496897357745 
3.9500000000039113, -0.3026357243830193 
3.9600000000039324, -0.3009095157699262 
3.9700000000039535, -0.29931183653457155 
3.9800000000039746, -0.29794018620638824 
3.9900000000039957, -0.2968317688849165 
4.000000000004016, -0.29597241696653953 
4.010000000003993, -0.29531607386424086 
4.02000000000397, -0.29480344439669504 
4.030000000003946, -0.2943761616863815 
4.040000000003923, -0.29398578556704913 
4.0500000000039, -0.2935973810291823 
4.0600000000038765, -0.2931884240667917 
4.070000000003853, -0.29274494424539343 
4.08000000000383, -0.2922567572728255 
4.090000000003807, -0.2917122938161665 
4.100000000003783, -0.29109130377307657 
4.11000000000376, -0.2903497853398941 
4.120000000003737, -0.2893825803495897 
4.130000000003713, -0.287929060744024 
4.14000000000369, -0.28535623616859473 
4.150000000003667, -0.2802780397790404 
4.1600000000036434, -0.2703396577347541 
4.17000000000362, -0.2534115948910933 
4.180000000003597, -0.23070191710616275 
4.1900000000035735, -0.20747719315177546 
4.20000000000355, -0.1885728690260838 
4.210000000003527, -0.17526168602008474 
4.220000000003504, -0.1665021966353702 
4.23000000000348, -0.16083581838409935 
4.240000000003457, -0.15713789138048598 
4.250000000003434, -0.15468070640787104 
4.26000000000341, -0.15302263607197372 
4.270000000003387, -0.15190354814136772 
4.280000000003364, -0.15117654833676392 
4.2900000000033405, -0.1507693557912097 
4.300000000003317, -0.15066605676791 
4.310000000003294, -0.15090409481897743 
4.320000000003271, -0.15158602505961244 
4.330000000003247, -0.15291057826853444 
4.340000000003224, -0.15523372704098692 
4.350000000003201, -0.15917609467902344 
4.360000000003177, -0.16578274468073737 
4.370000000003154, -0.1766458187286044 
4.380000000003131, -0.1935276382344132 
4.390000000003107, -0.21636471878819682 
4.400000000003084, -0.23980663751795914 
4.410000000003061, -0.25473114562272375 
4.4200000000030375, -0.2578749202993548 
4.430000000003014, -0.2542080542582171 
4.440000000002991, -0.2492363714415879 
4.450000000002968, -0.24526949322359798 
4.460000000002944, -0.242597886048242 
4.470000000002921, -0.24091548631764342 
4.480000000002898, -0.23988798215795684 
4.490000000002874, -0.23927686037804824 
4.500000000002851, -0.23893299138622406 
4.510000000002828, -0.23876968598609247 
4.520000000002804, -0.23874152941730276 
4.530000000002781, -0.2388318491618719 
4.540000000002758, -0.23904705588054828 
4.5500000000027345, -0.23941598812888523 
4.560000000002711, -0.23999284618774555 
4.570000000002688, -0.24086237484481923 
4.580000000002665, -0.24214522557455026 
4.590000000002641, -0.24399885131180893 
4.600000000002618, -0.24660289791226594 
4.610000000002595, -0.2501082416743496 
4.620000000002571, -0.2545298241302908 
4.630000000002548, -0.25961251456874596 
4.640000000002525, -0.26480079308684734 
4.6500000000025015, -0.2694420577409995 
4.660000000002478, -0.27310316993560596 
4.670000000002455, -0.2757050004845443 
4.6800000000024315, -0.2774102394310364 
4.690000000002408, -0.27844913874490385 
4.700000000002385, -0.2790177031185495 
4.710000000002362, -0.2792501329279965 
4.720000000002338, -0.27922517706678485 
4.730000000002315, -0.27898012985384607 
4.740000000002292, -0.2785240244148957 
4.750000000002268, -0.27785060409321116 
4.760000000002245, -0.2769543119971404 
4.770000000002222, -0.2758502601436497 
4.7800000000021985, -0.2745919668403213 
4.790000000002175, -0.2732737755752683 
4.800000000002152, -0.272009905744395 
4.810000000002129, -0.27090035753335495 
4.820000000002105, -0.2700050395065262 
4.830000000002082, -0.26933736613476666 
4.840000000002059, -0.26887239146977204 
4.850000000002035, -0.26856022021636555 
4.860000000002012, -0.2683399878328973 
4.870000000001989, -0.26815266226273954 
