t, s[1].omega / s[0].omega 
0, -1.4999175900524477 
0.009999999999999995, -1.4902349355784947 
0.019999999999999934, -1.4784851226447702 
0.029999999999999874, -1.46751349367442 
0.04000000000000012, -1.4609082905761523 
0.050000000000000405, -1.4594092896012785 
0.06000000000000069, -1.4606018770922984 
0.07000000000000098, -1.4621566779688655 
0.08000000000000126, -1.4631958959286289 
0.09000000000000155, -1.4636548840842627 
0.10000000000000184, -1.4636508122099672 
0.11000000000000212, -1.4632606584432737 
0.12000000000000241, -1.4624929831388518 
0.130000000000002, -1.461350386243413 
0.1400000000000009, -1.4600343767454507 
0.1499999999999998, -1.459337672602303 
0.1599999999999987, -1.460750826591496 
0.1699999999999976, -1.4653172126621956 
0.1799999999999965, -1.4722019453022532 
0.1899999999999954, -1.4794075558448179 
0.1999999999999943, -1.485471808402543 
0.2099999999999932, -1.4899265903278112 
0.2199999999999921, -1.4928900147956903 
0.229999999999991, -1.494672460027531 
0.2399999999999899, -1.4955880052858257 
0.2499999999999888, -1.4958905790059165 
0.2599999999999877, -1.4957659350293366 
0.2699999999999866, -1.495349393902576 
0.2799999999999855, -1.494754663646291 
0.2899999999999844, -1.4940972532892682 
0.2999999999999833, -1.4934925236724077 
0.3099999999999822, -1.4930300477590541 
0.3199999999999811, -1.492755058435062 
0.32999999999998, -1.4926631118241582 
0.3399999999999789, -1.4926914235220807 
0.3499999999999778, -1.4927278170360807 
0.35999999999997667, -1.4926457110174716 
0.36999999999997557, -1.49232335686433 
0.37999999999997447, -1.491625654106373 
0.38999999999997337, -1.4903663728869176 
0.39999999999997227, -1.4882724840284403 
0.40999999999997117, -1.4849685663017775 
0.41999999999997006, -1.480013791012565 
0.42999999999996896, -1.4730659977678413 
0.43999999999996786, -1.464294807446447 
0.44999999999996676, -1.4550021317938895 
0.45999999999996566, -1.4476279658916271 
0.46999999999996456, -1.4440075611326504 
0.47999999999996346, -1.443586678882334 
0.48999999999996235, -1.444482477244716 
0.49999999999996125, -1.4453954318430828 
0.5099999999999602, -1.4459092573319543 
0.519999999999959, -1.4460018625573512 
0.529999999999958, -1.4457122265743059 
0.5399999999999568, -1.4450270882047829 
0.5499999999999557, -1.44387173643451 
0.5599999999999546, -1.4422061729184426 
0.5699999999999535, -1.4403723011706842 
0.5799999999999524, -1.4397337710431741 
0.5899999999999513, -1.4426367263697237 
0.5999999999999502, -1.4502246242968142 
0.6099999999999491, -1.4605402567201096 
0.619999999999948, -1.4704271299739058 
0.6299999999999469, -1.4780831067669762 
0.6399999999999458, -1.4832638766157278 
0.6499999999999447, -1.486438722835564 
0.6599999999999436, -1.488194843670583 
0.6699999999999425, -1.4890107737346459 
0.6799999999999414, -1.4892178432996932 
0.6899999999999403, -1.489030778093555 
0.6999999999999392, -1.4885976296351024 
0.7099999999999381, -1.4880480409993169 
0.719999999999937, -1.4875179741184 
0.7299999999999359, -1.4871289084789117 
0.7399999999999348, -1.4869426796795773 
0.7499999999999337, -1.486949183493099 
0.7599999999999326, -1.4870882776658474 
0.7699999999999315, -1.4872674500697578 
0.7799999999999304, -1.4873777728714725 
0.7899999999999293, -1.4873129414628115 
0.7999999999999282, -1.486972150183614 
0.8099999999999271, -1.4862438333163226 
0.819999999999926, -1.4849862687031425 
0.8299999999999249, -1.483018550291919 
0.8399999999999238, -1.4801299651416446 
0.8499999999999227, -1.4761217255703474 
0.8599999999999216, -1.4709179912357029 
0.8699999999999205, -1.464800171332851 
0.8799999999999194, -1.4586964379227245 
0.8899999999999183, -1.4540465915215628 
0.8999999999999172, -1.451773865643188 
0.9099999999999161, -1.4514338222166523 
0.919999999999915, -1.4518916878730797 
0.9299999999999139, -1.4523559938867756 
0.9399999999999128, -1.4525384966248143 
0.9499999999999117, -1.4523791747180788 
0.9599999999999106, -1.4518388516391458 
0.9699999999999095, -1.4508078596960416 
0.9799999999999084, -1.4490855505176994 
0.9899999999999073, -1.446505294201101 
0.9999999999999062, -1.4434977266288262 
1.0099999999999052, -1.442216273300185 
1.019999999999904, -1.4464224621671686 
1.029999999999903, -1.4575059005413586 
1.039999999999902, -1.4716987825394487 
1.0499999999999008, -1.4841654022387722 
1.0599999999998997, -1.492912178247059 
1.0699999999998986, -1.4982664639152479 
1.0799999999998975, -1.5012414889629184 
1.0899999999998964, -1.50272545686449 
1.0999999999998953, -1.503311747553119 
1.1099999999998942, -1.5033547066830895 
1.119999999999893, -1.5030644413916157 
1.129999999999892, -1.502591218637286 
1.1399999999998909, -1.5020857984034184 
1.1499999999998898, -1.5017081874838436 
1.1599999999998887, -1.5015700291150373 
1.1699999999998876, -1.5016781759055213 
1.1799999999998865, -1.5019549560493604 
1.1899999999998854, -1.5022924468691121 
1.1999999999998843, -1.5025805871676545 
1.2099999999998832, -1.5027181991697576 
1.219999999999882, -1.5026169524730628 
1.229999999999881, -1.5021930439257491 
1.2399999999998799, -1.5013528802142617 
1.2499999999998788, -1.49998395033893 
1.2599999999998777, -1.4979562974157812 
1.2699999999998766, -1.4951390205923993 
1.2799999999998755, -1.491447977905636 
1.2899999999998744, -1.4869616014063043 
1.2999999999998733, -1.4821234769120057 
1.3099999999998722, -1.4778588354821829 
1.319999999999871, -1.4751558057628604 
1.32999999999987, -1.4742074863814925 
1.3399999999998689, -1.474308235708139 
1.3499999999998678, -1.4746582567395765 
1.3599999999998666, -1.4748421196742094 
1.3699999999998655, -1.4747250351266041 
1.3799999999998644, -1.4742421970199355 
1.3899999999998633, -1.4732725090402776 
1.3999999999998622, -1.4715769884013952 
1.4099999999998611, -1.468838255521266 
1.41999999999986, -1.4650820468645631 
1.429999999999859, -1.4619336454209253 
1.4399999999998578, -1.463605838736865 
1.4499999999998567, -1.473457959089481 
1.4599999999998556, -1.488573421136492 
1.4699999999998545, -1.5027911443204072 
1.4799999999998534, -1.5129154609406128 
1.4899999999998523, -1.519055238533894 
1.4999999999998512, -1.5224149038766703 
1.5099999999998501, -1.5240761129903104 
1.519999999999849, -1.5247446680098593 
1.529999999999848, -1.5248280003894978 
1.5399999999998468, -1.5245581864455042 
1.5499999999998457, -1.524094218262704 
1.5599999999998446, -1.5235936822388814 
1.5699999999998435, -1.523227091462644 
1.5799999999998424, -1.5231148812304043 
1.5899999999998413, -1.5232611667291125 
1.5999999999998402, -1.5235768973741828 
1.6099999999998391, -1.5239449369833147 
1.619999999999838, -1.5242519230171934 
1.629999999999837, -1.5243968515912283 
1.6399999999998358, -1.5242923215587125 
1.6499999999998347, -1.5238545735751352 
1.6599999999998336, -1.522988167510243 
1.6699999999998325, -1.5215760767437438 
1.6799999999998314, -1.5194806418255868 
1.6899999999998303, -1.5165612979096257 
1.6999999999998292, -1.5127299612174285 
1.709999999999828, -1.5080890980094195 
1.719999999999827, -1.5031657563543843 
1.729999999999826, -1.4990015862392683 
1.7399999999998248, -1.4965813584254835 
1.7499999999998237, -1.4959150066047582 
1.7599999999998226, -1.496156118409941 
1.7699999999998215, -1.496522657803241 
1.7799999999998204, -1.4966642430110715 
1.7899999999998193, -1.4964801272031871 
1.7999999999998182, -1.4959074164275517 
1.809999999999817, -1.4948108765183434 
1.819999999999816, -1.492948994437945 
1.8299999999998149, -1.4901116050959111 
1.8399999999998138, -1.486799871915365 
1.8499999999998127, -1.4855744477323183 
1.8599999999998116, -1.4906179083156372 
1.8699999999998105, -1.5026929199895862 
1.8799999999998094, -1.5169876581459178 
1.8899999999998083, -1.5287076525666157 
1.8999999999998072, -1.5364901850291086 
1.909999999999806, -1.5410482862990105 
1.919999999999805, -1.5434735881342734 
1.9299999999998039, -1.5446041902858065 
1.9399999999998028, -1.5449646516906086 
1.9499999999998017, -1.5448590104429958 
1.9599999999998006, -1.5444729673446855 
1.9699999999997995, -1.5439556362611617 
1.9799999999997984, -1.5434636829442514 
1.9899999999997973, -1.5431392816903235 
1.9999999999997962, -1.5430457207376946 
2.0099999999998173, -1.5431511564186446 
2.0199999999998384, -1.543371497094712 
2.0299999999998595, -1.5436026114048993 
2.0399999999998806, -1.5437339563391668 
2.0499999999999017, -1.5436607928510986 
2.059999999999923, -1.5432818548296194 
2.069999999999944, -1.5424796330121828 
2.079999999999965, -1.5410984937181005 
2.089999999999986, -1.5389334119709561 
2.100000000000007, -1.5357397122909544 
2.1100000000000283, -1.5312902242518225 
2.1200000000000494, -1.5255473105496917 
2.1300000000000705, -1.5190218106604179 
2.1400000000000916, -1.5130868325730669 
2.1500000000001127, -1.5093811680238374 
2.160000000000134, -1.508270673573084 
2.170000000000155, -1.5086283811224424 
2.180000000000176, -1.5092593880260625 
2.190000000000197, -1.5096333019642831 
2.2000000000002182, -1.5096404871464733 
2.2100000000002393, -1.509270181130734 
2.2200000000002604, -1.5084683873218412 
2.2300000000002815, -1.5071137305820153 
2.2400000000003026, -1.5051425335112372 
2.2500000000003237, -1.5030469056221647 
2.260000000000345, -1.5027253911930174 
2.270000000000366, -1.5069807392103454 
2.280000000000387, -1.5161841115372452 
2.290000000000408, -1.5270906232739272 
2.3000000000004293, -1.5364036687868323 
2.3100000000004504, -1.5429731068545824 
2.3200000000004715, -1.547086007358387 
2.3300000000004926, -1.5494204719436735 
2.3400000000005137, -1.5505790241776414 
2.3500000000005348, -1.5509854556240872 
2.360000000000556, -1.5509103645683013 
2.370000000000577, -1.5505282984145123 
2.380000000000598, -1.5499751105477642 
2.390000000000619, -1.5493853304752698 
2.4000000000006403, -1.548885829700173 
2.4100000000006614, -1.548557053995623 
2.4200000000006825, -1.5484164697869556 
2.4300000000007036, -1.548429773613345 
2.4400000000007247, -1.5485144422900183 
2.450000000000746, -1.5485523947415507 
2.460000000000767, -1.5484190781619078 
2.470000000000788, -1.5479900443625128 
2.480000000000809, -1.547112674926923 
2.49000000000083, -1.5455635540854902 
2.5000000000008513, -1.5430113481073964 
2.5100000000008724, -1.5390078036892771 
2.5200000000008935, -1.5330651270276552 
2.5300000000009146, -1.5249610818019859 
2.5400000000009357, -1.5154312351464938 
2.550000000000957, -1.5067922904182576 
2.560000000000978, -1.5017714460481915 
2.570000000000999, -1.5007251092638472 
2.58000000000102, -1.5016527412822156 
2.5900000000010412, -1.502777480496367 
2.6000000000010624, -1.5034649259690795 
2.6100000000010835, -1.5036714102510402 
2.6200000000011046, -1.5034667922561722 
2.6300000000011257, -1.5028743966337212 
2.6400000000011468, -1.5018653117987684 
2.650000000001168, -1.50047655250123 
2.660000000001189, -1.499160959932746 
2.67000000000121, -1.4992466152253427 
2.680000000001231, -1.5024347230904314 
2.6900000000012523, -1.5088355564212192 
2.7000000000012734, -1.5164725914488963 
2.7100000000012945, -1.523293679136835 
2.7200000000013156, -1.5284261980686975 
2.7300000000013367, -1.531879665835239 
2.740000000001358, -1.533986299096227 
2.750000000001379, -1.5351078258154778 
2.7600000000014, -1.5355382308465007 
2.770000000001421, -1.5354899597281846 
2.780000000001442, -1.5351126156053554 
2.7900000000014633, -1.5345244098921689 
2.8000000000014844, -1.5338404729788744 
2.8100000000015055, -1.5331778218719871 
2.8200000000015266, -1.5326347452745632 
2.8300000000015477, -1.5322729230034144 
2.840000000001569, -1.532107206526636 
2.85000000000159, -1.5320852611550675 
2.860000000001611, -1.5320901257836943 
2.870000000001632, -1.5319828264800965 
2.8800000000016532, -1.5316285288990694 
2.8900000000016743, -1.530872804279512 
2.9000000000016954, -1.5294871799879015 
2.9100000000017165, -1.5271070642563962 
2.9200000000017377, -1.5231844840344966 
2.9300000000017588, -1.5170191083496838 
2.94000000000178, -1.5080396010638697 
2.950000000001801, -1.4966107904018064 
2.960000000001822, -1.4851373696675036 
2.970000000001843, -1.4774360426650257 
2.9800000000018643, -1.4751112506553437 
2.9900000000018854, -1.476082295634017 
3.0000000000019065, -1.477723618787548 
3.0100000000019276, -1.478894450898193 
3.0200000000019487, -1.4794534337652612 
3.03000000000197, -1.4795207290022934 
3.040000000001991, -1.479191225293175 
3.050000000002012, -1.4784887914461033 
3.060000000002033, -1.4774213948421369 
3.070000000002054, -1.4761684514688886 
3.0800000000020753, -1.47544661700644 
3.0900000000020964, -1.4766339543823706 
3.1000000000021175, -1.4807348593516638 
3.1100000000021386, -1.4870201148584286 
3.1200000000021597, -1.4936516953904067 
3.130000000002181, -1.49926715256206 
3.140000000002202, -1.503418594439361 
3.150000000002223, -1.50619837108375 
3.160000000002244, -1.5078778601957912 
3.1700000000022652, -1.5087365357603444 
3.1800000000022863, -1.5090040434088405 
3.1900000000023074, -1.508851583435796 
3.2000000000023285, -1.508406470069244 
3.2100000000023496, -1.5077775281056496 
3.2200000000023707, -1.5070761276446407 
3.230000000002392, -1.5064147562947343 
3.240000000002413, -1.5058858767861278 
3.250000000002434, -1.5055458448963166 
3.260000000002455, -1.5054016695489645 
3.2700000000024763, -1.505391552011195 
3.2800000000024974, -1.5053951680680533 
3.2900000000025185, -1.505276976315619 
3.3000000000025396, -1.5049066037413596 
3.3100000000025607, -1.5041335997846816 
3.3200000000025818, -1.5027381644003763 
3.330000000002603, -1.5003800086613002 
3.340000000002624, -1.4965672466141065 
3.350000000002645, -1.4906991518654658 
3.360000000002666, -1.4823137846307368 
3.3700000000026873, -1.4717357142655314 
3.3800000000027084, -1.4609497511470262 
3.3900000000027295, -1.45321929145739 
3.4000000000027506, -1.450273285694347 
3.4100000000027717, -1.4506616321703583 
3.420000000002793, -1.4520189993274633 
3.430000000002814, -1.4531076283788096 
3.440000000002835, -1.453666197372171 
3.450000000002856, -1.4537580028588966 
3.460000000002877, -1.453457311081079 
3.4700000000028983, -1.4527729298223508 
3.4800000000029194, -1.4516717994124195 
3.4900000000029405, -1.450219942822774 
3.5000000000029616, -1.4489518609814733 
3.5100000000029827, -1.4492909927131803 
3.520000000003004, -1.4529557985405677 
3.530000000003025, -1.4600186280872942 
3.540000000003046, -1.468445013840148 
3.550000000003067, -1.4760567709467909 
3.5600000000030882, -1.481854076052732 
3.5700000000031094, -1.485796568117241 
3.5800000000031305, -1.4882340896549069 
3.5900000000031516, -1.489572919402335 
3.6000000000031727, -1.4901508321567396 
3.6100000000031938, -1.4902125287172185 
3.620000000003215, -1.4899270613583304 
3.630000000003236, -1.4894219336277275 
3.640000000003257, -1.488817064188119 
3.650000000003278, -1.4882366260409072 
3.6600000000032993, -1.4877857762176014 
3.6700000000033204, -1.4875196345038924 
3.6800000000033415, -1.487438299779059 
3.6900000000033626, -1.48749223070657 
3.7000000000033837, -1.4875868386155244 
3.710000000003405, -1.4876048175201946 
3.720000000003426, -1.48743104971748 
3.730000000003447, -1.486950300870723 
3.740000000003468, -1.4860216844348875 
3.750000000003489, -1.4844507497498967 
3.7600000000035103, -1.4819749839465453 
3.7700000000035314, -1.4782782038647377 
3.7800000000035525, -1.4730661227005863 
3.7900000000035736, -1.4662722569049687 
3.8000000000035947, -1.4584570738933633 
3.810000000003616, -1.4511538141896931 
3.820000000003637, -1.446284663239091 
3.830000000003658, -1.4445025165485277 
3.840000000003679, -1.4446987709695847 
3.8500000000037002, -1.4454471825318689 
3.8600000000037213, -1.4460134710279817 
3.8700000000037424, -1.4462131669221852 
3.8800000000037635, -1.4460420314329194 
3.8900000000037847, -1.44548580644343 
3.9000000000038058, -1.4444593723034893 
3.910000000003827, -1.4428271854901138 
3.920000000003848, -1.4406040969777174 
3.930000000003869, -1.4385704040224603 
3.94000000000389, -1.4390337674431088 
3.9500000000039113, -1.4447757926466451 
3.9600000000039324, -1.4555931347485525 
3.9700000000039535, -1.4678218391388704 
3.9800000000039746, -1.47807974288351 
3.9900000000039957, -1.4852520025832356 
4.000000000004016, -1.4897105502453645 
4.010000000003993, -1.4922310802146104 
4.02000000000397, -1.493492902444244 
4.030000000003946, -1.4939667117748683 
4.040000000003923, -1.4939469510977508 
4.0500000000039, -1.4936183226035493 
4.0600000000038765, -1.4931210753671602 
4.070000000003853, -1.492597338595994 
4.08000000000383, -1.4921912341279584 
4.090000000003807, -1.491998111824221 
4.100000000003783, -1.492025193297295 
4.11000000000376, -1.4922112886737653 
4.120000000003737, -1.4924631376408544 
4.130000000003713, -1.492674679332743 
4.14000000000369, -1.4927418684561171 
4.150000000003667, -1.4925702106407672 
4.1600000000036434, -1.4920657490612628 
4.17000000000362, -1.4911185907690916 
4.180000000003597, -1.4895924170669927 
4.1900000000035735, -1.4873268349565265 
4.20000000000355, -1.484158959020594 
4.210000000003527, -1.4799843969246849 
4.220000000003504, -1.4749009516665503 
4.23000000000348, -1.4694485889544566 
4.240000000003457, -1.4647184369346402 
4.250000000003434, -1.46181164316454 
4.26000000000341, -1.4608658320855346 
4.270000000003387, -1.4610411228656752 
4.280000000003364, -1.4614603198864495 
4.2900000000033405, -1.4616937279629643 
4.300000000003317, -1.46161562364424 
4.310000000003294, -1.4611757382716128 
4.320000000003271, -1.4602730655651617 
4.330000000003247, -1.4587009064258891 
4.340000000003224, -1.4561880585520137 
4.350000000003201, -1.4527789478575583 
4.360000000003177, -1.449944757665062 
4.370000000003154, -1.4515045599783463 
4.380000000003131, -1.4607213241540695 
4.390000000003107, -1.4752614015658156 
4.400000000003084, -1.4893848425078533 
4.410000000003061, -1.4997504792447793 
4.4200000000030375, -1.506203445601087 
4.430000000003014, -1.5098189770999653 
4.440000000002991, -1.5116564299132536 
4.450000000002968, -1.5124389189708178 
4.460000000002944, -1.5125955712649206 
4.470000000002921, -1.5123724077721503 
4.480000000002898, -1.511931369856206 
4.490000000002874, -1.5114241890001117 
4.500000000002851, -1.5110184926810488 
4.510000000002828, -1.510848933500322 
4.520000000002804, -1.5109445986611674 
4.530000000002781, -1.511232565918334 
4.540000000002758, -1.511599750827026 
4.5500000000027345, -1.51193202210747 
4.560000000002711, -1.5121259988935907 
4.570000000002688, -1.5120927228450272 
4.580000000002665, -1.5117508147352223 
4.590000000002641, -1.5110123098897996 
4.600000000002618, -1.5097719564691525 
4.610000000002595, -1.5079061571513965 
4.620000000002571, -1.505285334616692 
4.630000000002548, -1.5018131363651261 
4.640000000002525, -1.4975269498231256 
4.6500000000025015, -1.4927904265440302 
4.660000000002478, -1.488452953318492 
4.670000000002455, -1.48554091458446 
4.6800000000024315, -1.4844009281719885 
4.690000000002408, -1.4844178901546052 
4.700000000002385, -1.4847637929455157 
4.710000000002362, -1.48497308124477 
4.720000000002338, -1.484888607940307 
4.730000000002315, -1.484444332497298 
4.740000000002292, -1.4835276276225433 
4.750000000002268, -1.4819121888310478 
4.760000000002245, -1.4792880490413431 
4.770000000002222, -1.475652514177464 
4.7800000000021985, -1.472524854544212 
4.790000000002175, -1.4740026708910894 
4.800000000002152, -1.48351980865962 
4.810000000002129, -1.498352535538594 
4.820000000002105, -1.5124120911387098 
4.830000000002082, -1.5224717944761692 
4.840000000002059, -1.5285951683427752 
4.850000000002035, -1.5319562397535846 
4.860000000002012, -1.5336220057385581 
4.870000000001989, -1.5342932725104512 
4.880000000001965, -1.5343767490249134 
4.890000000001942, -1.534105106702677 
4.900000000001919, -1.5336377639397951 
4.9100000000018955, -1.5331310537938743 
4.920000000001872, -1.5327510357622045 
4.930000000001849, -1.5326124815904343 
4.940000000001826, -1.5327190891201898 
