t, s[1].omega / s[0].omega 
0, -1.2699954138869587 
0.009999999999999995, -1.2693627547064892 
0.019999999999999934, -1.2683862024607562 
0.029999999999999874, -1.2670678915543498 
0.04000000000000012, -1.2654118158962862 
0.050000000000000405, -1.2634247156683296 
0.06000000000000069, -1.261117141400574 
0.07000000000000098, -1.2585045659090404 
0.08000000000000126, -1.2556084108244632 
0.09000000000000155, -1.2524568594327377 
0.10000000000000184, -1.2490853697546538 
0.11000000000000212, -1.245536921222138 
0.12000000000000241, -1.241862220223529 
0.130000000000002, -1.238120239863364 
0.1400000000000009, -1.2343793565061447 
0.1499999999999998, -1.2307187784701055 
0.1599999999999987, -1.227229010256684 
0.1699999999999976, -1.2240092481596943 
0.1799999999999965, -1.2211596525291557 
0.1899999999999954, -1.2187680124726687 
0.1999999999999943, -1.2168931991260856 
0.2099999999999932, -1.215550575591545 
0.2199999999999921, -1.2147051503997521 
0.229999999999991, -1.2142756420356329 
0.2399999999999899, -1.2141479577510683 
0.2499999999999888, -1.2141927443526828 
0.2599999999999877, -1.2142808611605445 
0.2699999999999866, -1.2142927398852883 
0.2799999999999855, -1.2141207424012825 
0.2899999999999844, -1.2136659706089798 
0.2999999999999833, -1.212831884444031 
0.3099999999999822, -1.2115169364291782 
0.3199999999999811, -1.209607923090291 
0.32999999999998, -1.206975352355592 
0.3399999999999789, -1.2034719494662378 
0.3499999999999778, -1.1989353258780782 
0.35999999999997667, -1.1931955442424669 
0.36999999999997557, -1.1860875853290196 
0.37999999999997447, -1.1774675277482354 
0.38999999999997337, -1.1672299128441845 
0.39999999999997227, -1.1553229227424082 
0.40999999999997117, -1.1417582643647166 
0.41999999999997006, -1.1266141431630667 
0.42999999999996896, -1.1100318275080576 
0.43999999999996786, -1.0922080423232776 
0.44999999999996676, -1.073386011438112 
0.45999999999996566, -1.0538472803457146 
0.46999999999996456, -1.0339049875594533 
0.47999999999996346, -1.0138977249145256 
0.48999999999996235, -0.9941821158323 
0.49999999999996125, -0.9751220637432925 
0.5099999999999602, -0.957073348201782 
0.519999999999959, -0.9403637117681514 
0.529999999999958, -0.9252703882118303 
0.5399999999999568, -0.9119985791476118 
0.5499999999999557, -0.9006650738521615 
0.5599999999999546, -0.891290649159205 
0.5699999999999535, -0.8838031617910147 
0.5799999999999524, -0.8780508946714806 
0.5899999999999513, -0.8738235173160641 
0.5999999999999502, -0.870876647587037 
0.6099999999999491, -0.8689557822507951 
0.619999999999948, -0.8678161913032503 
0.6299999999999469, -0.8672368204996868 
0.6399999999999458, -0.86702778741082 
0.6499999999999447, -0.8670322631876584 
0.6599999999999436, -0.8671242034163468 
0.6699999999999425, -0.8672035490248501 
0.6799999999999414, -0.8671903238451086 
0.6899999999999403, -0.8670187059890214 
0.6999999999999392, -0.8666318024710037 
0.7099999999999381, -0.865977596635384 
0.719999999999937, -0.8650063836994232 
0.7299999999999359, -0.8636699265619354 
0.7399999999999348, -0.8619224832148152 
0.7499999999999337, -0.8597236968192605 
0.7599999999999326, -0.8570430378823568 
0.7699999999999315, -0.8538650515855162 
0.7799999999999304, -0.8501942123863842 
0.7899999999999293, -0.846057950740765 
0.7999999999999282, -0.841506628263803 
0.8099999999999271, -0.8366099669483772 
0.819999999999926, -0.8314504676346879 
0.8299999999999249, -0.8261152489724306 
0.8399999999999238, -0.8206881052031972 
0.8499999999999227, -0.8152433087838352 
0.8599999999999216, -0.8098419843587392 
0.8699999999999205, -0.8045311105583679 
0.8799999999999194, -0.7993446452762809 
0.8899999999999183, -0.7943060165277345 
0.8999999999999172, -0.7894312237169476 
0.9099999999999161, -0.7847319431790613 
0.919999999999915, -0.7802182287989 
0.9299999999999139, -0.7759005827845373 
0.9399999999999128, -0.771791316728409 
0.9499999999999117, -0.7679052234148187 
0.9599999999999106, -0.7642596404896532 
0.9699999999999095, -0.7608740175781175 
0.9799999999999084, -0.7577691090168767 
0.9899999999999073, -0.7549659137784261 
0.9999999999999062, -0.7524844782535094 
1.0099999999999052, -0.7503426692427997 
1.019999999999904, -0.7485550146694744 
1.029999999999903, -0.747131698101527 
1.039999999999902, -0.7460777798958114 
1.0499999999999008, -0.7453927023484621 
1.0599999999998997, -0.7450701182753801 
1.0699999999998986, -0.7450980615862783 
1.0799999999998975, -0.7454594547619452 
1.0899999999998964, -0.7461329228692267 
1.0999999999998953, -0.7470938593599694 
1.1099999999998942, -0.7483156687849554 
1.119999999999893, -0.7497710987782278 
1.129999999999892, -0.7514335695163932 
1.1399999999998909, -0.7532784118775985 
1.1499999999998898, -0.7552839317436193 
1.1599999999998887, -0.7574322224241261 
1.1699999999998876, -0.7597096467974594 
1.1799999999998865, -0.7621069063413615 
1.1899999999998854, -0.7646186119060545 
1.1999999999998843, -0.767242281109204 
1.2099999999998832, -0.7699767206736158 
1.219999999999882, -0.7728198167638063 
1.229999999999881, -0.7757658543498324 
1.2399999999998799, -0.7788026129092438 
1.2499999999998788, -0.7819086272337419 
1.2599999999998777, -0.7850511323108457 
1.2699999999998766, -0.7881852826356825 
1.2799999999998755, -0.7912551798463723 
1.2899999999998744, -0.7941969914069212 
1.2999999999998733, -0.7969439858121726 
1.3099999999998722, -0.7994327471429902 
1.319999999999871, -0.8016093787488116 
1.32999999999987, -0.8034343978320138 
1.3399999999998689, -0.804885363771278 
1.3499999999998678, -0.8059569526237474 
1.3599999999998666, -0.8066589019220455 
1.3699999999998655, -0.8070127252980919 
1.3799999999998644, -0.8070482163875161 
1.3899999999998633, -0.8068005893726349 
1.3999999999998622, -0.8063087979948866 
1.4099999999998611, -0.8056152816871986 
1.41999999999986, -0.8047671812911114 
1.429999999999859, -0.8038189508284855 
1.4399999999998578, -0.8028362267351475 
1.4499999999998567, -0.8019007503722607 
1.4599999999998556, -0.8011160299907741 
1.4699999999998545, -0.8006132505538555 
1.4799999999998534, -0.8005566968747864 
1.4899999999998523, -0.8011476828081001 
1.4999999999998512, -0.8026257450897644 
1.5099999999998501, -0.8052657569811033 
1.519999999999849, -0.8093697391685625 
1.529999999999848, -0.8152525633540382 
1.5399999999998468, -0.8232214771955089 
1.5499999999998457, -0.8335503819196534 
1.5599999999998446, -0.846450948048316 
1.5699999999998435, -0.8620437633138568 
1.5799999999998424, -0.8803334914854191 
1.5899999999998413, -0.9011921548970221 
1.5999999999998402, -0.9243538735400063 
1.6099999999998391, -0.949422681880157 
1.619999999999838, -0.9758927778620003 
1.629999999999837, -1.0031784611184285 
1.6399999999998358, -1.0306498444603993 
1.6499999999998347, -1.0576705185646735 
1.6599999999998336, -1.0836343846847902 
1.6699999999998325, -1.1079999877411768 
1.6799999999998314, -1.1303210205677598 
1.6899999999998303, -1.1502709659629893 
1.6999999999998292, -1.167658729067075 
1.709999999999828, -1.1824318191590355 
1.719999999999827, -1.1946651429730595 
1.729999999999826, -1.204536621290825 
1.7399999999998248, -1.2122942476811889 
1.7499999999998237, -1.2182211455692986 
1.7599999999998226, -1.2226047929125095 
1.7699999999998215, -1.225714368423895 
1.7799999999998204, -1.2277874232409527 
1.7899999999998193, -1.2290249546118723 
1.7999999999998182, -1.2295929315012686 
1.809999999999817, -1.229628238388897 
1.819999999999816, -1.2292474027105305 
1.8299999999998149, -1.2285568801516729 
1.8399999999998138, -1.2276637419970038 
1.8499999999998127, -1.226685179399987 
1.8599999999998116, -1.2257544390696709 
1.8699999999998105, -1.2250201941561198 
1.8799999999998094, -1.224636902105318 
1.8899999999998083, -1.2247462466772219 
1.8999999999998072, -1.2254539516002187 
1.909999999999806, -1.226809880933772 
1.919999999999805, -1.2287994439588428 
1.9299999999998039, -1.2313498611689078 
1.9399999999998028, -1.2343482864001545 
1.9499999999998017, -1.2376642988441042 
1.9599999999998006, -1.2411692342871192 
1.9699999999997995, -1.2447482122929345 
1.9799999999997984, -1.2483047426991738 
1.9899999999997973, -1.2517602952920472 
1.9999999999997962, -1.2550516881737015 
2.0099999999998173, -1.2581282993682554 
2.0199999999998384, -1.2609499303910423 
2.0299999999998595, -1.2634853150129974 
2.0399999999998806, -1.2657109463292675 
2.0499999999999017, -1.2676099373773027 
2.059999999999923, -1.2691708022934303 
2.069999999999944, -1.2703861938954488 
2.079999999999965, -1.271251713683875 
2.089999999999986, -1.271764933049913 
2.100000000000007, -1.271924748932107 
2.1100000000000283, -1.2717311526196795 
2.1200000000000494, -1.2711854246071779 
2.1300000000000705, -1.270290698098453 
2.1400000000000916, -1.269052782663945 
2.1500000000001127, -1.2674811241319444 
2.160000000000134, -1.2655897919392127 
2.170000000000155, -1.26339840418471 
2.180000000000176, -1.260932895107348 
2.190000000000197, -1.2582260000163303 
2.2000000000002182, -1.2553173264364046 
2.2100000000002393, -1.252252972007636 
2.2200000000002604, -1.2490848713206253 
2.2300000000002815, -1.245870307519907 
2.2400000000003026, -1.2426720649533136 
2.2500000000003237, -1.23955926973024 
2.260000000000345, -1.2366080570439124 
2.270000000000366, -1.2339002489725335 
2.280000000000387, -1.2315179969622236 
2.290000000000408, -1.229533499988252 
2.3000000000004293, -1.2279953782372675 
2.3100000000004504, -1.2269158916853804 
2.3200000000004715, -1.226264115164754 
2.3300000000004926, -1.2259682734655288 
2.3400000000005137, -1.2259264956891083 
2.3500000000005348, -1.226021685368178 
2.360000000000556, -1.2261351345119729 
2.370000000000577, -1.226155100519957 
2.380000000000598, -1.2259792889918733 
2.390000000000619, -1.2255123745230474 
2.4000000000006403, -1.2246606524058858 
2.4100000000006614, -1.2233258998364902 
2.4200000000006825, -1.2214001145040918 
2.4300000000007036, -1.2187624034689315 
2.4400000000007247, -1.2152790185917945 
2.450000000000746, -1.2108072490052355 
2.460000000000767, -1.2052033831766011 
2.470000000000788, -1.1983341333472386 
2.480000000000809, -1.190089901642339 
2.49000000000083, -1.180397458304612 
2.5000000000008513, -1.1692294933921668 
2.5100000000008724, -1.1566093459476368 
2.5200000000008935, -1.1426107540616521 
2.5300000000009146, -1.1273540199588064 
2.5400000000009357, -1.1110008376512694 
2.550000000000957, -1.0937498681838018 
2.560000000000978, -1.0758341437411765 
2.570000000000999, -1.0575199974495413 
2.58000000000102, -1.039105926147083 
2.5900000000010412, -1.0209189605076658 
2.6000000000010624, -1.0033060016390103 
2.6100000000010835, -0.9866183655453804 
2.6200000000011046, -0.9711894736671434 
2.6300000000011257, -0.9573079357075203 
2.6400000000011468, -0.9451904902594084 
2.650000000001168, -0.9349604771880206 
2.660000000001189, -0.9266369984312138 
2.67000000000121, -0.9201376227094684 
2.680000000001231, -0.9152941436714638 
2.6900000000012523, -0.9118777327654515 
2.7000000000012734, -0.9096279524655747 
2.7100000000012945, -0.9082800124124695 
2.7200000000013156, -0.9075860998049169 
2.7300000000013367, -0.9073288172943286 
2.740000000001358, -0.9073268560889044 
2.750000000001379, -0.9074344434040871 
2.7600000000014, -0.9075366758664185 
2.770000000001421, -0.9075427573452194 
2.780000000001442, -0.9073787120276542 
2.7900000000014633, -0.906980625339729 
2.8000000000014844, -0.9062890537475251 
2.8100000000015055, -0.9052450041562198 
2.8200000000015266, -0.9037877943389734 
2.8300000000015477, -0.9018550914830994 
2.840000000001569, -0.899385375270076 
2.85000000000159, -0.8963228624676283 
2.860000000001611, -0.892624475804587 
2.870000000001632, -0.8882677686296043 
2.8800000000016532, -0.8832580398290037 
2.8900000000016743, -0.8776325632852124 
2.9000000000016954, -0.8714602631794968 
2.9100000000017165, -0.8648363372852763 
2.9200000000017377, -0.8578728545732727 
2.9300000000017588, -0.8506875431493954 
2.94000000000178, -0.8433933078707563 
2.950000000001801, -0.8360904320615422 
2.960000000001822, -0.8288623344559124 
2.970000000001843, -0.8217747044965407 
2.9800000000018643, -0.8148771723851486 
2.9900000000018854, -0.8082064497094004 
3.0000000000019065, -0.8017899794707514 
3.0100000000019276, -0.7956493904591848 
3.0200000000019487, -0.7898033296739583 
3.03000000000197, -0.7842694793248979 
3.040000000001991, -0.7790657307686578 
3.050000000002012, -0.7742105910550794 
3.060000000002033, -0.769722952850263 
3.070000000002054, -0.7656213809760066 
3.0800000000020753, -0.761923071991913 
3.0900000000020964, -0.7586426369285075 
3.1000000000021175, -0.7557908474569547 
3.1100000000021386, -0.7533734749274607 
3.1200000000021597, -0.7513903393446995 
3.130000000002181, -0.7498346689721762 
3.140000000002202, -0.7486928477265946 
3.150000000002223, -0.7479445948004997 
3.160000000002244, -0.747563579761443 
3.1700000000022652, -0.7475184310673607 
3.1800000000022863, -0.7477740539303395 
3.1900000000023074, -0.7482931431840425 
3.2000000000023285, -0.7490377647744505 
3.2100000000023496, -0.7499708876556116 
3.2200000000023707, -0.7510577724336422 
3.230000000002392, -0.7522671553163087 
3.240000000002413, -0.7535721946948648 
3.250000000002434, -0.754951163155657 
3.260000000002455, -0.7563878648641762 
3.2700000000024763, -0.7578717394556221 
3.2800000000024974, -0.7593975891379686 
3.2900000000025185, -0.7609648516323069 
3.3000000000025396, -0.7625763540927576 
3.3100000000025607, -0.7642365320264374 
3.3200000000025818, -0.7659491808897027 
3.330000000002603, -0.7677149137180206 
3.340000000002624, -0.7695286068237995 
3.350000000002645, -0.7713772068161836 
3.360000000002666, -0.7732383236487259 
3.3700000000026873, -0.7750800172398151 
3.3800000000027084, -0.7768620651221446 
3.3900000000027295, -0.7785387540822731 
3.4000000000027506, -0.7800628946465776 
3.4100000000027717, -0.7813904081590269 
3.420000000002793, -0.7824846255284229 
3.430000000002814, -0.7833194832007631 
3.440000000002835, -0.7838811167925055 
3.450000000002856, -0.7841678169512472 
3.460000000002877, -0.784188740523658 
3.4700000000028983, -0.7839620175342094 
3.4800000000029194, -0.7835129213914662 
3.4900000000029405, -0.7828726335620448 
3.5000000000029616, -0.7820779303554344 
3.5100000000029827, -0.7811719255561949 
3.520000000003004, -0.7802058520772089 
3.530000000003025, -0.7792417541785039 
3.540000000003046, -0.7783558657025353 
3.550000000003067, -0.7776423456377476 
3.5600000000030882, -0.7772169192615274 
3.5700000000031094, -0.7772198395664788 
3.5800000000031305, -0.7778174682332148 
3.5900000000031516, -0.7792017215179599 
3.6000000000031727, -0.7815866806059923 
3.6100000000031938, -0.7852018616810632 
3.620000000003215, -0.7902819831550787 
3.630000000003236, -0.7970535246870446 
3.640000000003257, -0.8057188797663134 
3.650000000003278, -0.8164393740470102 
3.6600000000032993, -0.8293187619253907 
3.6700000000033204, -0.8443889387776349 
3.6800000000033415, -0.8615994562794395 
3.6900000000033626, -0.8808119950428548 
3.7000000000033837, -0.9018003047822403 
3.710000000003405, -0.9242554332522961 
3.720000000003426, -0.9477955596004557 
3.730000000003447, -0.9719796287214717 
3.740000000003468, -0.996324306835365 
3.750000000003489, -1.0203243535985895 
3.7600000000035103, -1.043476886528108 
3.7700000000035314, -1.0653096470762289 
3.7800000000035525, -1.0854119286368558 
3.7900000000035736, -1.1034645707412791 
3.8000000000035947, -1.119263425127236 
3.810000000003616, -1.1327304156844273 
3.820000000003637, -1.1439086168199617 
3.830000000003658, -1.1529420550228395 
3.840000000003679, -1.1600452299102235 
3.8500000000037002, -1.1654696025114222 
3.8600000000037213, -1.1694737487262745 
3.8700000000037424, -1.1723013467528403 
3.8800000000037635, -1.1741682110197171 
3.8900000000037847, -1.175257417578166 
3.9000000000038058, -1.1757205923454996 
3.910000000003827, -1.1756834144489683 
3.920000000003848, -1.1752538312576915 
3.930000000003869, -1.174531930527777 
3.94000000000389, -1.1736205437440854 
3.9500000000039113, -1.1726352933091646 
3.9600000000039324, -1.1717119886369862 
3.9700000000039535, -1.171008414226426 
3.9800000000039746, -1.1706974550866174 
3.9900000000039957, -1.170950143124422 
4.000000000004016, -1.1719108819497934 
4.010000000003993, -1.173671508524296 
4.02000000000397, -1.1762531986593585 
4.030000000003946, -1.179603196334852 
4.040000000003923, -1.1836074350569983 
4.0500000000039, -1.1881137667751394 
4.0600000000038765, -1.1929574174156161 
4.070000000003853, -1.197981538902494 
4.08000000000383, -1.2030495478882055 
4.090000000003807, -1.208049680036371 
4.100000000003783, -1.212894238816113 
4.11000000000376, -1.2175162721314792 
4.120000000003737, -1.2218656243332175 
4.130000000003713, -1.2259053180229444 
4.14000000000369, -1.2296085103807604 
4.150000000003667, -1.2329559540701953 
4.1600000000036434, -1.2359338614483286 
4.17000000000362, -1.2385321587189897 
4.180000000003597, -1.2407432029584369 
4.1900000000035735, -1.2425610611681959 
4.20000000000355, -1.2439814044365758 
4.210000000003527, -1.2450019694938175 
4.220000000003504, -1.245623423614575 
4.23000000000348, -1.2458503880850287 
4.240000000003457, -1.2456923734806589 
4.250000000003434, -1.2451644667490716 
4.26000000000341, -1.244287748417333 
4.270000000003387, -1.2430895357113376 
4.280000000003364, -1.241603571650818 
4.2900000000033405, -1.239870180230647 
4.300000000003317, -1.2379362214653866 
4.310000000003294, -1.2358545159884122 
4.320000000003271, -1.2336824120393892 
4.330000000003247, -1.2314794375857656 
4.340000000003224, -1.2293044591569888 
4.350000000003201, -1.2272131835116378 
4.360000000003177, -1.225256813259608 
4.370000000003154, -1.223482017054228 
4.380000000003131, -1.2219313620129073 
4.390000000003107, -1.2206426400417127 
4.400000000003084, -1.2196457433636831 
4.410000000003061, -1.2189570325499117 
4.4200000000030375, -1.218572875333342 
4.430000000003014, -1.2184651256261732 
4.440000000002991, -1.2185809019796907 
4.450000000002968, -1.2188472000897568 
4.460000000002944, -1.2191787260837788 
4.470000000002921, -1.2194861617446466 
4.480000000002898, -1.2196823925069205 
4.490000000002874, -1.2196855541222864 
4.500000000002851, -1.2194191711528386 
4.510000000002828, -1.2188105403645695 
4.520000000002804, -1.217788742145958 
4.530000000002781, -1.2162834453646043 
4.540000000002758, -1.2142252401906066 
4.5500000000027345, -1.2115477255871856 
4.560000000002711, -1.2081910568006033 
4.570000000002688, -1.2041061957892762 
4.580000000002665, -1.1992588282668493 
4.590000000002641, -1.1936319486816107 
4.600000000002618, -1.1872265117190446 
4.610000000002595, -1.180060184504353 
4.620000000002571, -1.1721648577836794 
4.630000000002548, -1.163583943898477 
4.640000000002525, -1.1543705007585534 
4.6500000000025015, -1.1445869400694428 
4.660000000002478, -1.1343066598433904 
4.670000000002455, -1.1236175160769721 
4.6800000000024315, -1.1126266540366152 
4.690000000002408, -1.1014658089766058 
4.700000000002385, -1.0902956996820587 
4.710000000002362, -1.0793076078395651 
4.720000000002338, -1.0687198763282137 
4.730000000002315, -1.058767273885945 
4.740000000002292, -1.0496823960270656 
4.750000000002268, -1.0416706228922576 
4.760000000002245, -1.0348830697194145 
4.770000000002222, -1.029394145322281 
4.7800000000021985, -1.0251903126131905 
4.790000000002175, -1.022173811877011 
4.800000000002152, -1.0201804197751416 
4.810000000002129, -1.019005940212145 
4.820000000002105, -1.0184340871237594 
4.830000000002082, -1.0182593413070264 
4.840000000002059, -1.0183012585339877 
4.850000000002035, -1.0184098875295633 
4.860000000002012, -1.018464141111035 
4.870000000001989, -1.0183657765667806 
4.880000000001965, -1.0180314211681594 
4.890000000001942, -1.0173844057539634 
4.900000000001919, -1.01634751005549 
4.9100000000018955, -1.0148373121034266 
4.920000000001872, -1.0127607070348232 
4.930000000001849, -1.0100142261320237 
