t, s[1].omega / s[0].omega 
0, -1.499993542272193 
0.009999999999999995, -1.4990933555525878 
0.019999999999999934, -1.4976892687116892 
0.029999999999999874, -1.4957805448084363 
0.04000000000000012, -1.493365796963977 
0.050000000000000405, -1.4904431890641245 
0.06000000000000069, -1.4870107136859123 
0.07000000000000098, -1.4830665497461353 
0.08000000000000126, -1.4786095032066389 
0.09000000000000155, -1.473639540686643 
0.10000000000000184, -1.4681584449532645 
0.11000000000000212, -1.462170660423568 
0.12000000000000241, -1.455684458921382 
0.130000000000002, -1.448713631518213 
0.1400000000000009, -1.441279971598173 
0.1499999999999998, -1.4334168047468974 
0.1599999999999987, -1.425173676230796 
0.1699999999999976, -1.4166219702432727 
0.1799999999999965, -1.4078606969852232 
0.1899999999999954, -1.3990210226443485 
0.1999999999999943, -1.390267532461293 
0.2099999999999932, -1.3817940238742445 
0.2199999999999921, -1.3738121783665225 
0.229999999999991, -1.3665329650000808 
0.2399999999999899, -1.3601429027727014 
0.2499999999999888, -1.354779632153409 
0.2599999999999877, -1.350512531232454 
0.2699999999999866, -1.347333458898833 
0.2799999999999855, -1.345160052591016 
0.2899999999999844, -1.343850348869151 
0.2999999999999833, -1.3432243996172388 
0.3099999999999822, -1.3430872538013967 
0.3199999999999811, -1.3432483973956602 
0.32999999999998, -1.3435347711613124 
0.3399999999999789, -1.3437967312012697 
0.3499999999999778, -1.3439079537402414 
0.35999999999997667, -1.3437610208185884 
0.36999999999997557, -1.3432604034817062 
0.37999999999997447, -1.342314113430383 
0.38999999999997337, -1.3408247262264104 
0.39999999999997227, -1.3386799756530046 
0.40999999999997117, -1.3357427548952763 
0.41999999999997006, -1.331840145187537 
0.42999999999996896, -1.326751017230825 
0.43999999999996786, -1.3201918217799722 
0.44999999999996676, -1.3118004489288952 
0.45999999999996566, -1.3011185907237313 
0.46999999999996456, -1.2875740509871196 
0.47999999999996346, -1.2704661221656421 
0.48999999999996235, -1.248959690238936 
0.49999999999996125, -1.222097142657843 
0.5099999999999602, -1.1888408865612452 
0.519999999999959, -1.148161625460998 
0.529999999999958, -1.0991850344619325 
0.5399999999999568, -1.0413971463666125 
0.5499999999999557, -0.9748827643935102 
0.5599999999999546, -0.9005350049236235 
0.5699999999999535, -0.8201453018958135 
0.5799999999999524, -0.7362913553983816 
0.5899999999999513, -0.652005016739347 
0.5999999999999502, -0.5703017270591596 
0.6099999999999491, -0.4937250702441899 
0.619999999999948, -0.4240499026321972 
0.6299999999999469, -0.3622036712390501 
0.6399999999999458, -0.30837038847814136 
0.6499999999999447, -0.26219125370063284 
0.6599999999999436, -0.22297936028943874 
0.6699999999999425, -0.18989804240305583 
0.6799999999999414, -0.16208556626683612 
0.6899999999999403, -0.13872991388288017 
0.6999999999999392, -0.1191059513717497 
0.7099999999999381, -0.10258798215521976 
0.719999999999937, -0.08864805617187928 
0.7299999999999359, -0.07684714784360294 
0.7399999999999348, -0.06682358381804014 
0.7499999999999337, -0.058281169571053386 
0.7599999999999326, -0.05097823383675049 
0.7699999999999315, -0.04471808754342195 
0.7799999999999304, -0.039341001945757834 
0.7899999999999293, -0.03471761829874664 
0.7999999999999282, -0.030743622601312085 
0.8099999999999271, -0.02733550076422159 
0.819999999999926, -0.02442720127153703 
0.8299999999999249, -0.021967557022116748 
0.8399999999999238, -0.019918346750468947 
0.8499999999999227, -0.018252905114696214 
0.8599999999999216, -0.01695521769116986 
0.8699999999999205, -0.016019462637205845 
0.8799999999999194, -0.015449985348500289 
0.8899999999999183, -0.015261717155471536 
0.8999999999999172, -0.015481075360385083 
0.9099999999999161, -0.016147411325551947 
0.919999999999915, -0.017315107690531177 
0.9299999999999139, -0.019056467085014406 
0.9399999999999128, -0.021465584891365182 
0.9499999999999117, -0.024663459347913013 
0.9599999999999106, -0.028804664172145257 
0.9699999999999095, -0.03408599009360853 
0.9799999999999084, -0.04075754556318028 
0.9899999999999073, -0.04913687820902028 
0.9999999999999062, -0.05962670856250329 
1.0099999999999052, -0.07273680968891115 
1.019999999999904, -0.08911036008985505 
1.029999999999903, -0.10955469857466194 
1.039999999999902, -0.13507589188579402 
1.0499999999999008, -0.1669163318554073 
1.0599999999998997, -0.20659604483622798 
1.0699999999998986, -0.2559646132113661 
1.0799999999998975, -0.31728733598071174 
1.0899999999998964, -0.3934244875562372 
1.0999999999998953, -0.48822071653973714 
1.1099999999998942, -0.6072823567971198 
1.119999999999893, -0.7592736073316145 
1.129999999999892, -0.9573247805208929 
1.1399999999998909, -1.218105985869302 
1.1499999999998898, -1.5516486343474472 
1.1599999999998887, -1.9358598006724226 
1.1699999999998876, -2.302087126374564 
1.1799999999998865, -2.5819357523711446 
1.1899999999998854, -2.762228478113628 
1.1999999999998843, -2.8689223885396906 
1.2099999999998832, -2.9308294348688704 
1.219999999999882, -2.9671764058112546 
1.229999999999881, -2.9889333249742975 
1.2399999999998799, -3.0021133622444176 
1.2499999999998788, -3.0100282339048627 
1.2599999999998777, -3.014535833510354 
1.2699999999998766, -3.0166940174082475 
1.2799999999998755, -3.0171016111512605 
1.2899999999998744, -3.0160769571806783 
1.2999999999998733, -3.0137481849412864 
1.3099999999998722, -3.0100894404151535 
1.319999999999871, -3.004918629250874 
1.32999999999987, -2.9978709500338248 
1.3399999999998689, -2.9883827639996636 
1.3499999999998678, -2.9757703491775827 
1.3599999999998666, -2.959568477567019 
1.3699999999998655, -2.9403195088451426 
1.3799999999998644, -2.9206144454359184 
1.3899999999998633, -2.9050549591807813 
1.3999999999998622, -2.8975983486953854 
1.4099999999998611, -2.898285385308023 
1.41999999999986, -2.9036584509702874 
1.429999999999859, -2.9100019867854163 
1.4399999999998578, -2.9152416089135005 
1.4499999999998567, -2.918753320278796 
1.4599999999998556, -2.9205944184431822 
1.4699999999998545, -2.9210007265525455 
1.4799999999998534, -2.920198347516257 
1.4899999999998523, -2.9183984598856303 
1.4999999999998512, -2.915893053149882 
1.5099999999998501, -2.913197672371574 
1.519999999999849, -2.91112645608531 
1.529999999999848, -2.91060323554582 
1.5399999999998468, -2.91216357517947 
1.5499999999998457, -2.915548168923428 
1.5599999999998446, -2.919867539582136 
1.5699999999998435, -2.9241752636062466 
1.5799999999998424, -2.927884959066301 
1.5899999999998413, -2.9308126232090195 
1.5999999999998402, -2.9330090830202384 
1.6099999999998391, -2.934577685535848 
1.619999999999838, -2.9355632583416287 
1.629999999999837, -2.9359166752157626 
1.6399999999998358, -2.935498279688459 
1.6499999999998347, -2.9340750434326046 
1.6599999999998336, -2.9312793957637027 
1.6699999999998325, -2.9265071134662963 
1.6799999999998314, -2.9187178205994035 
1.6899999999998303, -2.906054915247775 
1.6999999999998292, -2.8851062748148157 
1.709999999999828, -2.8494584691536438 
1.719999999999827, -2.787014935516834 
1.729999999999826, -2.676007979287357 
1.7399999999998248, -2.483482695860627 
1.7499999999998237, -2.1801927995007637 
1.7599999999998226, -1.7790028516748762 
1.7699999999998215, -1.340377015631661 
1.7799999999998204, -0.9051369994193512 
1.7899999999998193, -0.45419635479032255 
1.7999999999998182, 0.04929231533554814 
1.809999999999817, 0.5755873196704375 
1.819999999999816, 1.0132937914131919 
1.8299999999998149, 1.2940472632944278 
1.8399999999998138, 1.44832162989986 
1.8499999999998127, 1.5298101708729455 
1.8599999999998116, 1.573783795897462 
1.8699999999998105, 1.598469678915294 
1.8799999999998094, 1.612843700300223 
1.8899999999998083, 1.6214087155000865 
1.8999999999998072, 1.626512050792731 
1.909999999999806, 1.6294256179947655 
1.919999999999805, 1.6308584499563519 
1.9299999999998039, 1.6312090208840566 
1.9399999999998028, 1.6306950117667032 
1.9499999999998017, 1.6294236746836244 
1.9599999999998006, 1.6274331990283384 
1.9699999999997995, 1.6247208165085476 
1.9799999999997984, 1.6212666074771434 
1.9899999999997973, 1.617058407159814 
1.9999999999997962, 1.6121202776762533 
2.0099999999998173, 1.6065430164701453 
2.0199999999998384, 1.6005094937884343 
2.0299999999998595, 1.5943019285512425 
2.0399999999998806, 1.5882773635715115 
2.0499999999999017, 1.5828071344637724 
2.059999999999923, 1.5781952952482532 
2.069999999999944, 1.5746077060175587 
2.079999999999965, 1.5720421308680286 
2.089999999999986, 1.570348074399135 
2.100000000000007, 1.5692795406182707 
2.1100000000000283, 1.568552777686709 
2.1200000000000494, 1.5678875003064818 
2.1300000000000705, 1.567023756936775 
2.1400000000000916, 1.5657169241034659 
2.1500000000001127, 1.5637168171500888 
2.160000000000134, 1.5607357200538623 
2.170000000000155, 1.5564079051530284 
2.180000000000176, 1.5502436329892944 
2.190000000000197, 1.5415893211293923 
2.2000000000002182, 1.5296350657117834 
2.2100000000002393, 1.5135866751602498 
2.2200000000002604, 1.4932712170945734 
2.2300000000002815, 1.4706034767423313 
2.2400000000003026, 1.4519920812593807 
2.2500000000003237, 1.4497159169623617 
2.260000000000345, 1.4771066040485465 
2.270000000000366, 1.536040598273578 
2.280000000000387, 1.6105827316769752 
2.290000000000408, 1.6796134048101554 
2.3000000000004293, 1.732123916648455 
2.3100000000004504, 1.7679160129288314 
2.3200000000004715, 1.7910685599137666 
2.3300000000004926, 1.805690857360262 
2.3400000000005137, 1.8147358565027372 
2.3500000000005348, 1.8200751197083826 
2.360000000000556, 1.8228139246181787 
2.370000000000577, 1.8235418642103551 
2.380000000000598, 1.822475430966812 
2.390000000000619, 1.8195032174109707 
2.4000000000006403, 1.8141345772026491 
2.4100000000006614, 1.8053204834938534 
2.4200000000006825, 1.7910619543918271 
2.4300000000007036, 1.767641299670267 
2.4400000000007247, 1.7282646840324383 
2.450000000000746, 1.6613376086226954 
2.460000000000767, 1.5512398018640876 
2.470000000000788, 1.3910440100239576 
2.480000000000809, 1.2108424135884372 
2.49000000000083, 1.076648166005634 
2.5000000000008513, 1.028934400381376 
2.5100000000008724, 1.0514721625321508 
2.5200000000008935, 1.104941976239734 
2.5300000000009146, 1.160314964127921 
2.5400000000009357, 1.205461516153473 
2.550000000000957, 1.238615361696093 
2.560000000000978, 1.2618415344977671 
2.570000000000999, 1.2777865010807552 
2.58000000000102, 1.2886286864912222 
2.5900000000010412, 1.2959363449383754 
2.6000000000010624, 1.3007851516256508 
2.6100000000010835, 1.3039051928046905 
2.6200000000011046, 1.3057981482570007 
2.6300000000011257, 1.3068200311154612 
2.6400000000011468, 1.3072375082382666 
2.650000000001168, 1.307266041290189 
2.660000000001189, 1.3070955380501423 
2.67000000000121, 1.3069065841544085 
2.680000000001231, 1.3068782683361047 
2.6900000000012523, 1.3071873525773174 
2.7000000000012734, 1.3079983863952869 
2.7100000000012945, 1.309445655557571 
2.7200000000013156, 1.311610525231527 
2.7300000000013367, 1.3145008011288337 
2.740000000001358, 1.3180402369163675 
2.750000000001379, 1.3220743464734972 
2.7600000000014, 1.3263930987195178 
2.770000000001421, 1.330764404915109 
2.780000000001442, 1.3349683166151973 
2.7900000000014633, 1.3388226631939788 
2.8000000000014844, 1.3421953925185441 
2.8100000000015055, 1.3450040705482358 
2.8200000000015266, 1.3472062819628 
2.8300000000015477, 1.3487853613611376 
2.840000000001569, 1.349734752708148 
2.85000000000159, 1.3500424783359737 
2.860000000001611, 1.3496754225030145 
2.870000000001632, 1.3485615383385203 
2.8800000000016532, 1.3465663439072202 
2.8900000000016743, 1.3434574626204936 
2.9000000000016954, 1.3388461951767614 
2.9100000000017165, 1.3320857164581343 
2.9200000000017377, 1.3220864396722105 
2.9300000000017588, 1.3069700114537004 
2.94000000000178, 1.2834042759488733 
2.950000000001801, 1.245313414124332 
2.960000000001822, 1.1814564003701415 
2.970000000001843, 1.0715144675574784 
2.9800000000018643, 0.8828508178056486 
2.9900000000018854, 0.57909796836387 
3.0000000000019065, 0.15559677663719038 
3.0100000000019276, -0.33221237789607977 
3.0200000000019487, -0.8142567002058626 
3.03000000000197, -1.2518300242847258 
3.040000000001991, -1.624453023759376 
3.050000000002012, -1.9155528098427796 
3.060000000002033, -2.1217439153678592 
3.070000000002054, -2.256818878302881 
3.0800000000020753, -2.3414988021411274 
3.0900000000020964, -2.3937840504149865 
3.1000000000021175, -2.426112646851717 
3.1100000000021386, -2.4462418277746165 
3.1200000000021597, -2.45882218343229 
3.130000000002181, -2.466620507170249 
3.140000000002202, -2.4712961964902567 
3.150000000002223, -2.4738612488884235 
3.160000000002244, -2.4749487670576187 
3.1700000000022652, -2.4749717707745065 
3.1800000000022863, -2.474219030248636 
3.1900000000023074, -2.472911564665164 
3.2000000000023285, -2.471229700370851 
3.2100000000023496, -2.4693155550119927 
3.2200000000023707, -2.46725992253718 
3.230000000002392, -2.4650914468261305 
3.240000000002413, -2.4627884984554993 
3.250000000002434, -2.460321986566568 
3.260000000002455, -2.457716115373285 
3.2700000000024763, -2.4550972019343784 
3.2800000000024974, -2.452696021269297 
3.2900000000025185, -2.4507825899184463 
3.3000000000025396, -2.4495508902037915 
3.3100000000025607, -2.4490179344754948 
3.3200000000025818, -2.449005013277556 
3.330000000002603, -2.449206817130502 
3.340000000002624, -2.449287699493609 
3.350000000002645, -2.4489410323344445 
3.360000000002666, -2.447891192948064 
3.3700000000026873, -2.445851850670249 
3.3800000000027084, -2.442458177627562 
3.3900000000027295, -2.4371790126821593 
3.4000000000027506, -2.4292060698921367 
3.4100000000027717, -2.4173251808413814 
3.420000000002793, -2.39982546930881 
3.430000000002814, -2.3746582128942153 
3.440000000002835, -2.3404027182899587 
3.450000000002856, -2.298996913363619 
3.460000000002877, -2.260532434983994 
3.4700000000028983, -2.2465344664396407 
3.4800000000029194, -2.2828864436470706 
3.4900000000029405, -2.3789725664409436 
3.5000000000029616, -2.5119707580593262 
3.5100000000029827, -2.6424141041742053 
3.520000000003004, -2.7449401433751133 
3.530000000003025, -2.8160771451826565 
3.540000000003046, -2.8628157263441247 
3.550000000003067, -2.8930940149106292 
3.5600000000030882, -2.9127669870761252 
3.5700000000031094, -2.9255986609161697 
3.5800000000031305, -2.9338975759218 
3.5900000000031516, -2.9390606159616164 
3.6000000000031727, -2.9419256438966257 
3.6100000000031938, -2.942978888605354 
3.620000000003215, -2.942469753633966 
3.630000000003236, -2.9404676346584138 
3.640000000003257, -2.9368786178047217 
3.650000000003278, -2.9314275844234703 
3.6600000000032993, -2.9236023885415974 
3.6700000000033204, -2.912552945838262 
3.6800000000033415, -2.8969489214235162 
3.6900000000033626, -2.8748552382654107 
3.7000000000033837, -2.843856771354696 
3.710000000003405, -2.802036386332985 
3.720000000003426, -2.750677758587948 
3.730000000003447, -2.697995226286076 
3.740000000003468, -2.6584104821176724 
3.750000000003489, -2.6425327558331433 
3.7600000000035103, -2.647953784436074 
3.7700000000035314, -2.6637028174883293 
3.7800000000035525, -2.6803377801947517 
3.7900000000035736, -2.6936388146404346 
3.8000000000035947, -2.702929438096804 
3.810000000003616, -2.708863342264427 
3.820000000003637, -2.712286782543718 
3.830000000003658, -2.713879841634291 
3.840000000003679, -2.714122850348051 
3.8500000000037002, -2.7133634525903054 
3.8600000000037213, -2.711907767196039 
3.8700000000037424, -2.7101076385975746 
3.8800000000037635, -2.7084081588972673 
3.8900000000037847, -2.7073001081868298 
3.9000000000038058, -2.707156331499116 
3.910000000003827, -2.7080472641030924 
3.920000000003848, -2.709704966496392 
3.930000000003869, -2.711686822353222 
3.94000000000389, -2.713600970148921 
3.9500000000039113, -2.715234577261788 
3.9600000000039324, -2.7165477018646405 
3.9700000000039535, -2.7175875755538463 
3.9800000000039746, -2.718392608443295 
3.9900000000039957, -2.71893281743372 
4.000000000004016, -2.719098304683187 
4.010000000003993, -2.7187141650146485 
4.02000000000397, -2.717548019832158 
4.030000000003946, -2.7152861787804103 
4.040000000003923, -2.7114658799486446 
4.0500000000039, -2.705347453263207 
4.0600000000038765, -2.6956876391258575 
4.070000000003853, -2.6803317685450856 
4.08000000000383, -2.655473353545677 
4.090000000003807, -2.614355466937678 
4.100000000003783, -2.5452901826764425 
4.11000000000376, -2.429893363558853 
4.120000000003737, -2.245860729784298 
4.130000000003713, -1.9820306557036222 
4.14000000000369, -1.6594735172607262 
4.150000000003667, -1.3231991560911127 
4.1600000000036434, -0.9997409992862342 
4.17000000000362, -0.6716499365333275 
4.180000000003597, -0.28797325321583195 
4.1900000000035735, 0.19295589659784104 
4.20000000000355, 0.7236085705747975 
4.210000000003527, 1.1608629391293266 
4.220000000003504, 1.4300265000471433 
4.23000000000348, 1.5720417153073798 
4.240000000003457, 1.6449391619462026 
4.250000000003434, 1.6835404768020206 
4.26000000000341, 1.7049059065906602 
4.270000000003387, 1.7171711238319864 
4.280000000003364, 1.7243334371154546 
4.2900000000033405, 1.7284426934947135 
4.300000000003317, 1.73058912742116 
4.310000000003294, 1.7313621925513176 
4.320000000003271, 1.7310729145001942 
4.330000000003247, 1.729866864400643 
4.340000000003224, 1.7277853529401344 
4.350000000003201, 1.7248030882463712 
4.360000000003177, 1.720858216779185 
4.370000000003154, 1.7158855195917657 
4.380000000003131, 1.7098603245507857 
4.390000000003107, 1.7028551169529373 
4.400000000003084, 1.695099087894867 
4.410000000003061, 1.6870133476449267 
4.4200000000030375, 1.6791826519512987 
4.430000000003014, 1.6722400998645046 
4.440000000002991, 1.6666934996879814 
4.450000000002968, 1.662776504425015 
4.460000000002944, 1.6604050537720363 
4.470000000002921, 1.6592508280019265 
4.480000000002898, 1.6588723426176775 
4.490000000002874, 1.658830546076614 
4.500000000002851, 1.658751060021201 
4.510000000002828, 1.658334760350432 
4.520000000002804, 1.6573363287356286 
4.530000000002781, 1.655529592554187 
4.540000000002758, 1.6526715787188826 
4.5500000000027345, 1.6484734478134087 
4.560000000002711, 1.642591072303696 
4.570000000002688, 1.6346665186225706 
4.580000000002665, 1.6244914483268076 
4.590000000002641, 1.6124200158326103 
4.600000000002618, 1.6001573335982269 
4.610000000002595, 1.5917332729742075 
4.620000000002571, 1.5935256045846067 
4.630000000002548, 1.611421705000812 
4.640000000002525, 1.6455966785492733 
4.6500000000025015, 1.6885715025734849 
4.660000000002478, 1.7302996268273443 
4.670000000002455, 1.7644225680016654 
4.6800000000024315, 1.7895025603159809 
4.690000000002408, 1.8068287176543067 
4.700000000002385, 1.8183466121771883 
4.710000000002362, 1.82572684846389 
4.720000000002338, 1.8301550207500692 
4.730000000002315, 1.8323813281733223 
4.740000000002292, 1.832810284449675 
4.750000000002268, 1.8315560130184039 
4.760000000002245, 1.8284379253637033 
4.770000000002222, 1.8228914813817674 
4.7800000000021985, 1.813736797348115 
4.790000000002175, 1.798672770408809 
4.800000000002152, 1.7732099628628004 
4.810000000002129, 1.7285069032920233 
4.820000000002105, 1.6476413550164277 
4.830000000002082, 1.503040038191964 
4.840000000002059, 1.2714629134342397 
4.850000000002035, 0.9868868892551322 
4.860000000002012, 0.7562459660003273 
4.870000000001989, 0.6549608136814936 
4.880000000001965, 0.66937973988838 
4.890000000001942, 0.7454754498549446 
4.900000000001919, 0.8360855454185702 
4.9100000000018955, 0.9157804616436683 
4.920000000001872, 0.9769158516768146 
4.930000000001849, 1.0208021252245223 
4.940000000001826, 1.0513993786138478 
4.950000000001802, 1.072522591064396 
4.960000000001779, 1.0870859296339408 
4.970000000001756, 1.0971292317355703 
4.980000000001732, 1.1040341370670776 
