t, s[1].omega / s[0].omega 
0, -0.4800271487602372 
0.009999999999999995, -0.48286570294203646 
0.019999999999999934, -0.4857952156858662 
0.029999999999999874, -0.48854850269318373 
0.04000000000000012, -0.4908878745181884 
0.050000000000000405, -0.49268610085019315 
0.06000000000000069, -0.49393938087583633 
0.07000000000000098, -0.49472142743728087 
0.08000000000000126, -0.49512711765522094 
0.09000000000000155, -0.49523628731574376 
0.10000000000000184, -0.4950986886318331 
0.11000000000000212, -0.4947294486028574 
0.12000000000000241, -0.4941056697719367 
0.130000000000002, -0.4931587641881311 
0.1400000000000009, -0.4917605402266152 
0.1499999999999998, -0.4897065267531298 
0.1599999999999987, -0.4867132874292882 
0.1699999999999976, -0.48246967654900635 
0.1799999999999965, -0.47678917479983507 
0.1899999999999954, -0.4698307141614026 
0.1999999999999943, -0.46219268959661414 
0.2099999999999932, -0.454698782575757 
0.2199999999999921, -0.44802412672636444 
0.229999999999991, -0.442489226195297 
0.2399999999999899, -0.43810563938060343 
0.2499999999999888, -0.43472312166235144 
0.2599999999999877, -0.43214823528586555 
0.2699999999999866, -0.4302046118669294 
0.2799999999999855, -0.4287528640073231 
0.2899999999999844, -0.4276914589760549 
0.2999999999999833, -0.4269512727555408 
0.3099999999999822, -0.4264895829317612 
0.3199999999999811, -0.42628561464683407 
0.32999999999998, -0.4263382287137228 
0.3399999999999789, -0.4266658390792779 
0.3499999999999778, -0.4273085255676411 
0.35999999999997667, -0.4283321679703359 
0.36999999999997557, -0.42983386899132403 
0.37999999999997447, -0.4319463229834204 
0.38999999999997337, -0.4348351002382282 
0.39999999999997227, -0.43867614460517723 
0.40999999999997117, -0.44359359027836043 
0.41999999999997006, -0.4495447781396834 
0.42999999999996896, -0.4561900358592362 
0.43999999999996786, -0.462875163678601 
0.44999999999996676, -0.46884807563652797 
0.45999999999996566, -0.47359772240047737 
0.46999999999996456, -0.47701780691538503 
0.47999999999996346, -0.47929888889504746 
0.48999999999996235, -0.48072850711795834 
0.49999999999996125, -0.48156172271041225 
0.5099999999999602, -0.48198015471792194 
0.519999999999959, -0.482095943262128 
0.529999999999958, -0.4819665762671058 
0.5399999999999568, -0.48160675854978996 
0.5499999999999557, -0.48099479646235144 
0.5599999999999546, -0.480075952156899 
0.5699999999999535, -0.47876884580138784 
0.5799999999999524, -0.4769847357556759 
0.5899999999999513, -0.4746685952397378 
0.5999999999999502, -0.4718547640507037 
0.6099999999999491, -0.46870008696655957 
0.619999999999948, -0.46545177958802003 
0.6299999999999469, -0.46235913577787907 
0.6399999999999458, -0.45959370101796154 
0.6499999999999447, -0.4572258488745624 
0.6599999999999436, -0.45524875608905446 
0.6699999999999425, -0.4536160791044043 
0.6799999999999414, -0.4522715606757572 
0.6899999999999403, -0.45116582415295337 
0.6999999999999392, -0.4502635786403421 
0.7099999999999381, -0.449545683563087 
0.719999999999937, -0.44900942663065935 
0.7299999999999359, -0.4486690721753305 
0.7399999999999348, -0.44855785667337916 
0.7499999999999337, -0.448732205170595 
0.7599999999999326, -0.44927887506826236 
0.7699999999999315, -0.4503257428133323 
0.7799999999999304, -0.45205654884479135 
0.7899999999999293, -0.45472801425479126 
0.7999999999999282, -0.4586819176685957 
0.8099999999999271, -0.46433076231011566 
0.819999999999926, -0.4720712895108171 
0.8299999999999249, -0.4820643945847734 
0.8399999999999238, -0.49389099823699273 
0.8499999999999227, -0.5063376731543353 
0.8599999999999216, -0.5177423727170707 
0.8699999999999205, -0.5268419993852153 
0.8799999999999194, -0.5333150946915165 
0.8899999999999183, -0.5375706753427709 
0.8999999999999172, -0.5402409472535756 
0.9099999999999161, -0.5418665298631409 
0.919999999999915, -0.5428187355451546 
0.9299999999999139, -0.5433270204206894 
0.9399999999999128, -0.5435234100234155 
0.9499999999999117, -0.5434756017705686 
0.9599999999999106, -0.5432063538861839 
0.9699999999999095, -0.542703219415596 
0.9799999999999084, -0.5419236919327568 
0.9899999999999073, -0.5408020198155792 
0.9999999999999062, -0.5392658447198575 
1.0099999999999052, -0.5372692487722717 
1.019999999999904, -0.534836247256941 
1.029999999999903, -0.5320872636892733 
1.039999999999902, -0.5292173494547824 
1.0499999999999008, -0.5264311678155051 
1.0599999999998997, -0.5238800756248698 
1.0699999999998986, -0.5216385280139022 
1.0799999999998975, -0.5197176718774632 
1.0899999999998964, -0.5180929958936505 
1.0999999999998953, -0.516728372800606 
1.1099999999998942, -0.5155908893122289 
1.119999999999893, -0.5146578190630148 
1.129999999999892, -0.5139189178729741 
1.1399999999998909, -0.5133767196713463 
1.1499999999998898, -0.5130465013730475 
1.1599999999998887, -0.5129567931410126 
1.1699999999998876, -0.5131508771290905 
1.1799999999998865, -0.5136895223894429 
1.1899999999998854, -0.5146550198336715 
1.1999999999998843, -0.5161560889146056 
1.2099999999998832, -0.5183319140443413 
1.219999999999882, -0.5213506175076164 
1.229999999999881, -0.5253920462329937 
1.2399999999998799, -0.5305979544417957 
1.2499999999998788, -0.5369735009611283 
1.2599999999998777, -0.5442557651371438 
1.2699999999998766, -0.5518429402124182 
1.2799999999998755, -0.558925654319934 
1.2899999999998744, -0.5648174062697555 
1.2999999999998733, -0.5692278672915048 
1.3099999999998722, -0.5722580827588656 
1.319999999999871, -0.5742037794275591 
1.32999999999987, -0.5753740811131559 
1.3399999999998689, -0.5760088179295055 
1.3499999999998678, -0.5762661136200629 
1.3599999999998666, -0.5762355603215313 
1.3699999999998655, -0.5759525784817348 
1.3799999999998644, -0.5754057571311393 
1.3899999999998633, -0.5745359526039798 
1.3999999999998622, -0.5732291209748748 
1.4099999999998611, -0.5713097951933725 
1.41999999999986, -0.5685526511789205 
1.429999999999859, -0.5647418069276495 
1.4399999999998578, -0.5597956444650769 
1.4499999999998567, -0.5539041600307113 
1.4599999999998556, -0.5475450477532723 
1.4699999999998545, -0.5413109489329817 
1.4799999999998534, -0.5356766817150305 
1.4899999999998523, -0.5308842366348892 
1.4999999999998512, -0.5269720813413661 
1.5099999999998501, -0.523862643064993 
1.519999999999849, -0.521436814036662 
1.529999999999848, -0.5195760147461774 
1.5399999999998468, -0.5181792804385675 
1.5499999999998457, -0.5171669390416254 
1.5599999999998446, -0.5164788294144655 
1.5699999999998435, -0.5160711878443729 
1.5799999999998424, -0.5159139657634203 
1.5899999999998413, -0.5159891623622244 
1.5999999999998402, -0.5162902434137655 
1.6099999999998391, -0.5168224844764377 
1.619999999999838, -0.5176038482454753 
1.629999999999837, -0.5186655504902327 
1.6399999999998358, -0.5200505930099957 
1.6499999999998347, -0.5218072294700182 
1.6599999999998336, -0.5239731588908099 
1.6699999999998325, -0.5265472479278662 
1.6799999999998314, -0.529452885921847 
1.6899999999998303, -0.5325131348042741 
1.6999999999998292, -0.535470674331648 
1.709999999999828, -0.5380652326565819 
1.719999999999827, -0.5401256617179057 
1.729999999999826, -0.5416095722158311 
1.7399999999998248, -0.5425735842607903 
1.7499999999998237, -0.5431149375861541 
1.7599999999998226, -0.5433258512067813 
1.7699999999998215, -0.5432714093586462 
1.7799999999998204, -0.5429824890223701 
1.7899999999998193, -0.5424528727020067 
1.7999999999998182, -0.5416331281601124 
1.809999999999817, -0.5404165808174668 
1.819999999999816, -0.5386147765118653 
1.8299999999998149, -0.5359259510207359 
1.8399999999998138, -0.5319201706999361 
1.8499999999998127, -0.5261065127973072 
1.8599999999998116, -0.5181715208077443 
1.8699999999998105, -0.5083494217755171 
1.8799999999998094, -0.4975845916318854 
1.8899999999998083, -0.487161522660059 
1.8999999999998072, -0.47808269843365264 
1.909999999999806, -0.470766124258128 
1.919999999999805, -0.4651603670237686 
1.9299999999998039, -0.4609935090776352 
1.9399999999998028, -0.45795234966828763 
1.9499999999998017, -0.4557634200599788 
1.9599999999998006, -0.45421399260469153 
1.9699999999997995, -0.45314787260848055 
1.9799999999997984, -0.4524542975364766 
1.9899999999997973, -0.4520572383231494 
1.9999999999997962, -0.45190724022817114 
2.0099999999998173, -0.4519760060639294 
2.0199999999998384, -0.45225336949940714 
2.0299999999998595, -0.4527461998935287 
2.0399999999998806, -0.45347866083805577 
2.0499999999999017, -0.4544928199570628 
2.059999999999923, -0.4558476384175541 
2.069999999999944, -0.45761272909189027 
2.079999999999965, -0.4598513585273004 
2.089999999999986, -0.4625871496822537 
2.100000000000007, -0.4657565176545472 
2.1100000000000283, -0.4691698588770364 
2.1200000000000494, -0.47252644348271106 
2.1300000000000705, -0.4755075875038573 
2.1400000000000916, -0.4778969198004493 
2.1500000000001127, -0.4796360855895839 
2.160000000000134, -0.4807895161454372 
2.170000000000155, -0.48147183232032786 
2.180000000000176, -0.4817923134391956 
2.190000000000197, -0.48182955215367934 
2.2000000000002182, -0.48162499397994685 
2.2100000000002393, -0.4811823013005105 
2.2200000000002604, -0.48046497293347634 
2.2300000000002815, -0.4793895169047385 
2.2400000000003026, -0.47781619766860006 
2.2500000000003237, -0.4755478080030926 
2.260000000000345, -0.47236095170508624 
2.270000000000366, -0.46810079942616334 
2.280000000000387, -0.4628293020920875 
2.290000000000408, -0.45691710927048446 
2.3000000000004293, -0.4509436784224136 
2.3100000000004504, -0.4454491791080849 
2.3200000000004715, -0.4407483019693035 
2.3300000000004926, -0.4369164443218808 
2.3400000000005137, -0.43387930675455816 
2.3500000000005348, -0.4315057070007705 
2.360000000000556, -0.4296637555878652 
2.370000000000577, -0.42824451986090645 
2.380000000000598, -0.42716759298137863 
2.390000000000619, -0.42637927065792275 
2.4000000000006403, -0.4258489998847542 
2.4100000000006614, -0.42556659651960677 
2.4200000000006825, -0.42554120719185 
2.4300000000007036, -0.4258024164403624 
2.4400000000007247, -0.42640375637881833 
2.450000000000746, -0.42742879296182784 
2.460000000000767, -0.42899952177599976 
2.470000000000788, -0.43128525531693895 
2.480000000000809, -0.4345060710926492 
2.49000000000083, -0.4389161284478461 
2.5000000000008513, -0.44473901975061053 
2.5100000000008724, -0.45202405154136976 
2.5200000000008935, -0.4604434851652536 
2.5300000000009146, -0.46918926240180336 
2.5400000000009357, -0.4772006330358097 
2.550000000000957, -0.4836658712276215 
2.560000000000978, -0.4883478338744761 
2.570000000000999, -0.4914781805481419 
2.58000000000102, -0.4934581814068254 
2.5900000000010412, -0.4946515268277115 
2.6000000000010624, -0.4953183509978466 
2.6100000000010835, -0.49562246704626195 
2.6200000000011046, -0.4956561278401529 
2.6300000000011257, -0.495460476296974 
2.6400000000011468, -0.4950378302508673 
2.650000000001168, -0.49435817180678915 
2.660000000001189, -0.49336476632682896 
2.67000000000121, -0.4919863039617639 
2.680000000001231, -0.490163826965064 
2.6900000000012523, -0.4878931220080611 
2.7000000000012734, -0.48526274706958017 
2.7100000000012945, -0.4824519939090174 
2.7200000000013156, -0.479675386547037 
2.7300000000013367, -0.477109707194345 
2.740000000001358, -0.4748530509906478 
2.750000000001379, -0.4729286630092697 
2.7600000000014, -0.4713124974592963 
2.770000000001421, -0.4699615159930377 
2.780000000001442, -0.46883283206786575 
2.7900000000014633, -0.4678935777434871 
2.8000000000014844, -0.4671247511060469 
2.8100000000015055, -0.4665223167193111 
2.8200000000015266, -0.4660978649859189 
2.8300000000015477, -0.4658802177254904 
2.840000000001569, -0.46591881777711047 
2.85000000000159, -0.4662895499389242 
2.860000000001611, -0.46710362279975504 
2.870000000001632, -0.4685199355672879 
2.8800000000016532, -0.47076020707333754 
2.8900000000016743, -0.4741223937814209 
2.9000000000016954, -0.4789784099599073 
2.9100000000017165, -0.4857235198492928 
2.9200000000017377, -0.494623843615945 
2.9300000000017588, -0.5055313221191581 
2.94000000000178, -0.5175937789105576 
2.950000000001801, -0.5293278710895656 
2.960000000001822, -0.5392713840658201 
2.970000000001843, -0.5467083686651512 
2.9800000000018643, -0.5517700412927005 
2.9900000000018854, -0.5550123184195039 
3.0000000000019065, -0.5570120242481702 
3.0100000000019276, -0.5582020481351836 
3.0200000000019487, -0.5588630153424148 
3.03000000000197, -0.559162178911874 
3.040000000001991, -0.5591902734045519 
3.050000000002012, -0.5589852613462155 
3.060000000002033, -0.5585446302277873 
3.070000000002054, -0.5578305429499311 
3.0800000000020753, -0.556773365061538 
3.0900000000020964, -0.5552817501828414 
3.1000000000021175, -0.5532697859137762 
3.1100000000021386, -0.5507056288317359 
3.1200000000021597, -0.5476631677218744 
3.130000000002181, -0.5443336206903293 
3.140000000002202, -0.5409706026730825 
3.150000000002223, -0.5378019577106772 
3.160000000002244, -0.5349706170863364 
3.1700000000022652, -0.5325294614452792 
3.1800000000022863, -0.5304696385189858 
3.1900000000023074, -0.528753545018637 
3.2000000000023285, -0.5273381798695636 
3.2100000000023496, -0.526187416890689 
3.2200000000023707, -0.5252766599112543 
3.230000000002392, -0.5245935664201242 
3.240000000002413, -0.5241373427191595 
3.250000000002434, -0.5239179879239357 
3.260000000002455, -0.523956159487683 
3.2700000000024763, -0.5242839754948547 
3.2800000000024974, -0.5249468602549823 
3.2900000000025185, -0.5260062521183152 
3.3000000000025396, -0.5275423448235216 
3.3100000000025607, -0.5296546291922571 
3.3200000000025818, -0.5324553828032567 
3.330000000002603, -0.5360475135665534 
3.340000000002624, -0.5404760663617064 
3.350000000002645, -0.5456514985206751 
3.360000000002666, -0.5512760412765003 
3.3700000000026873, -0.556850776000094 
3.3800000000027084, -0.5618251274489723 
3.3900000000027295, -0.5658168883214725 
3.4000000000027506, -0.5687274010999753 
3.4100000000027717, -0.5706824695524269 
3.420000000002793, -0.5718971265111169 
3.430000000002814, -0.5725743938265269 
3.440000000002835, -0.5728641965015525 
3.450000000002856, -0.5728588305035569 
3.460000000002877, -0.5725997494969246 
3.4700000000028983, -0.5720823978205124 
3.4800000000029194, -0.5712540425202771 
3.4900000000029405, -0.5700033780159949 
3.5000000000029616, -0.5681444828777028 
3.5100000000029827, -0.565407377843016 
3.520000000003004, -0.56146729934026 
3.530000000003025, -0.5560612083384753 
3.540000000003046, -0.5491968567585925 
3.550000000003067, -0.5413174458129962 
3.5600000000030882, -0.5332082222234211 
3.5700000000031094, -0.5256577685037402 
3.5800000000031305, -0.5191652972057643 
3.5900000000031516, -0.5138878974236755 
3.6000000000031727, -0.5097529785559906 
3.6100000000031938, -0.5065896260365513 
3.620000000003215, -0.5042123708360216 
3.630000000003236, -0.5024583448924826 
3.640000000003257, -0.5011973317447384 
3.650000000003278, -0.5003301278851258 
3.6600000000032993, -0.49978345564020454 
3.6700000000033204, -0.4995049422166491 
3.6800000000033415, -0.4994593349288109 
3.6900000000033626, -0.49962615313957015 
3.7000000000033837, -0.49999863449468746 
3.710000000003405, -0.5005836699521333 
3.720000000003426, -0.5014021487156052 
3.730000000003447, -0.502488532200192 
3.740000000003468, -0.5038874381715116 
3.750000000003489, -0.5056437596755751 
3.7600000000035103, -0.5077824316069502 
3.7700000000035314, -0.5102771464123611 
3.7800000000035525, -0.5130179833864482 
3.7900000000035736, -0.5158037872714469 
3.8000000000035947, -0.5183859450361504 
3.810000000003616, -0.5205530147752205 
3.820000000003637, -0.5221991008959853 
3.830000000003658, -0.523329517780625 
3.840000000003679, -0.5240165508528836 
3.8500000000037002, -0.5243486075786886 
3.8600000000037213, -0.5243981652214011 
3.8700000000037424, -0.5242083303757721 
3.8800000000037635, -0.5237881505044045 
3.8900000000037847, -0.5231079878329975 
3.9000000000038058, -0.5220893269957481 
3.910000000003827, -0.5205856320962214 
3.920000000003848, -0.5183549032953187 
3.930000000003869, -0.5150379067214741 
3.94000000000389, -0.5101880966932151 
3.9500000000039113, -0.5034343013698883 
3.9600000000039324, -0.4947989103385768 
3.9700000000039535, -0.4849501061243443 
3.9800000000039746, -0.47502539968072177 
3.9900000000039957, -0.4660799499489868 
4.000000000004016, -0.458678208239289 
4.010000000003993, -0.4528940934488109 
4.02000000000397, -0.44852608881408285 
4.030000000003946, -0.4452906964570694 
4.040000000003923, -0.44292370586263347 
4.0500000000039, -0.4412138188302081 
4.0600000000038765, -0.4400042435729083 
4.070000000003853, -0.43918373745657063 
4.08000000000383, -0.43867650028408967 
4.090000000003807, -0.4384340884915792 
4.100000000003783, -0.43842999124324844 
4.11000000000376, -0.43865669529573026 
4.120000000003737, -0.4391248858931912 
4.130000000003713, -0.4398643468906867 
4.14000000000369, -0.44092579470164883 
4.150000000003667, -0.44238197272234325 
4.1600000000036434, -0.44432446608657566 
4.17000000000362, -0.4468497258327292 
4.180000000003597, -0.45002513438663766 
4.1900000000035735, -0.4538297538804188 
4.20000000000355, -0.45808647895256305 
4.210000000003527, -0.46244199338008896 
4.220000000003504, -0.4664572496304215 
4.23000000000348, -0.4697807247493695 
4.240000000003457, -0.47227077274075036 
4.250000000003434, -0.47398068644207136 
4.26000000000341, -0.4750602068654307 
4.270000000003387, -0.4756669903804192 
4.280000000003364, -0.4759234654313197 
4.2900000000033405, -0.47590668645341677 
4.300000000003317, -0.47565090586500186 
4.310000000003294, -0.47515084889713394 
4.320000000003271, -0.47436142059381237 
4.330000000003247, -0.47319469299817385 
4.340000000003224, -0.47152060744014346 
4.350000000003201, -0.4691859756236898 
4.360000000003177, -0.4660711456668671 
4.370000000003154, -0.462184314023221 
4.380000000003131, -0.45773723961338825 
4.390000000003107, -0.4531127753772921 
4.400000000003084, -0.44871699902330964 
4.410000000003061, -0.444831695327556 
4.4200000000030375, -0.4415682139771156 
4.430000000003014, -0.43890986440707913 
4.440000000002991, -0.43677748214060036 
4.450000000002968, -0.43507787093911593 
4.460000000002944, -0.433728829012528 
4.470000000002921, -0.43266827407369035 
4.480000000002898, -0.4318555432961203 
4.490000000002874, -0.4312700479636559 
4.500000000002851, -0.4309099966981541 
4.510000000002828, -0.4307924856946931 
4.520000000002804, -0.4309556340186324 
4.530000000002781, -0.43146327762936065 
4.540000000002758, -0.43241271515890245 
4.5500000000027345, -0.43394572007911 
4.560000000002711, -0.43626171327453755 
4.570000000002688, -0.43962793867167765 
4.580000000002665, -0.44437168497533597 
4.590000000002641, -0.4508217504324243 
4.600000000002618, -0.4591510708137319 
4.610000000002595, -0.4691109206833356 
4.620000000002571, -0.4798151785659031 
4.630000000002548, -0.48991372941539735 
4.640000000002525, -0.4982317964980537 
4.6500000000025015, -0.5043181229356521 
4.660000000002478, -0.5084021418075342 
4.670000000002455, -0.5109952675175313 
4.6800000000024315, -0.5125807462685688 
4.690000000002408, -0.5135075134595283 
4.700000000002385, -0.5139969824885215 
4.710000000002362, -0.5141781526451814 
4.720000000002338, -0.5141174214425531 
4.730000000002315, -0.5138370944604728 
4.740000000002292, -0.5133252078082745 
4.750000000002268, -0.5125413622697251 
4.760000000002245, -0.5114247697904026 
4.770000000002222, -0.5099122604284483 
4.7800000000021985, -0.5079713517804674 
4.790000000002175, -0.5056401106858295 
4.800000000002152, -0.5030461496274253 
4.810000000002129, -0.5003785673694876 
4.820000000002105, -0.49782413727314284 
4.830000000002082, -0.4955122539736889 
4.840000000002059, -0.4934989567665122 
4.850000000002035, -0.49178351297164 
4.860000000002012, -0.49033530034714623 
4.870000000001989, -0.48911589235649844 
4.880000000001965, -0.4880922846426289 
4.890000000001942, -0.4872430083959231 
