t, s[1].omega / s[0].omega 
0, -0.8999998220875621 
0.009999999999999995, -0.899928549072625 
0.019999999999999934, -0.8997457571737646 
0.029999999999999874, -0.8994462411000356 
0.04000000000000012, -0.8990327078318432 
0.050000000000000405, -0.8985189919296914 
0.06000000000000069, -0.8979311871667276 
0.07000000000000098, -0.8973078433150057 
0.08000000000000126, -0.8967000848628581 
0.09000000000000155, -0.8961705242805618 
0.10000000000000184, -0.8957884497191655 
0.11000000000000212, -0.8956198769106779 
0.12000000000000241, -0.8957145639561916 
0.130000000000002, -0.8960952547038042 
0.1400000000000009, -0.8967540372801281 
0.1499999999999998, -0.8976568051700866 
0.1599999999999987, -0.8987527085986997 
0.1699999999999976, -0.8999839255898484 
0.1799999999999965, -0.9012920691342066 
0.1899999999999954, -0.9026197627376826 
0.1999999999999943, -0.9039084723432842 
0.2099999999999932, -0.9050961374971196 
0.2199999999999921, -0.9061193388793102 
0.229999999999991, -0.9069224970240264 
0.2399999999999899, -0.9074706129859627 
0.2499999999999888, -0.9077573490542106 
0.2599999999999877, -0.9078030046392638 
0.2699999999999866, -0.9076451288164533 
0.2799999999999855, -0.9073294714491784 
0.2899999999999844, -0.9069072064930289 
0.2999999999999833, -0.9064397539502128 
0.3099999999999822, -0.9060086226762598 
0.3199999999999811, -0.9057244418248205 
0.32999999999998, -0.9057266535302233 
0.3399999999999789, -0.9061663813314477 
0.3499999999999778, -0.9071735092700276 
0.35999999999997667, -0.9088213470452416 
0.36999999999997557, -0.9111063419345437 
0.37999999999997447, -0.9139498568320599 
0.38999999999997337, -0.9172141271591668 
0.39999999999997227, -0.9207195219823869 
0.40999999999997117, -0.9242577086413526 
0.41999999999997006, -0.927606787650624 
0.42999999999996896, -0.9305588219851995 
0.43999999999996786, -0.9329598513889135 
0.44999999999996676, -0.9347435052450577 
0.45999999999996566, -0.9359344710038888 
0.46999999999996456, -0.9366191233761813 
0.47999999999996346, -0.9369046195710864 
0.48999999999996235, -0.9368890620164892 
0.49999999999996125, -0.9366506095914117 
0.5099999999999602, -0.9362524623172451 
0.519999999999959, -0.9357592887016066 
0.529999999999958, -0.9352630165437421 
0.5399999999999568, -0.9349148835056875 
0.5499999999999557, -0.9349521416240819 
0.5599999999999546, -0.9356950332732726 
0.5699999999999535, -0.9374887919944962 
0.5799999999999524, -0.9405944921491518 
0.5899999999999513, -0.9450772699381828 
0.5999999999999502, -0.9507519550292264 
0.6099999999999491, -0.9572072153318022 
0.619999999999948, -0.9638870333821974 
0.6299999999999469, -0.9702031235272663 
0.6399999999999458, -0.975661110154277 
0.6499999999999447, -0.9799689521566227 
0.6599999999999436, -0.9830767475564972 
0.6699999999999425, -0.9851251951779256 
0.6799999999999414, -0.9863428069186992 
0.6899999999999403, -0.9869558593065173 
0.6999999999999392, -0.9871427999069166 
0.7099999999999381, -0.9870268734625596 
0.719999999999937, -0.9866893015782919 
0.7299999999999359, -0.9861924439122658 
0.7399999999999348, -0.9856121521241464 
0.7499999999999337, -0.9850824901433626 
0.7599999999999326, -0.984848104707112 
0.7699999999999315, -0.9852955941105327 
0.7799999999999304, -0.9869098115702799 
0.7899999999999293, -0.9901205997027388 
0.7999999999999282, -0.9950949738479711 
0.8099999999999271, -1.0016070239986612 
0.819999999999926, -1.009072695913775 
0.8299999999999249, -1.0167167917386712 
0.8399999999999238, -1.0237819942776887 
0.8499999999999227, -1.0297090114429444 
0.8599999999999216, -1.0342387209036432 
0.8699999999999205, -1.0374036844191634 
0.8799999999999194, -1.039425437632187 
0.8899999999999183, -1.0405861274517065 
0.8999999999999172, -1.0411383696713217 
0.9099999999999161, -1.0412700747555417 
0.919999999999915, -1.0411072303640656 
0.9299999999999139, -1.0407346141824345 
0.9399999999999128, -1.0402255079293834 
0.9499999999999117, -1.0396804621159974 
0.9599999999999106, -1.03927347264625 
0.9699999999999095, -1.0392862619371857 
0.9799999999999084, -1.040086379949501 
0.9899999999999073, -1.0420137898619215 
0.9999999999999062, -1.0452178161530257 
1.0099999999999052, -1.0495611950979205 
1.019999999999904, -1.0546621702545205 
1.029999999999903, -1.0600249296674191 
1.039999999999902, -1.0651666279509215 
1.0499999999999008, -1.069700715751194 
1.0599999999998997, -1.0733835306150667 
1.0699999999998986, -1.0761311071691813 
1.0799999999998975, -1.077999832439438 
1.0899999999998964, -1.0791338621715414 
1.0999999999998953, -1.079703525273727 
1.1099999999998942, -1.0798615406127197 
1.119999999999893, -1.0797267588193622 
1.129999999999892, -1.0793901878967596 
1.1399999999998909, -1.0789350403514328 
1.1499999999998898, -1.0784642264629265 
1.1599999999998887, -1.0781250299927907 
1.1699999999998876, -1.0781102813575731 
1.1799999999998865, -1.0786147030127518 
1.1899999999998854, -1.079756925169335 
1.1999999999998843, -1.0815215492416104 
1.2099999999998832, -1.0837676633929516 
1.219999999999882, -1.0862890369517058 
1.229999999999881, -1.0888758212518268 
1.2399999999998799, -1.0913482523422615 
1.2499999999998788, -1.093565621615879 
1.2599999999998777, -1.095426124345125 
1.2699999999998766, -1.0968682260399587 
1.2799999999998755, -1.097873724352255 
1.2899999999998744, -1.0984658885439342 
1.2999999999998733, -1.0986984730112639 
1.3099999999998722, -1.0986397655734939 
1.319999999999871, -1.0983605148386795 
1.32999999999987, -1.097931631798665 
1.3399999999998689, -1.0974310672156204 
1.3499999999998678, -1.0969529180500535 
1.3599999999998666, -1.0966070335135767 
1.3699999999998655, -1.0964994611539545 
1.3799999999998644, -1.0966990221453932 
1.3899999999998633, -1.0972124329589208 
1.3999999999998622, -1.09798622253503 
1.4099999999998611, -1.0989304901141934 
1.41999999999986, -1.0999462797359818 
1.429999999999859, -1.1009443838667983 
1.4399999999998578, -1.1018535737289263 
1.4499999999998567, -1.1026211477187307 
1.4599999999998556, -1.1032097858802337 
1.4699999999998545, -1.1035943070679202 
1.4799999999998534, -1.1037605506318235 
1.4899999999998523, -1.1037064501230847 
1.4999999999998512, -1.1034435108045648 
1.5099999999998501, -1.1029970476281374 
1.519999999999849, -1.1024055837670779 
1.529999999999848, -1.1017209630467804 
1.5399999999998468, -1.1010087999242064 
1.5499999999998457, -1.1003454750052197 
1.5599999999998446, -1.0998075698715097 
1.5699999999998435, -1.0994550562578982 
1.5799999999998424, -1.0993159062413356 
1.5899999999998413, -1.099379438763481 
1.5999999999998402, -1.0996001580531032 
1.6099999999998391, -1.0999098527921303 
1.619999999999838, -1.1002334102019 
1.629999999999837, -1.100502174137891 
1.6399999999998358, -1.1006608562117617 
1.6499999999998347, -1.10066891007523 
1.6599999999998336, -1.1004996459214422 
1.6699999999998325, -1.1001389995302997 
1.6799999999998314, -1.099584034707335 
1.6899999999998303, -1.0988412924626094 
1.6999999999998292, -1.0979260417460894 
1.709999999999828, -1.0968634092151253 
1.719999999999827, -1.0956911645991398 
1.729999999999826, -1.0944626525641057 
1.7399999999998248, -1.0932474163906125 
1.7499999999998237, -1.0921267221679787 
1.7599999999998226, -1.0911820996899702 
1.7699999999998215, -1.090477288126414 
1.7799999999998204, -1.0900379494415178 
1.7899999999998193, -1.0898390528882298 
1.7999999999998182, -1.0898103622243456 
1.809999999999817, -1.089858732453668 
1.819999999999816, -1.089892157568801 
1.8299999999998149, -1.0898319208800094 
1.8399999999998138, -1.0896122963757742 
1.8499999999998127, -1.0891761360334467 
1.8599999999998116, -1.0884741477596924 
1.8699999999998105, -1.0874701983460069 
1.8799999999998094, -1.086149242261939 
1.8899999999998083, -1.0845221695208136 
1.8999999999998072, -1.0826250455235558 
1.909999999999806, -1.0805157210388532 
1.919999999999805, -1.0782725675214533 
1.9299999999998039, -1.0759965567307956 
1.9399999999998028, -1.0738125168254036 
1.9499999999998017, -1.0718614947694458 
1.9599999999998006, -1.070276314946807 
1.9699999999997995, -1.0691414051503032 
1.9799999999997984, -1.0684564032345576 
1.9899999999997973, -1.0681327273948527 
1.9999999999997962, -1.0680304729107353 
2.0099999999998173, -1.0680077055145412 
2.0199999999998384, -1.0679490961058102 
2.0299999999998595, -1.067766233715548 
2.0399999999998806, -1.0673824920212227 
2.0499999999999017, -1.0667173471407168 
2.059999999999923, -1.0656796866556015 
2.069999999999944, -1.064175387019912 
2.079999999999965, -1.0621294191427981 
2.089999999999986, -1.0595141729859978 
2.100000000000007, -1.0563693950350557 
2.1100000000000283, -1.0528047312695865 
2.1200000000000494, -1.0489896774195515 
2.1300000000000705, -1.0451412397949749 
2.1400000000000916, -1.0415101071685329 
2.1500000000001127, -1.0383529968041956 
2.160000000000134, -1.0358792403100696 
2.170000000000155, -1.0341834075131575 
2.180000000000176, -1.033207137150598 
2.190000000000197, -1.032768257384951 
2.2000000000002182, -1.0326408534110805 
2.2100000000002393, -1.0326281870941325 
2.2200000000002604, -1.0325903727054873 
2.2300000000002815, -1.0324328362747295 
2.2400000000003026, -1.0320794722731443 
2.2500000000003237, -1.0314473172292735 
2.260000000000345, -1.0304301249929613 
2.270000000000366, -1.028896154035378 
2.280000000000387, -1.0267067591545689 
2.290000000000408, -1.0237576779541349 
2.3000000000004293, -1.02002967821957 
2.3100000000004504, -1.0156218515112028 
2.3200000000004715, -1.010749541364929 
2.3300000000004926, -1.0057140948785748 
2.3400000000005137, -1.0008624265488801 
2.3500000000005348, -0.9965409109780567 
2.360000000000556, -0.9930352162455565 
2.370000000000577, -0.9904999825667146 
2.380000000000598, -0.988912294064321 
2.390000000000619, -0.9880897513092114 
2.4000000000006403, -0.9877712162403997 
2.4100000000006614, -0.987707691699003 
2.4200000000006825, -0.9877126965346432 
2.4300000000007036, -0.9876643882079579 
2.4400000000007247, -0.9874815158822503 
2.450000000000746, -0.9870950643673965 
2.460000000000767, -0.9864261085820853 
2.470000000000788, -0.9853740260535305 
2.480000000000809, -0.9838195732067394 
2.49000000000083, -0.9816480814973436 
2.5000000000008513, -0.9787908616511789 
2.5100000000008724, -0.975267165128165 
2.5200000000008935, -0.9712008945629126 
2.5300000000009146, -0.9668021237280362 
2.5400000000009357, -0.962329187637421 
2.550000000000957, -0.9580526225576911 
2.560000000000978, -0.9542260323110712 
2.570000000000999, -0.951055179694803 
2.58000000000102, -0.9486610022778688 
2.5900000000010412, -0.9470496262050195 
2.6000000000010624, -0.946112767981171 
2.6100000000010835, -0.9456675471715569 
2.6200000000011046, -0.9455154748524626 
2.6300000000011257, -0.9454881003533189 
2.6400000000011468, -0.9454627898054317 
2.650000000001168, -0.9453544971484543 
2.660000000001189, -0.9450980619783117 
2.67000000000121, -0.9446322870643712 
2.680000000001231, -0.9438919225323875 
2.6900000000012523, -0.9428109641429353 
2.7000000000012734, -0.9413378528384341 
2.7100000000012945, -0.9394568096300899 
2.7200000000013156, -0.9372025601748215 
2.7300000000013367, -0.9346576025291755 
2.740000000001358, -0.9319342194441717 
2.750000000001379, -0.9291543275012947 
2.7600000000014, -0.9264375566745148 
2.770000000001421, -0.9238974427402029 
2.780000000001442, -0.921638824099716 
2.7900000000014633, -0.9197500103103791 
2.8000000000014844, -0.918288495008162 
2.8100000000015055, -0.9172656981686471 
2.8200000000015266, -0.9166404893152371 
2.8300000000015477, -0.9163283931409113 
2.840000000001569, -0.9162235517404959 
2.85000000000159, -0.9162220666872747 
2.860000000001611, -0.9162362827084124 
2.870000000001632, -0.9161976511644339 
2.8800000000016532, -0.9160527846186092 
2.8900000000016743, -0.9157590864107664 
2.9000000000016954, -0.9152842451794007 
2.9100000000017165, -0.9146100970462424 
2.9200000000017377, -0.9137374015351007 
2.9300000000017588, -0.9126864636718771 
2.94000000000178, -0.9114915652465696 
2.950000000001801, -0.910192593280919 
2.960000000001822, -0.9088293551607618 
2.970000000001843, -0.9074410542317615 
2.9800000000018643, -0.9060691893358837 
2.9900000000018854, -0.9047603871770843 
3.0000000000019065, -0.9035663375724937 
3.0100000000019276, -0.902539537706511 
3.0200000000019487, -0.9017252531809576 
3.03000000000197, -0.9011518573285917 
3.040000000001991, -0.9008230447132538 
3.050000000002012, -0.9007154469156115 
3.060000000002033, -0.9007832523571884 
3.070000000002054, -0.900968117558581 
3.0800000000020753, -0.9012101593506934 
3.0900000000020964, -0.9014561632914582 
3.1000000000021175, -0.9016637525698593 
3.1100000000021386, -0.9018025491086787 
3.1200000000021597, -0.9018536408313154 
3.130000000002181, -0.9018076369303614 
3.140000000002202, -0.9016612157849859 
3.150000000002223, -0.9014132456938626 
3.160000000002244, -0.9010627833367042 
3.1700000000022652, -0.9006104294377781 
3.1800000000022863, -0.9000620629463935 
3.1900000000023074, -0.89943255711755 
3.2000000000023285, -0.8987480078903193 
3.2100000000023496, -0.8980465772028904 
3.2200000000023707, -0.8973781507112563 
3.230000000002392, -0.8968017913791971 
3.240000000002413, -0.8963793921014123 
3.250000000002434, -0.8961654734079978 
3.260000000002455, -0.8961960119444392 
3.2700000000024763, -0.8964808849512371 
3.2800000000024974, -0.8970031106927163 
3.2900000000025185, -0.8977246360387456 
3.3000000000025396, -0.8985956092446209 
3.3100000000025607, -0.8995633100495976 
3.3200000000025818, -0.9005778620064172 
3.330000000002603, -0.9015935842224774 
3.340000000002624, -0.9025667311999068 
3.350000000002645, -0.9034522278416276 
3.360000000002666, -0.9042032460744316 
3.3700000000026873, -0.9047764472041349 
3.3800000000027084, -0.9051414994403026 
3.3900000000027295, -0.9052890318878349 
3.4000000000027506, -0.9052317304289774 
3.4100000000027717, -0.9049990717424837 
3.420000000002793, -0.9046311085847318 
3.430000000002814, -0.9041764620692032 
3.440000000002835, -0.9036959781664724 
3.450000000002856, -0.9032694992486465 
3.460000000002877, -0.9030000219385264 
3.4700000000028983, -0.9030082228677496 
3.4800000000029194, -0.903413576766245 
3.4900000000029405, -0.9043068438344358 
3.5000000000029616, -0.9057266234690571 
3.5100000000029827, -0.9076512824314186 
3.520000000003004, -0.9100069510100759 
3.530000000003025, -0.9126825874585623 
3.540000000003046, -0.9155423020985317 
3.550000000003067, -0.9184319389212542 
3.5600000000030882, -0.9211853884893623 
3.5700000000031094, -0.9236400491628192 
3.5800000000031305, -0.9256648198196636 
3.5900000000031516, -0.9271893818124658 
3.6000000000031727, -0.9282150825900096 
3.6100000000031938, -0.9287991612510618 
3.620000000003215, -0.9290244218099124 
3.630000000003236, -0.9289732488548058 
3.640000000003257, -0.9287160041902501 
3.650000000003278, -0.9283138497864687 
3.6600000000032993, -0.9278328071333517 
3.6700000000033204, -0.9273662828757162 
3.6800000000033415, -0.9270613455572209 
3.6900000000033626, -0.927136650447028 
3.7000000000033837, -0.9278715375107515 
3.710000000003405, -0.9295503869269478 
3.720000000003426, -0.9323734008085127 
3.730000000003447, -0.9363758210533675 
3.740000000003468, -0.9413963405499348 
3.750000000003489, -0.9471008719805374 
3.7600000000035103, -0.9530407992097659 
3.7700000000035314, -0.9587295325444802 
3.7800000000035525, -0.9637342321640625 
3.7900000000035736, -0.9677680155757875 
3.8000000000035947, -0.9707417825071654 
3.810000000003616, -0.9727423669440054 
3.820000000003637, -0.9739543236306091 
3.830000000003658, -0.9745778830217235 
3.840000000003679, -0.9747798230186122 
3.8500000000037002, -0.9746798449393228 
3.8600000000037213, -0.9743589823762238 
3.8700000000037424, -0.973879543819064 
3.8800000000037635, -0.9733144414777369 
3.8900000000037847, -0.9727880610767711 
3.9000000000038058, -0.9725249604578993 
3.910000000003827, -0.9728825766152953 
3.920000000003848, -0.9743205895925809 
3.930000000003869, -0.9772709773594954 
3.94000000000389, -0.9819461810822615 
3.9500000000039113, -0.9881984507347233 
3.9600000000039324, -0.995521183525368 
3.9700000000039535, -1.003182400784675 
3.9800000000039746, -1.0104179616072915 
3.9900000000039957, -1.0166181046092009 
4.000000000004016, -1.0214541877916021 
4.010000000003993, -1.024900070496072 
4.02000000000397, -1.0271469194851617 
4.030000000003946, -1.02847319393782 
4.040000000003923, -1.029142381004268 
4.0500000000039, -1.029356557961596 
4.0600000000038765, -1.029252858721798 
4.070000000003853, -1.0289211796684385 
4.08000000000383, -1.0284315034312859 
4.090000000003807, -1.0278700109196484 
4.100000000003783, -1.0273854632259116 
4.11000000000376, -1.0272348012253245 
4.120000000003737, -1.027789948544426 
4.130000000003713, -1.0294555881179905 
4.14000000000369, -1.0325009598863284 
4.150000000003667, -1.0369067907975358 
4.1600000000036434, -1.042342791569141 
4.17000000000362, -1.0482791786691066 
4.180000000003597, -1.0541410463390881 
4.1900000000035735, -1.0594326018432514 
4.20000000000355, -1.0638161468083356 
4.210000000003527, -1.0671479529969141 
4.220000000003504, -1.0694641324607248 
4.23000000000348, -1.070919990021077 
4.240000000003457, -1.0717129228782474 
4.250000000003434, -1.072024335064539 
4.26000000000341, -1.0719948513587927 
4.270000000003387, -1.0717266702588295 
4.280000000003364, -1.0713022670796848 
4.2900000000033405, -1.0708127806742362 
4.300000000003317, -1.0703899972814548 
4.310000000003294, -1.0702262160559781 
4.320000000003271, -1.07055417597949 
4.330000000003247, -1.0715724342126878 
4.340000000003224, -1.0733531522434505 
4.350000000003201, -1.0758035864539202 
4.360000000003177, -1.0787083186072715 
4.370000000003154, -1.0818080688135487 
4.380000000003131, -1.0848604074665542 
4.390000000003107, -1.0876666130379844 
4.400000000003084, -1.0900788532936336 
4.410000000003061, -1.0920039846916212 
4.4200000000030375, -1.0934077137623393 
4.430000000003014, -1.0943121441861732 
4.440000000002991, -1.0947810188228302 
4.450000000002968, -1.0948973612151902 
4.460000000002944, -1.094744845473999 
4.470000000002921, -1.0944010009852279 
4.480000000002898, -1.0939429804671872 
4.490000000002874, -1.093460528542281 
4.500000000002851, -1.09306543314743 
4.510000000002828, -1.092883362816604 
4.520000000002804, -1.0930217895417986 
4.530000000002781, -1.0935299559858058 
4.540000000002758, -1.094380813450731 
4.5500000000027345, -1.095487214366058 
4.560000000002711, -1.0967358324956313 
4.570000000002688, -1.098016297651488 
4.580000000002665, -1.099236328202745 
4.590000000002641, -1.100325090857349 
4.600000000002618, -1.1012304923098255 
4.610000000002595, -1.101915603974483 
4.620000000002571, -1.1023574449982467 
4.630000000002548, -1.1025483645522116 
4.640000000002525, -1.1024975776091828 
4.6500000000025015, -1.102230384857657 
4.660000000002478, -1.1017855013995626 
4.670000000002455, -1.1012133456244042 
4.6800000000024315, -1.1005768359038577 
4.690000000002408, -1.09995185377577 
4.700000000002385, -1.0994212883884797 
4.710000000002362, -1.0990595013120672 
4.720000000002338, -1.0989129004056628 
4.730000000002315, -1.0989876672661276 
4.740000000002292, -1.0992504799934752 
4.750000000002268, -1.0996395850361018 
4.760000000002245, -1.1000804499206438 
4.770000000002222, -1.1005005256759364 
4.7800000000021985, -1.1008389076587277 
4.790000000002175, -1.1010498607882901 
4.800000000002152, -1.1011023115116547 
4.810000000002129, -1.1009778310562095 
4.820000000002105, -1.1006683939019886 
4.830000000002082, -1.1001745883163274 
4.840000000002059, -1.0995050697464768 
4.850000000002035, -1.098677701399525 
4.860000000002012, -1.097721990350425 
4.870000000001989, -1.0966817929379507 
4.880000000001965, -1.095616638841918 
4.890000000001942, -1.0945992387272268 
4.900000000001919, -1.0937070340363806 
4.9100000000018955, -1.0930078674557715 
4.920000000001872, -1.0925427378269277 
4.930000000001849, -1.092311456082261 
