t, s[1].omega / s[0].omega 
0, -1.1499980632983777 
0.009999999999999995, -1.1496722769754448 
0.019999999999999934, -1.1490894227680488 
0.029999999999999874, -1.1482809283710649 
0.04000000000000012, -1.1473343681138006 
0.050000000000000405, -1.1463952910857074 
0.06000000000000069, -1.1456359052106433 
0.07000000000000098, -1.1452036439316913 
0.08000000000000126, -1.1451018621023954 
0.09000000000000155, -1.1451278274391907 
0.10000000000000184, -1.1450181475833188 
0.11000000000000212, -1.1445537101470633 
0.12000000000000241, -1.1435547224969902 
0.130000000000002, -1.1419204711327229 
0.1400000000000009, -1.1396765610542667 
0.1499999999999998, -1.1369282581027589 
0.1599999999999987, -1.133824045691582 
0.1699999999999976, -1.1306560648547768 
0.1799999999999965, -1.1280059841571162 
0.1899999999999954, -1.1264921689521077 
0.1999999999999943, -1.1260542403198075 
0.2099999999999932, -1.1260317628405203 
0.2199999999999921, -1.125884742102083 
0.229999999999991, -1.125266693832377 
0.2399999999999899, -1.1236853693296502 
0.2499999999999888, -1.1202571869368396 
0.2599999999999877, -1.11393132798778 
0.2699999999999866, -1.1043137245949168 
0.2799999999999855, -1.0922183854088434 
0.2899999999999844, -1.0796883482118385 
0.2999999999999833, -1.0698752113392402 
0.3099999999999822, -1.0650228105392754 
0.3199999999999811, -1.0639434785205986 
0.32999999999998, -1.0641091972085168 
0.3399999999999789, -1.0642394542219962 
0.3499999999999778, -1.0639614242762818 
0.35999999999997667, -1.0629373675944718 
0.36999999999997557, -1.0602386292607464 
0.37999999999997447, -1.0535993913189146 
0.38999999999997337, -1.039321513677519 
0.39999999999997227, -1.015404300126113 
0.40999999999997117, -0.9860080213218592 
0.41999999999997006, -0.9598577290108655 
0.42999999999996896, -0.9436663057997918 
0.43999999999996786, -0.9373040889913312 
0.44999999999996676, -0.9360927554368331 
0.45999999999996566, -0.9363081840054635 
0.46999999999996456, -0.9365349352199582 
0.47999999999996346, -0.9364249531079152 
0.48999999999996235, -0.9357809976564051 
0.49999999999996125, -0.9341443585591628 
0.5099999999999602, -0.9305621204796397 
0.519999999999959, -0.9238616076054152 
0.529999999999958, -0.9139277298429196 
0.5399999999999568, -0.9024034553334438 
0.5499999999999557, -0.8913978736038927 
0.5599999999999546, -0.8824097475869837 
0.5699999999999535, -0.8762650358651501 
0.5799999999999524, -0.8729948923339792 
0.5899999999999513, -0.8717876466081291 
0.5999999999999502, -0.8715626572793893 
0.6099999999999491, -0.8715746476156908 
0.619999999999948, -0.8714633509801029 
0.6299999999999469, -0.8710300888074289 
0.6399999999999458, -0.870088843030951 
0.6499999999999447, -0.8685016117517809 
0.6599999999999436, -0.8663401214449906 
0.6699999999999425, -0.8638945256219824 
0.6799999999999414, -0.8614540494632288 
0.6899999999999403, -0.8591813754152857 
0.6999999999999392, -0.8571697883191614 
0.7099999999999381, -0.8555170871634998 
0.719999999999937, -0.8543273692567334 
0.7299999999999359, -0.8536502596394707 
0.7399999999999348, -0.8534173559061407 
0.7499999999999337, -0.8534550990467402 
0.7599999999999326, -0.8535709668268766 
0.7699999999999315, -0.8536233917553527 
0.7799999999999304, -0.8535428753373211 
0.7899999999999293, -0.8533315082627867 
0.7999999999999282, -0.8530335153781514 
0.8099999999999271, -0.8526767565428438 
0.819999999999926, -0.852248678348167 
0.8299999999999249, -0.8517357996531779 
0.8399999999999238, -0.8511733914689698 
0.8499999999999227, -0.8506617984662341 
0.8599999999999216, -0.8503482027132601 
0.8699999999999205, -0.8503717672972521 
0.8799999999999194, -0.8507969749166364 
0.8899999999999183, -0.8515936495999256 
0.8999999999999172, -0.8526751991434102 
0.9099999999999161, -0.8539526845156344 
0.919999999999915, -0.8553616265863656 
0.9299999999999139, -0.8568333852090038 
0.9399999999999128, -0.8582261647127691 
0.9499999999999117, -0.8593187404030205 
0.9599999999999106, -0.8599469792383774 
0.9699999999999095, -0.8601197982699567 
0.9799999999999084, -0.8599621862974373 
0.9899999999999073, -0.8596393035067224 
0.9999999999999062, -0.8594101282716449 
1.0099999999999052, -0.8597691205076013 
1.019999999999904, -0.8614586698096937 
1.029999999999903, -0.8651340518792455 
1.039999999999902, -0.8709594007731225 
1.0499999999999008, -0.8785948450162635 
1.0599999999998997, -0.8873223834574796 
1.0699999999998986, -0.895906977226666 
1.0799999999998975, -0.9027325470754248 
1.0899999999998964, -0.9069073236578846 
1.0999999999998953, -0.9088814410993745 
1.1099999999998942, -0.9095643158142531 
1.119999999999893, -0.9095636932207742 
1.129999999999892, -0.9091520088328537 
1.1399999999998909, -0.9085159030659237 
1.1499999999998898, -0.9082948963584133 
1.1599999999998887, -0.9107685118480484 
1.1699999999998876, -0.9208021109164168 
1.1799999999998865, -0.9429622181165833 
1.1899999999998854, -0.9752162757210417 
1.1999999999998843, -1.0078839692273132 
1.2099999999998832, -1.0311376866782067 
1.219999999999882, -1.043073450573356 
1.229999999999881, -1.047898446247807 
1.2399999999998799, -1.0495483410854272 
1.2499999999998788, -1.0499052693050719 
1.2599999999998777, -1.049643521350735 
1.2699999999998766, -1.0490062330143255 
1.2799999999998755, -1.048486833425116 
1.2899999999998744, -1.0500120476378052 
1.2999999999998733, -1.0572027199281133 
1.3099999999998722, -1.0713248139042237 
1.319999999999871, -1.08863202797885 
1.32999999999987, -1.1043146395837293 
1.3399999999998689, -1.1155298573111112 
1.3499999999998678, -1.1218645239222245 
1.3599999999998666, -1.1247054845282443 
1.3699999999998655, -1.1256828970526815 
1.3799999999998644, -1.1257820232158966 
1.3899999999998633, -1.1254666712584245 
1.3999999999998622, -1.125114264943535 
1.4099999999998611, -1.125436211193402 
1.41999999999986, -1.1272551573136187 
1.429999999999859, -1.1304902587391041 
1.4399999999998578, -1.1342473989942186 
1.4499999999998567, -1.1377988161772812 
1.4599999999998556, -1.1407951135653267 
1.4699999999998545, -1.1430462430030541 
1.4799999999998534, -1.1444514135063488 
1.4899999999998523, -1.1450733363129868 
1.4999999999998512, -1.1451189049630568 
1.5099999999998501, -1.144828465346509 
1.519999999999849, -1.1444612035500936 
1.529999999999848, -1.1443214966176567 
1.5399999999998468, -1.1446054823687433 
1.5499999999998457, -1.1452424871838587 
1.5599999999998446, -1.1460250917766317 
1.5699999999998435, -1.1467654501903988 
1.5799999999998424, -1.1473354188467777 
1.5899999999998413, -1.147669992481443 
1.5999999999998402, -1.1477443742025621 
1.6099999999998391, -1.1475457603412906 
1.619999999999838, -1.1470775357921466 
1.629999999999837, -1.1463895518913716 
1.6399999999998358, -1.1455968647768118 
1.6499999999998347, -1.1448597327447938 
1.6599999999998336, -1.1443285445428044 
1.6699999999998325, -1.1440931041287348 
1.6799999999998314, -1.1441084413750826 
1.6899999999998303, -1.1441782252150283 
1.6999999999998292, -1.1440769591430837 
1.709999999999828, -1.14362857188041 
1.719999999999827, -1.1427183465686597 
1.729999999999826, -1.1413201709403835 
1.7399999999998248, -1.1394872253283972 
1.7499999999998237, -1.137301463889783 
1.7599999999998226, -1.134880480743287 
1.7699999999998215, -1.1324702718921662 
1.7799999999998204, -1.1305254795764226 
1.7899999999998193, -1.1294699360524834 
1.7999999999998182, -1.1291889232691357 
1.809999999999817, -1.1291559392582033 
1.819999999999816, -1.1289384911667837 
1.8299999999998149, -1.1282062994574797 
1.8399999999998138, -1.1264844798679752 
1.8499999999998127, -1.1230899863382207 
1.8599999999998116, -1.1174860864961302 
1.8699999999998105, -1.10974949758919 
1.8799999999998094, -1.1006122727762753 
1.8899999999998083, -1.0915160233649361 
1.8999999999998072, -1.0846687703035243 
1.909999999999806, -1.0814812038172512 
1.919999999999805, -1.0808769353102339 
1.9299999999998039, -1.0810219118778053 
1.9399999999998028, -1.0810260290143399 
1.9499999999998017, -1.0805643128526534 
1.9599999999998006, -1.0791751803763057 
1.9699999999997995, -1.0756517377305932 
1.9799999999997984, -1.0674607314303113 
1.9899999999997973, -1.0515270403768855 
1.9999999999997962, -1.0277578124321916 
2.0099999999998173, -1.0013521790523041 
2.0199999999998384, -0.9800747848610597 
2.0299999999998595, -0.968602179063932 
2.0399999999998806, -0.9650454195006258 
2.0499999999999017, -0.9647860798004997 
2.059999999999923, -0.9651095955005587 
2.069999999999944, -0.9652065521404513 
2.079999999999965, -0.9648651107342406 
2.089999999999986, -0.9637771963492228 
2.100000000000007, -0.9611457747907447 
2.1100000000000283, -0.9554441258538969 
2.1200000000000494, -0.9451630201403439 
2.1300000000000705, -0.930836677268027 
2.1400000000000916, -0.9153115657569081 
2.1500000000001127, -0.9016316861334542 
2.160000000000134, -0.8917947678779182 
2.170000000000155, -0.8863443024292169 
2.180000000000176, -0.8842472323653484 
2.190000000000197, -0.8838192557746938 
2.2000000000002182, -0.8838600271101703 
2.2100000000002393, -0.8838312506231721 
2.2200000000002604, -0.8834977879842442 
2.2300000000002815, -0.8826406388670007 
2.2400000000003026, -0.8809841830303909 
2.2500000000003237, -0.8783780406444184 
2.260000000000345, -0.8750511032094286 
2.270000000000366, -0.8714868917417478 
2.280000000000387, -0.8680744445762987 
2.290000000000408, -0.8650270985896185 
2.3000000000004293, -0.8624952421941138 
2.3100000000004504, -0.860623703888295 
2.3200000000004715, -0.8594885236822474 
2.3300000000004926, -0.8589976068283817 
2.3400000000005137, -0.8589043065373463 
2.3500000000005348, -0.8589393008319106 
2.360000000000556, -0.8589061818231644 
2.370000000000577, -0.8586902226295673 
2.380000000000598, -0.8582550752386588 
2.390000000000619, -0.8576462836688264 
2.4000000000006403, -0.8569464797545246 
2.4100000000006614, -0.8562059041226041 
2.4200000000006825, -0.8554350441379341 
2.4300000000007036, -0.8546538807299072 
2.4400000000007247, -0.8539302206924028 
2.450000000000746, -0.8533747772219463 
2.460000000000767, -0.8530978609112144 
2.470000000000788, -0.8531556979774744 
2.480000000000809, -0.8535257761556255 
2.49000000000083, -0.8541249947545919 
2.5000000000008513, -0.8548551230897541 
2.5100000000008724, -0.8556455229844072 
2.5200000000008935, -0.856460292570062 
2.5300000000009146, -0.857256939337988 
2.5400000000009357, -0.8579355868672939 
2.550000000000957, -0.8583632676899602 
2.560000000000978, -0.8584730214230402 
2.570000000000999, -0.8583077988951611 
2.58000000000102, -0.8579878092004196 
2.5900000000010412, -0.8577124198434651 
2.6000000000010624, -0.8578104011405707 
2.6100000000010835, -0.858707985142498 
2.6200000000011046, -0.8607287339919313 
2.6300000000011257, -0.8639187206395114 
2.6400000000011468, -0.8681037417696034 
2.650000000001168, -0.8730160343870055 
2.660000000001189, -0.8782424906708741 
2.67000000000121, -0.8830640351797668 
2.680000000001231, -0.8866548124723919 
2.6900000000012523, -0.8887160809035459 
2.7000000000012734, -0.8895895894025916 
2.7100000000012945, -0.8897445429236459 
2.7200000000013156, -0.8894796591955841 
2.7300000000013367, -0.888992592883897 
2.740000000001358, -0.8887006590775581 
2.750000000001379, -0.8898979338095128 
2.7600000000014, -0.8953482744911121 
2.770000000001421, -0.9081797752273008 
2.780000000001442, -0.9288842945286437 
2.7900000000014633, -0.9537087183953488 
2.8000000000014844, -0.9760850787973331 
2.8100000000015055, -0.9908729931725582 
2.8200000000015266, -0.9981628981440033 
2.8300000000015477, -1.0010632289732673 
2.840000000001569, -1.0019922300681832 
2.85000000000159, -1.0020469639976985 
2.860000000001611, -1.0016074909940273 
2.870000000001632, -1.0008666754259241 
2.8800000000016532, -1.0005826590409572 
2.8900000000016743, -1.0035790093981076 
2.9000000000016954, -1.0148022594689707 
2.9100000000017165, -1.035816279113274 
2.9200000000017377, -1.0610282198473908 
2.9300000000017588, -1.082759238846511 
2.94000000000178, -1.096783703013378 
2.950000000001801, -1.1037230966728089 
2.960000000001822, -1.1064902734136406 
2.970000000001843, -1.10734799211571 
2.9800000000018643, -1.107365174099883 
2.9900000000018854, -1.1069729440523564 
3.0000000000019065, -1.1065617672842865 
3.0100000000019276, -1.1070942972179714 
3.0200000000019487, -1.1099602485956686 
3.03000000000197, -1.1152816290248997 
3.040000000001991, -1.1216115290176918 
3.050000000002012, -1.1275919390124716 
3.060000000002033, -1.1325036292061201 
3.070000000002054, -1.1359839037412798 
3.0800000000020753, -1.1379922460428284 
3.0900000000020964, -1.1388428115217875 
3.1000000000021175, -1.138968086999451 
3.1100000000021386, -1.1387115200449451 
3.1200000000021597, -1.1383829724378653 
3.130000000002181, -1.1383830558261423 
3.140000000002202, -1.1390222898473188 
3.150000000002223, -1.1402022263220375 
3.160000000002244, -1.1415820703125203 
3.1700000000022652, -1.1428931737971988 
3.1800000000022863, -1.1439928707727423 
3.1900000000023074, -1.1448112359767888 
3.2000000000023285, -1.145301611974307 
3.2100000000023496, -1.145431924111474 
3.2200000000023707, -1.1452186831789715 
3.230000000002392, -1.1447495705901558 
3.240000000002413, -1.144180033728752 
3.250000000002434, -1.1437020553727573 
3.260000000002455, -1.143455166753133 
3.2700000000024763, -1.1434679253062128 
3.2800000000024974, -1.1436654336277994 
3.2900000000025185, -1.1438862057332126 
3.3000000000025396, -1.1439542838777148 
3.3100000000025607, -1.1437476105500082 
3.3200000000025818, -1.143214459298293 
3.330000000002603, -1.142362358786303 
3.340000000002624, -1.1412248941373948 
3.350000000002645, -1.1398461934931947 
3.360000000002666, -1.1383089703426374 
3.3700000000026873, -1.1367764177529842 
3.3800000000027084, -1.1355146699393317 
3.3900000000027295, -1.1347878650467473 
3.4000000000027506, -1.1345739103774073 
3.4100000000027717, -1.1345413162694127 
3.420000000002793, -1.1343452792580744 
3.430000000002814, -1.133703706778472 
3.440000000002835, -1.1322985969996568 
3.450000000002856, -1.129818822911718 
3.460000000002877, -1.126161174070547 
3.4700000000028983, -1.121492931349918 
3.4800000000029194, -1.116159466647256 
3.4900000000029405, -1.1107982122779454 
3.5000000000029616, -1.1065364135629303 
3.5100000000029827, -1.1043337107282463 
3.520000000003004, -1.1038119436160416 
3.530000000003025, -1.1038538575341301 
3.540000000003046, -1.103766383671558 
3.550000000003067, -1.1032041954434226 
3.5600000000030882, -1.101654517798888 
3.5700000000031094, -1.097975608310808 
3.5800000000031305, -1.0902915512874771 
3.5900000000031516, -1.0771426518783407 
3.6000000000031727, -1.0593767031081023 
3.6100000000031938, -1.0405544713744024 
3.620000000003215, -1.0257513725078635 
3.630000000003236, -1.0182033772436645 
3.640000000003257, -1.0162481742810234 
3.650000000003278, -1.0163361963666107 
3.6600000000032993, -1.0165938731773758 
3.6700000000033204, -1.0165146262737186 
3.6800000000033415, -1.0158696102639007 
3.6900000000033626, -1.01410136857738 
3.7000000000033837, -1.0097803853495253 
3.710000000003405, -1.0002967020582845 
3.720000000003426, -0.9835032430866221 
3.730000000003447, -0.9611441434252057 
3.740000000003468, -0.9386662233605741 
3.750000000003489, -0.9214420712660033 
3.7600000000035103, -0.9118188226682312 
3.7700000000035314, -0.9082731427474091 
3.7800000000035525, -0.9076442436189429 
3.7900000000035736, -0.9077820722171682 
3.8000000000035947, -0.9078584131125291 
3.810000000003616, -0.9076077262766887 
3.820000000003637, -0.906797638428686 
3.830000000003658, -0.9049952888365529 
3.840000000003679, -0.9016181281546412 
3.8500000000037002, -0.8964565964952003 
3.8600000000037213, -0.8901453549473965 
3.8700000000037424, -0.883695936600644 
3.8800000000037635, -0.8778530672684642 
3.8900000000037847, -0.8730752341490974 
3.9000000000038058, -0.8696755998060514 
3.910000000003827, -0.8677285654838124 
3.920000000003848, -0.8669302984051501 
3.930000000003869, -0.8667515631461027 
3.94000000000389, -0.8667401080791545 
3.9500000000039113, -0.8666239425535898 
3.9600000000039324, -0.8662390794370688 
3.9700000000039535, -0.8654791676834956 
3.9800000000039746, -0.864340345914921 
3.9900000000039957, -0.8629530835832522 
4.000000000004016, -0.8614870777141967 
4.010000000003993, -0.8600477075474925 
4.02000000000397, -0.8586868381013548 
4.030000000003946, -0.8574629298598702 
4.040000000003923, -0.8564645564828997 
4.0500000000039, -0.8557840609972588 
4.0600000000038765, -0.8554677733627385 
4.070000000003853, -0.8554778312106986 
4.08000000000383, -0.8556998391387203 
4.090000000003807, -0.8559982294274394 
4.100000000003783, -0.8562735436917283 
4.11000000000376, -0.856486238464115 
4.120000000003737, -0.856640902780854 
4.130000000003713, -0.8567367569789294 
4.14000000000369, -0.8567312970817507 
4.150000000003667, -0.856569774606748 
4.1600000000036434, -0.8562467403689938 
4.17000000000362, -0.8558322301682967 
4.180000000003597, -0.8554714916823247 
4.1900000000035735, -0.8553735702693459 
4.20000000000355, -0.8557474027897372 
4.210000000003527, -0.8566981394307279 
4.220000000003504, -0.8581916601330386 
4.23000000000348, -0.860118948366397 
4.240000000003457, -0.8623690857195151 
4.250000000003434, -0.8648296301356672 
4.26000000000341, -0.8673024571756109 
4.270000000003387, -0.8694420956405989 
4.280000000003364, -0.8709120835644384 
4.2900000000033405, -0.8716421218520404 
4.300000000003317, -0.8718020967148407 
4.310000000003294, -0.8716009644446545 
4.320000000003271, -0.8712353772558136 
4.330000000003247, -0.8710469474901914 
4.340000000003224, -0.8718092487932916 
4.350000000003201, -0.874809987736531 
4.360000000003177, -0.881238530710198 
4.370000000003154, -0.8913077915114616 
4.380000000003131, -0.9040654146979575 
4.390000000003107, -0.9175406676073826 
4.400000000003084, -0.9289853827511855 
4.410000000003061, -0.9364025659867132 
4.4200000000030375, -0.9400885945377211 
4.430000000003014, -0.9415435271616182 
4.440000000002991, -0.9419030032183499 
4.450000000002968, -0.9416888639221258 
4.460000000002944, -0.9410991412617693 
4.470000000002921, -0.9404241650135858 
4.480000000002898, -0.940992350147057 
4.490000000002874, -0.9467665058529808 
4.500000000002851, -0.9635225245415197 
4.510000000002828, -0.9922820562719712 
4.520000000002804, -1.0252054744432475 
4.530000000002781, -1.05160596934001 
4.540000000002758, -1.0667940704707985 
4.5500000000027345, -1.0734588196455885 
4.560000000002711, -1.0758887891491469 
4.570000000002688, -1.0765683535772377 
4.580000000002665, -1.0764825519984782 
4.590000000002641, -1.0759811501682242 
4.600000000002618, -1.0754435014964516 
4.610000000002595, -1.0761705081433053 
4.620000000002571, -1.0806683276029576 
4.630000000002548, -1.0899520275669232 
4.640000000002525, -1.1016680321505103 
4.6500000000025015, -1.1127947913521827 
4.660000000002478, -1.1214880490487427 
4.670000000002455, -1.1270594634646023 
4.6800000000024315, -1.1299087006646726 
4.690000000002408, -1.1310197036265177 
4.700000000002385, -1.1312173206204192 
4.710000000002362, -1.1309691230040149 
4.720000000002338, -1.130624022127995 
4.730000000002315, -1.130720819564041 
4.740000000002292, -1.1318519301447327 
4.750000000002268, -1.133993704147366 
4.760000000002245, -1.1365518456432144 
4.770000000002222, -1.1390177650498619 
4.7800000000021985, -1.1411439875486422 
4.790000000002175, -1.1428034415670454 
4.800000000002152, -1.1439032632898174 
4.810000000002129, -1.1444188804923192 
4.820000000002105, -1.1444393100324008 
4.830000000002082, -1.144131229423716 
4.840000000002059, -1.1437072466824627 
4.850000000002035, -1.1434206652175012 
4.860000000002012, -1.1434527888966892 
4.870000000001989, -1.143791034978575 
4.880000000001965, -1.1442968547010355 
4.890000000001942, -1.144804245993883 
4.900000000001919, -1.1451690905764078 
4.9100000000018955, -1.1453052350986952 
4.920000000001872, -1.1451836666562014 
4.930000000001849, -1.144803208240179 
