t, s[1].omega / s[0].omega 
0, -0.7798692950596325 
0.009999999999999995, -0.7675869585563226 
0.019999999999999934, -0.7580062216992083 
0.029999999999999874, -0.7518749145366566 
0.04000000000000012, -0.7487570373773206 
0.050000000000000405, -0.7476654134341418 
0.06000000000000069, -0.7476605696909332 
0.07000000000000098, -0.7480970583960065 
0.08000000000000126, -0.7486155158830543 
0.09000000000000155, -0.7490487665417823 
0.10000000000000184, -0.7493331583574852 
0.11000000000000212, -0.7494493813504619 
0.12000000000000241, -0.7493885703876966 
0.130000000000002, -0.749133803927535 
0.1400000000000009, -0.7486496072798763 
0.1499999999999998, -0.7478764765354748 
0.1599999999999987, -0.7467322484762631 
0.1699999999999976, -0.7451262966304609 
0.1799999999999965, -0.7429918147083888 
0.1899999999999954, -0.7403294628660256 
0.1999999999999943, -0.7372363175825682 
0.2099999999999932, -0.7338919948683276 
0.2199999999999921, -0.7305051823669817 
0.229999999999991, -0.7272569939983573 
0.2399999999999899, -0.724272665263128 
0.2499999999999888, -0.7216234159615225 
0.2599999999999877, -0.7193422797858113 
0.2699999999999866, -0.7174394447267785 
0.2799999999999855, -0.7159113403694405 
0.2899999999999844, -0.7147439404514324 
0.2999999999999833, -0.7139131007657921 
0.3099999999999822, -0.7133847200653521 
0.3199999999999811, -0.7131164122609733 
0.32999999999998, -0.7130609884395043 
0.3399999999999789, -0.7131709438469119 
0.3499999999999778, -0.7134027379191132 
0.35999999999997667, -0.7137199652470683 
0.36999999999997557, -0.7140951180836034 
0.37999999999997447, -0.714509958370052 
0.38999999999997337, -0.7149542736775919 
0.39999999999997227, -0.7154223662106578 
0.40999999999997117, -0.7159069650539265 
0.41999999999997006, -0.716392012758642 
0.42999999999996896, -0.7168481076321579 
0.43999999999996786, -0.7172348205723905 
0.44999999999996676, -0.7175106157542527 
0.45999999999996566, -0.7176453464536833 
0.46999999999996456, -0.7176278737924426 
0.47999999999996346, -0.7174655030722427 
0.48999999999996235, -0.7171783588922385 
0.49999999999996125, -0.7167943756567682 
0.5099999999999602, -0.7163488604291885 
0.519999999999959, -0.7158900768936086 
0.529999999999958, -0.7154910085072892 
0.5399999999999568, -0.7152668588798454 
0.5499999999999557, -0.7153965865184123 
0.5599999999999546, -0.7161439461181459 
0.5699999999999535, -0.7178690792590325 
0.5799999999999524, -0.7210163526375873 
0.5899999999999513, -0.7260588941287892 
0.5999999999999502, -0.7333778597052207 
0.6099999999999491, -0.7430663183029987 
0.619999999999948, -0.7547010772550691 
0.6299999999999469, -0.7672340312522733 
0.6399999999999458, -0.779214537569356 
0.6499999999999447, -0.7893478377743014 
0.6599999999999436, -0.7970026560980861 
0.6699999999999425, -0.8022691200409673 
0.6799999999999414, -0.8056411635395142 
0.6899999999999403, -0.8076762413954335 
0.6999999999999392, -0.8088216026017662 
0.7099999999999381, -0.8093803202055545 
0.719999999999937, -0.8095355260577664 
0.7299999999999359, -0.8093825336983619 
0.7399999999999348, -0.808950894358498 
0.7499999999999337, -0.8082130225766868 
0.7599999999999326, -0.8070796248269032 
0.7699999999999315, -0.8053819746988042 
0.7799999999999304, -0.8028414388087025 
0.7899999999999293, -0.7990320684101982 
0.7999999999999282, -0.7933608563363443 
0.8099999999999271, -0.785133898774694 
0.819999999999926, -0.7738317744224258 
0.8299999999999249, -0.7596576543960522 
0.8399999999999238, -0.744031576236865 
0.8499999999999227, -0.7292940553775076 
0.8599999999999216, -0.7175086095794706 
0.8699999999999205, -0.7094717231356348 
0.8799999999999194, -0.7047659287036455 
0.8899999999999183, -0.7024289114267844 
0.8999999999999172, -0.7015184824880775 
0.9099999999999161, -0.7013457825586714 
0.919999999999915, -0.7014852357812973 
0.9299999999999139, -0.701703417216797 
0.9399999999999128, -0.7018835404568481 
0.9499999999999117, -0.7019699003248218 
0.9599999999999106, -0.7019328813772395 
0.9699999999999095, -0.7017486571716097 
0.9799999999999084, -0.7013883506851465 
0.9899999999999073, -0.7008142384071216 
0.9999999999999062, -0.6999834460751702 
1.0099999999999052, -0.6988606222737596 
1.019999999999904, -0.6974377068872657 
1.029999999999903, -0.6957510904758883 
1.039999999999902, -0.6938820571484958 
1.0499999999999008, -0.69193568020989 
1.0599999999998997, -0.6900107578484297 
1.0699999999998986, -0.6881792819436201 
1.0799999999998975, -0.6864830467679319 
1.0899999999998964, -0.6849421473596665 
1.0999999999998953, -0.683566410988903 
1.1099999999998942, -0.6823640233307172 
1.119999999999893, -0.6813457576529569 
1.129999999999892, -0.680525534880049 
1.1399999999998909, -0.6799186953480774 
1.1499999999998898, -0.679539299278914 
1.1599999999998887, -0.6793975768318105 
1.1699999999998876, -0.6794984072647183 
1.1799999999998865, -0.6798413228263839 
1.1899999999998854, -0.6804219950794317 
1.1999999999998843, -0.6812345807773534 
1.2099999999998832, -0.6822737903907712 
1.219999999999882, -0.6835351178504923 
1.229999999999881, -0.6850114062354415 
1.2399999999998799, -0.6866842827570799 
1.2499999999998788, -0.6885110263658117 
1.2599999999998777, -0.690412037682557 
1.2699999999998766, -0.6922695371958973 
1.2799999999998755, -0.6939475149326708 
1.2899999999998744, -0.695329381414572 
1.2999999999998733, -0.6963515931040487 
1.3099999999998722, -0.6970113780037843 
1.319999999999871, -0.697348280490182 
1.32999999999987, -0.6974170849219242 
1.3399999999998689, -0.6972676266067456 
1.3499999999998678, -0.6969357297521496 
1.3599999999998666, -0.6964427083302935 
1.3699999999998655, -0.6958005956540315 
1.3799999999998644, -0.6950230568970642 
1.3899999999998633, -0.6941453051571636 
1.3999999999998622, -0.6932590640380881 
1.4099999999998611, -0.6925680719383303 
1.41999999999986, -0.692458285121621 
1.429999999999859, -0.6935411840936019 
1.4399999999998578, -0.6965648019414739 
1.4499999999998567, -0.702063767738214 
1.4599999999998556, -0.7098277370384515 
1.4699999999998545, -0.7187123300539355 
1.4799999999998534, -0.727242595943374 
1.4899999999998523, -0.734450628220181 
1.4999999999998512, -0.7400770749526913 
1.5099999999998501, -0.7442607155325046 
1.519999999999849, -0.747258674484075 
1.529999999999848, -0.7493323450565614 
1.5399999999998468, -0.7507103859320521 
1.5499999999998457, -0.7515748356761083 
1.5599999999998446, -0.7520581692245734 
1.5699999999998435, -0.7522466533533898 
1.5799999999998424, -0.7521851781908422 
1.5899999999998413, -0.751879831777198 
1.5999999999998402, -0.7512961945932779 
1.6099999999998391, -0.7503532319807431 
1.619999999999838, -0.748916034362124 
1.629999999999837, -0.746797504288703 
1.6399999999998358, -0.7437884457307022 
1.6499999999998347, -0.7397352401333304 
1.6599999999998336, -0.7346512935721234 
1.6699999999998325, -0.7287889366974512 
1.6799999999998314, -0.7225913568369737 
1.6899999999998303, -0.7165422369807928 
1.6999999999998292, -0.7110231860667235 
1.709999999999828, -0.7062570888871178 
1.719999999999827, -0.7023264353183903 
1.729999999999826, -0.699218479997415 
1.7399999999998248, -0.6968650076882124 
1.7499999999998237, -0.6951684762969657 
1.7599999999998226, -0.6940180169368018 
1.7699999999998215, -0.6933002995497566 
1.7799999999998204, -0.6929079410776513 
1.7899999999998193, -0.6927458224605252 
1.7999999999998182, -0.6927347834392504 
1.809999999999817, -0.6928125429878683 
1.819999999999816, -0.6929325424661978 
1.8299999999998149, -0.6930619668564219 
1.8399999999998138, -0.6931800795916105 
1.8499999999998127, -0.6932771643772613 
1.8599999999998116, -0.6933531266420779 
1.8699999999998105, -0.6934140698689344 
1.8799999999998094, -0.6934660712015184 
1.8899999999998083, -0.6935079307431904 
1.8999999999998072, -0.6935268460943226 
1.909999999999806, -0.6935003133918016 
1.919999999999805, -0.6934038176228156 
1.9299999999998039, -0.69321988097129 
1.9399999999998028, -0.6929435437052498 
1.9499999999998017, -0.6925828765459865 
1.9599999999998006, -0.6921570423236558 
1.9699999999997995, -0.6916955244174734 
1.9799999999997984, -0.6912408320313986 
1.9899999999997973, -0.6908552786257363 
1.9999999999997962, -0.6906312121394256 
2.0099999999998173, -0.690703064488006 
2.0199999999998384, -0.6912583698475648 
2.0299999999998595, -0.6925434775410264 
2.0399999999998806, -0.6948581923125999 
2.0499999999999017, -0.6985316291371734 
2.059999999999923, -0.7038684412461108 
2.069999999999944, -0.7110522493766498 
2.079999999999965, -0.7200030093820572 
2.089999999999986, -0.7302298869153856 
2.100000000000007, -0.7408017358288308 
2.1100000000000283, -0.7505760115855828 
2.1200000000000494, -0.7586359405266231 
2.1300000000000705, -0.76461873075469 
2.1400000000000916, -0.7686887471253308 
2.1500000000001127, -0.7712712776892631 
2.160000000000134, -0.7728071419924727 
2.170000000000155, -0.773638792421207 
2.180000000000176, -0.7739937456950357 
2.190000000000197, -0.7740051046173888 
2.2000000000002182, -0.7737347293144958 
2.2100000000002393, -0.7731870305361095 
2.2200000000002604, -0.7723107038691909 
2.2300000000002815, -0.7709874921498028 
2.2400000000003026, -0.7690064092292828 
2.2500000000003237, -0.7660227318773898 
2.260000000000345, -0.7615101826358901 
2.270000000000366, -0.7547465391855132 
2.280000000000387, -0.7449416164542099 
2.290000000000408, -0.7316662890241539 
2.3000000000004293, -0.7155321583364573 
2.3100000000004504, -0.6984913597009577 
2.3200000000004715, -0.6830598642322478 
2.3300000000004926, -0.6709943000463336 
2.3400000000005137, -0.6626960764343293 
2.3500000000005348, -0.65758489383429 
2.360000000000556, -0.6547440750019072 
2.370000000000577, -0.6533364905671339 
2.380000000000598, -0.652747681239687 
2.390000000000619, -0.6525793125725262 
2.4000000000006403, -0.6525935026670299 
2.4100000000006614, -0.6526558283156292 
2.4200000000006825, -0.6526919365484021 
2.4300000000007036, -0.6526586495513316 
2.4400000000007247, -0.6525264215139321 
2.450000000000746, -0.6522701494371114 
2.460000000000767, -0.6518667270473141 
2.470000000000788, -0.6512986804753421 
2.480000000000809, -0.6505623520778366 
2.49000000000083, -0.6496760762170162 
2.5000000000008513, -0.6486813957722786 
2.5100000000008724, -0.647633395276628 
2.5200000000008935, -0.6465844409093403 
2.5300000000009146, -0.6455709755091605 
2.5400000000009357, -0.6446098793057669 
2.550000000000957, -0.6437036396596055 
2.560000000000978, -0.6428492441944147 
2.570000000000999, -0.6420460955203382 
2.58000000000102, -0.6413009656666135 
2.5900000000010412, -0.6406303846037378 
2.6000000000010624, -0.6400617001269968 
2.6100000000010835, -0.6396336753759629 
2.6200000000011046, -0.6393968070108771 
2.6300000000011257, -0.6394131665657378 
2.6400000000011468, -0.639755604277602 
2.650000000001168, -0.6405063907158446 
2.660000000001189, -0.6417554259648893 
2.67000000000121, -0.6435975913659213 
2.680000000001231, -0.6461273146023193 
2.6900000000012523, -0.6494259674879791 
2.7000000000012734, -0.6535353593822019 
2.7100000000012945, -0.6584119897323839 
2.7200000000013156, -0.6638693508648682 
2.7300000000013367, -0.6695440738506577 
2.740000000001358, -0.6749446079080548 
2.750000000001379, -0.6796025204072655 
2.7600000000014, -0.6832412459752536 
2.770000000001421, -0.6858347721944238 
2.780000000001442, -0.6875336607346252 
2.7900000000014633, -0.6885476212141978 
2.8000000000014844, -0.6890644682761613 
2.8100000000015055, -0.6892191321746355 
2.8200000000015266, -0.68909158454037 
2.8300000000015477, -0.688712971725576 
2.840000000001569, -0.6880688555946417 
2.85000000000159, -0.6870945287424125 
2.860000000001611, -0.6856589724626524 
2.870000000001632, -0.6835334679665606 
2.8800000000016532, -0.6803420128102591 
2.8900000000016743, -0.6755034336047276 
2.9000000000016954, -0.6682217765285094 
2.9100000000017165, -0.6576751542815732 
2.9200000000017377, -0.6435728629078394 
2.9300000000017588, -0.6268630621741577 
2.94000000000178, -0.6097422899103792 
2.950000000001801, -0.5945626349770308 
2.960000000001822, -0.5826692093022096 
2.970000000001843, -0.5741979067100138 
2.9800000000018643, -0.568576249020533 
2.9900000000018854, -0.5650447826959104 
3.0000000000019065, -0.5629311820260569 
3.0100000000019276, -0.5617296161874241 
3.0200000000019487, -0.5610903345552629 
3.03000000000197, -0.5607831795832231 
3.040000000001991, -0.560661308566784 
3.050000000002012, -0.5606327248013758 
3.060000000002033, -0.5606401769888966 
3.070000000002054, -0.5606480571762444 
3.0800000000020753, -0.5606348164976818 
3.0900000000020964, -0.5605896627212871 
3.1000000000021175, -0.5605121817730156 
3.1100000000021386, -0.5604128055534978 
3.1200000000021597, -0.5603113237098734 
3.130000000002181, -0.5602312679463115 
3.140000000002202, -0.5601906589400554 
3.150000000002223, -0.5601927934930304 
3.160000000002244, -0.5602219412556296 
3.1700000000022652, -0.5602469243757628 
3.1800000000022863, -0.560231354865303 
3.1900000000023074, -0.5601452066729673 
3.2000000000023285, -0.5599718347598491 
3.2100000000023496, -0.5597084080704314 
3.2200000000023707, -0.5593623013896426 
3.230000000002392, -0.5589475307429917 
3.240000000002413, -0.5584841423046184 
3.250000000002434, -0.5580020479758852 
3.260000000002455, -0.5575505396381536 
3.2700000000024763, -0.557215493136994 
3.2800000000024974, -0.5571472532898303 
3.2900000000025185, -0.5576016855119083 
3.3000000000025396, -0.5589906589626995 
3.3100000000025607, -0.5619166589953015 
3.3200000000025818, -0.5671160698974236 
3.330000000002603, -0.5751726192695806 
3.340000000002624, -0.5859301779719797 
3.350000000002645, -0.5979903027043919 
3.360000000002666, -0.609166549128352 
3.3700000000026873, -0.6178862719778546 
3.3800000000027084, -0.6239642386032673 
3.3900000000027295, -0.6280477494815743 
3.4000000000027506, -0.630827446201994 
3.4100000000027717, -0.6327578934200049 
3.420000000002793, -0.6341020053850206 
3.430000000002814, -0.6350185188781631 
3.440000000002835, -0.63561152474297 
3.450000000002856, -0.6359510320316264 
3.460000000002877, -0.6360809383555338 
3.4700000000028983, -0.636022260550522 
3.4800000000029194, -0.6357743064953946 
3.4900000000029405, -0.6353151091375995 
3.5000000000029616, -0.6346032175847197 
3.5100000000029827, -0.6335847387446588 
3.520000000003004, -0.6322103981600465 
3.530000000003025, -0.6304632739538434 
3.540000000003046, -0.6283862143763488 
3.550000000003067, -0.6260876754774475 
3.5600000000030882, -0.6237141369288188 
3.5700000000031094, -0.6214047084941158 
3.5800000000031305, -0.6192575224800322 
3.5900000000031516, -0.6173224761955605 
3.6000000000031727, -0.615613309441955 
3.6100000000031938, -0.6141250715854585 
3.620000000003215, -0.6128480252601302 
3.630000000003236, -0.6117755713341253 
3.640000000003257, -0.6109072949724891 
3.650000000003278, -0.6102490723199179 
3.6600000000032993, -0.6098118235014802 
3.6700000000033204, -0.6096099535555064 
3.6800000000033415, -0.609660140959629 
3.6900000000033626, -0.6099808828246805 
3.7000000000033837, -0.6105929474908363 
3.710000000003405, -0.6115205054881294 
3.720000000003426, -0.6127921251618911 
3.730000000003447, -0.6144399531546703 
3.740000000003468, -0.6164942820934003 
3.750000000003489, -0.6189698689019004 
3.7600000000035103, -0.6218415788189462 
3.7700000000035314, -0.6250135115929277 
3.7800000000035525, -0.6282993339091061 
3.7900000000035736, -0.6314421719854193 
3.8000000000035947, -0.6341857571751566 
3.810000000003616, -0.6363608012328965 
3.820000000003637, -0.6379254190437138 
3.830000000003658, -0.6389391320037444 
3.840000000003679, -0.6395055558827686 
3.8500000000037002, -0.6397251711436466 
3.8600000000037213, -0.6396717128890627 
3.8700000000037424, -0.6393851665594994 
3.8800000000037635, -0.6388706589247677 
3.8900000000037847, -0.6380957930120648 
3.9000000000038058, -0.6369816853277855 
3.910000000003827, -0.6353832664093463 
3.920000000003848, -0.6330531018553396 
3.930000000003869, -0.629583803323586 
3.94000000000389, -0.6243404511572528 
3.9500000000039113, -0.6164585735399866 
3.9600000000039324, -0.6051060714456271 
3.9700000000039535, -0.5901843372686814 
3.9800000000039746, -0.5730475332271736 
3.9900000000039957, -0.5561869353197083 
4.000000000004016, -0.5418348597780622 
4.010000000003993, -0.5309535747867687 
4.02000000000397, -0.5233617394189931 
4.030000000003946, -0.5183600036839157 
4.040000000003923, -0.5151988890685011 
4.0500000000039, -0.5132704966687135 
4.0600000000038765, -0.512138122223701 
4.070000000003853, -0.5115068260024629 
4.08000000000383, -0.5111840966232448 
4.090000000003807, -0.5110468410986588 
4.100000000003783, -0.5110175028207148 
4.11000000000376, -0.5110480583641466 
4.120000000003737, -0.511110034189056 
4.130000000003713, -0.5111889879315258 
4.14000000000369, -0.5112821254611257 
4.150000000003667, -0.5113975008510357 
4.1600000000036434, -0.5115526869747671 
4.17000000000362, -0.5117706262706762 
4.180000000003597, -0.512071476461694 
4.1900000000035735, -0.5124617339130197 
4.20000000000355, -0.5129246897653881 
4.210000000003527, -0.5134178253235799 
4.220000000003504, -0.5138811509962403 
4.23000000000348, -0.5142544123554759 
4.240000000003457, -0.5144940394570343 
4.250000000003434, -0.514580406200217 
4.26000000000341, -0.5145136905734604 
4.270000000003387, -0.5143039505690273 
4.280000000003364, -0.513961692616205 
4.2900000000033405, -0.5134916386735371 
4.300000000003317, -0.5128892622282689 
4.310000000003294, -0.5121383537135591 
4.320000000003271, -0.511207223760592 
4.330000000003247, -0.5100392558419926 
4.340000000003224, -0.5085279608834339 
4.350000000003201, -0.5064553130055305 
4.360000000003177, -0.5033629952898775 
4.370000000003154, -0.4983737441227206 
4.380000000003131, -0.49020818504579544 
4.390000000003107, -0.4779339888474728 
4.400000000003084, -0.4623397199377455 
4.410000000003061, -0.44614381705109346 
4.4200000000030375, -0.43215140185616985 
4.430000000003014, -0.4216199524245329 
4.440000000002991, -0.41436703984904577 
4.450000000002968, -0.409622876424694 
4.460000000002944, -0.40660828899223456 
4.470000000002921, -0.40472857804015083 
4.480000000002898, -0.40357893711491644 
4.490000000002874, -0.4028978509550306 
4.500000000002851, -0.4025207229228916 
4.510000000002828, -0.40234591742955506 
4.520000000002804, -0.4023125770729739 
4.530000000002781, -0.40238708932520834 
4.540000000002758, -0.4025554721144826 
4.5500000000027345, -0.4028196971609521 
4.560000000002711, -0.40319634509244284 
4.570000000002688, -0.4037158494203081 
4.580000000002665, -0.4044200909674151 
4.590000000002641, -0.40535561883702487 
4.600000000002618, -0.40655984565870196 
4.610000000002595, -0.4080393439755804 
4.620000000002571, -0.4097451337446776 
4.630000000002548, -0.41155995645440707 
4.640000000002525, -0.41331710951932177 
4.6500000000025015, -0.4148524996309132 
4.660000000002478, -0.41605888645043504 
4.670000000002455, -0.4169053099239366 
4.6800000000024315, -0.41741754155531136 
4.690000000002408, -0.41764401107726234 
4.700000000002385, -0.4176287423576023 
4.710000000002362, -0.4173962847297332 
4.720000000002338, -0.41694381316502643 
4.730000000002315, -0.4162342691325821 
4.740000000002292, -0.41518661085118796 
4.750000000002268, -0.4136631089620798 
4.760000000002245, -0.41146172991581914 
4.770000000002222, -0.40833752214389624 
4.7800000000021985, -0.40409161296525237 
4.790000000002175, -0.39873634494327337 
4.800000000002152, -0.3926307275079001 
4.810000000002129, -0.38640600987064 
4.820000000002105, -0.38068283292995536 
4.830000000002082, -0.37582906616736456 
4.840000000002059, -0.37192781871223596 
4.850000000002035, -0.36888410594400894 
4.860000000002012, -0.3665388584262642 
4.870000000001989, -0.3647362963951625 
4.880000000001965, -0.36335057173355817 
4.890000000001942, -0.3622908024933608 
4.900000000001919, -0.36149799744263655 
4.9100000000018955, -0.36094064649360097 
