t, s[1].omega / s[0].omega 
0, -0.5199977528227472 
0.009999999999999995, -0.5198009762337847 
0.019999999999999934, -0.5196493471833987 
0.029999999999999874, -0.5195164445643503 
0.04000000000000012, -0.5193694314868957 
0.050000000000000405, -0.5191797336801817 
0.06000000000000069, -0.5189297048059426 
0.07000000000000098, -0.5186136839414497 
0.08000000000000126, -0.5182355279637118 
0.09000000000000155, -0.5178059866684838 
0.10000000000000184, -0.5173424390915461 
0.11000000000000212, -0.5168724142142882 
0.12000000000000241, -0.516442097553601 
0.130000000000002, -0.5161316007746494 
0.1400000000000009, -0.5160793198926864 
0.1499999999999998, -0.516516253391842 
0.1599999999999987, -0.5178026023607187 
0.1699999999999976, -0.5204325128497285 
0.1799999999999965, -0.5249184984429777 
0.1899999999999954, -0.5314277737950615 
0.1999999999999943, -0.5392248700832114 
0.2099999999999932, -0.5465564164020068 
0.2199999999999921, -0.5517133802521721 
0.229999999999991, -0.5543670134422986 
0.2399999999999899, -0.5554256884767399 
0.2499999999999888, -0.5558962127999247 
0.2599999999999877, -0.5562913397106242 
0.2699999999999866, -0.5567294930131743 
0.2799999999999855, -0.5571754775794454 
0.2899999999999844, -0.5575738835419746 
0.2999999999999833, -0.5578884671717135 
0.3099999999999822, -0.5581023426252603 
0.3199999999999811, -0.5582090136824354 
0.32999999999998, -0.5582043639705397 
0.3399999999999789, -0.5580816209268632 
0.3499999999999778, -0.5578293563257661 
0.35999999999997667, -0.5574328179877329 
0.36999999999997557, -0.556879274034747 
0.37999999999997447, -0.5561671160145293 
0.38999999999997337, -0.5553154112797387 
0.39999999999997227, -0.5543672908949251 
0.40999999999997117, -0.5533818924564181 
0.41999999999997006, -0.5524173427128242 
0.42999999999996896, -0.5515144981346387 
0.43999999999996786, -0.5506899869365967 
0.44999999999996676, -0.5499397709484366 
0.45999999999996566, -0.5492487003566578 
0.46999999999996456, -0.5486005214443341 
0.47999999999996346, -0.5479849166064144 
0.48999999999996235, -0.5474010537052089 
0.49999999999996125, -0.5468591363917563 
0.5099999999999602, -0.5463819695109582 
0.519999999999959, -0.5460080804350749 
0.529999999999958, -0.5457973086132577 
0.5399999999999568, -0.5458394275730069 
0.5499999999999557, -0.5462662379143403 
0.5599999999999546, -0.5472672892967119 
0.5699999999999535, -0.5491081830116736 
0.5799999999999524, -0.5521466358519949 
0.5899999999999513, -0.5568320536616364 
0.5999999999999502, -0.563655792736584 
0.6099999999999491, -0.5729968219546289 
0.619999999999948, -0.5848216805796931 
0.6299999999999469, -0.5983392537337153 
0.6399999999999458, -0.6119711392730413 
0.6499999999999447, -0.6239586932706762 
0.6599999999999436, -0.633229156007605 
0.6699999999999425, -0.6397033343303611 
0.6799999999999414, -0.6439226560866863 
0.6899999999999403, -0.6465557404792838 
0.6999999999999392, -0.6481435982225456 
0.7099999999999381, -0.6490527802433326 
0.719999999999937, -0.6495094225394017 
0.7299999999999359, -0.6496422962078635 
0.7399999999999348, -0.6495132512322559 
0.7499999999999337, -0.6491334020905196 
0.7599999999999326, -0.6484679255421537 
0.7699999999999315, -0.6474328991003927 
0.7799999999999304, -0.6458896696670691 
0.7899999999999293, -0.6436487786312094 
0.7999999999999282, -0.6405052941183261 
0.8099999999999271, -0.6363261213839961 
0.819999999999926, -0.6311698725404365 
0.8299999999999249, -0.625350578725616 
0.8399999999999238, -0.619357710175508 
0.8499999999999227, -0.6136730922837421 
0.8599999999999216, -0.6086250715611246 
0.8699999999999205, -0.604356993166391 
0.8799999999999194, -0.6008754356729138 
0.8899999999999183, -0.5981142282875971 
0.8999999999999172, -0.595980753779515 
0.9099999999999161, -0.594380551618558 
0.919999999999915, -0.5932273036734443 
0.9299999999999139, -0.5924454995860182 
0.9399999999999128, -0.5919703720247983 
0.9499999999999117, -0.5917473007873936 
0.9599999999999106, -0.5917314413037891 
0.9699999999999095, -0.5918876617373996 
0.9799999999999084, -0.5921906648501905 
0.9899999999999073, -0.5926251313358515 
0.9999999999999062, -0.5931855893139507 
1.0099999999999052, -0.5938753206024872 
1.019999999999904, -0.5947030348626152 
1.029999999999903, -0.5956757826958337 
1.039999999999902, -0.5967875420117379 
1.0499999999999008, -0.5980059019895887 
1.0599999999998997, -0.5992637768144238 
1.0699999999998986, -0.6004654142757456 
1.0799999999998975, -0.6015099604868419 
1.0899999999998964, -0.602321726525707 
1.0999999999998953, -0.6028681538287473 
1.1099999999998942, -0.603156242281956 
1.119999999999893, -0.6032150231161375 
1.129999999999892, -0.6030773031612877 
1.1399999999998909, -0.6027678589562686 
1.1499999999998898, -0.6022981645046729 
1.1599999999998887, -0.6016649854728401 
1.1699999999998876, -0.6008505196113787 
1.1799999999998865, -0.5998226969636047 
1.1899999999998854, -0.5985340609237277 
1.1999999999998843, -0.5969144931757977 
1.2099999999998832, -0.5948442723915148 
1.219999999999882, -0.5920816452194921 
1.229999999999881, -0.5881353561282574 
1.2399999999998799, -0.5822088953163426 
1.2499999999998788, -0.5735833262852117 
1.2599999999998777, -0.5625452292510291 
1.2699999999998766, -0.5508173264083606 
1.2799999999998755, -0.5405185006002178 
1.2899999999998744, -0.5328188056841519 
1.2999999999998733, -0.5277241862045292 
1.3099999999998722, -0.5246472691885344 
1.319999999999871, -0.5229236305515432 
1.32999999999987, -0.5220293913257846 
1.3399999999998689, -0.521610401274956 
1.3499999999998678, -0.5214456704990191 
1.3599999999998666, -0.5214032593553307 
1.3699999999998655, -0.5214060055495796 
1.3799999999998644, -0.5214086637901219 
1.3899999999998633, -0.5213839975424293 
1.3999999999998622, -0.52131532011848 
1.4099999999998611, -0.5211937603551112 
1.41999999999986, -0.5210188987843977 
1.429999999999859, -0.5208009166570153 
1.4399999999998578, -0.5205613828274385 
1.4499999999998567, -0.5203297262338107 
1.4599999999998556, -0.520134689403158 
1.4699999999998545, -0.5199937077752261 
1.4799999999998534, -0.5199052775291789 
1.4899999999998523, -0.5198483340192803 
1.4999999999998512, -0.519789295135022 
1.5099999999998501, -0.5196934052120246 
1.519999999999849, -0.5195346588347984 
1.529999999999848, -0.5193000775380272 
1.5399999999998468, -0.5189883784295668 
1.5499999999998457, -0.5186062537322509 
1.5599999999998446, -0.518165656612765 
1.5699999999998435, -0.5176840989480759 
1.5799999999998424, -0.5171889950494037 
1.5899999999998413, -0.5167271514908366 
1.5999999999998402, -0.5163811167809953 
1.6099999999998391, -0.516294002422787 
1.619999999999838, -0.5167005301598593 
1.629999999999837, -0.517947187418258 
1.6399999999998358, -0.5204468913455874 
1.6499999999998347, -0.5244604589021132 
1.6599999999998336, -0.5296415396283564 
1.6699999999998325, -0.5346777556876742 
1.6799999999998314, -0.5378564174984326 
1.6899999999998303, -0.5385033727133444 
1.6999999999998292, -0.5374793312504472 
1.709999999999828, -0.5360899207101173 
1.719999999999827, -0.5350830934184233 
1.729999999999826, -0.5345958206392805 
1.7399999999998248, -0.5344899482284059 
1.7499999999998237, -0.5345897461984963 
1.7599999999998226, -0.5347650231847692 
1.7699999999998215, -0.5349371981115769 
1.7799999999998204, -0.53506361035021 
1.7899999999998193, -0.535121566812154 
1.7999999999998182, -0.5350972170720749 
1.809999999999817, -0.5349792045361706 
1.819999999999816, -0.5347563569460528 
1.8299999999998149, -0.5344191300984733 
1.8399999999998138, -0.5339645088776444 
1.8499999999998127, -0.5334026841730567 
1.8599999999998116, -0.5327614354717609 
1.8699999999998105, -0.5320833981474238 
1.8799999999998094, -0.5314150926744461 
1.8899999999998083, -0.5307927835209838 
1.8999999999998072, -0.5302328063128974 
1.909999999999806, -0.5297306330504805 
1.919999999999805, -0.5292675750223208 
1.9299999999998039, -0.5288207374005295 
1.9399999999998028, -0.52837159660354 
1.9499999999998017, -0.5279106945980652 
1.9599999999998006, -0.5274388627021612 
1.9699999999997995, -0.5269672272724344 
1.9799999999997984, -0.5265184079718128 
1.9899999999997973, -0.5261306760279236 
1.9999999999997962, -0.525866426064318 
2.0099999999998173, -0.5258264612492007 
2.0199999999998384, -0.5261720086009533 
2.0299999999998595, -0.5271562386755304 
2.0399999999998806, -0.5291643221076232 
2.0499999999999017, -0.53275076221966 
2.059999999999923, -0.5386354338015373 
2.069999999999944, -0.5475686997786642 
2.079999999999965, -0.5599406453913325 
2.089999999999986, -0.5751591804785257 
2.100000000000007, -0.5913173979312218 
2.1100000000000283, -0.6059147235181056 
2.1200000000000494, -0.6172828764897786 
2.1300000000000705, -0.6252167142149918 
2.1400000000000916, -0.6304179626524591 
2.1500000000001127, -0.6337386783934738 
2.160000000000134, -0.6358373709989265 
2.170000000000155, -0.637146336334606 
2.180000000000176, -0.6379325933939244 
2.190000000000197, -0.6383564980563621 
2.2000000000002182, -0.6385098831491556 
2.2100000000002393, -0.6384375778153684 
2.2200000000002604, -0.6381480756839041 
2.2300000000002815, -0.6376176390622355 
2.2400000000003026, -0.6367917634601289 
2.2500000000003237, -0.6355896220292336 
2.260000000000345, -0.6339199826800115 
2.270000000000366, -0.6317163506641187 
2.280000000000387, -0.6289861834055623 
2.290000000000408, -0.6258450828048463 
2.3000000000004293, -0.6225001496059427 
2.3100000000004504, -0.6191834542546167 
2.3200000000004715, -0.6160817270347305 
2.3300000000004926, -0.6133043767164105 
2.3400000000005137, -0.61089175064865 
2.3500000000005348, -0.6088409744196132 
2.360000000000556, -0.6071300498903474 
2.370000000000577, -0.6057330672931229 
2.380000000000598, -0.6046271909065121 
2.390000000000619, -0.6037944531029135 
2.4000000000006403, -0.6032211091939681 
2.4100000000006614, -0.6028963719164161 
2.4200000000006825, -0.6028115314438767 
2.4300000000007036, -0.6029598980637421 
2.4400000000007247, -0.6033376094313113 
2.450000000000746, -0.6039450370051858 
2.460000000000767, -0.6047882164679934 
2.470000000000788, -0.6058792971986419 
2.480000000000809, -0.607234378522452 
2.49000000000083, -0.608866471040629 
2.5000000000008513, -0.6107715348017986 
2.5100000000008724, -0.6129083242333058 
2.5200000000008935, -0.6151797103810391 
2.5300000000009146, -0.617431598234252 
2.5400000000009357, -0.6194839401430148 
2.550000000000957, -0.6211859371070304 
2.560000000000978, -0.6224609314188445 
2.570000000000999, -0.6233117034564744 
2.58000000000102, -0.6237915775708064 
2.5900000000010412, -0.6239681940804204 
2.6000000000010624, -0.6238986240951385 
2.6100000000010835, -0.6236179299758233 
2.6200000000011046, -0.6231352791579519 
2.6300000000011257, -0.6224315365915536 
2.6400000000011468, -0.6214540861332952 
2.650000000001168, -0.6201053283036624 
2.660000000001189, -0.6182200697496082 
2.67000000000121, -0.6155244036409778 
2.680000000001231, -0.6115699922422074 
2.6900000000012523, -0.6056654727765078 
2.7000000000012734, -0.5969278772024468 
2.7100000000012945, -0.5847158390458452 
2.7200000000013156, -0.5694824431373731 
2.7300000000013367, -0.5531970777632137 
2.740000000001358, -0.5383930120691524 
2.750000000001379, -0.52670001848042 
2.7600000000014, -0.5183941518279814 
2.770000000001421, -0.5129168857561874 
2.780000000001442, -0.509489545294258 
2.7900000000014633, -0.5074322114998512 
2.8000000000014844, -0.5062466458585161 
2.8100000000015055, -0.50559752580131 
2.8200000000015266, -0.5052691831342646 
2.8300000000015477, -0.5051264047058948 
2.840000000001569, -0.5050856774550712 
2.85000000000159, -0.5050959973971128 
2.860000000001611, -0.5051269469214056 
2.870000000001632, -0.5051620571106819 
2.8800000000016532, -0.5051959332078767 
2.8900000000016743, -0.5052336352499629 
2.9000000000016954, -0.5052903099737132 
2.9100000000017165, -0.5053886483457272 
2.9200000000017377, -0.505552424625487 
2.9300000000017588, -0.5057965811795545 
2.94000000000178, -0.5061170966913204 
2.950000000001801, -0.5064856474558749 
2.960000000001822, -0.5068534585826394 
2.970000000001843, -0.507164550602617 
2.9800000000018643, -0.5073721490277109 
2.9900000000018854, -0.5074491655459168 
3.0000000000019065, -0.5073883283205622 
3.0100000000019276, -0.5071949312650285 
3.0200000000019487, -0.506878070664753 
3.03000000000197, -0.5064441217611719 
3.040000000001991, -0.5058930897542436 
3.050000000002012, -0.5052167609297389 
3.060000000002033, -0.504396917508441 
3.070000000002054, -0.5034006997947366 
3.0800000000020753, -0.5021663157829925 
3.0900000000020964, -0.5005628051371159 
3.1000000000021175, -0.4982933087253705 
3.1100000000021386, -0.4947211793083185 
3.1200000000021597, -0.4887367024941757 
3.130000000002181, -0.47911526750601025 
3.140000000002202, -0.46572904113103003 
3.150000000002223, -0.4504947654865875 
3.160000000002244, -0.4363083116530612 
3.1700000000022652, -0.4250637372576122 
3.1800000000022863, -0.4170784369619577 
3.1900000000023074, -0.41177295040444734 
3.2000000000023285, -0.4083794163273148 
3.2100000000023496, -0.40625846035225 
3.2200000000023707, -0.40495839531384714 
3.230000000002392, -0.4041826165656074 
3.240000000002413, -0.4037430797348279 
3.250000000002434, -0.4035230331713885 
3.260000000002455, -0.4034517177075396 
3.2700000000024763, -0.40348852833319226 
3.2800000000024974, -0.4036137970615024 
3.2900000000025185, -0.40382404197430244 
3.3000000000025396, -0.4041300342026026 
3.3100000000025607, -0.40455605973836023 
3.3200000000025818, -0.40513836534798414 
3.330000000002603, -0.4059203084711915 
3.340000000002624, -0.40694166914391794 
3.350000000002645, -0.4082206915330205 
3.360000000002666, -0.4097313253544206 
3.3700000000026873, -0.4113862000007874 
3.3800000000027084, -0.41304298249932136 
3.3900000000027295, -0.4145432866408811 
3.4000000000027506, -0.41576550545866703 
3.4100000000027717, -0.41665577815095645 
3.420000000002793, -0.41722116015862437 
3.430000000002814, -0.4175006421955568 
3.440000000002835, -0.4175368305735826 
3.450000000002856, -0.41735806676078513 
3.460000000002877, -0.4169688608181043 
3.4700000000028983, -0.4163429067051589 
3.4800000000029194, -0.41541404823564143 
3.4900000000029405, -0.4140634349044783 
3.5000000000029616, -0.4121070563889817 
3.5100000000029827, -0.4093011169526948 
3.520000000003004, -0.40540197756179885 
3.530000000003025, -0.4003125585124204 
3.540000000003046, -0.3942592691035386 
3.550000000003067, -0.3878165459258397 
3.5600000000030882, -0.38167273813358404 
3.5700000000031094, -0.3763256220109359 
3.5800000000031305, -0.3719630094281126 
3.5900000000031516, -0.368538422423022 
3.6000000000031727, -0.3658994756967392 
3.6100000000031938, -0.3638776566425369 
3.620000000003215, -0.3623292391107182 
3.630000000003236, -0.36114644658734574 
3.640000000003257, -0.36025597333144105 
3.650000000003278, -0.35961420557066026 
3.6600000000032993, -0.3592032521448938 
3.6700000000033204, -0.35902942716000896 
3.6800000000033415, -0.35912497915418073 
3.6900000000033626, -0.35955382802648184 
3.7000000000033837, -0.36042239798971304 
3.710000000003405, -0.3618968951410115 
3.720000000003426, -0.3642276305773031 
3.730000000003447, -0.36777665023537 
3.740000000003468, -0.37303081592326 
3.750000000003489, -0.3805488001721184 
3.7600000000035103, -0.39074194223760883 
3.7700000000035314, -0.40341423301286444 
3.7800000000035525, -0.417297309458048 
3.7900000000035736, -0.43028514109427507 
3.8000000000035947, -0.4406098618878744 
3.810000000003616, -0.44778436692915247 
3.820000000003637, -0.45235976132190264 
3.830000000003658, -0.4551661194561178 
3.840000000003679, -0.4568696821899268 
3.8500000000037002, -0.45789753987260734 
3.8600000000037213, -0.458499258433411 
3.8700000000037424, -0.4588153055250609 
3.8800000000037635, -0.4589220465221935 
3.8900000000037847, -0.45885704069999134 
3.9000000000038058, -0.4586328603004797 
3.910000000003827, -0.4582457764976523 
3.920000000003848, -0.4576839111615878 
3.930000000003869, -0.45693801246051385 
3.94000000000389, -0.45601516880638393 
3.9500000000039113, -0.4549506442631164 
3.9600000000039324, -0.45380901748465075 
3.9700000000039535, -0.4526697115059536 
3.9800000000039746, -0.4516035690599998 
3.9900000000039957, -0.4506542881038258 
4.000000000004016, -0.449833277401429 
4.010000000003993, -0.44912640373179896 
4.02000000000397, -0.4485061161313274 
4.030000000003946, -0.4479430940178264 
4.040000000003923, -0.44741418589025983 
4.0500000000039, -0.4469060687169156 
4.0600000000038765, -0.44641606647540416 
4.070000000003853, -0.4459523907202342 
4.08000000000383, -0.4455358707428734 
4.090000000003807, -0.44520481573204085 
4.100000000003783, -0.44502463827704003 
4.11000000000376, -0.44510437565098293 
4.120000000003737, -0.44562278838420877 
4.130000000003713, -0.44686562655757395 
4.14000000000369, -0.44926800273398326 
4.150000000003667, -0.4534296407762987 
4.1600000000036434, -0.4600092637190243 
4.17000000000362, -0.4693332382427788 
4.180000000003597, -0.4806888675118324 
4.1900000000035735, -0.49195314280615976 
4.20000000000355, -0.5006633226523004 
4.210000000003527, -0.5058742408756816 
4.220000000003504, -0.5084236572307222 
4.23000000000348, -0.5096169070909379 
4.240000000003457, -0.5102988286640703 
4.250000000003434, -0.5108135426271401 
4.26000000000341, -0.5112497137014105 
4.270000000003387, -0.5116120246629755 
4.280000000003364, -0.5118905680623487 
4.2900000000033405, -0.5120786959675988 
4.300000000003317, -0.5121733840404403 
4.310000000003294, -0.5121719732870027 
4.320000000003271, -0.5120696166943177 
4.330000000003247, -0.5118586892172978 
4.340000000003224, -0.5115308400590243 
4.350000000003201, -0.5110820867658595 
4.360000000003177, -0.5105200465189397 
4.370000000003154, -0.5098698603823186 
4.380000000003131, -0.509173695875918 
4.390000000003107, -0.5084812648783619 
4.400000000003084, -0.5078351241562249 
4.410000000003061, -0.5072586561074003 
4.4200000000030375, -0.5067524433398949 
4.430000000003014, -0.506299260226718 
4.440000000002991, -0.5058738864702843 
4.450000000002968, -0.5054528778859889 
4.460000000002944, -0.5050208404573266 
4.470000000002921, -0.5045725758322663 
4.480000000002898, -0.5041128914763765 
4.490000000002874, -0.5036566405949059 
4.500000000002851, -0.5032310849866205 
4.510000000002828, -0.5028821245724436 
4.520000000002804, -0.5026859796758683 
4.530000000002781, -0.5027684867926498 
4.540000000002758, -0.5033346268940737 
4.5500000000027345, -0.5047094851530944 
4.560000000002711, -0.5073838196597246 
4.570000000002688, -0.5120322786794378 
4.580000000002665, -0.519417190211744 
4.590000000002641, -0.5300311583338793 
4.600000000002618, -0.5434416687089139 
4.610000000002595, -0.5578396811704139 
4.620000000002571, -0.5707245848583294 
4.630000000002548, -0.580482778965251 
4.640000000002525, -0.5870759042387724 
4.6500000000025015, -0.5913300331623519 
4.660000000002478, -0.5940852693924855 
4.670000000002455, -0.595904190276335 
4.6800000000024315, -0.5971154156561362 
4.690000000002408, -0.5979095916029904 
4.700000000002385, -0.5984015228356083 
4.710000000002362, -0.5986612278728074 
4.720000000002338, -0.5987284404797842 
4.730000000002315, -0.5986193325631779 
4.740000000002292, -0.5983296882081885 
4.750000000002268, -0.5978372017657316 
4.760000000002245, -0.5971059116149193 
4.770000000002222, -0.5960965775572336 
4.7800000000021985, -0.5947854836310605 
4.790000000002175, -0.5931876130413396 
4.800000000002152, -0.5913704311479795 
4.810000000002129, -0.5894435788439694 
4.820000000002105, -0.5875263166749283 
4.830000000002082, -0.5857134717715782 
4.840000000002059, -0.5840593256698395 
4.850000000002035, -0.5825816685910574 
4.860000000002012, -0.5812760662828608 
4.870000000001989, -0.5801303383554075 
4.880000000001965, -0.5791345648513091 
4.890000000001942, -0.5782863093908255 
4.900000000001919, -0.5775926018964231 
4.9100000000018955, -0.5770703259938744 
