t, s[1].omega / s[0].omega 
0, -1.2999973674105714 
0.009999999999999995, -1.299584224351803 
0.019999999999999934, -1.2988788975954233 
0.029999999999999874, -1.2978963684564948 
0.04000000000000012, -1.2966661498413932 
0.050000000000000405, -1.2952391442860542 
0.06000000000000069, -1.2936956949031857 
0.07000000000000098, -1.2921522260660043 
0.08000000000000126, -1.2907602855724156 
0.09000000000000155, -1.2896797779328533 
0.10000000000000184, -1.2890100193421927 
0.11000000000000212, -1.2887189538831851 
0.12000000000000241, -1.2886524560901702 
0.130000000000002, -1.2886190515865787 
0.1400000000000009, -1.2884546741874854 
0.1499999999999998, -1.2880197421402193 
0.1599999999999987, -1.2871545393012735 
0.1699999999999976, -1.2856258660745175 
0.1799999999999965, -1.2830828131692298 
0.1899999999999954, -1.2790429750607362 
0.1999999999999943, -1.272946444994226 
0.2099999999999932, -1.2643203322041856 
0.2199999999999921, -1.2530777222818408 
0.229999999999991, -1.2399172648906716 
0.2399999999999899, -1.2266055016934085 
0.2499999999999888, -1.215604472490361 
0.2599999999999877, -1.208727009492522 
0.2699999999999866, -1.2059029837537865 
0.2799999999999855, -1.2055950716465893 
0.2899999999999844, -1.2062183506184594 
0.2999999999999833, -1.2068816190745966 
0.3099999999999822, -1.2072665057985568 
0.3199999999999811, -1.2073035974569315 
0.32999999999998, -1.2069650385541428 
0.3399999999999789, -1.2061616294199173 
0.3499999999999778, -1.2046681856346253 
0.35999999999997667, -1.202024040409597 
0.36999999999997557, -1.1973944775355174 
0.37999999999997447, -1.1894895136110177 
0.38999999999997337, -1.176947247362697 
0.39999999999997227, -1.1599504645375402 
0.40999999999997117, -1.1427904502752722 
0.41999999999997006, -1.1333755646761876 
0.42999999999996896, -1.136469815975214 
0.43999999999996786, -1.1485036738916716 
0.44999999999996676, -1.162034757522702 
0.45999999999996566, -1.1724780577292904 
0.46999999999996456, -1.1791132191645963 
0.47999999999996346, -1.1828925851819132 
0.48999999999996235, -1.1848793042921288 
0.49999999999996125, -1.1857994476530391 
0.5099999999999602, -1.186063716866643 
0.519999999999959, -1.1858718611873886 
0.529999999999958, -1.1852931411087675 
0.5399999999999568, -1.1843254778663908 
0.5499999999999557, -1.1829790108335936 
0.5599999999999546, -1.1814699066831467 
0.5699999999999535, -1.180605436098158 
0.5799999999999524, -1.1821692865105873 
0.5899999999999513, -1.1885013958273822 
0.5999999999999502, -1.2007091839480097 
0.6099999999999491, -1.217134074207918 
0.619999999999948, -1.2342729276969413 
0.6299999999999469, -1.2490814011021594 
0.6399999999999458, -1.2601898951785495 
0.6499999999999447, -1.2676644884735477 
0.6599999999999436, -1.272267849027323 
0.6699999999999425, -1.274876517523544 
0.6799999999999414, -1.2762005333727449 
0.6899999999999403, -1.2767230872388282 
0.6999999999999392, -1.276742951790101 
0.7099999999999381, -1.2764450095505677 
0.719999999999937, -1.2759719298403416 
0.7299999999999359, -1.2754892706945442 
0.7399999999999348, -1.2752189025362541 
0.7499999999999337, -1.2753917041592278 
0.7599999999999326, -1.2761242809868087 
0.7699999999999315, -1.2773417605372805 
0.7799999999999304, -1.2788377393727677 
0.7899999999999293, -1.2803919496837113 
0.7999999999999282, -1.281837283231087 
0.8099999999999271, -1.283067562577174 
0.819999999999926, -1.284022687901446 
0.8299999999999249, -1.2846727064054722 
0.8399999999999238, -1.2850064966750412 
0.8499999999999227, -1.2850256732976417 
0.8599999999999216, -1.2847425916337811 
0.8699999999999205, -1.2841806805385558 
0.8799999999999194, -1.2833761931436114 
0.8899999999999183, -1.2823815752881127 
0.8999999999999172, -1.2812693356611355 
0.9099999999999161, -1.2801324519882527 
0.919999999999915, -1.279078277224927 
0.9299999999999139, -1.2782153990733798 
0.9399999999999128, -1.2776275521403435 
0.9499999999999117, -1.2773327433060968 
0.9599999999999106, -1.2772587159401638 
0.9699999999999095, -1.2772698470147155 
0.9799999999999084, -1.2772206999639417 
0.9899999999999073, -1.2769828358264532 
0.9999999999999062, -1.2764328168585273 
1.0099999999999052, -1.2754246438370547 
1.019999999999904, -1.273770043595676 
1.029999999999903, -1.2712410462726027 
1.039999999999902, -1.2676018901860235 
1.0499999999999008, -1.2626677984235575 
1.0599999999998997, -1.2563840341610928 
1.0699999999998986, -1.2489295448256788 
1.0799999999998975, -1.2408472930612329 
1.0899999999998964, -1.2331185197314194 
1.0999999999998953, -1.2269475645453516 
1.1099999999998942, -1.2231362841936513 
1.119999999999893, -1.2215479198207801 
1.129999999999892, -1.221335724396464 
1.1399999999998909, -1.2216327663207742 
1.1499999999998898, -1.2219240579775206 
1.1599999999998887, -1.221993161284314 
1.1699999999998876, -1.2217482561581305 
1.1799999999998865, -1.2210899591205302 
1.1899999999998854, -1.2198156694301165 
1.1999999999998843, -1.2175098442764567 
1.2099999999998832, -1.2133771356568162 
1.219999999999882, -1.2060272483443355 
1.229999999999881, -1.1934179199293438 
1.2399999999998799, -1.173614635056246 
1.2499999999998788, -1.1471606501609464 
1.2599999999998777, -1.1196464079506516 
1.2699999999998766, -1.0995877456715994 
1.2799999999998755, -1.0913725199141424 
1.2899999999998744, -1.092303005158233 
1.2999999999998733, -1.0969335785839687 
1.3099999999998722, -1.1015647775381572 
1.319999999999871, -1.1049207243134773 
1.32999999999987, -1.1069960166694957 
1.3399999999998689, -1.1081233315043562 
1.3499999999998678, -1.1085997385903354 
1.3599999999998666, -1.1086045593600837 
1.3699999999998655, -1.1082034286215754 
1.3799999999998644, -1.1073574292350412 
1.3899999999998633, -1.1059173128719109 
1.3999999999998622, -1.103613882292386 
1.4099999999998611, -1.1001041053759004 
1.41999999999986, -1.0952397249899017 
1.429999999999859, -1.0898341141369339 
1.4399999999998578, -1.0868598513409835 
1.4499999999998567, -1.091535972977084 
1.4599999999998556, -1.1078470339348385 
1.4699999999998545, -1.1334380457451674 
1.4799999999998534, -1.1602937571712868 
1.4899999999998523, -1.1815680008150524 
1.4999999999998512, -1.1954783958729702 
1.5099999999998501, -1.2035492901823566 
1.519999999999849, -1.2079048520661244 
1.529999999999848, -1.2101177657173614 
1.5399999999998468, -1.2111236787521877 
1.5499999999998457, -1.211423214148233 
1.5599999999998446, -1.2112649676792344 
1.5699999999998435, -1.210765671184493 
1.5799999999998424, -1.2100012707749124 
1.5899999999998413, -1.2091203870448828 
1.5999999999998402, -1.2085156379539361 
1.6099999999998391, -1.2089721062464531 
1.619999999999838, -1.211497773942727 
1.629999999999837, -1.2166612638547933 
1.6399999999998358, -1.224015304689634 
1.6499999999998347, -1.2323419563393632 
1.6599999999998336, -1.2403898992692468 
1.6699999999998325, -1.2473331883402545 
1.6799999999998314, -1.2528096725229216 
1.6899999999998303, -1.2567909418361496 
1.6999999999998292, -1.2594482263706666 
1.709999999999828, -1.2610445121714497 
1.719999999999827, -1.2618518107401768 
1.729999999999826, -1.2621008598216112 
1.7399999999998248, -1.261967113646412 
1.7499999999998237, -1.2615856853283236 
1.7599999999998226, -1.2610819303046406 
1.7699999999998215, -1.2605987971073538 
1.7799999999998204, -1.2602935099015355 
1.7899999999998193, -1.2602891413672197 
1.7999999999998182, -1.2606180418593036 
1.809999999999817, -1.261216491556412 
1.819999999999816, -1.2619693127041998 
1.8299999999998149, -1.2627548765582304 
1.8399999999998138, -1.263467570726721 
1.8499999999998127, -1.2640255218128922 
1.8599999999998116, -1.2643710769927372 
1.8699999999998105, -1.2644669639581374 
1.8799999999998094, -1.264291331281537 
1.8899999999998083, -1.263833974952869 
1.8999999999998072, -1.263094426715437 
1.909999999999806, -1.2620822816715065 
1.919999999999805, -1.2608203336890833 
1.9299999999998039, -1.2593506373397312 
1.9399999999998028, -1.2577424285424699 
1.9499999999998017, -1.2560994670596703 
1.9599999999998006, -1.2545619772050722 
1.9699999999997995, -1.2532904118450285 
1.9799999999997984, -1.2524130979430783 
1.9899999999997973, -1.2519527271204227 
1.9999999999997962, -1.251800763473379 
2.0099999999998173, -1.2517762367895655 
2.0199999999998384, -1.2517047200598066 
2.0299999999998595, -1.2514451927123988 
2.0399999999998806, -1.250864782324917 
2.0499999999999017, -1.249794938634801 
2.059999999999923, -1.2479925166702692 
2.069999999999944, -1.2451221181042795 
2.079999999999965, -1.2407813034700828 
2.089999999999986, -1.234589998756038 
2.100000000000007, -1.2263477309596271 
2.1100000000000283, -1.2162407492582328 
2.1200000000000494, -1.2050540869322177 
2.1300000000000705, -1.1942408962517903 
2.1400000000000916, -1.1855471604490355 
2.1500000000001127, -1.18011025112343 
2.160000000000134, -1.1777594256721873 
2.170000000000155, -1.1773586917284895 
2.180000000000176, -1.1777368586824697 
2.190000000000197, -1.1781932549607377 
2.2000000000002182, -1.1784414724988919 
2.2100000000002393, -1.178389320278285 
2.2200000000002604, -1.1779782595823112 
2.2300000000002815, -1.1770886335154693 
2.2400000000003026, -1.1754576651292348 
2.2500000000003237, -1.172562723040595 
2.260000000000345, -1.167444947121604 
2.270000000000366, -1.1585301688802438 
2.280000000000387, -1.1437586016816874 
2.290000000000408, -1.1217320943567002 
2.3000000000004293, -1.094188880154194 
2.3100000000004504, -1.067444793411044 
2.3200000000004715, -1.0489290938567888 
2.3300000000004926, -1.0412963522357679 
2.3400000000005137, -1.0415305370343646 
2.3500000000005348, -1.0450074818104702 
2.360000000000556, -1.0486970028430218 
2.370000000000577, -1.0514800005977942 
2.380000000000598, -1.0532599833668053 
2.390000000000619, -1.0542519276186466 
2.4000000000006403, -1.0546738458795335 
2.4100000000006614, -1.0546615994573014 
2.4200000000006825, -1.0542574320016418 
2.4300000000007036, -1.0534047654350283 
2.4400000000007247, -1.0519240430516583 
2.450000000000746, -1.04946061829994 
2.460000000000767, -1.0454138702066282 
2.470000000000788, -1.0389136264519132 
2.480000000000809, -1.0290436598326456 
2.49000000000083, -1.0156336339769392 
2.5000000000008513, -1.00055184051891 
2.5100000000008724, -0.9880925172272738 
2.5200000000008935, -0.9826426884908244 
2.5300000000009146, -0.9851383662279929 
2.5400000000009357, -0.9925632257463979 
2.550000000000957, -1.000907416294864 
2.560000000000978, -1.0077459618136597 
2.570000000000999, -1.0124804072118725 
2.58000000000102, -1.0154383371830105 
2.5900000000010412, -1.017143599260987 
2.6000000000010624, -1.018019433709301 
2.6100000000010835, -1.0183352326363235 
2.6200000000011046, -1.018229011108503 
2.6300000000011257, -1.0177324822685043 
2.6400000000011468, -1.016776388918943 
2.650000000001168, -1.0151704105457997 
2.660000000001189, -1.012558567945634 
2.67000000000121, -1.0083691135002113 
2.680000000001231, -1.0018350951572175 
2.6900000000012523, -0.992272507839836 
2.7000000000012734, -0.9798413630816116 
2.7100000000012945, -0.9665575454222626 
2.7200000000013156, -0.9562746846789635 
2.7300000000013367, -0.9524822297820188 
2.740000000001358, -0.9555711545046691 
2.750000000001379, -0.9627605346070045 
2.7600000000014, -0.9706041852827454 
2.770000000001421, -0.9770363904860945 
2.780000000001442, -0.981538846006951 
2.7900000000014633, -0.9843942196160214 
2.8000000000014844, -0.9860685021191109 
2.8100000000015055, -0.9869473621373762 
2.8200000000015266, -0.9872815694829518 
2.8300000000015477, -0.9872020794439237 
2.840000000001569, -0.9867397813083267 
2.85000000000159, -0.9858274804764431 
2.860000000001611, -0.984275355615706 
2.870000000001632, -0.9817132387786387 
2.8800000000016532, -0.9774992287793222 
2.8900000000016743, -0.9706281773422536 
2.9000000000016954, -0.9597728573318403 
2.9100000000017165, -0.9437466890910361 
2.9200000000017377, -0.9226266838784021 
2.9300000000017588, -0.8989728589594312 
2.94000000000178, -0.8774505201412875 
2.950000000001801, -0.8621684675610263 
2.960000000001822, -0.8541995873994613 
2.970000000001843, -0.8518123488856599 
2.9800000000018643, -0.8524351311649505 
2.9900000000018854, -0.8541092160142478 
3.0000000000019065, -0.8557996770404293 
3.0100000000019276, -0.8571213243415947 
3.0200000000019487, -0.8580084791269182 
3.03000000000197, -0.8585061793674396 
3.040000000001991, -0.8586707980065824 
3.050000000002012, -0.8585295169568161 
3.060000000002033, -0.8580615095627053 
3.070000000002054, -0.8571805594650463 
3.0800000000020753, -0.8557096589909069 
3.0900000000020964, -0.853347897014638 
3.1000000000021175, -0.8496485918952986 
3.1100000000021386, -0.8440613527149683 
3.1200000000021597, -0.8361131973861667 
3.130000000002181, -0.8257290473343144 
3.140000000002202, -0.8134884112819588 
3.150000000002223, -0.8005331105951161 
3.160000000002244, -0.7881380908929659 
3.1700000000022652, -0.7772857431503404 
3.1800000000022863, -0.7684931878985622 
3.1900000000023074, -0.7618599518612108 
3.2000000000023285, -0.7571987842889905 
3.2100000000023496, -0.7541646849258775 
3.2200000000023707, -0.7523578022471106 
3.230000000002392, -0.7513973976845073 
3.240000000002413, -0.7509660783682601 
3.250000000002434, -0.7508257120209625 
3.260000000002455, -0.7508117087813989 
3.2700000000024763, -0.7508157808512171 
3.2800000000024974, -0.750766456055356 
3.2900000000025185, -0.7506133862083881 
3.3000000000025396, -0.7503184969318022 
3.3100000000025607, -0.7498549510317845 
3.3200000000025818, -0.7492124738043582 
3.330000000002603, -0.7484039148532544 
3.340000000002624, -0.7474655043078801 
3.350000000002645, -0.7464467906865684 
3.360000000002666, -0.74539487783251 
3.3700000000026873, -0.744342648801454 
3.3800000000027084, -0.7433069060881429 
3.3900000000027295, -0.7422948548100077 
3.4000000000027506, -0.7413133321825478 
3.4100000000027717, -0.7403761326894844 
3.420000000002793, -0.7395077868106246 
3.430000000002814, -0.7387442011860801 
3.440000000002835, -0.7381308541055052 
3.450000000002856, -0.7377188239095834 
3.460000000002877, -0.7375590093089447 
3.4700000000028983, -0.7376956680317157 
3.4800000000029194, -0.7381611279939377 
3.4900000000029405, -0.7389733939752984 
3.5000000000029616, -0.7401372145829896 
3.5100000000029827, -0.7416475296926274 
3.520000000003004, -0.7434927806534058 
3.530000000003025, -0.7456547411089461 
3.540000000003046, -0.7481016687706032 
3.550000000003067, -0.7507736651429644 
3.5600000000030882, -0.7535647774319616 
3.5700000000031094, -0.7563152483502785 
3.5800000000031305, -0.7588316138422735 
3.5900000000031516, -0.7609380280834912 
3.6000000000031727, -0.7625316216770723 
3.6100000000031938, -0.7636029781550331 
3.620000000003215, -0.76421221970354 
3.630000000003236, -0.7644464652559352 
3.640000000003257, -0.764386882787056 
3.650000000003278, -0.7640947054267124 
3.6600000000032993, -0.7636125662343447 
3.6700000000033204, -0.7629768658634261 
3.6800000000033415, -0.7622424277778963 
3.6900000000033626, -0.7615274093620065 
3.7000000000033837, -0.7610915919050536 
3.710000000003405, -0.7614592966263128 
3.720000000003426, -0.7635759260810634 
3.730000000003447, -0.7689228460671 
3.740000000003468, -0.7793969458898821 
3.750000000003489, -0.7966562130933778 
3.7600000000035103, -0.8208225064799436 
3.7700000000035314, -0.84929230828952 
3.7800000000035525, -0.8772779455387052 
3.7900000000035736, -0.9004071542800276 
3.8000000000035947, -0.9169247824434198 
3.810000000003616, -0.9275232462272085 
3.820000000003637, -0.9338652716699526 
3.830000000003658, -0.9374913284351016 
3.840000000003679, -0.9394760214751396 
3.8500000000037002, -0.9404737887333043 
3.8600000000037213, -0.9408514054881097 
3.8700000000037424, -0.9407944418846865 
3.8800000000037635, -0.9403702888624224 
3.8900000000037847, -0.9395565039678818 
3.9000000000038058, -0.9382454605993825 
3.910000000003827, -0.9362371230470201 
3.920000000003848, -0.9332429599911138 
3.930000000003869, -0.9289551467232275 
3.94000000000389, -0.9232793559471428 
3.9500000000039113, -0.9168047768236608 
3.9600000000039324, -0.9112974637465232 
3.9700000000039535, -0.909473525907216 
3.9800000000039746, -0.9134533035957618 
3.9900000000039957, -0.9229286499287681 
4.000000000004016, -0.935134152687303 
4.010000000003993, -0.9468037320065174 
4.02000000000397, -0.9559950686478045 
4.030000000003946, -0.9623535192092649 
4.040000000003923, -0.9663897783572339 
4.0500000000039, -0.9687953956786952 
4.0600000000038765, -0.9701318003044603 
4.070000000003853, -0.9707709881301495 
4.08000000000383, -0.9709263696873748 
4.090000000003807, -0.970692106825279 
4.100000000003783, -0.9700640727699769 
4.11000000000376, -0.9689354494255522 
4.120000000003737, -0.967062866791425 
4.130000000003713, -0.9639988995168641 
4.14000000000369, -0.9589981391384063 
4.150000000003667, -0.9509531867005029 
4.1600000000036434, -0.9385344345337913 
4.17000000000362, -0.9208325123285013 
4.180000000003597, -0.8985768088336691 
4.1900000000035735, -0.8750184001739821 
4.20000000000355, -0.8548496892392597 
4.210000000003527, -0.8413690745888486 
4.220000000003504, -0.8347524335516041 
4.23000000000348, -0.8329612310232477 
4.240000000003457, -0.8336223221557434 
4.250000000003434, -0.8350866179598448 
4.26000000000341, -0.8365237862597958 
4.270000000003387, -0.8376332210929556 
4.280000000003364, -0.8383649829575951 
4.2900000000033405, -0.8387531976590319 
4.300000000003317, -0.8388373315308637 
4.310000000003294, -0.8386285585093592 
4.320000000003271, -0.8380919966646007 
4.330000000003247, -0.837129400952063 
4.340000000003224, -0.8355567710799543 
4.350000000003201, -0.8330828224508361 
4.360000000003177, -0.8293144130663002 
4.370000000003154, -0.8238388269155992 
4.380000000003131, -0.8164186135406964 
4.390000000003107, -0.807226124023255 
4.400000000003084, -0.7969169595278841 
4.410000000003061, -0.7864241289531968 
4.4200000000030375, -0.7766246206613163 
4.430000000003014, -0.768119090622132 
4.440000000002991, -0.7611938325709283 
4.450000000002968, -0.7558849419531993 
4.460000000002944, -0.7520608769534382 
4.470000000002921, -0.7494914471131072 
4.480000000002898, -0.747902528599705 
4.490000000002874, -0.7470201108895947 
4.500000000002851, -0.746602323662312 
4.510000000002828, -0.7464563732863387 
4.520000000002804, -0.746440665224025 
4.530000000002781, -0.7464566673750335 
4.540000000002758, -0.7464367982517358 
4.5500000000027345, -0.7463336917170633 
4.560000000002711, -0.7461141627116188 
4.570000000002688, -0.745758880330861 
4.580000000002665, -0.745265824190857 
4.590000000002641, -0.7446525327554699 
4.600000000002618, -0.7439518391038304 
4.610000000002595, -0.7432005984039147 
4.620000000002571, -0.7424273811433835 
4.630000000002548, -0.7416464671398417 
4.640000000002525, -0.7408605878568222 
4.6500000000025015, -0.7400691183469534 
4.660000000002478, -0.7392765208878884 
4.670000000002455, -0.7384978721011121 
4.6800000000024315, -0.7377612909216994 
4.690000000002408, -0.7371083899262656 
4.700000000002385, -0.7365932851095691 
4.710000000002362, -0.7362797131878392 
4.720000000002338, -0.7362357437795012 
4.730000000002315, -0.7365266310917018 
4.740000000002292, -0.7372076873965865 
4.750000000002268, -0.7383194932175827 
4.760000000002245, -0.7398866816395084 
4.770000000002222, -0.74191937430079 
4.7800000000021985, -0.7444141133804777 
4.790000000002175, -0.7473497582852525 
4.800000000002152, -0.7506743082366705 
4.810000000002129, -0.7542828825729389 
4.820000000002105, -0.7579972650935474 
4.830000000002082, -0.7615700483821535 
4.840000000002059, -0.764734493220098 
4.850000000002035, -0.7672872172665354 
4.860000000002012, -0.7691496618333183 
4.870000000001989, -0.770364808176005 
4.880000000001965, -0.7710435394904455 
4.890000000001942, -0.771307018843106 
4.900000000001919, -0.7712531333346372 
4.9100000000018955, -0.7709470885567222 
4.920000000001872, -0.7704263607081406 
4.930000000001849, -0.769714233721152 
