t, s[1].omega / s[0].omega 
0, -1.0699966678156787 
0.009999999999999995, -1.069559094642918 
0.019999999999999934, -1.0689142512624519 
0.029999999999999874, -1.068061239145239 
0.04000000000000012, -1.0670019343962123 
0.050000000000000405, -1.0657448985088742 
0.06000000000000069, -1.0643089171330813 
0.07000000000000098, -1.0627254056329132 
0.08000000000000126, -1.0610392758845022 
0.09000000000000155, -1.0593079089905397 
0.10000000000000184, -1.0575978982204 
0.11000000000000212, -1.0559797074575232 
0.12000000000000241, -1.054521310520828 
0.130000000000002, -1.0532823896109949 
0.1400000000000009, -1.0523099297946927 
0.1499999999999998, -1.0516345231719315 
0.1599999999999987, -1.051266151948148 
0.1699999999999976, -1.051189734347641 
0.1799999999999965, -1.0513629738364678 
0.1899999999999954, -1.0517193809556662 
0.1999999999999943, -1.0521767917359488 
0.2099999999999932, -1.0526484464207468 
0.2199999999999921, -1.0530526491521006 
0.229999999999991, -1.053318755789453 
0.2399999999999899, -1.0533898025775146 
0.2499999999999888, -1.053223452890211 
0.2599999999999877, -1.0527925843598942 
0.2699999999999866, -1.0520855639984974 
0.2799999999999855, -1.0511052655298947 
0.2899999999999844, -1.049865992610922 
0.2999999999999833, -1.0483886138747327 
0.3099999999999822, -1.0466954677374696 
0.3199999999999811, -1.0448069547566132 
0.32999999999998, -1.0427409757066082 
0.3399999999999789, -1.0405151021136219 
0.3499999999999778, -1.0381503713263096 
0.35999999999997667, -1.0356752613860993 
0.36999999999997557, -1.0331286198837286 
0.37999999999997447, -1.030560802380757 
0.38999999999997337, -1.0280328173954423 
0.39999999999997227, -1.0256137604269295 
0.40999999999997117, -1.0233770236213442 
0.41999999999997006, -1.0213954163002945 
0.42999999999996896, -1.0197346126352926 
0.43999999999996786, -1.0184442264318945 
0.44999999999996676, -1.0175472882779324 
0.45999999999996566, -1.0170314629515 
0.46999999999996456, -1.0168466306138544 
0.47999999999996346, -1.0169113566361356 
0.48999999999996235, -1.0171262066245093 
0.49999999999996125, -1.0173884348913802 
0.5099999999999602, -1.0176029154081954 
0.519999999999959, -1.0176874367438689 
0.529999999999958, -1.017573798984913 
0.5399999999999568, -1.017207571524041 
0.5499999999999557, -1.0165487612862518 
0.5599999999999546, -1.0155738720459806 
0.5699999999999535, -1.0142779984465853 
0.5799999999999524, -1.0126747550672013 
0.5899999999999513, -1.0107926362906332 
0.5999999999999502, -1.0086684199418123 
0.6099999999999491, -1.006340029284069 
0.619999999999948, -1.0038415685318975 
0.6299999999999469, -1.0012020222601472 
0.6399999999999458, -0.9984473878001093 
0.6499999999999447, -0.9956048151276005 
0.6599999999999436, -0.9927070147053928 
0.6699999999999425, -0.9897955411828264 
0.6799999999999414, -0.9869221804447296 
0.6899999999999403, -0.9841482658975409 
0.6999999999999392, -0.9815421436783269 
0.7099999999999381, -0.9791750533949782 
0.719999999999937, -0.9771153969872114 
0.7299999999999359, -0.9754211291432927 
0.7399999999999348, -0.9741305099148084 
0.7499999999999337, -0.9732529676582332 
0.7599999999999326, -0.9727633858343951 
0.7699999999999315, -0.9726030239820788 
0.7799999999999304, -0.9726877526477793 
0.7899999999999293, -0.972920802892531 
0.7999999999999282, -0.9732054013177542 
0.8099999999999271, -0.9734536794924048 
0.819999999999926, -0.9735909586122035 
0.8299999999999249, -0.9735568603777415 
0.8399999999999238, -0.9733054862913096 
0.8499999999999227, -0.9728061834776583 
0.8599999999999216, -0.9720449035251121 
0.8699999999999205, -0.9710248028065237 
0.8799999999999194, -0.9697644083950804 
0.8899999999999183, -0.9682927279479688 
0.8999999999999172, -0.9666424707952518 
0.9099999999999161, -0.9648437766043794 
0.919999999999915, -0.9629206671699151 
0.9299999999999139, -0.9608911163670824 
0.9399999999999128, -0.9587701297672958 
0.9499999999999117, -0.9565743195767411 
0.9599999999999106, -0.954326347432791 
0.9699999999999095, -0.952058024899424 
0.9799999999999084, -0.9498114227085414 
0.9899999999999073, -0.9476378144240669 
0.9999999999999062, -0.945594659514903 
1.0099999999999052, -0.9437411574304215 
1.019999999999904, -0.9421330893439056 
1.029999999999903, -0.9408175655523611 
1.039999999999902, -0.9398280015214856 
1.0499999999999008, -0.9391795424591461 
1.0599999999998997, -0.9388655366221673 
1.0699999999998986, -0.9388562311381472 
1.0799999999998975, -0.9391008730639798 
1.0899999999998964, -0.9395334086157895 
1.0999999999998953, -0.9400804977115202 
1.1099999999998942, -0.9406696818909346 
1.119999999999893, -0.9412358732884585 
1.129999999999892, -0.9417254770781234 
1.1399999999998909, -0.942098494199169 
1.1499999999998898, -0.9423292430744088 
1.1599999999998887, -0.9424059396792746 
1.1699999999998876, -0.942328849690341 
1.1799999999998865, -0.9421066920141313 
1.1899999999998854, -0.9417516207481832 
1.1999999999998843, -0.9412740213285682 
1.2099999999998832, -0.9406788204639621 
1.219999999999882, -0.9399646231014694 
1.229999999999881, -0.9391259334518068 
1.2399999999998799, -0.9381575665611189 
1.2499999999998788, -0.9370597021363227 
1.2599999999998777, -0.9358421477330982 
1.2699999999998766, -0.9345270501524833 
1.2799999999998755, -0.9331499650683633 
1.2899999999998744, -0.9317594122937278 
1.2999999999998733, -0.9304148268798365 
1.3099999999998722, -0.9291826046918638 
1.319999999999871, -0.9281301923839497 
1.32999999999987, -0.9273189308156657 
1.3399999999998689, -0.9267971379995543 
1.3499999999998678, -0.9265950515466262 
1.3599999999998666, -0.9267225387717899 
1.3699999999998655, -0.927169444004614 
1.3799999999998644, -0.9279078350960245 
1.3899999999998633, -0.9288954897060492 
1.3999999999998622, -0.9300803139779203 
1.4099999999998611, -0.9314054755186941 
1.41999999999986, -0.9328147655407423 
1.429999999999859, -0.9342574121648329 
1.4399999999998578, -0.9356915514666337 
1.4499999999998567, -0.9370858080145729 
1.4599999999998556, -0.9384187458601726 
1.4699999999998545, -0.9396762438887112 
1.4799999999998534, -0.9408472278417876 
1.4899999999998523, -0.9419187308151248 
1.4999999999998512, -0.9428717927859948 
1.5099999999998501, -0.943679870540974 
1.519999999999849, -0.9443108596512594 
1.529999999999848, -0.9447325116231156 
1.5399999999998468, -0.9449195013403608 
1.5499999999998457, -0.9448596178057024 
1.5599999999998446, -0.9445571839756427 
1.5699999999998435, -0.9440335016601388 
1.5799999999998424, -0.9433256544356972 
1.5899999999998413, -0.942485368722324 
1.5999999999998402, -0.941578752182262 
1.6099999999998391, -0.9406862605487673 
1.619999999999838, -0.939901032294266 
1.629999999999837, -0.9393235133714759 
1.6399999999998358, -0.9390515232310014 
1.6499999999998347, -0.9391673203289076 
1.6599999999998336, -0.9397254936957236 
1.6699999999998325, -0.9407459112073173 
1.6799999999998314, -0.9422139020393174 
1.6899999999998303, -0.9440866968113172 
1.6999999999998292, -0.9463030477782464 
1.709999999999828, -0.9487929070034162 
1.719999999999827, -0.9514853329334189 
1.729999999999826, -0.9543140847184863 
1.7399999999998248, -0.9572209316240372 
1.7499999999998237, -0.9601566980223681 
1.7599999999998226, -0.9630799762989471 
1.7699999999998215, -0.9659536232193257 
1.7799999999998204, -0.968739697221676 
1.7899999999998193, -0.9713942731538856 
1.7999999999998182, -0.9738642641986827 
1.809999999999817, -0.9760884480945673 
1.819999999999816, -0.9780037713433594 
1.8299999999998149, -0.9795556717615185 
1.8399999999998138, -0.9807087354181699 
1.8499999999998127, -0.9814533605083154 
1.8599999999998116, -0.9818061609877011 
1.8699999999998105, -0.9818052967967656 
1.8799999999998094, -0.9815043004670319 
1.8899999999998083, -0.9809679753464702 
1.8999999999998072, -0.9802721474129374 
1.909999999999806, -0.9795067112407477 
1.919999999999805, -0.9787793083244797 
1.9299999999998039, -0.9782155576423002 
1.9399999999998028, -0.9779518064611545 
1.9499999999998017, -0.9781189063131015 
1.9599999999998006, -0.9788203941195709 
1.9699999999997995, -0.9801130012502622 
1.9799999999997984, -0.9819977533972492 
1.9899999999997973, -0.9844249258244279 
1.9999999999997962, -0.9873093284122516 
2.0099999999998173, -0.9905487453296444 
2.0199999999998384, -0.9940394287031769 
2.0299999999998595, -0.9976860200706282 
2.0399999999998806, -1.0014061171266113 
2.0499999999999017, -1.0051307447669398 
2.059999999999923, -1.0088018493431938 
2.069999999999944, -1.0123676775679067 
2.079999999999965, -1.0157771058278315 
2.089999999999986, -1.0189746041992833 
2.100000000000007, -1.021898065699449 
2.1100000000000283, -1.0244814921509235 
2.1200000000000494, -1.0266629445089135 
2.1300000000000705, -1.028395520409884 
2.1400000000000916, -1.0296569669875064 
2.1500000000001127, -1.030453794069841 
2.160000000000134, -1.0308187226175902 
2.170000000000155, -1.0308039293513345 
2.180000000000176, -1.0304743036371622 
2.190000000000197, -1.0299040899015128 
2.2000000000002182, -1.0291779118089464 
2.2100000000002393, -1.028394545791395 
2.2200000000002604, -1.027669637828114 
2.2300000000002815, -1.0271325368753157 
2.2400000000003026, -1.0269138032417602 
2.2500000000003237, -1.0271245512633482 
2.260000000000345, -1.0278347597015451 
2.270000000000366, -1.0290603307359751 
2.280000000000387, -1.0307646936672767 
2.290000000000408, -1.0328727584729989 
2.3000000000004293, -1.0352895130785795 
2.3100000000004504, -1.0379160192408616 
2.3200000000004715, -1.0406597458067162 
2.3300000000004926, -1.0434398371643596 
2.3400000000005137, -1.0461890703625456 
2.3500000000005348, -1.0488536693938981 
2.360000000000556, -1.0513913592640916 
2.370000000000577, -1.0537678695669632 
2.380000000000598, -1.0559525099787355 
2.390000000000619, -1.0579140568279914 
2.4000000000006403, -1.0596185698608216 
2.4100000000006614, -1.0610304798251644 
2.4200000000006825, -1.0621171402722462 
2.4300000000007036, -1.0628553781313521 
2.4400000000007247, -1.0632374190258982 
2.450000000000746, -1.0632739090997052 
2.460000000000767, -1.0629935556856662 
2.470000000000788, -1.0624408678804822 
2.480000000000809, -1.0616741606512883 
2.49000000000083, -1.060764990187866 
2.5000000000008513, -1.0597982096888534 
2.5100000000008724, -1.0588700730256246 
2.5200000000008935, -1.0580815592502602 
2.5300000000009146, -1.0575262194437511 
2.5400000000009357, -1.0572756845732376 
2.550000000000957, -1.0573687062345016 
2.560000000000978, -1.0578083382286076 
2.570000000000999, -1.0585671400609855 
2.58000000000102, -1.0595961862429566 
2.5900000000010412, -1.0608334676652105 
2.6000000000010624, -1.062210082842242 
2.6100000000010835, -1.063655117862709 
2.6200000000011046, -1.0651003881795416 
2.6300000000011257, -1.066485039271452 
2.6400000000011468, -1.0677591023258806 
2.650000000001168, -1.0688851800496988 
2.660000000001189, -1.0698380247390074 
2.67000000000121, -1.0706022693252222 
2.680000000001231, -1.0711689001380817 
2.6900000000012523, -1.0715313899905368 
2.7000000000012734, -1.071682692536757 
2.7100000000012945, -1.071614222276684 
2.7200000000013156, -1.071317302759707 
2.7300000000013367, -1.070786579545783 
2.740000000001358, -1.0700241428224284 
2.750000000001379, -1.069043072144105 
2.7600000000014, -1.06786972792264 
2.770000000001421, -1.0665447472339469 
2.780000000001442, -1.065122760137958 
2.7900000000014633, -1.0636703733947344 
2.8000000000014844, -1.062261696882641 
2.8100000000015055, -1.0609713640791545 
2.8200000000015266, -1.0598664764795531 
2.8300000000015477, -1.0589998764294986 
2.840000000001569, -1.058406331425249 
2.85000000000159, -1.0581010695859703 
2.860000000001611, -1.0580788331187134 
2.870000000001632, -1.0583126951250599 
2.8800000000016532, -1.058754125453114 
2.8900000000016743, -1.05933653118293 
2.9000000000016954, -1.0599826951511706 
2.9100000000017165, -1.0606139798320469 
2.9200000000017377, -1.0611583130158895 
2.9300000000017588, -1.0615552717758685 
2.94000000000178, -1.0617584580239805 
2.950000000001801, -1.06173623017165 
2.960000000001822, -1.0614714686773166 
2.970000000001843, -1.0609602387025334 
2.9800000000018643, -1.060208937250975 
2.9900000000018854, -1.0592301014579955 
3.0000000000019065, -1.0580379980622516 
3.0100000000019276, -1.0566455637235708 
3.0200000000019487, -1.0550638086732116 
3.03000000000197, -1.0533037522722093 
3.040000000001991, -1.0513800017507269 
3.050000000002012, -1.0493146721803446 
3.060000000002033, -1.0471404699057982 
3.070000000002054, -1.0449021325787275 
3.0800000000020753, -1.0426558262399899 
3.0900000000020964, -1.040466561291956 
3.1000000000021175, -1.038404192508684 
3.1100000000021386, -1.0365387673069792 
3.1200000000021597, -1.0349354700395836 
3.130000000002181, -1.0336484900290952 
3.140000000002202, -1.0327130617604359 
3.150000000002223, -1.0321366326359764 
3.160000000002244, -1.0318926148987333 
3.1700000000022652, -1.0319208147941514 
3.1800000000022863, -1.0321358483468885 
3.1900000000023074, -1.0324404837748797 
3.2000000000023285, -1.0327385594600833 
3.2100000000023496, -1.0329435327858423 
3.2200000000023707, -1.0329820866370747 
3.230000000002392, -1.0327948168644254 
3.240000000002413, -1.032336542100112 
3.250000000002434, -1.0315775774813487 
3.260000000002455, -1.0305054880271176 
3.2700000000024763, -1.029125562020044 
3.2800000000024974, -1.0274583825788264 
3.2900000000025185, -1.0255344175476266 
3.3000000000025396, -1.0233873983306492 
3.3100000000025607, -1.0210490429068433 
3.3200000000025818, -1.0185469391879247 
3.330000000002603, -1.015905846401336 
3.340000000002624, -1.013151335230211 
3.350000000002645, -1.010314130403441 
3.360000000002666, -1.0074336852721437 
3.3700000000026873, -1.0045600630856844 
3.3800000000027084, -1.0017538107302002 
3.3900000000027295, -0.9990839727946728 
3.4000000000027506, -0.9966245121009755 
3.4100000000027717, -0.9944490842700321 
3.420000000002793, -0.9926236862543801 
3.430000000002814, -0.9911969805780282 
3.440000000002835, -0.9901896735425649 
3.450000000002856, -0.9895864569784706 
3.460000000002877, -0.9893346548265504 
3.4700000000028983, -0.9893513755033423 
3.4800000000029194, -0.9895368132021443 
3.4900000000029405, -0.9897885082982905 
3.5000000000029616, -0.9900119103059917 
3.5100000000029827, -0.9901255838034543 
3.520000000003004, -0.9900623884370587 
3.530000000003025, -0.9897692700466129 
3.540000000003046, -0.9892077836728234 
3.550000000003067, -0.9883558655139789 
3.5600000000030882, -0.9872096451236848 
3.5700000000031094, -0.985783230039298 
3.5800000000031305, -0.9841050618319718 
3.5900000000031516, -0.9822113321514333 
3.6000000000031727, -0.9801387418440698 
3.6100000000031938, -0.9779192993045276 
3.620000000003215, -0.9755787494550602 
3.630000000003236, -0.9731385358637384 
3.640000000003257, -0.9706199493023758 
3.650000000003278, -0.9680487221256753 
3.6600000000032993, -0.9654586168622467 
3.6700000000033204, -0.9628931389346878 
3.6800000000033415, -0.9604050837274288 
3.6900000000033626, -0.9580540941224152 
3.7000000000033837, -0.955902703280896 
3.710000000003405, -0.9540113768389097 
3.720000000003426, -0.9524328476003552 
3.730000000003447, -0.9512058553268359 
3.740000000003468, -0.9503487335557816 
3.750000000003489, -0.949854188364826 
3.7600000000035103, -0.9496873525751546 
3.7700000000035314, -0.9497887384450346 
3.7800000000035525, -0.9500818712964075 
3.7900000000035736, -0.950483323163442 
3.8000000000035947, -0.9509120968859915 
3.810000000003616, -0.9512962753643419 
3.820000000003637, -0.9515766280737886 
3.830000000003658, -0.9517081707193155 
3.840000000003679, -0.9516608537064762 
3.8500000000037002, -0.9514198104790034 
3.8600000000037213, -0.9509846493227112 
3.8700000000037424, -0.9503669134513817 
3.8800000000037635, -0.9495854426986726 
3.8900000000037847, -0.9486605770293686 
3.9000000000038058, -0.947609050463936 
3.910000000003827, -0.9464413489060925 
3.920000000003848, -0.9451623103478005 
3.930000000003869, -0.9437744737261216 
3.94000000000389, -0.9422828093780904 
3.9500000000039113, -0.9406993082399596 
3.9600000000039324, -0.9390463354605949 
3.9700000000039535, -0.9373582387992708 
3.9800000000039746, -0.9356810621485903 
3.9900000000039957, -0.9340703104089536 
4.000000000004016, -0.9325868167874303 
4.010000000003993, -0.9312911239649531 
4.02000000000397, -0.9302373051089373 
4.030000000003946, -0.9294674106818814 
4.040000000003923, -0.9290074395285617 
4.0500000000039, -0.9288651001294363 
4.0600000000038765, -0.9290291954149674 
4.070000000003853, -0.9294705310495639 
4.08000000000383, -0.9301445211774153 
4.090000000003807, -0.9309956081987135 
4.100000000003783, -0.9319630752385136 
4.11000000000376, -0.9329872283812255 
4.120000000003737, -0.9340147706874612 
4.130000000003713, -0.9350025523671636 
4.14000000000369, -0.935919391642263 
4.150000000003667, -0.9367459522722953 
4.1600000000036434, -0.9374727293404679 
4.17000000000362, -0.9380963262119878 
4.180000000003597, -0.9386146333336365 
4.1900000000035735, -0.9390221230338854 
4.20000000000355, -0.9393068324216277 
4.210000000003527, -0.9394503228372731 
4.220000000003504, -0.9394309175748082 
4.23000000000348, -0.9392292165394799 
4.240000000003457, -0.9388339765574497 
4.250000000003434, -0.9382465350366559 
4.26000000000341, -0.9374830008358453 
4.270000000003387, -0.9365746665044782 
4.280000000003364, -0.9355676280794359 
4.2900000000033405, -0.9345221501793324 
4.300000000003317, -0.9335113200972712 
4.310000000003294, -0.9326177654748976 
4.320000000003271, -0.9319273367719904 
4.330000000003247, -0.9315198811083827 
4.340000000003224, -0.9314590007695523 
4.350000000003201, -0.9317838110582407 
4.360000000003177, -0.9325052198289017 
4.370000000003154, -0.9336073581782606 
4.380000000003131, -0.9350528255754471 
4.390000000003107, -0.9367896038075194 
4.400000000003084, -0.9387579440906796 
4.410000000003061, -0.9408964161630352 
4.4200000000030375, -0.9431468434600535 
4.430000000003014, -0.9454578867327695 
4.440000000002991, -0.9477868957038086 
4.450000000002968, -0.9500996468711395 
4.460000000002944, -0.9523678449830201 
4.470000000002921, -0.9545647741246203 
4.480000000002898, -0.9566601727673856 
4.490000000002874, -0.9586160890843007 
4.500000000002851, -0.9603857651109869 
4.510000000002828, -0.9619170131258546 
4.520000000002804, -0.9631598720222764 
4.530000000002781, -0.9640761509505584 
4.540000000002758, -0.9646472001621481 
4.5500000000027345, -0.9648770994654339 
4.560000000002711, -0.9647910528406679 
4.570000000002688, -0.9644312773249373 
4.580000000002665, -0.9638534600470887 
4.590000000002641, -0.9631258002154537 
4.600000000002618, -0.9623306708351118 
4.610000000002595, -0.9615669473741104 
4.620000000002571, -0.9609496872402055 
4.630000000002548, -0.960603799931797 
4.640000000002525, -0.9606503570521798 
4.6500000000025015, -0.9611880718284069 
4.660000000002478, -0.9622761869312058 
4.670000000002455, -0.9639255740775969 
4.6800000000024315, -0.9661012159421658 
4.690000000002408, -0.9687338712150524 
4.700000000002385, -0.9717354208808595 
4.710000000002362, -0.9750127343740553 
4.720000000002338, -0.9784774079553396 
4.730000000002315, -0.9820510611864472 
4.740000000002292, -0.9856668997569965 
4.750000000002268, -0.9892682819382648 
4.760000000002245, -0.9928048862172 
4.770000000002222, -0.9962273087698863 
4.7800000000021985, -0.9994815705406838 
4.790000000002175, -1.0025057314165522 
4.800000000002152, -1.0052309480635695 
4.810000000002129, -1.0075881818101213 
4.820000000002105, -1.0095192536447142 
4.830000000002082, -1.010988227308 
4.840000000002059, -1.011988289563339 
4.850000000002035, -1.0125415385817031 
4.860000000002012, -1.0126929974177112 
4.870000000001989, -1.0125029231009453 
4.880000000001965, -1.0120415314367996 
4.890000000001942, -1.0113882540169816 
4.900000000001919, -1.010635035457212 
4.9100000000018955, -1.009890826441243 
4.920000000001872, -1.0092827405572833 
4.930000000001849, -1.0089491777941535 
