t, s[1].omega / s[0].omega 
0, -0.6400272610401536 
0.009999999999999995, -0.6421904442784859 
0.019999999999999934, -0.6433825314614209 
0.029999999999999874, -0.6441601062151012 
0.04000000000000012, -0.6449615820735972 
0.050000000000000405, -0.6458736711650059 
0.06000000000000069, -0.6467963580780522 
0.07000000000000098, -0.6476168509852948 
0.08000000000000126, -0.6482716944591635 
0.09000000000000155, -0.6487421988780159 
0.10000000000000184, -0.6490331168073439 
0.11000000000000212, -0.649154809862082 
0.12000000000000241, -0.6491120939223876 
0.130000000000002, -0.6488979276006306 
0.1400000000000009, -0.648490294002996 
0.1499999999999998, -0.6478525158713024 
0.1599999999999987, -0.6469394244759181 
0.1699999999999976, -0.6457124975579616 
0.1799999999999965, -0.644163128676609 
0.1899999999999954, -0.6423336277269848 
0.1999999999999943, -0.6403189241173669 
0.2099999999999932, -0.6382417796219275 
0.2199999999999921, -0.6362160026951998 
0.229999999999991, -0.6343208536197853 
0.2399999999999899, -0.6325967392254507 
0.2499999999999888, -0.6310558808705186 
0.2599999999999877, -0.6296968478552728 
0.2699999999999866, -0.6285159231906021 
0.2799999999999855, -0.627513430529243 
0.2899999999999844, -0.6266959578838914 
0.2999999999999833, -0.6260760788346456 
0.3099999999999822, -0.6256708748021472 
0.3199999999999811, -0.6255001450522791 
0.32999999999998, -0.6255849306822632 
0.3399999999999789, -0.6259468011002121 
0.3499999999999778, -0.6266080994867076 
0.35999999999997667, -0.6275929132684 
0.36999999999997557, -0.6289278762996088 
0.37999999999997447, -0.6306409952697826 
0.38999999999997337, -0.6327556299253871 
0.39999999999997227, -0.6352761997860299 
0.40999999999997117, -0.6381640343848993 
0.41999999999997006, -0.6413091157200913 
0.42999999999996896, -0.64451659104493 
0.43999999999996786, -0.6475340733926302 
0.44999999999996676, -0.6501245536931937 
0.45999999999996566, -0.6521445219820394 
0.46999999999996456, -0.6535721878112091 
0.47999999999996346, -0.6544754324535658 
0.48999999999996235, -0.654956591409768 
0.49999999999996125, -0.6551103056122186 
0.5099999999999602, -0.655003702689377 
0.519999999999959, -0.6546711172961259 
0.529999999999958, -0.654113549220678 
0.5399999999999568, -0.6532964415722883 
0.5499999999999557, -0.6521418787270719 
0.5599999999999546, -0.6505115695064222 
0.5699999999999535, -0.6481754936278677 
0.5799999999999524, -0.644760300785674 
0.5899999999999513, -0.6396823562503384 
0.5999999999999502, -0.6321249170675085 
0.6099999999999491, -0.6212465439213763 
0.619999999999948, -0.6068424743003461 
0.6299999999999469, -0.5901386815499519 
0.6399999999999458, -0.5736173229377249 
0.6499999999999447, -0.5596119130781293 
0.6599999999999436, -0.5491578807328705 
0.6699999999999425, -0.5420600094552861 
0.6799999999999414, -0.5375602971979166 
0.6899999999999403, -0.5348553319907168 
0.6999999999999392, -0.5333065593029668 
0.7099999999999381, -0.5324678249120796 
0.719999999999937, -0.5320478822402313 
0.7299999999999359, -0.5318638235610009 
0.7399999999999348, -0.5318032789794809 
0.7499999999999337, -0.5317978772002091 
0.7599999999999326, -0.5318060474767424 
0.7699999999999315, -0.5318027823860423 
0.7799999999999304, -0.531774526425162 
0.7899999999999293, -0.5317177328827701 
0.7999999999999282, -0.5316393616162287 
0.8099999999999271, -0.5315568274902306 
0.819999999999926, -0.5314946860407995 
0.8299999999999249, -0.5314769047753167 
0.8399999999999238, -0.5315166657869937 
0.8499999999999227, -0.5316081825948634 
0.8599999999999216, -0.5317251164703963 
0.8699999999999205, -0.5318274712800292 
0.8799999999999194, -0.5318741746344028 
0.8899999999999183, -0.5318347784604667 
0.8999999999999172, -0.531694595717201 
0.9099999999999161, -0.5314527121092516 
0.919999999999915, -0.5311166397872344 
0.9299999999999139, -0.5306978000965117 
0.9399999999999128, -0.5302101429986241 
0.9499999999999117, -0.5296727296035495 
0.9599999999999106, -0.5291169380335445 
0.9699999999999095, -0.5285995505793436 
0.9799999999999084, -0.5282230523366983 
0.9899999999999073, -0.5281612390089523 
0.9999999999999062, -0.5286751409173023 
1.0099999999999052, -0.5300706608091204 
1.019999999999904, -0.5325009721043393 
1.029999999999903, -0.5355576206951799 
1.039999999999902, -0.5379682778547007 
1.0499999999999008, -0.5382009636466434 
1.0599999999998997, -0.5359039614677203 
1.0699999999998986, -0.5323057215834416 
1.0799999999998975, -0.5289414255802296 
1.0899999999998964, -0.5265719492209942 
1.0999999999998953, -0.5252126823400016 
1.1099999999998942, -0.5245772537134419 
1.119999999999893, -0.5243689103856946 
1.129999999999892, -0.5243737468353407 
1.1399999999998909, -0.5244599593699399 
1.1499999999998898, -0.5245527822076258 
1.1599999999998887, -0.5246111068092685 
1.1699999999998876, -0.5246113607770304 
1.1799999999998865, -0.524537976451019 
1.1899999999998854, -0.5243789588261468 
1.1999999999998843, -0.5241256249863098 
1.2099999999998832, -0.52377582687742 
1.219999999999882, -0.5233390497693471 
1.229999999999881, -0.5228399279218855 
1.2399999999998799, -0.5223159781206075 
1.2499999999998788, -0.5218081426049654 
1.2599999999998777, -0.5213479499066993 
1.2699999999998766, -0.5209479302901678 
1.2799999999998755, -0.5205998246464232 
1.2899999999998744, -0.5202805935343319 
1.2999999999998733, -0.5199625791038092 
1.3099999999998722, -0.5196228886745459 
1.319999999999871, -0.519248583850084 
1.32999999999987, -0.5188375069802336 
1.3399999999998689, -0.5183971127723181 
1.3499999999998678, -0.5179441505365079 
1.3599999999998666, -0.517507288164962 
1.3699999999998655, -0.5171341908199684 
1.3799999999998644, -0.5169047641255327 
1.3899999999998633, -0.5169530165079584 
1.3999999999998622, -0.517500417546627 
1.4099999999998611, -0.5189014432173824 
1.41999999999986, -0.5216911919779762 
1.429999999999859, -0.5265929678623302 
1.4399999999998578, -0.5343793333957556 
1.4499999999998567, -0.5454316814212914 
1.4599999999998556, -0.5590385547268285 
1.4699999999998545, -0.5731132815426548 
1.4799999999998534, -0.5852036966586361 
1.4899999999998523, -0.5940645150603441 
1.4999999999998512, -0.5999652653604199 
1.5099999999998501, -0.6037930152594403 
1.519999999999849, -0.6063136962404064 
1.529999999999848, -0.6080065539313273 
1.5399999999998468, -0.6091467012744962 
1.5499999999998457, -0.6098964770600263 
1.5599999999998446, -0.6103564779444594 
1.5699999999998435, -0.610589160710248 
1.5799999999998424, -0.6106294139376421 
1.5899999999998413, -0.6104893113957263 
1.5999999999998402, -0.6101602845819619 
1.6099999999998391, -0.6096150396303098 
1.619999999999838, -0.608812352463137 
1.629999999999837, -0.6077088748130339 
1.6399999999998358, -0.6062803310365447 
1.6499999999998347, -0.6045466993234835 
1.6599999999998336, -0.602585390148078 
1.6699999999998325, -0.6005171778654087 
1.6799999999998314, -0.5984694616030983 
1.6899999999998303, -0.5965407616133905 
1.6999999999998292, -0.594785976929426 
1.709999999999828, -0.5932225440954257 
1.719999999999827, -0.5918460072949705 
1.729999999999826, -0.5906448009646185 
1.7399999999998248, -0.5896099916605206 
1.7499999999998237, -0.5887400572132045 
1.7599999999998226, -0.5880423955427904 
1.7699999999998215, -0.5875332010842502 
1.7799999999998204, -0.5872367652831084 
1.7899999999998193, -0.5871847806337442 
1.7999999999998182, -0.5874159968832311 
1.809999999999817, -0.5879764649688055 
1.819999999999816, -0.5889203994523072 
1.8299999999998149, -0.5903111773885572 
1.8399999999998138, -0.5922209448351679 
1.8499999999998127, -0.594725528191744 
1.8599999999998116, -0.5978890400229653 
1.8699999999998105, -0.6017314427387149 
1.8799999999998094, -0.6061775483768742 
1.8899999999998083, -0.6110051973890054 
1.8999999999998072, -0.6158398423385233 
1.909999999999806, -0.6202432095401347 
1.919999999999805, -0.6238704344097062 
1.9299999999998039, -0.6265834525113294 
1.9399999999998028, -0.6284408911107071 
1.9499999999998017, -0.6296042980489259 
1.9599999999998006, -0.630247238130648 
1.9699999999997995, -0.6305074201971119 
1.9799999999997984, -0.6304737488399484 
1.9899999999997973, -0.6301880684073974 
1.9999999999997962, -0.6296476902860954 
2.0099999999998173, -0.6288016571183553 
2.0199999999998384, -0.6275365574517611 
2.0299999999998595, -0.6256483224172456 
2.0399999999998806, -0.6227995144129204 
2.0499999999999017, -0.6184776750974417 
2.059999999999923, -0.6120163633633575 
2.069999999999944, -0.6028062200373699 
2.079999999999965, -0.5907723582993499 
2.089999999999986, -0.5768283644592779 
2.100000000000007, -0.562695863226019 
2.1100000000000283, -0.5500508761749349 
2.1200000000000494, -0.5398137617425811 
2.1300000000000705, -0.5321024270831047 
2.1400000000000916, -0.5265733138126174 
2.1500000000001127, -0.5227442527542114 
2.160000000000134, -0.5201658532991235 
2.170000000000155, -0.5184783279186995 
2.180000000000176, -0.5174137181735976 
2.190000000000197, -0.5167799855084095 
2.2000000000002182, -0.5164427398217205 
2.2100000000002393, -0.5163097819098967 
2.2200000000002604, -0.5163194339798041 
2.2300000000002815, -0.5164323312529497 
2.2400000000003026, -0.5166260927038351 
2.2500000000003237, -0.5168922335154272 
2.260000000000345, -0.5172344374733224 
2.270000000000366, -0.517666773550316 
2.280000000000387, -0.5182098942288914 
2.290000000000408, -0.5188833612346659 
2.3000000000004293, -0.519693710962547 
2.3100000000004504, -0.5206209570494583 
2.3200000000004715, -0.5216102122849773 
2.3300000000004926, -0.5225769049921588 
2.3400000000005137, -0.5234283912710438 
2.3500000000005348, -0.5240919517868525 
2.360000000000556, -0.5245319293013596 
2.370000000000577, -0.5247475595956483 
2.380000000000598, -0.5247579324400811 
2.390000000000619, -0.5245855173999939 
2.4000000000006403, -0.5242444429766836 
2.4100000000006614, -0.5237333435441027 
2.4200000000006825, -0.5230296097732994 
2.4300000000007036, -0.5220810707147905 
2.4400000000007247, -0.5207900324179983 
2.450000000000746, -0.5189815939488043 
2.460000000000767, -0.5163438482717811 
2.470000000000788, -0.5123317771769189 
2.480000000000809, -0.5060775548091999 
2.49000000000083, -0.49650899495519746 
2.5000000000008513, -0.4830183839221823 
2.5100000000008724, -0.46650422731940244 
2.5200000000008935, -0.4494668854539162 
2.5300000000009146, -0.43450579599022177 
2.5400000000009357, -0.4229012268558063 
2.550000000000957, -0.414601669708144 
2.560000000000978, -0.4089365963559142 
2.570000000000999, -0.4051646549539642 
2.58000000000102, -0.40268883642850695 
2.5900000000010412, -0.4010849108770998 
2.6000000000010624, -0.4000681274367902 
2.6100000000010835, -0.3994527389834051 
2.6200000000011046, -0.39912006615487794 
2.6300000000011257, -0.39899663221251075 
2.6400000000011468, -0.3990402993892139 
2.650000000001168, -0.39923214490338427 
2.660000000001189, -0.39957234353937815 
2.67000000000121, -0.40007869645074 
2.680000000001231, -0.40078637646451687 
2.6900000000012523, -0.401746857261152 
2.7000000000012734, -0.4030228948836017 
2.7100000000012945, -0.4046751554288831 
2.7200000000013156, -0.40673603534201275 
2.7300000000013367, -0.4091714320464154 
2.740000000001358, -0.4118466320482813 
2.750000000001379, -0.4145307037964713 
2.7600000000014, -0.416962991832282 
2.770000000001421, -0.4189494526051091 
2.780000000001442, -0.42041745159143307 
2.7900000000014633, -0.4213985704591142 
2.8000000000014844, -0.42197409590273793 
2.8100000000015055, -0.42222779639183516 
2.8200000000015266, -0.4222212290379227 
2.8300000000015477, -0.42198515640837175 
2.840000000001569, -0.42151692779437766 
2.85000000000159, -0.4207775440135941 
2.860000000001611, -0.419686865180926 
2.870000000001632, -0.418121013282237 
2.8800000000016532, -0.41592453886833536 
2.8900000000016743, -0.4129581739788567 
2.9000000000016954, -0.40919206938048863 
2.9100000000017165, -0.40480079968116495 
2.9200000000017377, -0.4001606784859398 
2.9300000000017588, -0.3957080788030122 
2.94000000000178, -0.3917660324400981 
2.950000000001801, -0.3884716276458896 
2.960000000001822, -0.38581284475626687 
2.970000000001843, -0.38370206336700957 
2.9800000000018643, -0.38203321268558166 
2.9900000000018854, -0.3807117229539383 
3.0000000000019065, -0.3796654991084367 
3.0100000000019276, -0.3788465559281182 
3.0200000000019487, -0.3782295464756741 
3.03000000000197, -0.37781050972410657 
3.040000000001991, -0.3776075642821639 
3.050000000002012, -0.37766466587490816 
3.060000000002033, -0.37805958042983134 
3.070000000002054, -0.3789176259692028 
3.0800000000020753, -0.3804330972608238 
3.0900000000020964, -0.38289950451190874 
3.1000000000021175, -0.38674463267211695 
3.1100000000021386, -0.3925490660167493 
3.1200000000021597, -0.40098429519549256 
3.130000000002181, -0.4125441097399379 
3.140000000002202, -0.42697614008931534 
3.150000000002223, -0.44272442767736475 
3.160000000002244, -0.45727664328522044 
3.1700000000022652, -0.4686383483398098 
3.1800000000022863, -0.4763879040037775 
3.1900000000023074, -0.4812621689074913 
3.2000000000023285, -0.48423470642017274 
3.2100000000023496, -0.48604446064248996 
3.2200000000023707, -0.48714869090866675 
3.230000000002392, -0.4878091797031252 
3.240000000002413, -0.488172217698135 
3.250000000002434, -0.48831772004182794 
3.260000000002455, -0.48828566042729554 
3.2700000000024763, -0.4880899183810346 
3.2800000000024974, -0.4877264395685536 
3.2900000000025185, -0.487180494659513 
3.3000000000025396, -0.4864366389522757 
3.3100000000025607, -0.4854927661985676 
3.3200000000025818, -0.48437467592783207 
3.330000000002603, -0.48314195352337874 
3.340000000002624, -0.4818771449351608 
3.350000000002645, -0.48066167995658765 
3.360000000002666, -0.4795529630540786 
3.3700000000026873, -0.478574769907652 
3.3800000000027084, -0.47772182743155456 
3.3900000000027295, -0.47697188347942615 
3.4000000000027506, -0.47629827570956695 
3.4100000000027717, -0.47567902240008264 
3.420000000002793, -0.47510158899472 
3.430000000002814, -0.4745646631702239 
3.440000000002835, -0.4740791526791992 
3.450000000002856, -0.4736704622539799 
3.460000000002877, -0.4733836568761937 
3.4700000000028983, -0.47329299302684946 
3.4800000000029194, -0.47351764639104693 
3.4900000000029405, -0.4742459903436041 
3.5000000000029616, -0.4757705105377899 
3.5100000000029827, -0.4785315793279687 
3.520000000003004, -0.4831537171771639 
3.530000000003025, -0.4904193016212468 
3.540000000003046, -0.5010569596719174 
3.550000000003067, -0.5152036114621583 
3.5600000000030882, -0.5316953352423073 
3.5700000000031094, -0.5480202188676809 
3.5800000000031305, -0.5616252229325974 
3.5900000000031516, -0.5714289087218721 
3.6000000000031727, -0.5778702209756064 
3.6100000000031938, -0.5819454931727885 
3.620000000003215, -0.5845153230065991 
3.630000000003236, -0.5861450358904123 
3.640000000003257, -0.5871722646297179 
3.650000000003278, -0.5877948247815061 
3.6600000000032993, -0.588128194865518 
3.6700000000033204, -0.5882369476958448 
3.6800000000033415, -0.5881508274260686 
3.6900000000033626, -0.5878726304559568 
3.7000000000033837, -0.5873824130664927 
3.710000000003405, -0.5866420576311585 
3.720000000003426, -0.5856049779809264 
3.730000000003447, -0.5842352477579486 
3.740000000003468, -0.5825345964723289 
3.750000000003489, -0.5805639458937344 
3.7600000000035103, -0.5784399560636273 
3.7700000000035314, -0.5763016765693149 
3.7800000000035525, -0.5742679796608414 
3.7900000000035736, -0.5724123196456572 
3.8000000000035947, -0.5707626956940721 
3.810000000003616, -0.5693167292305084 
3.820000000003637, -0.5680590057959953 
3.830000000003658, -0.566973821790597 
3.840000000003679, -0.5660522142678247 
3.8500000000037002, -0.5652948355553928 
3.8600000000037213, -0.5647126400964197 
3.8700000000037424, -0.5643267971430621 
3.8800000000037635, -0.5641686032940306 
3.8900000000037847, -0.5642797799523784 
3.9000000000038058, -0.564713375406187 
3.910000000003827, -0.5655353579307623 
3.920000000003848, -0.5668266301858214 
3.930000000003869, -0.5686842952551624 
3.94000000000389, -0.5712191551459089 
3.9500000000039113, -0.5745433342008947 
3.9600000000039324, -0.5787384448392807 
3.9700000000039535, -0.583795576506024 
3.9800000000039746, -0.5895350073711363 
3.9900000000039957, -0.59555462556375 
4.000000000004016, -0.6012896874059368 
4.010000000003993, -0.6062077260799223 
4.02000000000397, -0.6100139708330772 
4.030000000003946, -0.6127043924346579 
4.040000000003923, -0.6144617968286056 
4.0500000000039, -0.6155187184287104 
4.0600000000038765, -0.616073893848144 
4.070000000003853, -0.6162657141932957 
4.08000000000383, -0.6161740239912804 
4.090000000003807, -0.61582785135243 
4.100000000003783, -0.615208466776349 
4.11000000000376, -0.6142434991374295 
4.120000000003737, -0.6127901102380622 
4.130000000003713, -0.6106081109107921 
4.14000000000369, -0.6073346842936721 
4.150000000003667, -0.6025004521380664 
4.1600000000036434, -0.5956639642133487 
4.17000000000362, -0.5867122211625395 
4.180000000003597, -0.5761694691511156 
4.1900000000035735, -0.5651507681513833 
4.20000000000355, -0.5548674191359401 
4.210000000003527, -0.5461201943781676 
4.220000000003504, -0.5391679995903286 
4.23000000000348, -0.5338942243664456 
4.240000000003457, -0.5300209546510487 
4.250000000003434, -0.5272472037790653 
4.26000000000341, -0.5253093848389401 
4.270000000003387, -0.5239969938221217 
4.280000000003364, -0.5231494205895884 
4.2900000000033405, -0.5226472698885253 
4.300000000003317, -0.522403605809505 
4.310000000003294, -0.5223567914952041 
4.320000000003271, -0.5224651755104087 
4.330000000003247, -0.5227034581947547 
4.340000000003224, -0.5230604458471247 
4.350000000003201, -0.5235376906605996 
4.360000000003177, -0.5241480376305574 
4.370000000003154, -0.5249124200058064 
4.380000000003131, -0.5258528011110972 
4.390000000003107, -0.5269797687610466 
4.400000000003084, -0.5282759436527326 
4.410000000003061, -0.5296815383335091 
4.4200000000030375, -0.5310936326847397 
4.430000000003014, -0.5323882136067778 
4.440000000002991, -0.5334581440759603 
4.450000000002968, -0.5342436783072388 
4.460000000002944, -0.5347369572543486 
4.470000000002921, -0.5349640862834979 
4.480000000002898, -0.5349614695646636 
4.490000000002874, -0.5347581518890588 
4.500000000002851, -0.5343657394335463 
4.510000000002828, -0.5337719999556664 
4.520000000002804, -0.532933178926034 
4.530000000002781, -0.5317598925982765 
4.540000000002758, -0.530090108285842 
4.5500000000027345, -0.5276407753549892 
4.560000000002711, -0.523934251454796 
4.570000000002688, -0.5182315988802536 
4.580000000002665, -0.5096126555620833 
4.590000000002641, -0.4974569110191351 
4.600000000002618, -0.4822867976226532 
4.610000000002595, -0.466072453209724 
4.620000000002571, -0.45121391922672094 
4.630000000002548, -0.43919775349701806 
4.640000000002525, -0.4302808756696514 
4.6500000000025015, -0.42399822539792603 
4.660000000002478, -0.4196965165288071 
4.670000000002455, -0.41679844173112846 
4.6800000000024315, -0.4148707976018918 
4.690000000002408, -0.41361152438948035 
4.700000000002385, -0.41281747938238283 
4.710000000002362, -0.4123551022098231 
4.720000000002338, -0.41213888410070654 
4.730000000002315, -0.41211703473016126 
4.740000000002292, -0.4122626534693169 
4.750000000002268, -0.4125689005168061 
4.760000000002245, -0.41304697406081575 
4.770000000002222, -0.4137257114548752 
4.7800000000021985, -0.4146511616078543 
4.790000000002175, -0.41588345874679583 
4.800000000002152, -0.41748691141741734 
4.810000000002129, -0.4195083009724513 
4.820000000002105, -0.42194104417040645 
4.830000000002082, -0.42468475485324364 
4.840000000002059, -0.42753034529922085 
4.850000000002035, -0.43020562083708647 
4.860000000002012, -0.4324726467358596 
4.870000000001989, -0.43420882904018177 
4.880000000001965, -0.43541497389763784 
4.890000000001942, -0.43616576591991213 
4.900000000001919, -0.4365536484984685 
4.9100000000018955, -0.4366545475584432 
