t, s[1].omega / s[0].omega 
0, -0.9198968993085795 
0.009999999999999995, -0.9092956751766135 
0.019999999999999934, -0.8988782467824195 
0.029999999999999874, -0.8896860896267104 
0.04000000000000012, -0.8824110654590319 
0.050000000000000405, -0.8772714321757155 
0.06000000000000069, -0.8740665545769872 
0.07000000000000098, -0.8723450797034571 
0.08000000000000126, -0.8715956021461947 
0.09000000000000155, -0.87138284045096 
0.10000000000000184, -0.8714008469515491 
0.11000000000000212, -0.8714626032575674 
0.12000000000000241, -0.8714622098272453 
0.130000000000002, -0.8713359947433762 
0.1400000000000009, -0.8710329913804381 
0.1499999999999998, -0.8704959067895797 
0.1599999999999987, -0.8696520580958049 
0.1699999999999976, -0.8684162385361007 
0.1799999999999965, -0.8667090880138145 
0.1899999999999954, -0.8644893956596684 
0.1999999999999943, -0.8617857765108115 
0.2099999999999932, -0.8587051044649863 
0.2199999999999921, -0.8554084437916412 
0.229999999999991, -0.8520708236210945 
0.2399999999999899, -0.848849774599754 
0.2499999999999888, -0.8458729071388422 
0.2599999999999877, -0.8432381128793747 
0.2699999999999866, -0.8410156218006508 
0.2799999999999855, -0.8392460829469078 
0.2899999999999844, -0.83793553051718 
0.2999999999999833, -0.83705229713054 
0.3099999999999822, -0.8365309423083614 
0.3199999999999811, -0.8362842420851276 
0.32999999999998, -0.8362191143320897 
0.3399999999999789, -0.8362501737619461 
0.3499999999999778, -0.8363068924487693 
0.35999999999997667, -0.8363345987184969 
0.36999999999997557, -0.8362924362308453 
0.37999999999997447, -0.8361516543221089 
0.38999999999997337, -0.835895788084879 
0.39999999999997227, -0.8355216370140137 
0.40999999999997117, -0.8350382544669994 
0.41999999999997006, -0.8344622701243247 
0.42999999999996896, -0.8338113129120233 
0.43999999999996786, -0.8330995591032488 
0.44999999999996676, -0.8323379322524044 
0.45999999999996566, -0.8315379927319049 
0.46999999999996456, -0.8307166301734865 
0.47999999999996346, -0.8298993638568637 
0.48999999999996235, -0.8291215759500071 
0.49999999999996125, -0.8284275813434535 
0.5099999999999602, -0.8278671921150886 
0.519999999999959, -0.8274895789148227 
0.529999999999958, -0.8273353680157622 
0.5399999999999568, -0.8274293138846248 
0.5499999999999557, -0.8277762314567193 
0.5599999999999546, -0.8283616217053211 
0.5699999999999535, -0.8291563562707334 
0.5799999999999524, -0.830123165755478 
0.5899999999999513, -0.8312221906482481 
0.5999999999999502, -0.8324134113293005 
0.6099999999999491, -0.8336550380482176 
0.619999999999948, -0.834898863292491 
0.6299999999999469, -0.8360860933434416 
0.6399999999999458, -0.8371489426587525 
0.6499999999999447, -0.8380213279633925 
0.6599999999999436, -0.8386551651819634 
0.6699999999999425, -0.8390324289206659 
0.6799999999999414, -0.8391653153806322 
0.6899999999999403, -0.8390863699754781 
0.6999999999999392, -0.8388370743293446 
0.7099999999999381, -0.8384621427178391 
0.719999999999937, -0.8380121207227289 
0.7299999999999359, -0.8375536564253483 
0.7399999999999348, -0.8371850813189645 
0.7499999999999337, -0.837052481074935 
0.7599999999999326, -0.8373575993033258 
0.7699999999999315, -0.8383466405345879 
0.7799999999999304, -0.8402733981418233 
0.7899999999999293, -0.8433420037556469 
0.7999999999999282, -0.8476456940146934 
0.8099999999999271, -0.8531182957851003 
0.819999999999926, -0.8595073958009086 
0.8299999999999249, -0.8663772662548223 
0.8399999999999238, -0.8731607535788681 
0.8499999999999227, -0.8792785932722482 
0.8599999999999216, -0.8842996059908433 
0.8699999999999205, -0.888053511728652 
0.8799999999999194, -0.890621537114461 
0.8899999999999183, -0.8922287166708467 
0.8999999999999172, -0.8931262847072683 
0.9099999999999161, -0.893522386612883 
0.919999999999915, -0.8935621667442666 
0.9299999999999139, -0.8933345155425527 
0.9399999999999128, -0.8928879129162566 
0.9499999999999117, -0.8922498690620639 
0.9599999999999106, -0.8914541742388371 
0.9699999999999095, -0.890587148060033 
0.9799999999999084, -0.8898666146824128 
0.9899999999999073, -0.8897552560213633 
0.9999999999999062, -0.8910651307841819 
1.0099999999999052, -0.894930534245954 
1.019999999999904, -0.9024798516632023 
1.029999999999903, -0.9141724698264282 
1.039999999999902, -0.9291473193367228 
1.0499999999999008, -0.9452353814878762 
1.0599999999998997, -0.9599125441926353 
1.0699999999998986, -0.9715026804647373 
1.0799999999998975, -0.9796392924296089 
1.0899999999998964, -0.9848654232472651 
1.0999999999998953, -0.9880048264828147 
1.1099999999998942, -0.9897763254695902 
1.119999999999893, -0.9906826298424395 
1.129999999999892, -0.9910343856537158 
1.1399999999998909, -0.9910054443310388 
1.1499999999998898, -0.9906790298383085 
1.1599999999998887, -0.9900792368636765 
1.1699999999998876, -0.9891962581002615 
1.1799999999998865, -0.9880226154954397 
1.1899999999998854, -0.9866292666826493 
1.1999999999998843, -0.9853176371643464 
1.2099999999998832, -0.9848477519606854 
1.219999999999882, -0.9865979857582163 
1.229999999999881, -0.9922959534378636 
1.2399999999998799, -1.0030391232460683 
1.2499999999998788, -1.0181015262647894 
1.2599999999998777, -1.0348121439045566 
1.2699999999998766, -1.0500129406056518 
1.2799999999998755, -1.0617592759400272 
1.2899999999998744, -1.0697671048853912 
1.2999999999998733, -1.0747515878191536 
1.3099999999998722, -1.0776483440204554 
1.319999999999871, -1.0792173196026726 
1.32999999999987, -1.0799640051594475 
1.3399999999998689, -1.0801886259728397 
1.3499999999998678, -1.0800539042505497 
1.3599999999998666, -1.0796384381510467 
1.3699999999998655, -1.0789786180140464 
1.3799999999998644, -1.078117099581877 
1.3899999999998633, -1.0771843604521782 
1.3999999999998622, -1.0765321392370502 
1.4099999999998611, -1.0768738240733597 
1.41999999999986, -1.0792514754599953 
1.429999999999859, -1.0846118399049278 
1.4399999999998578, -1.0931216084910003 
1.4499999999998567, -1.1038238434176866 
1.4599999999998556, -1.1150353771794537 
1.4699999999998545, -1.1251420819494555 
1.4799999999998534, -1.1331762944641133 
1.4899999999998523, -1.1389200025813104 
1.4999999999998512, -1.1426692058170596 
1.5099999999998501, -1.1449174179224546 
1.519999999999849, -1.1461334389346316 
1.529999999999848, -1.146670286810107 
1.5399999999998468, -1.1467610524716574 
1.5499999999998457, -1.1465504955145946 
1.5599999999998446, -1.1461359112339893 
1.5699999999998435, -1.1456123372898122 
1.5799999999998424, -1.145122757164563 
1.5899999999998413, -1.1448979047542112 
1.5999999999998402, -1.1452401063830564 
1.6099999999998391, -1.146412514777573 
1.619999999999838, -1.14848887558007 
1.629999999999837, -1.1512990694596643 
1.6399999999998358, -1.154518314126598 
1.6499999999998347, -1.1578035643803601 
1.6599999999998336, -1.1608780978856568 
1.6699999999998325, -1.163552694441317 
1.6799999999998314, -1.1657176216327685 
1.6899999999998303, -1.1673311515434945 
1.6999999999998292, -1.1684092354030933 
1.709999999999828, -1.1690110888944667 
1.719999999999827, -1.1692193345251893 
1.729999999999826, -1.169121239822417 
1.7399999999998248, -1.168799186519538 
1.7499999999998237, -1.168333274900604 
1.7599999999998226, -1.1678118287220345 
1.7699999999998215, -1.167338828514025 
1.7799999999998204, -1.1670244140900548 
1.7899999999998193, -1.1669549574407152 
1.7999999999998182, -1.1671614629223446 
1.809999999999817, -1.1676117643819317 
1.819999999999816, -1.168229252201882 
1.8299999999998149, -1.168920125527644 
1.8399999999998138, -1.1695946639448391 
1.8499999999998127, -1.1701790222981303 
1.8599999999998116, -1.1706188955633758 
1.8699999999998105, -1.170877937508457 
1.8799999999998094, -1.1709342453533444 
1.8899999999998083, -1.170777254839804 
1.8999999999998072, -1.1704060837995558 
1.909999999999806, -1.1698295281261495 
1.919999999999805, -1.1690674477001548 
1.9299999999998039, -1.168153148258898 
1.9399999999998028, -1.1671361523744688 
1.9499999999998017, -1.1660835981811573 
1.9599999999998006, -1.1650771170168062 
1.9699999999997995, -1.1642026987188907 
1.9799999999997984, -1.1635336278992896 
1.9899999999997973, -1.1631091997648175 
1.9999999999997962, -1.1629170436818155 
2.0099999999998173, -1.1628924411433312 
2.0199999999998384, -1.1629395424322264 
2.0299999999998595, -1.1629594354174693 
2.0399999999998806, -1.1628656497664362 
2.0499999999999017, -1.1625834945909201 
2.059999999999923, -1.1620431384341752 
2.069999999999944, -1.1611770026971346 
2.079999999999965, -1.1599258170105005 
2.089999999999986, -1.1582507218020246 
2.100000000000007, -1.1561448554883973 
2.1100000000000283, -1.1536400657188461 
2.1200000000000494, -1.1508108076036814 
2.1300000000000705, -1.147780419591989 
2.1400000000000916, -1.1447295944062374 
2.1500000000001127, -1.1418943616412904 
2.160000000000134, -1.139529768424964 
2.170000000000155, -1.137826922532422 
2.180000000000176, -1.1368219482710185 
2.190000000000197, -1.1363771532700837 
2.2000000000002182, -1.1362611036234394 
2.2100000000002393, -1.136253854338182 
2.2200000000002604, -1.1361974945734157 
2.2300000000002815, -1.1359856379322137 
2.2400000000003026, -1.1355265213422863 
2.2500000000003237, -1.1347047360907705 
2.260000000000345, -1.1333496821828573 
2.270000000000366, -1.131216680910784 
2.280000000000387, -1.1279965008946269 
2.290000000000408, -1.1233772647595281 
2.3000000000004293, -1.1171695302481992 
2.3100000000004504, -1.1094638443228826 
2.3200000000004715, -1.100748543005362 
2.3300000000004926, -1.0919061988329533 
2.3400000000005137, -1.0840251965308467 
2.3500000000005348, -1.0780280639980988 
2.360000000000556, -1.0742831038330896 
2.370000000000577, -1.0724955889867007 
2.380000000000598, -1.0719830294203274 
2.390000000000619, -1.0720716307441125 
2.4000000000006403, -1.0723108374549777 
2.4100000000006614, -1.0724708763802155 
2.4200000000006825, -1.0724514381295136 
2.4300000000007036, -1.072196474623421 
2.4400000000007247, -1.0716363737949355 
2.450000000000746, -1.0706450353282733 
2.460000000000767, -1.0689965028524822 
2.470000000000788, -1.0663165659389404 
2.480000000000809, -1.0620493963284452 
2.49000000000083, -1.0555036884723883 
2.5000000000008513, -1.0460816950461074 
2.5100000000008724, -1.0337301677984931 
2.5200000000008935, -1.0193959890678297 
2.5300000000009146, -1.0050167157703451 
2.5400000000009357, -0.992789710383972 
2.550000000000957, -0.9841443948259441 
2.560000000000978, -0.9792107812721363 
2.570000000000999, -0.9771124153957688 
2.58000000000102, -0.9766734381266711 
2.5900000000010412, -0.9769519802840811 
2.6000000000010624, -0.9773923200507234 
2.6100000000010835, -0.9777381339891198 
2.6200000000011046, -0.9778954102816891 
2.6300000000011257, -0.9778312017031521 
2.6400000000011468, -0.9775148650379096 
2.650000000001168, -0.9768830301767183 
2.660000000001189, -0.9758108158223523 
2.67000000000121, -0.9740801092560598 
2.680000000001231, -0.9713484638412678 
2.6900000000012523, -0.9671448976511419 
2.7000000000012734, -0.960949147848097 
2.7100000000012945, -0.9524108031596674 
2.7200000000013156, -0.9416656606383059 
2.7300000000013367, -0.9295350447374379 
2.740000000001358, -0.9173738906270918 
2.750000000001379, -0.9065965960400098 
2.7600000000014, -0.8981797966097436 
2.770000000001421, -0.89242146696904 
2.780000000001442, -0.8890190528424988 
2.7900000000014633, -0.8873438774045355 
2.8000000000014844, -0.8867296028418938 
2.8100000000015055, -0.8866494141283287 
2.8200000000015266, -0.8867619585057834 
2.8300000000015477, -0.8868764838668124 
2.840000000001569, -0.8868946456540927 
2.85000000000159, -0.8867604171648742 
2.860000000001611, -0.886425529658909 
2.870000000001632, -0.8858274588230343 
2.8800000000016532, -0.8848768734719752 
2.8900000000016743, -0.8834563943196516 
2.9000000000016954, -0.8814378250691952 
2.9100000000017165, -0.8787234416417261 
2.9200000000017377, -0.8753009352483806 
2.9300000000017588, -0.871279568909863 
2.94000000000178, -0.8668771301251338 
2.950000000001801, -0.8623640823430427 
2.960000000001822, -0.8580027434874365 
2.970000000001843, -0.8540104525318453 
2.9800000000018643, -0.8505469822955343 
2.9900000000018854, -0.8477119350548534 
3.0000000000019065, -0.845542411858452 
3.0100000000019276, -0.8440118660661181 
3.0200000000019487, -0.8430367827386045 
3.03000000000197, -0.8424949558988508 
3.040000000001991, -0.8422510919933801 
3.050000000002012, -0.8421800296712956 
3.060000000002033, -0.8421798343046486 
3.070000000002054, -0.8421736587839547 
3.0800000000020753, -0.8421046209375358 
3.0900000000020964, -0.8419293617417866 
3.1000000000021175, -0.8416145576892784 
3.1100000000021386, -0.8411380824184764 
3.1200000000021597, -0.8404932838064934 
3.130000000002181, -0.839691952037193 
3.140000000002202, -0.8387616477009082 
3.150000000002223, -0.8377374499859057 
3.160000000002244, -0.8366531174543882 
3.1700000000022652, -0.8355369022025796 
3.1800000000022863, -0.8344131042918033 
3.1900000000023074, -0.8333066424801133 
3.2000000000023285, -0.8322472278544344 
3.2100000000023496, -0.8312710699398789 
3.2200000000023707, -0.8304194088940262 
3.230000000002392, -0.8297339908160524 
3.240000000002413, -0.8292504030433785 
3.250000000002434, -0.8289911394281392 
3.260000000002455, -0.8289607789248727 
3.2700000000024763, -0.8291451112498306 
3.2800000000024974, -0.8295145328096476 
3.2900000000025185, -0.8300303593037095 
3.3000000000025396, -0.83065174708652 
3.3100000000025607, -0.8313410423509984 
3.3200000000025818, -0.8320662042067252 
3.330000000002603, -0.8327998551410936 
3.340000000002624, -0.8335154351287557 
3.350000000002645, -0.8341823259538685 
3.360000000002666, -0.8347634018012083 
3.3700000000026873, -0.8352183921029933 
3.3800000000027084, -0.8355129849757944 
3.3900000000027295, -0.8356286549571088 
3.4000000000027506, -0.8355670363696296 
3.4100000000027717, -0.8353473103038878 
3.420000000002793, -0.8350006658833031 
3.430000000002814, -0.834567190904046 
3.440000000002835, -0.8340979747280253 
3.450000000002856, -0.8336619046656442 
3.460000000002877, -0.8333539469865288 
3.4700000000028983, -0.8332995341201908 
3.4800000000029194, -0.8336489453055075 
3.4900000000029405, -0.8345584198138937 
3.5000000000029616, -0.8361614630225013 
3.5100000000029827, -0.8385399276508718 
3.520000000003004, -0.8417039107139003 
3.530000000003025, -0.8455821918533102 
3.540000000003046, -0.8500184179396637 
3.550000000003067, -0.8547705163228059 
3.5600000000030882, -0.8595222571555909 
3.5700000000031094, -0.8639250708879139 
3.5800000000031305, -0.8676756264170354 
3.5900000000031516, -0.8705974476213679 
3.6000000000031727, -0.8726731965406136 
3.6100000000031938, -0.8740080062324477 
3.620000000003215, -0.8747586334083012 
3.630000000003236, -0.8750749555999396 
3.640000000003257, -0.8750722957857413 
3.650000000003278, -0.8748281186598306 
3.6600000000032993, -0.8743916672560607 
3.6700000000033204, -0.8738011879008696 
3.6800000000033415, -0.8731108934157037 
3.6900000000033626, -0.8724349069025836 
3.7000000000033837, -0.8720146671037645 
3.710000000003405, -0.8723020136342587 
3.720000000003426, -0.8740144813528202 
3.730000000003447, -0.8780730108925086 
3.740000000003468, -0.8853269844643036 
3.750000000003489, -0.8960788163892467 
3.7600000000035103, -0.9096401155506768 
3.7700000000035314, -0.9243143106836381 
3.7800000000035525, -0.9380171877759343 
3.7900000000035736, -0.949185795529317 
3.8000000000035947, -0.9572852263054547 
3.810000000003616, -0.9626374929557795 
3.820000000003637, -0.9659283501628437 
3.830000000003658, -0.9678244899539848 
3.840000000003679, -0.9688218580547021 
3.8500000000037002, -0.9692399240688833 
3.8600000000037213, -0.9692641689458193 
3.8700000000037424, -0.9689888224547785 
3.8800000000037635, -0.9684480884618564 
3.8900000000037847, -0.9676405673679263 
3.9000000000038058, -0.9665605472063307 
3.910000000003827, -0.9652597431971881 
3.920000000003848, -0.9639712871158892 
3.930000000003869, -0.9633082723721967 
3.94000000000389, -0.9644477234878577 
3.9500000000039113, -0.9690203002271724 
3.9600000000039324, -0.9783773599901222 
3.9700000000039535, -0.9924195337925179 
3.9800000000039746, -1.009036648598118 
3.9900000000039957, -1.0250746213943278 
4.000000000004016, -1.0381061831364904 
4.010000000003993, -1.0473473437797205 
4.02000000000397, -1.0532752581015756 
4.030000000003946, -1.0568106827781178 
4.040000000003923, -1.0587887380084753 
4.0500000000039, -1.0597966225735114 
4.0600000000038765, -1.06019579495942 
4.070000000003853, -1.06018861592085 
4.08000000000383, -1.0598757421484604 
4.090000000003807, -1.0592976362098316 
4.100000000003783, -1.0584725550815368 
4.11000000000376, -1.0574543838887813 
4.120000000003737, -1.0564411055625365 
4.130000000003713, -1.0559447826839912 
4.14000000000369, -1.056933912448883 
4.150000000003667, -1.060692987565576 
4.1600000000036434, -1.0681811648259922 
4.17000000000362, -1.0792001229384254 
4.180000000003597, -1.0921783564353391 
4.1900000000035735, -1.1049148028582163 
4.20000000000355, -1.1156474344441885 
4.210000000003527, -1.1236216148875138 
4.220000000003504, -1.1289704536283653 
4.23000000000348, -1.1322675837715426 
4.240000000003457, -1.1341409666774456 
4.250000000003434, -1.1350876558306864 
4.26000000000341, -1.135441097589983 
4.270000000003387, -1.1354042753798406 
4.280000000003364, -1.1350969656747272 
4.2900000000033405, -1.1346026788765295 
4.300000000003317, -1.1340202451451984 
4.310000000003294, -1.133524864797179 
4.320000000003271, -1.133417391626166 
4.330000000003247, -1.134097026216048 
4.340000000003224, -1.135903496923647 
4.350000000003201, -1.1389090981404233 
4.360000000003177, -1.1428501488727423 
4.370000000003154, -1.1472579727625052 
4.380000000003131, -1.1516503320530467 
4.390000000003107, -1.155649212773631 
4.400000000003084, -1.1590131908601715 
4.410000000003061, -1.1616295288106997 
4.4200000000030375, -1.163494368661405 
4.430000000003014, -1.1646842343709394 
4.440000000002991, -1.165319111325564 
4.450000000002968, -1.1655267955835522 
4.460000000002944, -1.1654207145414082 
4.470000000002921, -1.1650960648523563 
4.480000000002898, -1.1646410689658462 
4.490000000002874, -1.1641550322283387 
4.500000000002851, -1.1637592217576147 
4.510000000002828, -1.1635833402782543 
4.520000000002804, -1.1637243960265606 
4.530000000002781, -1.164205527082491 
4.540000000002758, -1.1649702746135573 
4.5500000000027345, -1.1659133010587115 
4.560000000002711, -1.1669187820106934 
4.570000000002688, -1.1678853385196066 
4.580000000002665, -1.168735520788092 
4.590000000002641, -1.169415560193681 
4.600000000002618, -1.1698909527441186 
4.610000000002595, -1.1701418348746655 
4.620000000002571, -1.1701602803560003 
4.630000000002548, -1.1699497496077407 
4.640000000002525, -1.169525626055336 
4.6500000000025015, -1.1689158961631292 
4.660000000002478, -1.1681621580498334 
4.670000000002455, -1.1673211408215278 
4.6800000000024315, -1.1664646101773677 
4.690000000002408, -1.1656735534154827 
4.700000000002385, -1.1650249277063396 
4.710000000002362, -1.1645745352349821 
4.720000000002338, -1.1643416279861636 
4.730000000002315, -1.164300534777509 
4.740000000002292, -1.1643854403925844 
4.750000000002268, -1.1645090502727942 
4.760000000002245, -1.164584076837397 
4.770000000002222, -1.1645348712610335 
4.7800000000021985, -1.1642979022958606 
4.790000000002175, -1.1638187668658024 
4.800000000002152, -1.163052576359203 
4.810000000002129, -1.1619687137461605 
4.820000000002105, -1.1605564308644623 
4.830000000002082, -1.1588279432151982 
4.840000000002059, -1.1568196125230386 
4.850000000002035, -1.1545947692185647 
4.860000000002012, -1.1522502668491197 
4.870000000001989, -1.1499235334831361 
4.880000000001965, -1.147789581795601 
4.890000000001942, -1.1460321225340704 
4.900000000001919, -1.1447825954507738 
4.9100000000018955, -1.1440562490367454 
4.920000000001872, -1.143741235918597 
4.930000000001849, -1.143657303802256 
