t, s[1].omega / s[0].omega 
0, -0.7699976645048898 
0.009999999999999995, -0.7697440672759482 
0.019999999999999934, -0.7694451557189682 
0.029999999999999874, -0.7690878856187205 
0.04000000000000012, -0.7686604780545558 
0.050000000000000405, -0.7681607345567842 
0.06000000000000069, -0.7676005282553362 
0.07000000000000098, -0.7670070333806392 
0.08000000000000126, -0.7664232866095293 
0.09000000000000155, -0.7659095514645182 
0.10000000000000184, -0.7655445128948342 
0.11000000000000212, -0.7654236959513038 
0.12000000000000241, -0.7656528395905249 
0.130000000000002, -0.7663363442929418 
0.1400000000000009, -0.7675640001247034 
0.1499999999999998, -0.7694005510269428 
0.1599999999999987, -0.7718806717132463 
0.1699999999999976, -0.7750075689934769 
0.1799999999999965, -0.7787494282229454 
0.1899999999999954, -0.7830270883814323 
0.1999999999999943, -0.7876912328337451 
0.2099999999999932, -0.7925003398693901 
0.2199999999999921, -0.7971276608642788 
0.229999999999991, -0.8012253530274436 
0.2399999999999899, -0.8045316353832543 
0.2499999999999888, -0.8069510706321124 
0.2599999999999877, -0.8085488834655831 
0.2699999999999866, -0.809477998154667 
0.2799999999999855, -0.8099020194678379 
0.2899999999999844, -0.8099518742625392 
0.2999999999999833, -0.8097148884987778 
0.3099999999999822, -0.8092418418167602 
0.3199999999999811, -0.8085632952259955 
0.32999999999998, -0.8077168104043609 
0.3399999999999789, -0.806796622654327 
0.3499999999999778, -0.8060458258830818 
0.35999999999997667, -0.8060113924107014 
0.36999999999997557, -0.807753249515528 
0.37999999999997447, -0.8130050362112833 
0.38999999999997337, -0.8240140849150921 
0.39999999999997227, -0.8426691663402295 
0.40999999999997117, -0.8688733218487291 
0.41999999999997006, -0.899298249896179 
0.42999999999996896, -0.9284445100238659 
0.43999999999996786, -0.9518114699172584 
0.44999999999996676, -0.968007413367979 
0.45999999999996566, -0.9781225528053111 
0.46999999999996456, -0.9840288800619307 
0.47999999999996346, -0.9873227400673864 
0.48999999999996235, -0.9890674266114212 
0.49999999999996125, -0.9898892781409163 
0.5099999999999602, -0.990128354901848 
0.519999999999959, -0.9899486412668722 
0.529999999999958, -0.9894013877742264 
0.5399999999999568, -0.9884573157280743 
0.5499999999999557, -0.9870287166614304 
0.5599999999999546, -0.9850159098323428 
0.5699999999999535, -0.9824467984649662 
0.5799999999999524, -0.9798202150194157 
0.5899999999999513, -0.9787041226757637 
0.5999999999999502, -0.9822255873616053 
0.6099999999999491, -0.9943323967250887 
0.619999999999948, -1.0169098712278504 
0.6299999999999469, -1.046709351327609 
0.6399999999999458, -1.07648089314014 
0.6499999999999447, -1.1001575477751149 
0.6599999999999436, -1.1160277399556482 
0.6699999999999425, -1.1255158494094166 
0.6799999999999414, -1.1307981142879417 
0.6899999999999403, -1.1335882368829102 
0.6999999999999392, -1.1349546759575202 
0.7099999999999381, -1.1354914317669966 
0.719999999999937, -1.1355036576834703 
0.7299999999999359, -1.135132324444649 
0.7399999999999348, -1.134434125745726 
0.7499999999999337, -1.1334571346712434 
0.7599999999999326, -1.1323666619604704 
0.7699999999999315, -1.1316681209350359 
0.7799999999999304, -1.1324504902887564 
0.7899999999999293, -1.1362804866506466 
0.7999999999999282, -1.1443506396567193 
0.8099999999999271, -1.1563780152598475 
0.819999999999926, -1.1705038865895014 
0.8299999999999249, -1.1843631790796834 
0.8399999999999238, -1.1961857001787493 
0.8499999999999227, -1.205190009454525 
0.8599999999999216, -1.2114166393429926 
0.8699999999999205, -1.2153638615052578 
0.8799999999999194, -1.2176543548261214 
0.8899999999999183, -1.2188313021749575 
0.8999999999999172, -1.219287553777121 
0.9099999999999161, -1.2192785659776162 
0.919999999999915, -1.2189698985399355 
0.9299999999999139, -1.2184947950834637 
0.9399999999999128, -1.2180118646802478 
0.9499999999999117, -1.21774002650834 
0.9599999999999106, -1.2179245683718867 
0.9699999999999095, -1.2187228424659864 
0.9799999999999084, -1.2201053090541938 
0.9899999999999073, -1.2218806303647363 
0.9999999999999062, -1.223808204833056 
1.0099999999999052, -1.2256864207102167 
1.019999999999904, -1.2273781243429691 
1.029999999999903, -1.2288005425072097 
1.039999999999902, -1.2299078927072915 
1.0499999999999008, -1.2306782246182146 
1.0599999999998997, -1.2311068946853498 
1.0699999999998986, -1.231204985114552 
1.0799999999998975, -1.2309991143071866 
1.0899999999998964, -1.2305304374109147 
1.0999999999998953, -1.2298540187677807 
1.1099999999998942, -1.22904039950888 
1.119999999999893, -1.2281766565443042 
1.129999999999892, -1.2273599632228946 
1.1399999999998909, -1.2266814486966393 
1.1499999999998898, -1.2262079551779836 
1.1599999999998887, -1.2259675134514907 
1.1699999999998876, -1.2259375284619025 
1.1799999999998865, -1.2260433302607319 
1.1899999999998854, -1.2261777976457011 
1.1999999999998843, -1.2262304963745385 
1.2099999999998832, -1.2261036559130871 
1.219999999999882, -1.2257106548516226 
1.229999999999881, -1.2249698283533732 
1.2399999999998799, -1.2238052387428489 
1.2499999999998788, -1.2221559362320735 
1.2599999999998777, -1.2199873673679225 
1.2699999999998766, -1.2172990348041406 
1.2799999999998755, -1.2141304464435865 
1.2899999999998744, -1.210574221385515 
1.2999999999998733, -1.2068026182329503 
1.3099999999998722, -1.2030972538262688 
1.319999999999871, -1.1998396087581031 
1.32999999999987, -1.1974012206401488 
1.3399999999998689, -1.1959498004735554 
1.3499999999998678, -1.195340606754812 
1.3599999999998666, -1.1952276270857236 
1.3699999999998655, -1.195270097301702 
1.3799999999998644, -1.1952365566281484 
1.3899999999998633, -1.1949823535944708 
1.3999999999998622, -1.194378131631858 
1.4099999999998611, -1.1932353637171085 
1.41999999999986, -1.1912312478852844 
1.429999999999859, -1.1878302760772184 
1.4399999999998578, -1.182232991936712 
1.4499999999998567, -1.173446643213371 
1.4599999999998556, -1.1606198545870763 
1.4699999999998545, -1.143691870280848 
1.4799999999998534, -1.1240839051478286 
1.4899999999998523, -1.1047714639429287 
1.4999999999998512, -1.0891601500478882 
1.5099999999998501, -1.0792406914453267 
1.519999999999849, -1.0746492684049653 
1.529999999999848, -1.0735037787618809 
1.5399999999998468, -1.073894486444679 
1.5499999999998457, -1.074643405656906 
1.5599999999998446, -1.0752440199551674 
1.5699999999998435, -1.0755468733011422 
1.5799999999998424, -1.0755235747127656 
1.5899999999998413, -1.0751448448168053 
1.5999999999998402, -1.0743155824421777 
1.6099999999998391, -1.0728150427382632 
1.619999999999838, -1.0702067564380942 
1.629999999999837, -1.06569840390253 
1.6399999999998358, -1.0579790784866943 
1.6499999999998347, -1.0452074735283803 
1.6599999999998336, -1.025578364281519 
1.6699999999998325, -0.9988556071268688 
1.6799999999998314, -0.9680727761575676 
1.6899999999998303, -0.9390438299654422 
1.6999999999998292, -0.9169994201955914 
1.709999999999828, -0.9036535176277198 
1.719999999999827, -0.8974316937469184 
1.729999999999826, -0.8955675587633586 
1.7399999999998248, -0.8957394113531905 
1.7499999999998237, -0.8965573524856868 
1.7599999999998226, -0.8973750288244539 
1.7699999999998215, -0.897962214623724 
1.7799999999998204, -0.898266786038947 
1.7899999999998193, -0.8982861956911288 
1.7999999999998182, -0.8980061386218072 
1.809999999999817, -0.8973674218920256 
1.819999999999816, -0.896237694751572 
1.8299999999998149, -0.8943782726893096 
1.8399999999998138, -0.8914124031556183 
1.8499999999998127, -0.8868292478925873 
1.8599999999998116, -0.8800907739418153 
1.8699999999998105, -0.8708892660453739 
1.8799999999998094, -0.8594568978718293 
1.8899999999998083, -0.8466628704998801 
1.8999999999998072, -0.833747464028229 
1.909999999999806, -0.8218863679955233 
1.919999999999805, -0.8118864463306077 
1.9299999999998039, -0.8041072556784391 
1.9399999999998028, -0.7985265691349548 
1.9499999999998017, -0.7948583808428269 
1.9599999999998006, -0.7926789565646243 
1.9699999999997995, -0.7915393179799326 
1.9799999999997984, -0.7910459184231977 
1.9899999999997973, -0.7908991291735674 
1.9999999999997962, -0.7908942805461371 
2.0099999999998173, -0.7909007783590509 
2.0199999999998384, -0.7908351910226389 
2.0299999999998595, -0.7906383918493183 
2.0399999999998806, -0.7902613040549666 
2.0499999999999017, -0.7896610207932563 
2.059999999999923, -0.7888073107420108 
2.069999999999944, -0.7876956156765431 
2.079999999999965, -0.7863568565202038 
2.089999999999986, -0.7848535299021863 
2.100000000000007, -0.783261364990929 
2.1100000000000283, -0.7816481751275337 
2.1200000000000494, -0.7800626159636631 
2.1300000000000705, -0.7785358293158301 
2.1400000000000916, -0.7770903217831547 
2.1500000000001127, -0.7757490139840589 
2.160000000000134, -0.7745404223260243 
2.170000000000155, -0.7734990842220697 
2.180000000000176, -0.7726619944410646 
2.190000000000197, -0.7720625206098546 
2.2000000000002182, -0.771723746833774 
2.2100000000002393, -0.7716534279161638 
2.2200000000002604, -0.771842311811987 
2.2300000000002815, -0.7722664313559083 
2.2400000000003026, -0.7728925349555549 
2.2500000000003237, -0.7736847712131316 
2.260000000000345, -0.7746104329567707 
2.270000000000366, -0.7756428417195108 
2.280000000000387, -0.7767599401166521 
2.290000000000408, -0.7779379948620956 
2.3000000000004293, -0.7791418254983637 
2.3100000000004504, -0.7803164488474643 
2.3200000000004715, -0.7813877316801588 
2.3300000000004926, -0.7822768304768742 
2.3400000000005137, -0.782923091120544 
2.3500000000005348, -0.7833010693876745 
2.360000000000556, -0.7834212632491238 
2.370000000000577, -0.7833179425774908 
2.380000000000598, -0.7830357590918944 
2.390000000000619, -0.7826241735267736 
2.4000000000006403, -0.7821427173290694 
2.4100000000006614, -0.781676921152729 
2.4200000000006825, -0.781363654455116 
2.4300000000007036, -0.7814221405778838 
2.4400000000007247, -0.7821810441635058 
2.450000000000746, -0.7840846903145214 
2.460000000000767, -0.7876587819159399 
2.470000000000788, -0.7934232676086919 
2.480000000000809, -0.8017542152552035 
2.49000000000083, -0.8127097290918612 
2.5000000000008513, -0.8258537145447532 
2.5100000000008724, -0.8401608756556126 
2.5200000000008935, -0.8541507538066838 
2.5300000000009146, -0.8663390135883468 
2.5400000000009357, -0.8758006671564941 
2.550000000000957, -0.8824185448403321 
2.560000000000978, -0.8866638685630551 
2.570000000000999, -0.8891952661410573 
2.58000000000102, -0.8905859075156881 
2.5900000000010412, -0.8912369718213279 
2.6000000000010624, -0.8913934184866079 
2.6100000000010835, -0.8911857770172029 
2.6200000000011046, -0.8906659770952043 
2.6300000000011257, -0.8898333896558542 
2.6400000000011468, -0.8886611196218803 
2.650000000001168, -0.887144874327874 
2.660000000001189, -0.8854147593108579 
2.67000000000121, -0.8839654936986239 
2.680000000001231, -0.8840233700016983 
2.6900000000012523, -0.8878735301215936 
2.7000000000012734, -0.8985817912200229 
2.7100000000012945, -0.918394481124478 
2.7200000000013156, -0.9462285988432146 
2.7300000000013367, -0.9768748377170899 
2.740000000001358, -1.0039699646518336 
2.750000000001379, -1.0239461564511179 
2.7600000000014, -1.0368350505871837 
2.770000000001421, -1.0444564513327648 
2.780000000001442, -1.048720614329207 
2.7900000000014633, -1.0509955513217502 
2.8000000000014844, -1.0521101321851762 
2.8100000000015055, -1.0525218844016297 
2.8200000000015266, -1.0524611513225328 
2.8300000000015477, -1.0520203275063431 
2.840000000001569, -1.0512042609829255 
2.85000000000159, -1.0499699137322225 
2.860000000001611, -1.0483001380818517 
2.870000000001632, -1.0463915069351843 
2.8800000000016532, -1.045053167649132 
2.8900000000016743, -1.0462485045758871 
2.9000000000016954, -1.0531562342587226 
2.9100000000017165, -1.0686761418421586 
2.9200000000017377, -1.0925969397762703 
2.9300000000017588, -1.1203856564611279 
2.94000000000178, -1.1458911399978908 
2.950000000001801, -1.1652435023452414 
2.960000000001822, -1.1779697879927857 
2.970000000001843, -1.1855395918258198 
2.9800000000018643, -1.189734008371031 
2.9900000000018854, -1.1919087936714556 
3.0000000000019065, -1.19291120779525 
3.0100000000019276, -1.1932180021570367 
3.0200000000019487, -1.1930820360746555 
3.03000000000197, -1.1926410283620714 
3.040000000001991, -1.1920064595691304 
3.050000000002012, -1.1913624786072945 
3.060000000002033, -1.1910730521804689 
3.070000000002054, -1.1917031382506638 
3.0800000000020753, -1.1938025228348415 
3.0900000000020964, -1.197522157783104 
3.1000000000021175, -1.202458732681753 
3.1100000000021386, -1.2079083226503475 
3.1200000000021597, -1.2132183607650062 
3.130000000002181, -1.217949724321029 
3.140000000002202, -1.221868557528072 
3.150000000002223, -1.22489036428927 
3.160000000002244, -1.2270364943012633 
3.1700000000022652, -1.2284027961470398 
3.1800000000022863, -1.2291270243946983 
3.1900000000023074, -1.2293554037223282 
3.2000000000023285, -1.229220055079442 
3.2100000000023496, -1.2288356141168881 
3.2200000000023707, -1.2283127149383068 
3.230000000002392, -1.2277752171010412 
3.240000000002413, -1.2273595810057685 
3.250000000002434, -1.227182281640067 
3.260000000002455, -1.2272954558184814 
3.2700000000024763, -1.2276726659604829 
3.2800000000024974, -1.228233033156195 
3.2900000000025185, -1.2288740817026087 
3.3000000000025396, -1.2294940510802257 
3.3100000000025607, -1.2300051252227229 
3.3200000000025818, -1.2303398698290273 
3.330000000002603, -1.2304512849650366 
3.340000000002624, -1.2303095165659583 
3.350000000002645, -1.2298984117069085 
3.360000000002666, -1.229212992609276 
3.3700000000026873, -1.2282582980130974 
3.3800000000027084, -1.2270505701824685 
3.3900000000027295, -1.2256215147516119 
3.4000000000027506, -1.2240250971142739 
3.4100000000027717, -1.222344851808703 
3.420000000002793, -1.2206983462117929 
3.430000000002814, -1.2192320666407077 
3.440000000002835, -1.218092871042081 
3.450000000002856, -1.2173684586155917 
3.460000000002877, -1.2170308673267032 
3.4700000000028983, -1.2169431166225073 
3.4800000000029194, -1.2169278468324856 
3.4900000000029405, -1.216827677424477 
3.5000000000029616, -1.2165136516433566 
3.5100000000029827, -1.2158569336822178 
3.520000000003004, -1.214693668905913 
3.530000000003025, -1.2128027323604869 
3.540000000003046, -1.2099112038836397 
3.550000000003067, -1.2057395608384678 
3.5600000000030882, -1.2000845326667753 
3.5700000000031094, -1.1929197414983368 
3.5800000000031305, -1.1844960304533854 
3.5900000000031516, -1.1754310080507018 
3.6000000000031727, -1.1667281866758703 
3.6100000000031938, -1.1595682893959927 
3.620000000003215, -1.154792210044565 
3.630000000003236, -1.152417780351355 
3.640000000003257, -1.1517283688728175 
3.650000000003278, -1.1518406513657724 
3.6600000000032993, -1.1521355533974964 
3.6700000000033204, -1.1523072500929799 
3.6800000000033415, -1.152227597891004 
3.6900000000033626, -1.1518130789065568 
3.7000000000033837, -1.1509323267539358 
3.710000000003405, -1.1493240932866178 
3.720000000003426, -1.146488643317823 
3.730000000003447, -1.1415348305500053 
3.740000000003468, -1.1330340129123537 
3.750000000003489, -1.1191123513816812 
3.7600000000035103, -1.0982496443483485 
3.7700000000035314, -1.0710048369687601 
3.7800000000035525, -1.0414259842462485 
3.7900000000035736, -1.0157153729225616 
3.8000000000035947, -0.998344228019753 
3.810000000003616, -0.989629620049463 
3.820000000003637, -0.9869240341134974 
3.830000000003658, -0.9871734855560671 
3.840000000003679, -0.9883425384957573 
3.8500000000037002, -0.9894800500382889 
3.8600000000037213, -0.9902795069136644 
3.8700000000037424, -0.9907017044905986 
3.8800000000037635, -0.9907735791121942 
3.8900000000037847, -0.990501466850404 
3.9000000000038058, -0.9898296904337892 
3.910000000003827, -0.9886020968669561 
3.920000000003848, -0.9865016498777696 
3.930000000003869, -0.9829542758551204 
3.94000000000389, -0.9770106812470651 
3.9500000000039113, -0.9673040812728754 
3.9600000000039324, -0.952335968434773 
3.9700000000039535, -0.9313717919300052 
3.9800000000039746, -0.90566044145998 
3.9900000000039957, -0.8787144765622454 
4.000000000004016, -0.8547675886065237 
4.010000000003993, -0.8366258112744885 
4.02000000000397, -0.8248090901366923 
4.030000000003946, -0.8181888497106161 
4.040000000003923, -0.8150750437185836 
4.0500000000039, -0.8139660561037368 
4.0600000000038765, -0.8138214860001478 
4.070000000003853, -0.8140333924688763 
4.08000000000383, -0.8142912767739758 
4.090000000003807, -0.8144518016896581 
4.100000000003783, -0.814448116351669 
4.11000000000376, -0.8142355468633312 
4.120000000003737, -0.8137607461482466 
4.130000000003713, -0.8129448200808428 
4.14000000000369, -0.8116787366353654 
4.150000000003667, -0.8098372914415191 
4.1600000000036434, -0.8073194454824252 
4.17000000000362, -0.8041076264860525 
4.180000000003597, -0.8003103036305859 
4.1900000000035735, -0.7961471255372035 
4.20000000000355, -0.7918801190208018 
4.210000000003527, -0.7877411347262502 
4.220000000003504, -0.7838970672133836 
4.23000000000348, -0.7804529244983167 
4.240000000003457, -0.7774702564842407 
4.250000000003434, -0.7749826231955959 
4.26000000000341, -0.7730018768431457 
4.270000000003387, -0.7715173483971104 
4.280000000003364, -0.7704932707125494 
4.2900000000033405, -0.7698694534267473 
4.300000000003317, -0.7695675231877582 
4.310000000003294, -0.769501408877747 
4.320000000003271, -0.769588324538639 
4.330000000003247, -0.7697567459606451 
4.340000000003224, -0.7699501936773624 
4.350000000003201, -0.7701279878663676 
4.360000000003177, -0.7702648593564173 
4.370000000003154, -0.7703501149837765 
4.380000000003131, -0.7703851467354212 
4.390000000003107, -0.770377587207802 
4.400000000003084, -0.7703327078002782 
4.410000000003061, -0.7702460816305932 
4.4200000000030375, -0.7701023458013445 
4.430000000003014, -0.7698814047421709 
4.440000000002991, -0.7695682899250552 
4.450000000002968, -0.7691609125235768 
4.460000000002944, -0.7686729668517349 
4.470000000002921, -0.768133808113648 
4.480000000002898, -0.7675887841147614 
4.490000000002874, -0.7671017097614896 
4.500000000002851, -0.7667582482240609 
4.510000000002828, -0.7666668946730946 
4.520000000002804, -0.7669540967980758 
4.530000000002781, -0.7677522819267983 
4.540000000002758, -0.769183375547681 
4.5500000000027345, -0.7713430993057161 
4.560000000002711, -0.7742901637441643 
4.570000000002688, -0.7780394920828272 
4.580000000002665, -0.7825531906581289 
4.590000000002641, -0.7877217166117088 
4.600000000002618, -0.7933350841121677 
4.610000000002595, -0.7990625349618405 
4.620000000002571, -0.8044793447749441 
4.630000000002548, -0.8091681242933383 
4.640000000002525, -0.8128556461893119 
4.6500000000025015, -0.8154875977947171 
4.660000000002478, -0.8171893994524562 
4.670000000002455, -0.8181638347572736 
4.6800000000024315, -0.8186046212902607 
4.690000000002408, -0.8186566900425399 
4.700000000002385, -0.8184113251168975 
4.710000000002362, -0.8179171062955388 
4.720000000002338, -0.8171976965997375 
4.730000000002315, -0.8162793069467202 
4.740000000002292, -0.8152414174074345 
4.750000000002268, -0.8143144369341696 
4.760000000002245, -0.8140502674423379 
4.770000000002222, -0.8155606233450106 
4.7800000000021985, -0.8207076052461153 
4.790000000002175, -0.8319226855450648 
4.800000000002152, -0.8511916224328422 
4.810000000002129, -0.878212643382294 
4.820000000002105, -0.9091715242477637 
4.830000000002082, -0.9382335147635958 
4.840000000002059, -0.9610338123409268 
4.850000000002035, -0.9765486726863213 
4.860000000002012, -0.986110955969461 
4.870000000001989, -0.9916456900538717 
4.880000000001965, -0.9947112782642202 
4.890000000001942, -0.9963193313248336 
4.900000000001919, -0.9970568130020508 
4.9100000000018955, -0.997237954521679 
4.920000000001872, -0.9970094936738934 
4.930000000001849, -0.9964091845496073 
