t, s[1].omega / s[0].omega 
0, -1.0199529265732141 
0.009999999999999995, -1.0149485831323402 
0.019999999999999934, -1.0095681626544444 
0.029999999999999874, -1.0041832601164786 
0.04000000000000012, -0.9991947856382601 
0.050000000000000405, -0.9949675870899937 
0.06000000000000069, -0.9917504723343231 
0.07000000000000098, -0.9896061250137234 
0.08000000000000126, -0.9883993074847458 
0.09000000000000155, -0.98786502987353 
0.10000000000000184, -0.987715116013628 
0.11000000000000212, -0.9877166547292129 
0.12000000000000241, -0.987713606194872 
0.130000000000002, -0.9876080623625592 
0.1400000000000009, -0.9873288406770865 
0.1499999999999998, -0.9868036234887878 
0.1599999999999987, -0.9859400365321307 
0.1699999999999976, -0.984618874956072 
0.1799999999999965, -0.9827054416174882 
0.1899999999999954, -0.9800841239314027 
0.1999999999999943, -0.9767090415606029 
0.2099999999999932, -0.9726453128479793 
0.2199999999999921, -0.9680741919122692 
0.229999999999991, -0.9632609058326667 
0.2399999999999899, -0.958508485087582 
0.2499999999999888, -0.9541168155139494 
0.2599999999999877, -0.9503462534292616 
0.2699999999999866, -0.9473777342149136 
0.2799999999999855, -0.9452744342385714 
0.2899999999999844, -0.9439673183211674 
0.2999999999999833, -0.943283396470747 
0.3099999999999822, -0.943006844685996 
0.3199999999999811, -0.9429387668714483 
0.32999999999998, -0.942928029447212 
0.3399999999999789, -0.9428710585063186 
0.3499999999999778, -0.9426948709935005 
0.35999999999997667, -0.9423376678294713 
0.36999999999997557, -0.9417352114751514 
0.37999999999997447, -0.9408172773664845 
0.38999999999997337, -0.9395167807699931 
0.39999999999997227, -0.9377903017475131 
0.40999999999997117, -0.9356406829559981 
0.41999999999997006, -0.9331269561287874 
0.42999999999996896, -0.9303540245311657 
0.43999999999996786, -0.9274501515923955 
0.44999999999996676, -0.9245472373210962 
0.45999999999996566, -0.9217711957693681 
0.46999999999996456, -0.9192387045741451 
0.47999999999996346, -0.9170523824456704 
0.48999999999996235, -0.9152895364417877 
0.49999999999996125, -0.9139863853875972 
0.5099999999999602, -0.9131261527610048 
0.519999999999959, -0.9126406457649816 
0.529999999999958, -0.9124277592924857 
0.5399999999999568, -0.9123765946386835 
0.5499999999999557, -0.9123876732973999 
0.5599999999999546, -0.9123813650500043 
0.5699999999999535, -0.9122962981445948 
0.5799999999999524, -0.9120840350237167 
0.5899999999999513, -0.9117058398957065 
0.5999999999999502, -0.9111342911491528 
0.6099999999999491, -0.9103584311684173 
0.619999999999948, -0.9093877123207832 
0.6299999999999469, -0.9082501239301866 
0.6399999999999458, -0.9069846056987059 
0.6499999999999447, -0.9056327889264736 
0.6599999999999436, -0.9042350420224302 
0.6699999999999425, -0.9028315761404571 
0.6799999999999414, -0.901465767433234 
0.6899999999999403, -0.9001861873446728 
0.6999999999999392, -0.8990450420431453 
0.7099999999999381, -0.8980923935927769 
0.719999999999937, -0.8973672813164046 
0.7299999999999359, -0.8968885096883417 
0.7399999999999348, -0.8966487677417316 
0.7499999999999337, -0.8966150259808122 
0.7599999999999326, -0.8967355492045102 
0.7699999999999315, -0.8969506298809021 
0.7799999999999304, -0.897202687167893 
0.7899999999999293, -0.8974428129398027 
0.7999999999999282, -0.8976335719462449 
0.8099999999999271, -0.897749391783796 
0.819999999999926, -0.8977754640208065 
0.8299999999999249, -0.897705119928893 
0.8399999999999238, -0.8975359340117965 
0.8499999999999227, -0.8972662920139962 
0.8599999999999216, -0.8968947191929326 
0.8699999999999205, -0.8964225252661053 
0.8799999999999194, -0.8958579049621603 
0.8899999999999183, -0.8952191669031591 
0.8999999999999172, -0.8945363274995677 
0.9099999999999161, -0.8938515458878602 
0.919999999999915, -0.8932183143331915 
0.9299999999999139, -0.8926979840647752 
0.9399999999999128, -0.8923521795747777 
0.9499999999999117, -0.8922318384823262 
0.9599999999999106, -0.8923665410056222 
0.9699999999999095, -0.8927586850339377 
0.9799999999999084, -0.8933848003749947 
0.9899999999999073, -0.8942027273403959 
0.9999999999999062, -0.8951610857667074 
1.0099999999999052, -0.8962073075197777 
1.019999999999904, -0.8972918249850788 
1.029999999999903, -0.8983678925703978 
1.039999999999902, -0.8993885378428799 
1.0499999999999008, -0.9003040310178655 
1.0599999999998997, -0.9010639056373038 
1.0699999999998986, -0.9016250869983929 
1.0799999999998975, -0.901962424241147 
1.0899999999998964, -0.902074691540552 
1.0999999999998953, -0.9019823980854594 
1.1099999999998942, -0.9017205461807402 
1.119999999999893, -0.9013327620825079 
1.129999999999892, -0.9008711068040951 
1.1399999999998909, -0.9004016968408486 
1.1499999999998898, -0.900012533271426 
1.1599999999998887, -0.8998170186673209 
1.1699999999998876, -0.8999458682172078 
1.1799999999998865, -0.9005245708465102 
1.1899999999998854, -0.9016432330676777 
1.1999999999998843, -0.9033330265161259 
1.2099999999998832, -0.9055599439577277 
1.219999999999882, -0.90823447972354 
1.229999999999881, -0.9112268511765709 
1.2399999999998799, -0.9143786142502641 
1.2499999999998788, -0.9175101601980342 
1.2599999999998777, -0.9204322550487717 
1.2699999999998766, -0.9229707210959761 
1.2799999999998755, -0.9250017736090115 
1.2899999999998744, -0.9264791738778964 
1.2999999999998733, -0.9274335185912461 
1.3099999999998722, -0.9279445450390558 
1.319999999999871, -0.9281063375214321 
1.32999999999987, -0.9280038277006224 
1.3399999999998689, -0.9277060688299397 
1.3499999999998678, -0.927273486394026 
1.3599999999998666, -0.9267756940266361 
1.3699999999998655, -0.9263176927021801 
1.3799999999998644, -0.9260692763554983 
1.3899999999998633, -0.9262830049466686 
1.3999999999998622, -0.9272766530100498 
1.4099999999998611, -0.9293634111819937 
1.41999999999986, -0.9327464084144956 
1.429999999999859, -0.9374280941786586 
1.4399999999998578, -0.9431796713340928 
1.4499999999998567, -0.9495758959800977 
1.4599999999998556, -0.9560735709482607 
1.4699999999998545, -0.9621169755034135 
1.4799999999998534, -0.9672576087959772 
1.4899999999998523, -0.971252794685076 
1.4999999999998512, -0.9740912488232644 
1.5099999999998501, -0.9759314289304856 
1.519999999999849, -0.9769999985699865 
1.529999999999848, -0.9775107377261112 
1.5399999999998468, -0.9776275961480909 
1.5499999999998457, -0.977462011783557 
1.5599999999998446, -0.9770877626957892 
1.5699999999998435, -0.9765649298961991 
1.5799999999998424, -0.9759736624533684 
1.5899999999998413, -0.9754611430824308 
1.5999999999998402, -0.9752954649940511 
1.6099999999998391, -0.9758943720848435 
1.619999999999838, -0.9777720677293648 
1.629999999999837, -0.9813717918866042 
1.6399999999998358, -0.9868461159254054 
1.6499999999998347, -0.993922899821353 
1.6599999999998336, -1.0019464255645834 
1.6699999999998325, -1.0100627835232525 
1.6799999999998314, -1.0174568599784024 
1.6899999999998303, -1.0235561852397572 
1.6999999999998292, -1.0281337973075053 
1.709999999999828, -1.0312754962874982 
1.719999999999827, -1.0332488147265122 
1.729999999999826, -1.034361951919982 
1.7399999999998248, -1.034876465234461 
1.7499999999998237, -1.0349799253326064 
1.7599999999998226, -1.0347946052229473 
1.7699999999998215, -1.034401194044104 
1.7799999999998204, -1.0338701833484603 
1.7899999999998193, -1.0333029447126503 
1.7999999999998182, -1.0328825624505853 
1.809999999999817, -1.0329151712772444 
1.819999999999816, -1.0338126890913129 
1.8299999999998149, -1.0359712419730096 
1.8399999999998138, -1.0395819064333536 
1.8499999999998127, -1.044504715481235 
1.8599999999998116, -1.0503012708428499 
1.8699999999998105, -1.0563836921407648 
1.8799999999998094, -1.0621743399404502 
1.8899999999998083, -1.0672192752937277 
1.8999999999998072, -1.0712516715576208 
1.909999999999806, -1.0742062168487663 
1.919999999999805, -1.0761808486929305 
1.9299999999998039, -1.0773619510928087 
1.9399999999998028, -1.0779499657300708 
1.9499999999998017, -1.0781140637137419 
1.9599999999998006, -1.0779798609869826 
1.9699999999997995, -1.0776399046700083 
1.9799999999997984, -1.0771772786150222 
1.9899999999997973, -1.0766967214591268 
1.9999999999997962, -1.076354159414985 
2.0099999999998173, -1.0763626484553928 
2.0199999999998384, -1.076947764291244 
2.0299999999998595, -1.0782577732245802 
2.0399999999998806, -1.0802886143773138 
2.0499999999999017, -1.0828845514608592 
2.059999999999923, -1.0858053449348033 
2.069999999999944, -1.0888011254800423 
2.079999999999965, -1.0916559598211184 
2.089999999999986, -1.0942017739385812 
2.100000000000007, -1.0963209018056257 
2.1100000000000283, -1.0979490204993412 
2.1200000000000494, -1.0990771162442017 
2.1300000000000705, -1.0997448004031112 
2.1400000000000916, -1.1000228497423854 
2.1500000000001127, -1.0999926594081006 
2.160000000000134, -1.0997329961430389 
2.170000000000155, -1.099319059725104 
2.180000000000176, -1.0988318611926502 
2.190000000000197, -1.0983700778048502 
2.2000000000002182, -1.098051545004876 
2.2100000000002393, -1.0979928350150072 
2.2200000000002604, -1.0982714255024792 
2.2300000000002815, -1.0988958610557353 
2.2400000000003026, -1.099806697925613 
2.2500000000003237, -1.100903770128213 
2.260000000000345, -1.1020778740002375 
2.270000000000366, -1.1032317498735176 
2.280000000000387, -1.104288342427173 
2.290000000000408, -1.1051905653138672 
2.3000000000004293, -1.1058976572260064 
2.3100000000004504, -1.1063821856074592 
2.3200000000004715, -1.1066296813049656 
2.3300000000004926, -1.1066401610855525 
2.3400000000005137, -1.1064290754405732 
2.3500000000005348, -1.1060262746137286 
2.360000000000556, -1.1054743250655303 
2.370000000000577, -1.1048283740856912 
2.380000000000598, -1.1041569849583392 
2.390000000000619, -1.1035393468751744 
2.4000000000006403, -1.1030540578384593 
2.4100000000006614, -1.1027610692381864 
2.4200000000006825, -1.102685778394446 
2.4300000000007036, -1.1028134936856655 
2.4400000000007247, -1.1030952365990567 
2.450000000000746, -1.1034610835469714 
2.460000000000767, -1.1038359478963247 
2.470000000000788, -1.104152293087255 
2.480000000000809, -1.1043565277016278 
2.49000000000083, -1.1044100911791375 
2.5000000000008513, -1.104288215012126 
2.5100000000008724, -1.1039781780021007 
2.5200000000008935, -1.1034774593335976 
2.5300000000009146, -1.1027922681893758 
2.5400000000009357, -1.1019374011541803 
2.550000000000957, -1.1009379113378557 
2.560000000000978, -1.0998320075080106 
2.570000000000999, -1.0986736522744387 
2.58000000000102, -1.0975324983394996 
2.5900000000010412, -1.0964885267553455 
2.6000000000010624, -1.0956199521495602 
2.6100000000010835, -1.0949854553543812 
2.6200000000011046, -1.0946053882299411 
2.6300000000011257, -1.0944511944515785 
2.6400000000011468, -1.0944521207160558 
2.650000000001168, -1.0945170499715857 
2.660000000001189, -1.0945569867631122 
2.67000000000121, -1.0944959538696664 
2.680000000001231, -1.09427055979504 
2.6900000000012523, -1.0938263597948361 
2.7000000000012734, -1.0931180007177528 
2.7100000000012945, -1.092114555099162 
2.7200000000013156, -1.0908062444659974 
2.7300000000013367, -1.0892075760101534 
2.740000000001358, -1.087355743040715 
2.750000000001379, -1.0853078462273047 
2.7600000000014, -1.0831409159430851 
2.770000000001421, -1.080954748947439 
2.780000000001442, -1.0788727220013992 
2.7900000000014633, -1.0770325715992337 
2.8000000000014844, -1.0755600749569572 
2.8100000000015055, -1.0745285890389966 
2.8200000000015266, -1.07392582891213 
2.8300000000015477, -1.0736558086960815 
2.840000000001569, -1.0735786041280124 
2.85000000000159, -1.0735574283239704 
2.860000000001611, -1.0734826668090052 
2.870000000001632, -1.073269017905836 
2.8800000000016532, -1.0728397446213485 
2.8900000000016743, -1.0721122548414428 
2.9000000000016954, -1.0709938356348472 
2.9100000000017165, -1.0693921127129333 
2.9200000000017377, -1.0672390344636589 
2.9300000000017588, -1.0645184139007553 
2.94000000000178, -1.0612827503150242 
2.950000000001801, -1.0576531357257222 
2.960000000001822, -1.053809151421533 
2.970000000001843, -1.04997765971163 
2.9800000000018643, -1.0464176526171856 
2.9900000000018854, -1.043386557565838 
3.0000000000019065, -1.0410789275747587 
3.0100000000019276, -1.0395580630856227 
3.0200000000019487, -1.0387300065783418 
3.03000000000197, -1.0383901025341087 
3.040000000001991, -1.0383100313393705 
3.050000000002012, -1.0383035183661922 
3.060000000002033, -1.0382426710672974 
3.070000000002054, -1.0380395409888468 
3.0800000000020753, -1.0376174797027298 
3.0900000000020964, -1.0368865531012512 
3.1000000000021175, -1.035729076459689 
3.1100000000021386, -1.0340010663721553 
3.1200000000021597, -1.0315567999840516 
3.130000000002181, -1.0282967591462642 
3.140000000002202, -1.0242216214581683 
3.150000000002223, -1.019463212868096 
3.160000000002244, -1.014276907804589 
3.1700000000022652, -1.0090060261047487 
3.1800000000022863, -1.0040347865761619 
3.1900000000023074, -0.9997303910607537 
3.2000000000023285, -0.9963679286611958 
3.2100000000023496, -0.9940545437457503 
3.2200000000023707, -0.9926993722880132 
3.230000000002392, -0.9920630424421131 
3.240000000002413, -0.9918597406233124 
3.250000000002434, -0.9918451249268312 
3.260000000002455, -0.9918497991039944 
3.2700000000024763, -0.9917670065621678 
3.2800000000024974, -0.9915223652907532 
3.2900000000025185, -0.9910447741592561 
3.3000000000025396, -0.9902455535582246 
3.3100000000025607, -0.9890090271175079 
3.3200000000025818, -0.9872000813810302 
3.330000000002603, -0.9846947362916382 
3.340000000002624, -0.9814296579533419 
3.350000000002645, -0.9774479167325039 
3.360000000002666, -0.9729122388480347 
3.3700000000026873, -0.968078794192726 
3.3800000000027084, -0.9632518918761026 
3.3900000000027295, -0.9587410704238085 
3.4000000000027506, -0.9548228699868085 
3.4100000000027717, -0.9516991319857745 
3.420000000002793, -0.9494548470618348 
3.430000000002814, -0.9480376138507094 
3.440000000002835, -0.9472809194760885 
3.450000000002856, -0.9469652707007086 
3.460000000002877, -0.9468826272903058 
3.4700000000028983, -0.9468725975399046 
3.4800000000029194, -0.946825193319819 
3.4900000000029405, -0.9466642059686338 
3.5000000000029616, -0.9463267005155542 
3.5100000000029827, -0.9457477116183929 
3.520000000003004, -0.9448547274987561 
3.530000000003025, -0.9435749943672105 
3.540000000003046, -0.9418555805862712 
3.550000000003067, -0.9396882581451033 
3.5600000000030882, -0.9371239429054888 
3.5700000000031094, -0.934266045835755 
3.5800000000031305, -0.9312481429303654 
3.5900000000031516, -0.9282115932321183 
3.6000000000031727, -0.9252929884774229 
3.6100000000031938, -0.9226192528260473 
3.620000000003215, -0.9203022157767785 
3.630000000003236, -0.9184268439696396 
3.640000000003257, -0.917034482927247 
3.650000000003278, -0.9161098458937031 
3.6600000000032993, -0.9155823128262008 
3.6700000000033204, -0.9153445534236548 
3.6800000000033415, -0.9152796416730569 
3.6900000000033626, -0.9152829707107257 
3.7000000000033837, -0.9152713281049122 
3.710000000003405, -0.9151809513336951 
3.720000000003426, -0.9149613195425215 
3.730000000003447, -0.9145710128669856 
3.740000000003468, -0.9139789036891057 
3.750000000003489, -0.9131698568331583 
3.7600000000035103, -0.9121502048815978 
3.7700000000035314, -0.9109474741742549 
3.7800000000035525, -0.9096032147697848 
3.7900000000035736, -0.9081636670759942 
3.8000000000035947, -0.9066741564082358 
3.810000000003616, -0.9051790487099902 
3.820000000003637, -0.9037247675175634 
3.830000000003658, -0.9023620591817568 
3.840000000003679, -0.9011447675940097 
3.8500000000037002, -0.900124212751755 
3.8600000000037213, -0.8993401982630275 
3.8700000000037424, -0.8988114833923808 
3.8800000000037635, -0.8985296229359381 
3.8900000000037847, -0.8984594161074897 
3.9000000000038058, -0.8985463877453194 
3.910000000003827, -0.8987281466695762 
3.920000000003848, -0.8989448881918005 
3.930000000003869, -0.8991459750536694 
3.94000000000389, -0.8992925873987833 
3.9500000000039113, -0.8993581103848174 
3.9600000000039324, -0.8993273820386536 
3.9700000000039535, -0.8991946039218639 
3.9800000000039746, -0.8989596707187282 
3.9900000000039957, -0.898624244108475 
4.000000000004016, -0.8981900191787828 
4.010000000003993, -0.8976604029980753 
4.02000000000397, -0.8970443154569901 
4.030000000003946, -0.8963597657571765 
4.040000000003923, -0.8956359538056683 
4.0500000000039, -0.8949139255339962 
4.0600000000038765, -0.8942456110477854 
4.070000000003853, -0.8936900668573282 
4.08000000000383, -0.8933058341565591 
4.090000000003807, -0.8931403646677245 
4.100000000003783, -0.8932200484780177 
4.11000000000376, -0.893545010007875 
4.120000000003737, -0.8940906721433282 
4.130000000003713, -0.8948148535012805 
4.14000000000369, -0.8956670780966342 
4.150000000003667, -0.8965965961041608 
4.1600000000036434, -0.8975567959794579 
4.17000000000362, -0.8985053882737943 
4.180000000003597, -0.8994015018530028 
4.1900000000035735, -0.9002025360148691 
4.20000000000355, -0.9008645193484229 
4.210000000003527, -0.9013481283435547 
4.220000000003504, -0.9016280512587291 
4.23000000000348, -0.9016997055061925 
4.240000000003457, -0.9015790581814134 
4.250000000003434, -0.9012972048477904 
4.26000000000341, -0.9008952076954166 
4.270000000003387, -0.9004235214635286 
4.280000000003364, -0.8999464928292014 
4.2900000000033405, -0.8995486132825272 
4.300000000003317, -0.899336421813994 
4.310000000003294, -0.8994296724114195 
4.320000000003271, -0.8999400542263587 
4.330000000003247, -0.9009445341198916 
4.340000000003224, -0.9024660974133246 
4.350000000003201, -0.9044704492086527 
4.360000000003177, -0.906876352855239 
4.370000000003154, -0.9095699276958145 
4.380000000003131, -0.912414696218417 
4.390000000003107, -0.9152566229661113 
4.400000000003084, -0.917931108743454 
4.410000000003061, -0.920280991605293 
4.4200000000030375, -0.9221862427167344 
4.430000000003014, -0.9235911430363466 
4.440000000002991, -0.9245098754455849 
4.450000000002968, -0.9250065241824579 
4.460000000002944, -0.9251645084411548 
4.470000000002921, -0.9250633096106524 
4.480000000002898, -0.9247700765330483 
4.490000000002874, -0.9243449564212829 
4.500000000002851, -0.9238570245969738 
4.510000000002828, -0.9234081337261741 
4.520000000002804, -0.9231591371917046 
4.530000000002781, -0.9233447114587472 
4.540000000002758, -0.9242555741300192 
4.5500000000027345, -0.9261749316094339 
4.560000000002711, -0.9292857886316742 
4.570000000002688, -0.9335936998025238 
4.580000000002665, -0.9389021567172875 
4.590000000002641, -0.9448421125692315 
4.600000000002618, -0.9509351561950184 
4.610000000002595, -0.9566776445042464 
4.620000000002571, -0.9616414374287195 
4.630000000002548, -0.9655678036115356 
4.640000000002525, -0.9684073594998678 
4.6500000000025015, -0.9702803377272051 
4.660000000002478, -0.9713883951982158 
4.670000000002455, -0.971934326479853 
4.6800000000024315, -0.972079887966891 
4.690000000002408, -0.9719380183640917 
4.700000000002385, -0.9715844778944718 
4.710000000002362, -0.971079661227796 
4.720000000002338, -0.9704999936699291 
4.730000000002315, -0.9699817422281802 
4.740000000002292, -0.9697723656274114 
4.750000000002268, -0.9702618228609733 
4.760000000002245, -0.9719420126395493 
4.770000000002222, -0.9752591817296958 
4.7800000000021985, -0.9804063790997153 
4.790000000002175, -0.9871801983146714 
4.800000000002152, -0.9949952219813698 
4.810000000002129, -1.0030414563264523 
4.820000000002105, -1.010505109535819 
4.830000000002082, -1.0167744949076778 
4.840000000002059, -1.0215634772119728 
4.850000000002035, -1.0249062479219666 
4.860000000002012, -1.0270427024353432 
4.870000000001989, -1.028276125098808 
4.880000000001965, -1.0288755293459093 
4.890000000001942, -1.0290389895100818 
4.900000000001919, -1.0288972769081028 
4.9100000000018955, -1.0285352401975039 
4.920000000001872, -1.0280212758278622 
