t, s[1].omega / s[0].omega 
0, -0.5401143961793382 
0.009999999999999995, -0.5517017455790447 
0.019999999999999934, -0.562585988824836 
0.029999999999999874, -0.5715519133988619 
0.04000000000000012, -0.5781337261723117 
0.050000000000000405, -0.5825676066117211 
0.06000000000000069, -0.5853891045793767 
0.07000000000000098, -0.5871125349541296 
0.08000000000000126, -0.5881148970229108 
0.09000000000000155, -0.5886382814066069 
0.10000000000000184, -0.5888246372294279 
0.11000000000000212, -0.5887463879204435 
0.12000000000000241, -0.588424981240073 
0.130000000000002, -0.5878387734054438 
0.1400000000000009, -0.586923875863395 
0.1499999999999998, -0.58557374380861 
0.1599999999999987, -0.5836482694059903 
0.1699999999999976, -0.5810088240187709 
0.1799999999999965, -0.5775895380952075 
0.1899999999999954, -0.573480125795977 
0.1999999999999943, -0.5689511975348918 
0.2099999999999932, -0.564373779458386 
0.2199999999999921, -0.5600832083698211 
0.229999999999991, -0.5562882132918113 
0.2399999999999899, -0.5530643798772383 
0.2499999999999888, -0.5503974015492523 
0.2599999999999877, -0.5482310422871183 
0.2699999999999866, -0.5464994623278303 
0.2799999999999855, -0.5451432233684835 
0.2899999999999844, -0.5441147467924516 
0.2999999999999833, -0.5433785933597923 
0.3099999999999822, -0.542909932068388 
0.3199999999999811, -0.5426929274495265 
0.32999999999998, -0.5427197926664007 
0.3399999999999789, -0.5429907407732983 
0.3499999999999778, -0.5435147807540135 
0.35999999999997667, -0.5443110462253475 
0.36999999999997557, -0.5454099181848802 
0.37999999999997447, -0.5468524104897404 
0.38999999999997337, -0.548685036442071 
0.39999999999997227, -0.5509460595981444 
0.40999999999997117, -0.5536393514855019 
0.41999999999997006, -0.5566978876212139 
0.42999999999996896, -0.5599537989701595 
0.43999999999996786, -0.5631478589550238 
0.44999999999996676, -0.5659996832038067 
0.45999999999996566, -0.5683065508276056 
0.46999999999996456, -0.569999759302819 
0.47999999999996346, -0.5711256495084762 
0.48999999999996235, -0.5717855765157672 
0.49999999999996125, -0.572082981342105 
0.5099999999999602, -0.5720956513859912 
0.519999999999959, -0.5718666064715927 
0.529999999999958, -0.5714017454537677 
0.5399999999999568, -0.5706656573878872 
0.5499999999999557, -0.569570108013377 
0.5599999999999546, -0.567951014453357 
0.5699999999999535, -0.5655321374015808 
0.5799999999999524, -0.5618856248671962 
0.5899999999999513, -0.5564361244906759 
0.5999999999999502, -0.5486152713091444 
0.6099999999999491, -0.5382559441299566 
0.619999999999948, -0.5260283213990686 
0.6299999999999469, -0.5133788438399103 
0.6399999999999458, -0.5018237723287929 
0.6499999999999447, -0.49226823736800346 
0.6599999999999436, -0.48489816794393575 
0.6699999999999425, -0.47946116700262564 
0.6799999999999414, -0.4755597327972538 
0.6899999999999403, -0.4728133216741033 
0.6999999999999392, -0.47091448214169934 
0.7099999999999381, -0.4696333163669519 
0.719999999999937, -0.46880453982663584 
0.7299999999999359, -0.4683121681911467 
0.7399999999999348, -0.4680767816247787 
0.7499999999999337, -0.46804626769865154 
0.7599999999999326, -0.46818967284908075 
0.7699999999999315, -0.4684935456692328 
0.7799999999999304, -0.4689601320343734 
0.7899999999999293, -0.46960660299126544 
0.7999999999999282, -0.4704639717425552 
0.8099999999999271, -0.4715734797710625 
0.819999999999926, -0.4729773173191341 
0.8299999999999249, -0.47470053915643423 
0.8399999999999238, -0.47672411140344295 
0.8499999999999227, -0.4789580266661878 
0.8599999999999216, -0.48123590880621825 
0.8699999999999205, -0.48335185249116436 
0.8799999999999194, -0.4851295140032059 
0.8899999999999183, -0.48647740654173843 
0.8999999999999172, -0.48739406760667514 
0.9099999999999161, -0.487933218010816 
0.919999999999915, -0.4881627041271298 
0.9299999999999139, -0.4881374786561169 
0.9399999999999128, -0.48788694953662864 
0.9499999999999117, -0.48740898119509846 
0.9599999999999106, -0.4866632942878312 
0.9699999999999095, -0.48555935967710323 
0.9799999999999084, -0.48393648777370446 
0.9899999999999073, -0.48154013022226894 
0.9999999999999062, -0.47801629498925535 
1.0099999999999052, -0.47297888403303673 
1.019999999999904, -0.466214606485179 
1.029999999999903, -0.4579717861306053 
1.039999999999902, -0.44905174687793237 
1.0499999999999008, -0.44048170938814285 
1.0599999999998997, -0.4330305871520112 
1.0699999999998986, -0.42699977025754177 
1.0799999999998975, -0.42233080250253063 
1.0899999999998964, -0.4188025817292839 
1.0999999999998953, -0.41616846325784795 
1.1099999999998942, -0.4142168976766093 
1.119999999999893, -0.41278647676678554 
1.129999999999892, -0.4117621507920483 
1.1399999999998909, -0.41106656355184235 
1.1499999999998898, -0.4106520899109509 
1.1599999999998887, -0.4104952875489876 
1.1699999999998876, -0.410594043289909 
1.1799999999998865, -0.4109673165720271 
1.1899999999998854, -0.4116573411499259 
1.1999999999998843, -0.4127340211565894 
1.2099999999998832, -0.4143006160809387 
1.219999999999882, -0.4164979368168334 
1.229999999999881, -0.41950002062032105 
1.2399999999998799, -0.4234867655147824 
1.2499999999998788, -0.42857194742335486 
1.2599999999998777, -0.43467667062747795 
1.2699999999998766, -0.44140104536745345 
1.2799999999998755, -0.4480401358948588 
1.2899999999998744, -0.45384648223583224 
1.2999999999998733, -0.4583701657992588 
1.3099999999998722, -0.4615731462680473 
1.319999999999871, -0.4636824103886523 
1.32999999999987, -0.4649902436011698 
1.3399999999998689, -0.46574156232672365 
1.3499999999998678, -0.4661053059232154 
1.3599999999998666, -0.4661831682465366 
1.3699999999998655, -0.46602517502307617 
1.3799999999998644, -0.46564124700597215 
1.3899999999998633, -0.4650077430678559 
1.3999999999998622, -0.46407232243922436 
1.4099999999998611, -0.46276368090596237 
1.41999999999986, -0.4610149130751312 
1.429999999999859, -0.4588046035654666 
1.4399999999998578, -0.45620103662635464 
1.4499999999998567, -0.4533731118708732 
1.4599999999998556, -0.4505431731623674 
1.4699999999998545, -0.44790854168738437 
1.4799999999998534, -0.4455876264600566 
1.4899999999998523, -0.44361531399813503 
1.4999999999998512, -0.44196978103740137 
1.5099999999998501, -0.44060392536876386 
1.519999999999849, -0.4394678616494191 
1.529999999999848, -0.4385210212703547 
1.5399999999998468, -0.43773709988735954 
1.5499999999998457, -0.4371055053936722 
1.5599999999998446, -0.4366320470750022 
1.5699999999998435, -0.43634064326352984 
1.5799999999998424, -0.436277225966454 
1.5899999999998413, -0.43651685623762704 
1.5999999999998402, -0.4371752116039064 
1.6099999999998391, -0.43842574831982245 
1.619999999999838, -0.44052318942427676 
1.629999999999837, -0.4438304932077939 
1.6399999999998358, -0.4488353317037763 
1.6499999999998347, -0.45611539294918513 
1.6599999999998336, -0.46616917761233195 
1.6699999999998325, -0.47902492380017236 
1.6799999999998314, -0.4937411053197646 
1.6899999999998303, -0.5083556189922737 
1.6999999999998292, -0.5207846585091741 
1.709999999999828, -0.5299813757602128 
1.719999999999827, -0.536136879730049 
1.729999999999826, -0.5400302974712694 
1.7399999999998248, -0.5424319541280787 
1.7499999999998237, -0.5438925759344454 
1.7599999999998226, -0.5447561660884459 
1.7699999999998215, -0.5452250217511263 
1.7799999999998204, -0.5454128152677089 
1.7899999999998193, -0.5453771467705719 
1.7999999999998182, -0.5451371612918953 
1.809999999999817, -0.5446825889321759 
1.819999999999816, -0.5439796797911026 
1.8299999999998149, -0.5429797544916195 
1.8399999999998138, -0.5416363832515944 
1.8499999999998127, -0.5399334303351461 
1.8599999999998116, -0.5379145134427417 
1.8699999999998105, -0.5356918032834874 
1.8799999999998094, -0.5334186570061804 
1.8899999999998083, -0.5312400264814215 
1.8999999999998072, -0.5292538020861933 
1.909999999999806, -0.5275018206260472 
1.919999999999805, -0.5259837635563017 
1.9299999999998039, -0.5246778683257731 
1.9399999999998028, -0.5235578485019596 
1.9499999999998017, -0.5226030958884619 
1.9599999999998006, -0.5218034514823933 
1.9699999999997995, -0.5211609450048289 
1.9799999999997984, -0.5206905101301298 
1.9899999999997973, -0.5204209133006764 
1.9999999999997962, -0.5203965385335394 
2.0099999999998173, -0.5206803714837256 
2.0199999999998384, -0.5213583961315608 
2.0299999999998595, -0.522545388199481 
2.0399999999998806, -0.524391316188807 
2.0499999999999017, -0.5270854621663748 
2.059999999999923, -0.530850724873688 
2.069999999999944, -0.5359124435766807 
2.079999999999965, -0.5424178443773802 
2.089999999999986, -0.55029145744251 
2.100000000000007, -0.5590739665937672 
2.1100000000000283, -0.5679025136132834 
2.1200000000000494, -0.5757869501977638 
2.1300000000000705, -0.5820499465229293 
2.1400000000000916, -0.5865496556992428 
2.1500000000001127, -0.5895436225615228 
2.160000000000134, -0.5914219290013809 
2.170000000000155, -0.5925312749254179 
2.180000000000176, -0.5931194154253642 
2.190000000000197, -0.5933415590776809 
2.2000000000002182, -0.5932816517275061 
2.2100000000002393, -0.5929690143660159 
2.2200000000002604, -0.5923856796724183 
2.2300000000002815, -0.5914649401827317 
2.2400000000003026, -0.5900842283229173 
2.2500000000003237, -0.5880608229531561 
2.260000000000345, -0.5851698532317129 
2.270000000000366, -0.5812136991710564 
2.280000000000387, -0.576151274245308 
2.290000000000408, -0.5702189813486751 
2.3000000000004293, -0.5639139546003159 
2.3100000000004504, -0.5578064590614222 
2.3200000000004715, -0.55232760065939 
2.3300000000004926, -0.5476835291786786 
2.3400000000005137, -0.5438963246252116 
2.3500000000005348, -0.5408871702469348 
2.360000000000556, -0.5385426513364462 
2.370000000000577, -0.5367510322805338 
2.380000000000598, -0.5354166193788596 
2.390000000000619, -0.5344626407672898 
2.4000000000006403, -0.5338295685436526 
2.4100000000006614, -0.5334724244073589 
2.4200000000006825, -0.5333585472993689 
2.4300000000007036, -0.5334662742572082 
2.4400000000007247, -0.5337845393991744 
2.450000000000746, -0.5343131881138363 
2.460000000000767, -0.5350635803217476 
2.470000000000788, -0.5360586072615491 
2.480000000000809, -0.5373304413303673 
2.49000000000083, -0.538913311570585 
2.5000000000008513, -0.5408281177331357 
2.5100000000008724, -0.5430577051023231 
2.5200000000008935, -0.5455190208588712 
2.5300000000009146, -0.5480507825297765 
2.5400000000009357, -0.5504400786701963 
2.550000000000957, -0.5524884059770464 
2.560000000000978, -0.5540773828799367 
2.570000000000999, -0.5551883776003794 
2.58000000000102, -0.5558731600714082 
2.5900000000010412, -0.556208731040478 
2.6000000000010624, -0.5562639678779903 
2.6100000000010835, -0.5560833592343611 
2.6200000000011046, -0.5556807024318225 
2.6300000000011257, -0.555034418634422 
2.6400000000011468, -0.5540782104817353 
2.650000000001168, -0.552681911253626 
2.660000000001189, -0.5506179397261914 
2.67000000000121, -0.5475140079996562 
2.680000000001231, -0.5428166640699212 
2.6900000000012523, -0.535851399285978 
2.7000000000012734, -0.5261253616237639 
2.7100000000012945, -0.5138704662488365 
2.7200000000013156, -0.5003458166030861 
2.7300000000013367, -0.4873339288448724 
2.740000000001358, -0.4762068923164849 
2.750000000001379, -0.46747965403778113 
2.7600000000014, -0.46100776208055877 
2.770000000001421, -0.45636701503397037 
2.780000000001442, -0.45310659002740705 
2.7900000000014633, -0.4508510565053556 
2.8000000000014844, -0.44931857617505394 
2.8100000000015055, -0.4483079881967574 
2.8200000000015266, -0.4476797236833763 
2.8300000000015477, -0.44733923254846086 
2.840000000001569, -0.4472247933854671 
2.85000000000159, -0.4472993575629931 
2.860000000001611, -0.4475456165323067 
2.870000000001632, -0.44796350803938045 
2.8800000000016532, -0.4485693487474752 
2.8900000000016743, -0.44939542973411395 
2.9000000000016954, -0.4504881106039525 
2.9100000000017165, -0.45190127102476785 
2.9200000000017377, -0.4536809800309414 
2.9300000000017588, -0.45583824754763047 
2.94000000000178, -0.45831364416283743 
2.950000000001801, -0.46095292702390883 
2.960000000001822, -0.4635249281126009 
2.970000000001843, -0.4657930621738349 
2.9800000000018643, -0.46759963092738116 
2.9900000000018854, -0.46890154941141066 
3.0000000000019065, -0.4697436762442459 
3.0100000000019276, -0.4702070888861757 
3.0200000000019487, -0.4703686627268048 
3.03000000000197, -0.47028098738096363 
3.040000000001991, -0.4699650977684905 
3.050000000002012, -0.46940665325031994 
3.060000000002033, -0.4685495369391498 
3.070000000002054, -0.46728446156986553 
3.0800000000020753, -0.46543527549047203 
3.0900000000020964, -0.46275692178421196 
3.1000000000021175, -0.45897836117288743 
3.1100000000021386, -0.45393070358591225 
3.1200000000021597, -0.4477372518929076 
3.130000000002181, -0.4409050279157608 
3.140000000002202, -0.4341546838722685 
3.150000000002223, -0.4280965488001883 
3.160000000002244, -0.42303558128980523 
3.1700000000022652, -0.41899797954008966 
3.1800000000022863, -0.4158577706705874 
3.1900000000023074, -0.41344469540741535 
3.2000000000023285, -0.411601298269372 
3.2100000000023496, -0.4102030119119311 
3.2200000000023707, -0.40916015959803137 
3.230000000002392, -0.4084137004085375 
3.240000000002413, -0.4079302895622102 
3.250000000002434, -0.4076988416356574 
3.260000000002455, -0.40772934375585795 
3.2700000000024763, -0.4080542113216919 
3.2800000000024974, -0.4087324236949749 
3.2900000000025185, -0.40985662424293656 
3.3000000000025396, -0.41156283740045907 
3.3100000000025607, -0.41404051327978253 
3.3200000000025818, -0.4175354151667447 
3.330000000002603, -0.42232687591972307 
3.340000000002624, -0.42864540213520463 
3.350000000002645, -0.4364975654231289 
3.360000000002666, -0.4454404556141773 
3.3700000000026873, -0.45451744547969436 
3.3800000000027084, -0.46259417877672426 
3.3900000000027295, -0.468920849136337 
3.4000000000027506, -0.47338746814158067 
3.4100000000027717, -0.4763192109479514 
3.420000000002793, -0.47815138444457633 
3.430000000002814, -0.47924608824890563 
3.440000000002835, -0.4798508021168725 
3.450000000002856, -0.4801170701817619 
3.460000000002877, -0.48012830922474314 
3.4700000000028983, -0.47992036450763537 
3.4800000000029194, -0.4794936763449674 
3.4900000000029405, -0.4788205581174778 
3.5000000000029616, -0.477852936356309 
3.5100000000029827, -0.47653732485956446 
3.520000000003004, -0.47484227038633725 
3.530000000003025, -0.47279350709432083 
3.540000000003046, -0.470495130108102 
3.550000000003067, -0.4681116825428747 
3.5600000000030882, -0.4658143827912256 
3.5700000000031094, -0.46372803809456026 
3.5800000000031305, -0.4619103650437565 
3.5900000000031516, -0.46036329035498574 
3.6000000000031727, -0.45905716192551693 
3.6100000000031938, -0.4579524938703051 
3.620000000003215, -0.45701389627517086 
3.630000000003236, -0.4562169953007252 
3.640000000003257, -0.4555511148286405 
3.650000000003278, -0.45502041621634204 
3.6600000000032993, -0.45464548073543504 
3.6700000000033204, -0.4544666611323291 
3.6800000000033415, -0.4545502135377686 
3.6900000000033626, -0.4549982528447026 
3.7000000000033837, -0.4559637334233835 
3.710000000003405, -0.45767138335261687 
3.720000000003426, -0.460443389502237 
3.730000000003447, -0.4647212012841929 
3.740000000003468, -0.47105550251730843 
3.750000000003489, -0.4799999297279146 
3.7600000000035103, -0.49181538251265355 
3.7700000000035314, -0.5059883896649965 
3.7800000000035525, -0.5209305585586668 
3.7900000000035736, -0.5344852616029799 
3.8000000000035947, -0.545105724350098 
3.810000000003616, -0.5525121172731564 
3.820000000003637, -0.557308087591847 
3.830000000003658, -0.5602989277269543 
3.840000000003679, -0.5621295354131138 
3.8500000000037002, -0.5632253048832401 
3.8600000000037213, -0.563843737315545 
3.8700000000037424, -0.5641332241544903 
3.8800000000037635, -0.5641731082776827 
3.8900000000037847, -0.5639964412099392 
3.9000000000038058, -0.5636014776047298 
3.910000000003827, -0.5629574342778445 
3.920000000003848, -0.5620101368767247 
3.930000000003869, -0.5606945144200328 
3.94000000000389, -0.558960525443311 
3.9500000000039113, -0.556810764306231 
3.9600000000039324, -0.5543302498862813 
3.9700000000039535, -0.551679537527536 
3.9800000000039746, -0.5490453202965171 
3.9900000000039957, -0.5465809992469353 
4.000000000004016, -0.5443751054725527 
4.010000000003993, -0.5424551607111815 
4.02000000000397, -0.5408099323757656 
4.030000000003946, -0.539412303553643 
4.040000000003923, -0.5382348975463909 
4.0500000000039, -0.5372581577433602 
4.0600000000038765, -0.5364733854453736 
4.070000000003853, -0.535883291450207 
4.08000000000383, -0.5355017892854311 
4.090000000003807, -0.5353539729086466 
4.100000000003783, -0.5354767494160227 
4.11000000000376, -0.5359203735043846 
4.120000000003737, -0.5367509588808504 
4.130000000003713, -0.5380536623347184 
4.14000000000369, -0.5399352856306842 
4.150000000003667, -0.5425229936881777 
4.1600000000036434, -0.545952193303969 
4.17000000000362, -0.5503320119060533 
4.180000000003597, -0.5556765377611721 
4.1900000000035735, -0.5618083104932577 
4.20000000000355, -0.5682906917167647 
4.210000000003527, -0.5744910118189057 
4.220000000003504, -0.5798079063311352 
4.23000000000348, -0.5839124186292007 
4.240000000003457, -0.5868063374253149 
4.250000000003434, -0.5886979266901777 
4.26000000000341, -0.5898453601894305 
4.270000000003387, -0.5904658384474338 
4.280000000003364, -0.590709494223717 
4.2900000000033405, -0.5906637611288608 
4.300000000003317, -0.5903634823439752 
4.310000000003294, -0.5897960602225829 
4.320000000003271, -0.588898233749311 
4.330000000003247, -0.5875441716338221 
4.340000000003224, -0.5855287242906055 
4.350000000003201, -0.5825610025407538 
4.360000000003177, -0.5783050089685203 
4.370000000003154, -0.5725160988631093 
4.380000000003131, -0.5652617208632933 
4.390000000003107, -0.557062242397983 
4.400000000003084, -0.5487482289134051 
4.410000000003061, -0.5411008752619231 
4.4200000000030375, -0.5345837470902733 
4.430000000003014, -0.5293209785756061 
4.440000000002991, -0.5252207752763474 
4.450000000002968, -0.5221036488570954 
4.460000000002944, -0.5197804646368622 
4.470000000002921, -0.5180859151988306 
4.480000000002898, -0.5168870204123432 
4.490000000002874, -0.5160811344852662 
4.500000000002851, -0.5155909849024941 
4.510000000002828, -0.5153598735717709 
4.520000000002804, -0.5153480345037217 
4.530000000002781, -0.5155302807816765 
4.540000000002758, -0.5158947807534646 
4.5500000000027345, -0.5164426544098859 
4.560000000002711, -0.5171878001589791 
4.570000000002688, -0.5181557735345408 
4.580000000002665, -0.5193796480894843 
4.590000000002641, -0.5208899937346074 
4.600000000002618, -0.5226965444636092 
4.610000000002595, -0.5247629669563878 
4.620000000002571, -0.5269852616642632 
4.630000000002548, -0.5291942344347309 
4.640000000002525, -0.5311969074135847 
4.6500000000025015, -0.5328407200979257 
4.660000000002478, -0.53405716674952 
4.670000000002455, -0.5348583563795298 
4.6800000000024315, -0.535301493032238 
4.690000000002408, -0.5354517442722303 
4.700000000002385, -0.5353590851512651 
4.710000000002362, -0.5350476818947352 
4.720000000002338, -0.5345103287449101 
4.730000000002315, -0.5337010626821627 
4.740000000002292, -0.5325204888758702 
4.750000000002268, -0.5307889719329948 
4.760000000002245, -0.5282056138066762 
4.770000000002222, -0.5243058337512214 
4.7800000000021985, -0.518475517732234 
4.790000000002175, -0.5101479686646729 
4.800000000002152, -0.49926316625026246 
4.810000000002129, -0.4866970561423171 
4.820000000002105, -0.47405257169924464 
4.830000000002082, -0.4628209530188755 
4.840000000002059, -0.4537522509294837 
4.850000000002035, -0.44687940481251387 
4.860000000002012, -0.44186344067147365 
4.870000000001989, -0.4382799277601152 
4.880000000001965, -0.4357544501375238 
4.890000000001942, -0.43399867110627816 
