t, s[1].omega / s[0].omega 
0, -1.2399977419967232 
0.009999999999999995, -1.2396085258499028 
0.019999999999999934, -1.238899577616845 
0.029999999999999874, -1.2378892790680107 
0.04000000000000012, -1.2366255869432197 
0.050000000000000405, -1.2351976024988363 
0.06000000000000069, -1.2337394011524603 
0.07000000000000098, -1.2324378957516016 
0.08000000000000126, -1.2315132828962045 
0.09000000000000155, -1.2310787939225363 
0.10000000000000184, -1.2309949798682136 
0.11000000000000212, -1.2309637582017334 
0.12000000000000241, -1.2307024767129542 
0.130000000000002, -1.2299504677558095 
0.1400000000000009, -1.2283753932857642 
0.1499999999999998, -1.2255296623511525 
0.1599999999999987, -1.2209374520150196 
0.1699999999999976, -1.2142694277724158 
0.1799999999999965, -1.2054617204977982 
0.1899999999999954, -1.1948051283324475 
0.1999999999999943, -1.1832600250033323 
0.2099999999999932, -1.172870200178948 
0.2199999999999921, -1.1660490234748941 
0.229999999999991, -1.1633527645419652 
0.2399999999999899, -1.1630760076253752 
0.2499999999999888, -1.163427400632041 
0.2599999999999877, -1.1635921743146644 
0.2699999999999866, -1.1632961715977321 
0.2799999999999855, -1.1622624182034678 
0.2899999999999844, -1.1597814299479556 
0.2999999999999833, -1.1540119046408326 
0.3099999999999822, -1.1405723621759098 
0.3199999999999811, -1.1109065833350606 
0.32999999999998, -1.055029526076647 
0.3399999999999789, -0.9752490821679407 
0.3499999999999778, -0.895264657029972 
0.35999999999997667, -0.8387713805056438 
0.36999999999997557, -0.8090725863222308 
0.37999999999997447, -0.7969910633103819 
0.38999999999997337, -0.7933681261499272 
0.39999999999997227, -0.7928960507880103 
0.40999999999997117, -0.7932547577572412 
0.41999999999997006, -0.7936229231133579 
0.42999999999996896, -0.7937533374858478 
0.43999999999996786, -0.7935515884721824 
0.44999999999996676, -0.792905261688972 
0.45999999999996566, -0.7916155929312044 
0.46999999999996456, -0.7894056303779048 
0.47999999999996346, -0.7860565495904466 
0.48999999999996235, -0.7816471636139268 
0.49999999999996125, -0.7766351895867625 
0.5099999999999602, -0.7716041578745576 
0.519999999999959, -0.7669643549064409 
0.529999999999958, -0.7628933756471886 
0.5399999999999568, -0.7594349838251182 
0.5499999999999557, -0.7565939014117053 
0.5599999999999546, -0.7543736877705673 
0.5699999999999535, -0.752771112000135 
0.5799999999999524, -0.7517532609275175 
0.5899999999999513, -0.7512411171435321 
0.5999999999999502, -0.7511146297840025 
0.6099999999999491, -0.7512377334236482 
0.619999999999948, -0.7514875260352696 
0.6299999999999469, -0.7517736428298342 
0.6399999999999458, -0.7520463269353397 
0.6499999999999447, -0.7522966432294439 
0.6599999999999436, -0.7525454422051412 
0.6699999999999425, -0.7528158282958407 
0.6799999999999414, -0.75309915662908 
0.6899999999999403, -0.7533405127119599 
0.6999999999999392, -0.753461831297123 
0.7099999999999381, -0.7534071787010066 
0.719999999999937, -0.7531716275372795 
0.7299999999999359, -0.7528009248567911 
0.7399999999999348, -0.7523868197179353 
0.7499999999999337, -0.7520812841446048 
0.7599999999999326, -0.7521261774371536 
0.7699999999999315, -0.7528711872316636 
0.7799999999999304, -0.7547470139695239 
0.7899999999999293, -0.7581891814684609 
0.7999999999999282, -0.7635553613512333 
0.8099999999999271, -0.7710817313704666 
0.819999999999926, -0.7808520248657195 
0.8299999999999249, -0.7926688866861802 
0.8399999999999238, -0.8057437024011067 
0.8499999999999227, -0.8184465190863106 
0.8599999999999216, -0.828813709288207 
0.8699999999999205, -0.8358061788210857 
0.8799999999999194, -0.8397917567740278 
0.8899999999999183, -0.8417615010435945 
0.8999999999999172, -0.8425493265747825 
0.9099999999999161, -0.8426342061795847 
0.919999999999915, -0.842220671003411 
0.9299999999999139, -0.8413435873215082 
0.9399999999999128, -0.8399734203889306 
0.9499999999999117, -0.8382728300133719 
0.9599999999999106, -0.8374528352916244 
0.9699999999999095, -0.8421805403733884 
0.9799999999999084, -0.8651558749456921 
0.9899999999999073, -0.9285860531300247 
0.9999999999999062, -1.0426823729128152 
1.0099999999999052, -1.1670470213140516 
1.019999999999904, -1.248814930490223 
1.029999999999903, -1.286474421085131 
1.039999999999902, -1.301159125887668 
1.0499999999999008, -1.306587987676897 
1.0599999999998997, -1.308484608737636 
1.0699999999998986, -1.3089388985588337 
1.0799999999998975, -1.3086957027036288 
1.0899999999998964, -1.3081006049892787 
1.0999999999998953, -1.3076642328079728 
1.1099999999998942, -1.308406506121509 
1.119999999999893, -1.3111706308971325 
1.129999999999892, -1.3154262243205144 
1.1399999999998909, -1.3198909509220453 
1.1499999999998898, -1.323765888860627 
1.1599999999998887, -1.326824884747989 
1.1699999999998876, -1.329073654135807 
1.1799999999998865, -1.3305684709263952 
1.1899999999998854, -1.3313791580959942 
1.1999999999998843, -1.3315988943860049 
1.2099999999998832, -1.331346676138966 
1.219999999999882, -1.3307606666803204 
1.229999999999881, -1.3300005495350826 
1.2399999999998799, -1.3292352000164604 
1.2499999999998788, -1.3285986190233765 
1.2599999999998777, -1.328181791212254 
1.2699999999998766, -1.3280327978612656 
1.2799999999998755, -1.328075561673938 
1.2899999999998744, -1.328098815020755 
1.2999999999998733, -1.3278604020999407 
1.3099999999998722, -1.3271192578623547 
1.319999999999871, -1.3255866450015805 
1.32999999999987, -1.3229122234124164 
1.3399999999998689, -1.3187398974789526 
1.3499999999998678, -1.312771469228288 
1.3599999999998666, -1.3048219026382932 
1.3699999999998655, -1.295074455000815 
1.3799999999998644, -1.2848135261031535 
1.3899999999998633, -1.2768342894849765 
1.3999999999998622, -1.2732096953325183 
1.4099999999998611, -1.272768770244852 
1.41999999999986, -1.2732310291691038 
1.429999999999859, -1.2734793066911323 
1.4399999999998578, -1.2731992886898917 
1.4499999999998567, -1.272095841492986 
1.4599999999998556, -1.2692869201078925 
1.4699999999998545, -1.2621441928382542 
1.4799999999998534, -1.243189838053906 
1.4899999999998523, -1.1943280846337354 
1.4999999999998512, -1.0913746968041413 
1.5099999999998501, -0.9482351127619149 
1.519999999999849, -0.8286242344060349 
1.529999999999848, -0.7650538546161469 
1.5399999999998468, -0.7418603620404477 
1.5499999999998457, -0.7364448188836847 
1.5599999999998446, -0.7366012326379338 
1.5699999999998435, -0.7378236715692418 
1.5799999999998424, -0.7388508158902646 
1.5899999999998413, -0.7394576456299322 
1.5999999999998402, -0.739658421778731 
1.6099999999998391, -0.7394598118084352 
1.619999999999838, -0.738781366189399 
1.629999999999837, -0.7374188468019445 
1.6399999999998358, -0.7350535648350164 
1.6499999999998347, -0.7313945815342838 
1.6599999999998336, -0.726479695830347 
1.6699999999998325, -0.7208425945182397 
1.6799999999998314, -0.7152276313725693 
1.6899999999998303, -0.7101636149089404 
1.6999999999998292, -0.7058500647960108 
1.709999999999828, -0.7022882341718133 
1.719999999999827, -0.6994192831594667 
1.729999999999826, -0.6971884256793233 
1.7399999999998248, -0.6955537719883012 
1.7499999999998237, -0.6944716944900194 
1.7599999999998226, -0.6938808356936907 
1.7699999999998215, -0.6936970149636237 
1.7799999999998204, -0.6938219579365 
1.7899999999998193, -0.6941604474338193 
1.7999999999998182, -0.6946374460837025 
1.809999999999817, -0.6952098331637973 
1.819999999999816, -0.6958702843869295 
1.8299999999998149, -0.696638535541327 
1.8399999999998138, -0.6975339480549603 
1.8499999999998127, -0.6985335207720915 
1.8599999999998116, -0.6995407284847148 
1.8699999999998105, -0.7004039226107522 
1.8799999999998094, -0.7009895257029367 
1.8899999999998083, -0.7012460518513347 
1.8999999999998072, -0.7012019014522715 
1.909999999999806, -0.7009256730515624 
1.919999999999805, -0.7005083280733203 
1.9299999999998039, -0.700097071072815 
1.9399999999998028, -0.6999978220058557 
1.9499999999998017, -0.7008732372823806 
1.9599999999998006, -0.704056270750469 
1.9699999999997995, -0.7119303790606085 
1.9799999999997984, -0.728152089579674 
1.9899999999997973, -0.7571242884431816 
1.9999999999997962, -0.8015339260828973 
2.0099999999998173, -0.8573380137800968 
2.0199999999998384, -0.9113270205184274 
2.0299999999998595, -0.9502506436407414 
2.0399999999998806, -0.9719777368202491 
2.0499999999999017, -0.9822656138247088 
2.059999999999923, -0.9867512863076481 
2.069999999999944, -0.9885732115368111 
2.079999999999965, -0.9891348948314065 
2.089999999999986, -0.9889871028536141 
2.100000000000007, -0.9882813156512307 
2.1100000000000283, -0.9869872552813632 
2.1200000000000494, -0.9851784239938549 
2.1300000000000705, -0.9839771396697798 
2.1400000000000916, -0.988100774344642 
2.1500000000001127, -1.0088495746769146 
2.160000000000134, -1.0586848766847197 
2.170000000000155, -1.1318820263990121 
2.180000000000176, -1.2011088040591837 
2.190000000000197, -1.2468451001869887 
2.2000000000002182, -1.270419698994984 
2.2100000000002393, -1.2808937713046256 
2.2200000000002604, -1.2851611080827694 
2.2300000000002815, -1.286721643640181 
2.2400000000003026, -1.2870703091597286 
2.2500000000003237, -1.2868169241865621 
2.260000000000345, -1.2863073560636102 
2.270000000000366, -1.2860354960351466 
2.280000000000387, -1.286753903804141 
2.290000000000408, -1.2888637059962684 
2.3000000000004293, -1.291872119297333 
2.3100000000004504, -1.2949766928141693 
2.3200000000004715, -1.2977026846195807 
2.3300000000004926, -1.2998931631272004 
2.3400000000005137, -1.3015240420520267 
2.3500000000005348, -1.3026068146112657 
2.360000000000556, -1.303163589373019 
2.370000000000577, -1.303234620866944 
2.380000000000598, -1.3028889655384444 
2.390000000000619, -1.3022268449483745 
2.4000000000006403, -1.3013806103760714 
2.4100000000006614, -1.3005024904149836 
2.4200000000006825, -1.299730793770547 
2.4300000000007036, -1.2991808380649295 
2.4400000000007247, -1.2989297301670475 
2.450000000000746, -1.2989222489677719 
2.460000000000767, -1.2989503777094709 
2.470000000000788, -1.2987661472459389 
2.480000000000809, -1.2981314318516093 
2.49000000000083, -1.2967714799377128 
2.5000000000008513, -1.2943514473943443 
2.5100000000008724, -1.2905317588974978 
2.5200000000008935, -1.2850474650933614 
2.5300000000009146, -1.2777525539135584 
2.5400000000009357, -1.2687513104127228 
2.550000000000957, -1.2588800538528935 
2.560000000000978, -1.2502737893991487 
2.570000000000999, -1.2453033178402328 
2.58000000000102, -1.2439405671415171 
2.5900000000010412, -1.2441712144275097 
2.6000000000010624, -1.2445136950781928 
2.6100000000010835, -1.2444546226603383 
2.6200000000011046, -1.2437535547194327 
2.6300000000011257, -1.24187142545595 
2.6400000000011468, -1.2372349936168703 
2.650000000001168, -1.2254119736153506 
2.660000000001189, -1.194932580173572 
2.67000000000121, -1.123801187511198 
2.680000000001231, -0.9989786713453251 
2.6900000000012523, -0.8600438556285394 
2.7000000000012734, -0.7639173991253472 
2.7100000000012945, -0.7175179019204928 
2.7200000000013156, -0.7000153146483572 
2.7300000000013367, -0.694817769077297 
2.740000000001358, -0.6939348965267135 
2.750000000001379, -0.6942502230124061 
2.7600000000014, -0.6947064075734337 
2.770000000001421, -0.6949898626165982 
2.780000000001442, -0.6950102627652264 
2.7900000000014633, -0.6947091846256199 
2.8000000000014844, -0.6939931844675038 
2.8100000000015055, -0.6927298342979691 
2.8200000000015266, -0.6908132773100221 
2.8300000000015477, -0.6882878312200301 
2.840000000001569, -0.6854086058219887 
2.85000000000159, -0.6825219883243328 
2.860000000001611, -0.6798810124161413 
2.870000000001632, -0.6775822315451028 
2.8800000000016532, -0.6756200573378383 
2.8900000000016743, -0.6739604364657447 
2.9000000000016954, -0.6725842803792603 
2.9100000000017165, -0.6714993417362491 
2.9200000000017377, -0.6707331563513437 
2.9300000000017588, -0.6703184731045724 
2.94000000000178, -0.670279242026453 
2.950000000001801, -0.6706228740542276 
2.960000000001822, -0.6713418665856626 
2.970000000001843, -0.672424336535839 
2.9800000000018643, -0.6738693461100834 
2.9900000000018854, -0.675699411049306 
3.0000000000019065, -0.6779581056609818 
3.0100000000019276, -0.6806757063063194 
3.0200000000019487, -0.6837902106428386 
3.03000000000197, -0.6870534068899964 
3.040000000001991, -0.6900385994774766 
3.050000000002012, -0.6923436912113256 
3.060000000002033, -0.6938183728396029 
3.070000000002054, -0.6945611628755364 
3.0800000000020753, -0.6947537756710963 
3.0900000000020964, -0.6945370364881989 
3.1000000000021175, -0.6939786953095962 
3.1100000000021386, -0.6930966998582203 
3.1200000000021597, -0.6919389882724927 
3.130000000002181, -0.6908223081489885 
3.140000000002202, -0.6910405851142403 
3.150000000002223, -0.6967375467516487 
3.160000000002244, -0.7186932881563635 
3.1700000000022652, -0.7770435659550885 
3.1800000000022863, -0.8877436559920233 
3.1900000000023074, -1.027155437309048 
3.2000000000023285, -1.1371010774946158 
3.2100000000023496, -1.1939700932226296 
3.2200000000023707, -1.2169182929333047 
3.230000000002392, -1.2254522941299135 
3.240000000002413, -1.2285632128828952 
3.250000000002434, -1.2295603168099858 
3.260000000002455, -1.2295836288043036 
3.2700000000024763, -1.2289871082548396 
3.2800000000024974, -1.2279169911659975 
3.2900000000025185, -1.2269739442294179 
3.3000000000025396, -1.2283854318005298 
3.3100000000025607, -1.2357269377310376 
3.3200000000025818, -1.2494766304309695 
3.330000000002603, -1.2654190755063093 
3.340000000002624, -1.2795047160045159 
3.350000000002645, -1.290207041511411 
3.360000000002666, -1.2975111851838272 
3.3700000000026873, -1.3019700550926003 
3.3800000000027084, -1.3043379521749459 
3.3900000000027295, -1.3053425375779866 
3.4000000000027506, -1.3055296937364609 
3.4100000000027717, -1.3052592948478656 
3.420000000002793, -1.304814357814584 
3.430000000002814, -1.3044965361383936 
3.440000000002835, -1.3045498037428414 
3.450000000002856, -1.3049899026703422 
3.460000000002877, -1.3056510909042063 
3.4700000000028983, -1.306354846104095 
3.4800000000029194, -1.3069531050132412 
3.4900000000029405, -1.3073200995931615 
3.5000000000029616, -1.3073630252187078 
3.5100000000029827, -1.3070250136044974 
3.520000000003004, -1.3062771538988711 
3.530000000003025, -1.3051070038759343 
3.540000000003046, -1.3035100697287394 
3.550000000003067, -1.3014950707940065 
3.5600000000030882, -1.2991104868841301 
3.5700000000031094, -1.2965090005695565 
3.5800000000031305, -1.2940579351585628 
3.5900000000031516, -1.2923088266192835 
3.6000000000031727, -1.2915432998906615 
3.6100000000031938, -1.2914274937890189 
3.620000000003215, -1.291404527928367 
3.630000000003236, -1.2910735651340663 
3.640000000003257, -1.2900699509704132 
3.650000000003278, -1.2877139915606106 
3.6600000000032993, -1.2825147216278339 
3.6700000000033204, -1.2715554055096734 
3.6800000000033415, -1.250390773142535 
3.6900000000033626, -1.2150372686599606 
3.7000000000033837, -1.1672827996327575 
3.710000000003405, -1.119666843129247 
3.720000000003426, -1.088319913557977 
3.730000000003447, -1.076383588463967 
3.740000000003468, -1.0749290200424597 
3.750000000003489, -1.0761917779029828 
3.7600000000035103, -1.0773226259985258 
3.7700000000035314, -1.077833631937503 
3.7800000000035525, -1.077746149243874 
3.7900000000035736, -1.0769757098772648 
3.8000000000035947, -1.0750528911562123 
3.810000000003616, -1.0706084300922227 
3.820000000003637, -1.0600387898050558 
3.830000000003658, -1.0346980627767366 
3.840000000003679, -0.9788471938991401 
3.8500000000037002, -0.8815591232220936 
3.8600000000037213, -0.765800365405468 
3.8700000000037424, -0.6745647159892593 
3.8800000000037635, -0.6216226913859527 
3.8900000000037847, -0.595718511613774 
3.9000000000038058, -0.58414702600202 
3.910000000003827, -0.5793365602140473 
3.920000000003848, -0.5775273926124256 
3.930000000003869, -0.5769732913731418 
3.94000000000389, -0.5768888599911942 
3.9500000000039113, -0.5769259419816954 
3.9600000000039324, -0.5769265422905197 
3.9700000000039535, -0.5768118890149967 
3.9800000000039746, -0.576541680620901 
3.9900000000039957, -0.5761131053797987 
4.000000000004016, -0.5755741471137449 
4.010000000003993, -0.575017751353752 
4.02000000000397, -0.5745409385565167 
4.030000000003946, -0.5741954640786323 
4.040000000003923, -0.5739664871021037 
4.0500000000039, -0.5737885138163804 
4.0600000000038765, -0.5735853147274027 
4.070000000003853, -0.5733081552802622 
4.08000000000383, -0.5729516570284173 
4.090000000003807, -0.5725531543389859 
4.100000000003783, -0.572199057926638 
4.11000000000376, -0.5720590553567345 
4.120000000003737, -0.5724661177676836 
4.130000000003713, -0.5740695686992032 
4.14000000000369, -0.5781091167761006 
4.150000000003667, -0.5868814375933714 
4.1600000000036434, -0.6044333523402018 
4.17000000000362, -0.6370746908818298 
4.180000000003597, -0.6914801984696054 
4.1900000000035735, -0.7658703463573402 
4.20000000000355, -0.8404820874865758 
4.210000000003527, -0.8928026985105427 
4.220000000003504, -0.9203250248772881 
4.23000000000348, -0.9327111052933197 
4.240000000003457, -0.9379837919690356 
4.250000000003434, -0.9401511067778898 
4.26000000000341, -0.9408969101498738 
4.270000000003387, -0.9408626457980118 
4.280000000003364, -0.9402047762706589 
4.2900000000033405, -0.9387655486547907 
4.300000000003317, -0.9360643057942957 
4.310000000003294, -0.9313235896548163 
4.320000000003271, -0.9243034951416894 
4.330000000003247, -0.9193316577418007 
4.340000000003224, -0.9348092176790322 
4.350000000003201, -1.0050730207066516 
4.360000000003177, -1.1366083632212585 
4.370000000003154, -1.2607295862430994 
4.380000000003131, -1.326086032597477 
4.390000000003107, -1.351006561067449 
4.400000000003084, -1.3596600166131072 
4.410000000003061, -1.3626037661758519 
4.4200000000030375, -1.3634453633617665 
4.430000000003014, -1.3633657551475569 
4.440000000002991, -1.3627887587094296 
4.450000000002968, -1.3621426609717968 
4.460000000002944, -1.362456658924039 
4.470000000002921, -1.3649745500252346 
4.480000000002898, -1.3694261666243475 
4.490000000002874, -1.3742445753816002 
4.500000000002851, -1.378363637191896 
4.510000000002828, -1.3815166591397234 
4.520000000002804, -1.3837553082606555 
4.530000000002781, -1.3851851570008622 
4.540000000002758, -1.3859099350323996 
4.5500000000027345, -1.3860389419021286 
4.560000000002711, -1.3856931669250294 
4.570000000002688, -1.3850061333162385 
4.580000000002665, -1.384129772774904 
4.590000000002641, -1.383220942644082 
4.600000000002618, -1.3824185707902654 
4.610000000002595, -1.381864591146411 
4.620000000002571, -1.3816443165444086 
4.630000000002548, -1.3816315401163735 
4.640000000002525, -1.3815401242686898 
4.6500000000025015, -1.3810712892748414 
4.660000000002478, -1.3798725512862509 
4.670000000002455, -1.3773826698280118 
4.6800000000024315, -1.3727224810086296 
4.690000000002408, -1.3647281503959752 
4.700000000002385, -1.352159547289327 
4.710000000002362, -1.3343034819933388 
4.720000000002338, -1.3128630776907162 
4.730000000002315, -1.2943675127080507 
4.740000000002292, -1.2855563803848529 
4.750000000002268, -1.284518833761121 
4.760000000002245, -1.2856523625848661 
4.770000000002222, -1.2864798625137484 
4.7800000000021985, -1.2866341978880396 
4.790000000002175, -1.2860780164895818 
4.800000000002152, -1.2844386747151657 
4.810000000002129, -1.2804599178953728 
4.820000000002105, -1.2709336372893254 
4.830000000002082, -1.2508448915293868 
4.840000000002059, -1.229107968626622 
4.850000000002035, -1.26743869458964 
4.860000000002012, -1.4023173676844451 
4.870000000001989, -1.519307501934381 
4.880000000001965, -1.5685968051853072 
4.890000000001942, -1.5848098111497686 
4.900000000001919, -1.5899675870071857 
4.9100000000018955, -1.5914970323287805 
4.920000000001872, -1.5916882958406824 
4.930000000001849, -1.591324334722395 
