t, s[1].omega / s[0].omega 
0, -1.0399984277506713 
0.009999999999999995, -1.0397461897480889 
0.019999999999999934, -1.0393204834715315 
0.029999999999999874, -1.0388589766556782 
0.04000000000000012, -1.0385940659020292 
0.050000000000000405, -1.0385906523905966 
0.06000000000000069, -1.0386364939722574 
0.07000000000000098, -1.0385034080960533 
0.08000000000000126, -1.0381485668696269 
0.09000000000000155, -1.0376185978386172 
0.10000000000000184, -1.0369992459054327 
0.11000000000000212, -1.0365013555987386 
0.12000000000000241, -1.036314847608628 
0.130000000000002, -1.0363099394252835 
0.1400000000000009, -1.036168248931836 
0.1499999999999998, -1.0357351759806015 
0.1599999999999987, -1.0350634058836252 
0.1699999999999976, -1.0342595060684645 
0.1799999999999965, -1.0335005932706849 
0.1899999999999954, -1.033067234467671 
0.1999999999999943, -1.0329820726810641 
0.2099999999999932, -1.0328735854894064 
0.2199999999999921, -1.032442431830793 
0.229999999999991, -1.0316370292496746 
0.2399999999999899, -1.0306123684185817 
0.2499999999999888, -1.0295542469815007 
0.2599999999999877, -1.0287848809030262 
0.2699999999999866, -1.0285365119439707 
0.2799999999999855, -1.028460701088055 
0.2899999999999844, -1.0281203256259652 
0.2999999999999833, -1.0272799200726188 
0.3099999999999822, -1.0260353052492204 
0.3199999999999811, -1.0246481751372587 
0.32999999999998, -1.0234561439263206 
0.3399999999999789, -1.0229004649906348 
0.3499999999999778, -1.0228030136828514 
0.35999999999997667, -1.0225923493590443 
0.36999999999997557, -1.0218782731400826 
0.37999999999997447, -1.020527326254862 
0.38999999999997337, -1.018833314472093 
0.39999999999997227, -1.0171864181753478 
0.40999999999997117, -1.0161489641941241 
0.41999999999997006, -1.0158969965785385 
0.42999999999996896, -1.0157909585228353 
0.43999999999996786, -1.0153121780917085 
0.44999999999996676, -1.014096729949899 
0.45999999999996566, -1.0122424330679816 
0.46999999999996456, -1.0102218163565981 
0.47999999999996346, -1.0086121261948096 
0.48999999999996235, -1.00797814638257 
0.49999999999996125, -1.0078867635655526 
0.5099999999999602, -1.0076372213462197 
0.519999999999959, -1.0067735964722577 
0.529999999999958, -1.0050590888321778 
0.5399999999999568, -1.0028882748724828 
0.5499999999999557, -1.0008362344405348 
0.5599999999999546, -0.9996131013926993 
0.5699999999999535, -0.9993412185315234 
0.5799999999999524, -0.9992394776016121 
0.5899999999999513, -0.9987581274086647 
0.5999999999999502, -0.9974862253072736 
0.6099999999999491, -0.9954933577965254 
0.619999999999948, -0.9933261382584513 
0.6299999999999469, -0.9915899282884605 
0.6399999999999458, -0.9908652050111009 
0.6499999999999447, -0.9907614101695972 
0.6599999999999436, -0.9905558725194543 
0.6699999999999425, -0.9898097686068126 
0.6799999999999414, -0.9882929250049352 
0.6899999999999403, -0.9863540444907526 
0.6999999999999392, -0.984485690092075 
0.7099999999999381, -0.9832483450975369 
0.719999999999937, -0.982892182997749 
0.7299999999999359, -0.9828140404350281 
0.7399999999999348, -0.9824703877470309 
0.7499999999999337, -0.9815319630989301 
0.7599999999999326, -0.9800458039973995 
0.7699999999999315, -0.9784029556762767 
0.7799999999999304, -0.97697495283289 
0.7899999999999293, -0.9762039475455703 
0.7999999999999282, -0.9760454438866447 
0.8099999999999271, -0.975931206099493 
0.819999999999926, -0.97546793247193 
0.8299999999999249, -0.9745026635751584 
0.8399999999999238, -0.9732479388070818 
0.8499999999999227, -0.9719776799083122 
0.8599999999999216, -0.9709802892315403 
0.8699999999999205, -0.9705478158331371 
0.8799999999999194, -0.970478262866685 
0.8899999999999183, -0.9703172772180905 
0.8999999999999172, -0.9698072480645163 
0.9099999999999161, -0.9689681459882798 
0.919999999999915, -0.9679984537341414 
0.9299999999999139, -0.9670680701930012 
0.9399999999999128, -0.966421208882182 
0.9499999999999117, -0.9662113823966175 
0.9599999999999106, -0.9661841294716198 
0.9699999999999095, -0.9660013161897626 
0.9799999999999084, -0.9655395824740619 
0.9899999999999073, -0.9648910985866037 
0.9999999999999062, -0.9641680831571439 
1.0099999999999052, -0.9635111739025978 
1.019999999999904, -0.9631330370294896 
1.029999999999903, -0.9630764025858782 
1.039999999999902, -0.9630868966726135 
1.0499999999999008, -0.9629334209937219 
1.0599999999998997, -0.9625897774821186 
1.0699999999998986, -0.9621189075989066 
1.0799999999998975, -0.9615800230945035 
1.0899999999998964, -0.961140060378895 
1.0999999999998953, -0.9609778984396586 
1.1099999999998942, -0.9610499976742602 
1.119999999999893, -0.961124778812766 
1.129999999999892, -0.9610619370839405 
1.1399999999998909, -0.9608600269950957 
1.1499999999998898, -0.9605186239900974 
1.1599999999998887, -0.9601120320313943 
1.1699999999998876, -0.9598594699906294 
1.1799999999998865, -0.9598983365510892 
1.1899999999998854, -0.9601140977810719 
1.1999999999998843, -0.9603062235671104 
1.2099999999998832, -0.960386958946704 
1.219999999999882, -0.9603093998416558 
1.229999999999881, -0.960044166653545 
1.2399999999998799, -0.9597407326613531 
1.2499999999998788, -0.9596804679625194 
1.2599999999998777, -0.9599474232700247 
1.2699999999998766, -0.9603613959975323 
1.2799999999998755, -0.9607454449576956 
1.2899999999998744, -0.9609975795547123 
1.2999999999998733, -0.9609968728019106 
1.3099999999998722, -0.9607647217885913 
1.319999999999871, -0.9605631111114695 
1.32999999999987, -0.9607439022391271 
1.3399999999998689, -0.9613160632020276 
1.3499999999998678, -0.962026632288914 
1.3599999999998666, -0.9626843098053366 
1.3699999999998655, -0.9630888573625028 
1.3799999999998644, -0.9631009977959756 
1.3899999999998633, -0.9628767831758165 
1.3999999999998622, -0.9628128787552087 
1.4099999999998611, -0.9633439764639234 
1.41999999999986, -0.9643588190561043 
1.429999999999859, -0.9655027258670075 
1.4399999999998578, -0.966478536850104 
1.4499999999998567, -0.9669491077657031 
1.4599999999998556, -0.966914611177866 
1.4699999999998545, -0.9666968832429229 
1.4799999999998534, -0.9668664638557806 
1.4899999999998523, -0.9679354717356827 
1.4999999999998512, -0.969582572459772 
1.5099999999998501, -0.9712799808909554 
1.519999999999849, -0.9724922924739086 
1.529999999999848, -0.972893486391169 
1.5399999999998468, -0.9727772772637729 
1.5499999999998457, -0.9726027776873692 
1.5599999999998446, -0.9731991725635545 
1.5699999999998435, -0.9750520251671297 
1.5799999999998424, -0.9774864964244782 
1.5899999999998413, -0.979679832079637 
1.5999999999998402, -0.9808655987321042 
1.6099999999998391, -0.9810862325100167 
1.619999999999838, -0.9808860316026492 
1.629999999999837, -0.9808721704976092 
1.6399999999998358, -0.9821952306159629 
1.6499999999998347, -0.9849833682608695 
1.6599999999998336, -0.9880949228613536 
1.6699999999998325, -0.9903694674307745 
1.6799999999998314, -0.9912240588422018 
1.6899999999998303, -0.9912337468338713 
1.6999999999998292, -0.9909947860870258 
1.709999999999828, -0.9914079218182368 
1.719999999999827, -0.9936868569481713 
1.729999999999826, -0.9971566207902716 
1.7399999999998248, -1.0003576356872934 
1.7499999999998237, -1.0021199340866993 
1.7599999999998226, -1.0025301895607799 
1.7699999999998215, -1.0023667165060328 
1.7799999999998204, -1.0022440593674586 
1.7899999999998193, -1.003431136333554 
1.7999999999998182, -1.0063987114658348 
1.809999999999817, -1.0098029254894676 
1.819999999999816, -1.0123152107766924 
1.8299999999998149, -1.013296850226418 
1.8399999999998138, -1.0133465248367914 
1.8499999999998127, -1.0131077608096606 
1.8599999999998116, -1.0134195471616796 
1.8699999999998105, -1.0153397642172155 
1.8799999999998094, -1.0182020165760333 
1.8899999999998083, -1.0208120801892187 
1.8999999999998072, -1.0222961485789728 
1.909999999999806, -1.0226442317280888 
1.919999999999805, -1.022474288304248 
1.9299999999998039, -1.0223761894230226 
1.9399999999998028, -1.0233084897978064 
1.9499999999998017, -1.0253072296871686 
1.9599999999998006, -1.0274521678442943 
1.9699999999997995, -1.0290471469571445 
1.9799999999997984, -1.0296854845315504 
1.9899999999997973, -1.0296516155833704 
1.9999999999997962, -1.0294333889381988 
2.0099999999998173, -1.029722213707706 
2.0199999999998384, -1.0309133330011377 
2.0299999999998595, -1.032434575542251 
2.0399999999998806, -1.0337664139646936 
2.0499999999999017, -1.034530431636194 
2.059999999999923, -1.0346451494167825 
2.069999999999944, -1.0344302946565447 
2.079999999999965, -1.0343782733251754 
2.089999999999986, -1.034964023525219 
2.100000000000007, -1.0359419269787402 
2.1100000000000283, -1.0368938032154726 
2.1200000000000494, -1.0375711117637212 
2.1300000000000705, -1.0377821291683418 
2.1400000000000916, -1.0376125634641817 
2.1500000000001127, -1.037399670396819 
2.160000000000134, -1.0375756773812765 
2.170000000000155, -1.0381380578936061 
2.180000000000176, -1.0387620467546097 
2.190000000000197, -1.0392447895242707 
2.2000000000002182, -1.039450352746334 
2.2100000000002393, -1.0393214783786888 
2.2200000000002604, -1.0390356525886144 
2.2300000000002815, -1.0389416554876783 
2.2400000000003026, -1.0391889983294127 
2.2500000000003237, -1.0395695564463865 
2.260000000000345, -1.0398654385461243 
2.270000000000366, -1.0399801488231541 
2.280000000000387, -1.0398500749685693 
2.290000000000408, -1.0395227163220566 
2.3000000000004293, -1.0392433273547683 
2.3100000000004504, -1.0392372619657013 
2.3200000000004715, -1.039431509590596 
2.3300000000004926, -1.0395959641996542 
2.3400000000005137, -1.0395970514720057 
2.3500000000005348, -1.039408109763175 
2.360000000000556, -1.039031807210127 
2.370000000000577, -1.0386086529157341 
2.380000000000598, -1.03837828399614 
2.390000000000619, -1.0384042038524415 
2.4000000000006403, -1.0384862651563715 
2.4100000000006614, -1.0384077150753617 
2.4200000000006825, -1.038123754631772 
2.4300000000007036, -1.0376639465595303 
2.4400000000007247, -1.03710478002132 
2.450000000000746, -1.0366544143335583 
2.460000000000767, -1.036493656574291 
2.470000000000788, -1.03651027287301 
2.480000000000809, -1.0364085815415514 
2.49000000000083, -1.0360451984516514 
2.5000000000008513, -1.0354632738203318 
2.5100000000008724, -1.0347481316724256 
2.5200000000008935, -1.0340631320224094 
2.5300000000009146, -1.0336663410384233 
2.5400000000009357, -1.033592714005676 
2.550000000000957, -1.033508715426358 
2.560000000000978, -1.0331345023266143 
2.570000000000999, -1.0324293575619794 
2.58000000000102, -1.031524223222424 
2.5900000000010412, -1.0305768379700144 
2.6000000000010624, -1.0298731112323634 
2.6100000000010835, -1.0296358131151107 
2.6200000000011046, -1.0295707681609763 
2.6300000000011257, -1.0292668939458247 
2.6400000000011468, -1.0285163039689798 
2.650000000001168, -1.0274119776384376 
2.660000000001189, -1.0261740055381328 
2.67000000000121, -1.025092067081922 
2.680000000001231, -1.0245653234919092 
2.6900000000012523, -1.0244691305517575 
2.7000000000012734, -1.0242757671875924 
2.7100000000012945, -1.02362000116662 
2.7200000000013156, -1.0223996292438373 
2.7300000000013367, -1.0208764667800796 
2.740000000001358, -1.0193821253493702 
2.750000000001379, -1.018413895378382 
2.7600000000014, -1.018164643501155 
2.770000000001421, -1.018062698548292 
2.780000000001442, -1.0176086504588893 
2.7900000000014633, -1.0164761842170094 
2.8000000000014844, -1.0147730144941984 
2.8100000000015055, -1.0129157896929761 
2.8200000000015266, -1.0114167957916391 
2.8300000000015477, -1.0108082817590722 
2.840000000001569, -1.010715913793699 
2.85000000000159, -1.0104708834455018 
2.860000000001611, -1.0096345326305043 
2.870000000001632, -1.008004170935218 
2.8800000000016532, -1.0059546969292938 
2.8900000000016743, -1.004011511461865 
2.9000000000016954, -1.0028451911990182 
2.9100000000017165, -1.0025829008754799 
2.9200000000017377, -1.0024787399463178 
2.9300000000017588, -1.001993707300308 
2.94000000000178, -1.0007319957884049 
2.950000000001801, -0.9987787715315244 
2.960000000001822, -0.9966605958369621 
2.970000000001843, -0.9949703308291207 
2.9800000000018643, -0.9942767315157353 
2.9900000000018854, -0.9941775126969483 
3.0000000000019065, -0.9939610686987451 
3.0100000000019276, -0.9931891254505353 
3.0200000000019487, -0.9916389418311071 
3.03000000000197, -0.9896704924466125 
3.040000000001991, -0.98778411065376 
3.050000000002012, -0.9865629694140465 
3.060000000002033, -0.986230332125032 
3.070000000002054, -0.9861482854992748 
3.0800000000020753, -0.9857766775282896 
3.0900000000020964, -0.984778141109473 
3.1000000000021175, -0.983210944063637 
3.1100000000021386, -0.981488686296643 
3.1200000000021597, -0.9800151113938685 
3.130000000002181, -0.9792578866266115 
3.140000000002202, -0.9791141369759371 
3.150000000002223, -0.9789827983600539 
3.160000000002244, -0.978468215142731 
3.1700000000022652, -0.9774127357828201 
3.1800000000022863, -0.9760526696914622 
3.1900000000023074, -0.9746904864359863 
3.2000000000023285, -0.9736526723831865 
3.2100000000023496, -0.9732351580375187 
3.2200000000023707, -0.973166877931185 
3.230000000002392, -0.9729722258750573 
3.240000000002413, -0.9723895556010954 
3.250000000002434, -0.9714487757880036 
3.260000000002455, -0.9703761438708065 
3.2700000000024763, -0.9693673700001303 
3.2800000000024974, -0.9686952635446875 
3.2900000000025185, -0.9684946769286392 
3.3000000000025396, -0.9684522440936673 
3.3100000000025607, -0.9682183831562167 
3.3200000000025818, -0.9676725854277944 
3.330000000002603, -0.966927539783655 
3.340000000002624, -0.9661188619152098 
3.350000000002645, -0.9654061351306741 
3.360000000002666, -0.9650132678528536 
3.3700000000026873, -0.964952803456069 
3.3800000000027084, -0.9649295319905683 
3.3900000000027295, -0.9647097216176024 
3.4000000000027506, -0.964279710068587 
3.4100000000027717, -0.963724517910859 
3.420000000002793, -0.9631219724131166 
3.430000000002814, -0.9626471762688281 
3.440000000002835, -0.9624709469640896 
3.450000000002856, -0.9625195952196729 
3.460000000002877, -0.9625395208671719 
3.4700000000028983, -0.9623970154152567 
3.4800000000029194, -0.962109378223718 
3.4900000000029405, -0.9616974745780568 
3.5000000000029616, -0.9612494327315411 
3.5100000000029827, -0.9609766784148743 
3.520000000003004, -0.9609904580307917 
3.530000000003025, -0.9611553659861536 
3.540000000003046, -0.9612669965952516 
3.550000000003067, -0.9612528537344195 
3.5600000000030882, -0.9610897875470928 
3.5700000000031094, -0.9607688493377691 
3.5800000000031305, -0.9604452807032976 
3.5900000000031516, -0.9603703376180878 
3.6000000000031727, -0.9605865563513714 
3.6100000000031938, -0.9609105494088961 
3.620000000003215, -0.9611794613996912 
3.630000000003236, -0.9613167141218614 
3.640000000003257, -0.9612326861636004 
3.650000000003278, -0.9609616905009748 
3.6600000000032993, -0.9607603561157076 
3.6700000000033204, -0.9609185504587748 
3.6800000000033415, -0.9613936152647471 
3.6900000000033626, -0.9619568307355401 
3.7000000000033837, -0.9624513983224323 
3.710000000003405, -0.9627211416612849 
3.720000000003426, -0.9626589904021298 
3.730000000003447, -0.962415719301147 
3.740000000003468, -0.9623707365231939 
3.750000000003489, -0.96284946645149 
3.7600000000035103, -0.9636917737826668 
3.7700000000035314, -0.9646073988313056 
3.7800000000035525, -0.9653647509487128 
3.7900000000035736, -0.9656954743424299 
3.8000000000035947, -0.9656041802054237 
3.810000000003616, -0.9653908577161413 
3.820000000003637, -0.9655913934656085 
3.830000000003658, -0.9665446404292573 
3.840000000003679, -0.9679130491803066 
3.8500000000037002, -0.9692891374904383 
3.8600000000037213, -0.9702507746203705 
3.8700000000037424, -0.970534444037486 
3.8800000000037635, -0.970383998977115 
3.8900000000037847, -0.9702412737636287 
3.9000000000038058, -0.9708610046712605 
3.910000000003827, -0.9725009213987338 
3.920000000003848, -0.9745518215278208 
3.930000000003869, -0.9763733580052014 
3.94000000000389, -0.977340541843035 
3.9500000000039113, -0.9774851977217945 
3.9600000000039324, -0.9772742840668583 
3.9700000000039535, -0.9773183548451514 
3.9800000000039746, -0.9786234410352564 
3.9900000000039957, -0.9811212079556114 
4.000000000004016, -0.9838375799723493 
4.010000000003993, -0.9858078100049374 
4.02000000000397, -0.9865313448027977 
4.030000000003946, -0.9865041879574391 
4.040000000003923, -0.9862765634063809 
4.0500000000039, -0.9867558702813345 
4.0600000000038765, -0.9889769027180138 
4.070000000003853, -0.9922170698562133 
4.08000000000383, -0.9951789649455586 
4.090000000003807, -0.9967952109489226 
4.100000000003783, -0.9971547896080925 
4.11000000000376, -0.9969797023032227 
4.120000000003737, -0.9968823330424847 
4.130000000003713, -0.9981289956945434 
4.14000000000369, -1.0011120383186263 
4.150000000003667, -1.0045066508183635 
4.1600000000036434, -1.0069958231310328 
4.17000000000362, -1.0079527540270812 
4.180000000003597, -1.007992365536999 
4.1900000000035735, -1.0077523632913514 
4.20000000000355, -1.0080936221140724 
4.210000000003527, -1.010131755536614 
4.220000000003504, -1.0131870687623996 
4.23000000000348, -1.0159760446822395 
4.240000000003457, -1.0175415964742875 
4.250000000003434, -1.0179064792207988 
4.26000000000341, -1.0177378259566359 
4.270000000003387, -1.0176366303931947 
4.280000000003364, -1.0186454164231855 
4.2900000000033405, -1.0208816300093138 
4.300000000003317, -1.0233157601883394 
4.310000000003294, -1.0251191934523638 
4.320000000003271, -1.0258365160207032 
4.330000000003247, -1.0258219821869323 
4.340000000003224, -1.0256000948547936 
4.350000000003201, -1.0259091755651755 
4.360000000003177, -1.0272731297371014 
4.370000000003154, -1.0290694587260132 
4.380000000003131, -1.0306573055701735 
4.390000000003107, -1.0315699711455801 
4.400000000003084, -1.0317360210614843 
4.410000000003061, -1.0315319455597818 
4.4200000000030375, -1.0314794623309456 
4.430000000003014, -1.032158363389534 
4.440000000002991, -1.0333409521988777 
4.450000000002968, -1.0345187033031824 
4.460000000002944, -1.0353739460516684 
4.470000000002921, -1.0356742837263484 
4.480000000002898, -1.0355364333508716 
4.490000000002874, -1.035328254668495 
4.500000000002851, -1.0355468363721674 
4.510000000002828, -1.0362415424147948 
4.520000000002804, -1.0370347875521406 
4.530000000002781, -1.0376803253677667 
4.540000000002758, -1.0380005088105864 
4.5500000000027345, -1.0379281931525988 
4.560000000002711, -1.0376640044934708 
4.570000000002688, -1.0375941422917678 
4.580000000002665, -1.0379210640406653 
4.590000000002641, -1.0384176386497392 
4.600000000002618, -1.0388425085224557 
4.610000000002595, -1.0390755807271086 
4.620000000002571, -1.0390258169822855 
4.630000000002548, -1.0387425875943812 
4.640000000002525, -1.038491716752181 
4.6500000000025015, -1.0385364722605945 
4.660000000002478, -1.038805698317901 
4.670000000002455, -1.0390640349878681 
4.6800000000024315, -1.0391721358741197 
4.690000000002408, -1.0390803897543557 
4.700000000002385, -1.038774003530694 
4.710000000002362, -1.0383984848919778 
4.720000000002338, -1.038212935654926 
4.730000000002315, -1.0382871079643332 
4.740000000002292, -1.03843199137891 
4.750000000002268, -1.038441547746028 
4.760000000002245, -1.0382624835694072 
4.770000000002222, -1.0378994490631173 
4.7800000000021985, -1.0374171606177678 
4.790000000002175, -1.0370260958001543 
4.800000000002152, -1.0369034522265608 
4.810000000002129, -1.0369573733901347 
4.820000000002105, -1.0369207162977554 
4.830000000002082, -1.0366589925451495 
4.840000000002059, -1.0361980426759885 
4.850000000002035, -1.0355961148952708 
4.860000000002012, -1.0350026722189887 
4.870000000001989, -1.0346544245976022 
4.880000000001965, -1.034600376277676 
4.890000000001942, -1.0345572667639915 
4.900000000001919, -1.0342678579307174 
4.9100000000018955, -1.0336972012276118 
4.920000000001872, -1.0329437393834935 
4.930000000001849, -1.0321332626168114 
