t, s[1].omega / s[0].omega 
0, -0.5699977372736023 
0.009999999999999995, -0.5697851420274345 
0.019999999999999934, -0.5695919011722987 
0.029999999999999874, -0.5693982751586482 
0.04000000000000012, -0.5691805837092747 
0.050000000000000405, -0.5689195838908936 
0.06000000000000069, -0.5686053740313913 
0.07000000000000098, -0.5682380760838495 
0.08000000000000126, -0.5678263417006233 
0.09000000000000155, -0.567386438634206 
0.10000000000000184, -0.5669438993951363 
0.11000000000000212, -0.5665389084905871 
0.12000000000000241, -0.5662364403406269 
0.130000000000002, -0.5661424217463467 
0.1400000000000009, -0.5664271688416187 
0.1499999999999998, -0.5673556832893466 
0.1599999999999987, -0.5693182264624824 
0.1699999999999976, -0.572838700560691 
0.1799999999999965, -0.5785083396443909 
0.1899999999999954, -0.5867642009271895 
0.1999999999999943, -0.5974868448966298 
0.2099999999999932, -0.6096477455446966 
0.2199999999999921, -0.6215116643884984 
0.229999999999991, -0.6315105675565345 
0.2399999999999899, -0.638993658666262 
0.2499999999999888, -0.6441722510814832 
0.2599999999999877, -0.6476096912852956 
0.2699999999999866, -0.6498453193720561 
0.2799999999999855, -0.6512752430646936 
0.2899999999999844, -0.6521617703819834 
0.2999999999999833, -0.6526709246222223 
0.3099999999999822, -0.6529035174772919 
0.3199999999999811, -0.652914972093676 
0.32999999999998, -0.6527262381899142 
0.3399999999999789, -0.6523285642829056 
0.3499999999999778, -0.651684676351566 
0.35999999999997667, -0.6507298608948411 
0.36999999999997557, -0.6493789234961109 
0.37999999999997447, -0.6475472115484295 
0.38999999999997337, -0.6451898912511161 
0.39999999999997227, -0.6423470215455896 
0.40999999999997117, -0.6391620453525946 
0.41999999999997006, -0.6358485782099024 
0.42999999999996896, -0.6326223616049079 
0.43999999999996786, -0.6296445086343323 
0.44999999999996676, -0.6270037020330884 
0.45999999999996566, -0.62472972737253 
0.46999999999996456, -0.6228171593480485 
0.47999999999996346, -0.62124497103928 
0.48999999999996235, -0.6199880766093907 
0.49999999999996125, -0.6190222968012569 
0.5099999999999602, -0.6183255320069202 
0.519999999999959, -0.6178774174035037 
0.529999999999958, -0.6176588574600114 
0.5399999999999568, -0.6176520972085526 
0.5499999999999557, -0.6178414690864803 
0.5599999999999546, -0.6182146251325036 
0.5699999999999535, -0.6187638564410356 
0.5799999999999524, -0.6194869033204541 
0.5899999999999513, -0.6203863510701131 
0.5999999999999502, -0.6214663105711459 
0.6099999999999491, -0.622725002078464 
0.619999999999948, -0.6241429977100156 
0.6299999999999469, -0.6256701997203221 
0.6399999999999458, -0.6272195307274413 
0.6499999999999447, -0.6286771911630097 
0.6599999999999436, -0.6299313125419634 
0.6699999999999425, -0.6309048888679375 
0.6799999999999414, -0.6315720856508953 
0.6899999999999403, -0.6319503587751317 
0.6999999999999392, -0.6320790774772143 
0.7099999999999381, -0.6319993873488778 
0.719999999999937, -0.6317421115129889 
0.7299999999999359, -0.6313228350226506 
0.7399999999999348, -0.630740855924841 
0.7499999999999337, -0.6299794299918503 
0.7599999999999326, -0.6290060256547073 
0.7699999999999315, -0.6277717914370311 
0.7799999999999304, -0.6262081824989453 
0.7899999999999293, -0.6242145052931213 
0.7999999999999282, -0.6216244809894141 
0.8099999999999271, -0.6181493066387389 
0.819999999999926, -0.6133625448240756 
0.8299999999999249, -0.606908238113204 
0.8399999999999238, -0.5989952712810209 
0.8499999999999227, -0.5906726508706679 
0.8599999999999216, -0.583307243608221 
0.8699999999999205, -0.5777531057728507 
0.8799999999999194, -0.574094307685728 
0.8899999999999183, -0.5719467842343738 
0.8999999999999172, -0.5708211060483006 
0.9099999999999161, -0.5703103363672339 
0.919999999999915, -0.5701330626488577 
0.9299999999999139, -0.5701136079927243 
0.9399999999999128, -0.5701488015759592 
0.9499999999999117, -0.570179724311107 
0.9599999999999106, -0.570172054118611 
0.9699999999999095, -0.5701038484518679 
0.9799999999999084, -0.5699589763721992 
0.9899999999999073, -0.5697250111413746 
0.9999999999999062, -0.5693948472076671 
1.0099999999999052, -0.5689708221598689 
1.019999999999904, -0.5684686101455119 
1.029999999999903, -0.5679170117712317 
1.039999999999902, -0.5673513586237066 
1.0499999999999008, -0.566802707235286 
1.0599999999998997, -0.5662885247089955 
1.0699999999998986, -0.5658096799890263 
1.0799999999998975, -0.5653544135441106 
1.0899999999998964, -0.5649062110200094 
1.0999999999998953, -0.5644513747745725 
1.1099999999998942, -0.5639836070856519 
1.119999999999893, -0.5635055613830648 
1.129999999999892, -0.5630291467598854 
1.1399999999998909, -0.5625766419020373 
1.1499999999998898, -0.5621840654119559 
1.1599999999998887, -0.5619076727977089 
1.1699999999998876, -0.5618342220236874 
1.1799999999998865, -0.5620955380311531 
1.1899999999998854, -0.5628873397276368 
1.1999999999998843, -0.5644901881002439 
1.2099999999998832, -0.5672846266523722 
1.219999999999882, -0.5717397109770614 
1.229999999999881, -0.5783329137854192 
1.2399999999998799, -0.5873460040615563 
1.2499999999998788, -0.5985370208381223 
1.2599999999998777, -0.6108857366136178 
1.2699999999998766, -0.6227953137203563 
1.2799999999998755, -0.6328251319479736 
1.2899999999998744, -0.6403407845150862 
1.2999999999998733, -0.6455127595770753 
1.3099999999998722, -0.6488858696407307 
1.319999999999871, -0.6510136587497053 
1.32999999999987, -0.6523155888342964 
1.3399999999998689, -0.6530704589566902 
1.3499999999998678, -0.653450670594581 
1.3599999999998666, -0.653555313731429 
1.3699999999998655, -0.6534321199746149 
1.3799999999998644, -0.6530889419498274 
1.3899999999998633, -0.6524974043204245 
1.3999999999998622, -0.651591799632522 
1.4099999999998611, -0.6502682157350732 
1.41999999999986, -0.6483933939585456 
1.429999999999859, -0.6458372141442006 
1.4399999999998578, -0.6425361404744354 
1.4499999999998567, -0.6385651564901822 
1.4599999999998556, -0.634161103167312 
1.4699999999998545, -0.6296584102960556 
1.4799999999998534, -0.6253753338520835 
1.4899999999998523, -0.6215306648161032 
1.4999999999998512, -0.618227458335716 
1.5099999999998501, -0.6154818179721471 
1.519999999999849, -0.6132611170501076 
1.529999999999848, -0.6115124996196654 
1.5399999999998468, -0.6101786900333996 
1.5499999999998457, -0.6092048380648634 
1.5599999999998446, -0.6085407145875897 
1.5699999999998435, -0.6081411752587964 
1.5799999999998424, -0.6079663632561326 
1.5899999999998413, -0.6079821498104161 
1.5999999999998402, -0.6081608093155023 
1.6099999999998391, -0.6084817451633675 
1.619999999999838, -0.6089320282389268 
1.629999999999837, -0.609506378275096 
1.6399999999998358, -0.6102058825225015 
1.6499999999998347, -0.6110343263012785 
1.6599999999998336, -0.6119910337323187 
1.6699999999998325, -0.6130604198152859 
1.6799999999998314, -0.6142015220154884 
1.6899999999998303, -0.615344392546023 
1.6999999999998292, -0.616400304907406 
1.709999999999828, -0.6172850292733043 
1.719999999999827, -0.6179428664744183 
1.729999999999826, -0.6183566510887928 
1.7399999999998248, -0.6185402617695779 
1.7499999999998237, -0.6185224605267576 
1.7599999999998226, -0.6183323894105853 
1.7699999999998215, -0.6179911224739663 
1.7799999999998204, -0.6175086120866012 
1.7899999999998193, -0.6168839614554956 
1.7999999999998182, -0.6161076893599854 
1.809999999999817, -0.6151656802311354 
1.819999999999816, -0.6140445840520141 
1.8299999999998149, -0.6127359288710654 
1.8399999999998138, -0.6112286072533049 
1.8499999999998127, -0.6094675886148307 
1.8599999999998116, -0.6072631162785951 
1.8699999999998105, -0.6042204185406652 
1.8799999999998094, -0.5999141112257567 
1.8899999999998083, -0.5943980946820945 
1.8999999999998072, -0.5885019075891326 
1.909999999999806, -0.5833408350236744 
1.919999999999805, -0.5795774279065155 
1.9299999999998039, -0.5772361425766508 
1.9399999999998028, -0.5759843578749556 
1.9499999999998017, -0.5754309544727507 
1.9599999999998006, -0.5752663863440577 
1.9699999999997995, -0.5752860752525073 
1.9799999999997984, -0.5753681600064288 
1.9899999999997973, -0.5754443511210594 
1.9999999999997962, -0.5754768607691348 
2.0099999999998173, -0.5754431016670453 
2.0199999999998384, -0.5753266945562145 
2.0299999999998595, -0.5751133139489724 
2.0399999999998806, -0.5747906425787633 
2.0499999999999017, -0.5743519802112494 
2.059999999999923, -0.5738020726576195 
2.069999999999944, -0.5731616645633446 
2.079999999999965, -0.5724662728906872 
2.089999999999986, -0.5717574520228552 
2.100000000000007, -0.5710703723576219 
2.1100000000000283, -0.5704245764911942 
2.1200000000000494, -0.5698223007800894 
2.1300000000000705, -0.569253706184083 
2.1400000000000916, -0.5687050731153545 
2.1500000000001127, -0.5681659261144654 
2.160000000000134, -0.5676331658956391 
2.170000000000155, -0.5671127135225553 
2.180000000000176, -0.5666204353493323 
2.190000000000197, -0.5661840474556372 
2.2000000000002182, -0.5658470633631162 
2.2100000000002393, -0.5656753265158031 
2.2200000000002604, -0.5657663973737774 
2.2300000000002815, -0.5662617917372484 
2.2400000000003026, -0.5673612797334426 
2.2500000000003237, -0.5693361971216848 
2.260000000000345, -0.572533227056111 
2.270000000000366, -0.577349118581299 
2.280000000000387, -0.5841415115889161 
2.290000000000408, -0.5930392857796756 
2.3000000000004293, -0.6036782557147504 
2.3100000000004504, -0.6150507495235461 
2.3200000000004715, -0.6257557740078542 
2.3300000000004926, -0.6346262761450593 
2.3400000000005137, -0.6412090520695238 
2.3500000000005348, -0.645708680063289 
2.360000000000556, -0.6486198772122451 
2.370000000000577, -0.6504311186731809 
2.380000000000598, -0.6515103266055033 
2.390000000000619, -0.6521007749249337 
2.4000000000006403, -0.6523505029776437 
2.4100000000006614, -0.6523405008582228 
2.4200000000006825, -0.6521028506452672 
2.4300000000007036, -0.6516290081414318 
2.4400000000007247, -0.6508703702749967 
2.450000000000746, -0.649734266151224 
2.460000000000767, -0.6480817476745434 
2.470000000000788, -0.6457403512720626 
2.480000000000809, -0.6425508232255148 
2.49000000000083, -0.6384548935217559 
2.5000000000008513, -0.6335858516183274 
2.5100000000008724, -0.6282805475999855 
2.5200000000008935, -0.622973662226331 
2.5300000000009146, -0.6180458994209161 
2.5400000000009357, -0.6137324154634165 
2.550000000000957, -0.6101210230706838 
2.560000000000978, -0.6071987537552717 
2.570000000000999, -0.6049013728054776 
2.58000000000102, -0.6031468004888466 
2.5900000000010412, -0.6018524386187354 
2.6000000000010624, -0.6009423131996237 
2.6100000000010835, -0.6003492862726676 
2.6200000000011046, -0.6000154481287754 
2.6300000000011257, -0.5998920855573949 
2.6400000000011468, -0.5999396526942875 
2.650000000001168, -0.6001277743817045 
2.660000000001189, -0.6004352200167735 
2.67000000000121, -0.6008497382516917 
2.680000000001231, -0.6013674305707247 
2.6900000000012523, -0.6019909016825291 
2.7000000000012734, -0.6027250027570817 
2.7100000000012945, -0.6035692196169118 
2.7200000000013156, -0.6045074103029057 
2.7300000000013367, -0.6054987449040372 
2.740000000001358, -0.6064765643229664 
2.750000000001379, -0.6073604232375962 
2.7600000000014, -0.6080782404285305 
2.770000000001421, -0.6085860789509802 
2.780000000001442, -0.6088738295659499 
2.7900000000014633, -0.608956409408926 
2.8000000000014844, -0.6088592830605751 
2.8100000000015055, -0.6086065922856763 
2.8200000000015266, -0.6082147617975548 
2.8300000000015477, -0.6076906777990907 
2.840000000001569, -0.607032820758633 
2.85000000000159, -0.6062345362480248 
2.860000000001611, -0.6052893932786192 
2.870000000001632, -0.6041979986459685 
2.8800000000016532, -0.602971606922042 
2.8900000000016743, -0.6016176182105293 
2.9000000000016954, -0.6000795416963163 
2.9100000000017165, -0.5981236933861049 
2.9200000000017377, -0.5952863555864624 
2.9300000000017588, -0.5911421300024221 
2.94000000000178, -0.5858686726881781 
2.950000000001801, -0.5804015530259212 
2.960000000001822, -0.5757943445620486 
2.970000000001843, -0.5725568331681734 
2.9800000000018643, -0.5706132248346607 
2.9900000000018854, -0.5696158103083089 
3.0000000000019065, -0.5692040056897881 
3.0100000000019276, -0.569106979545775 
3.0200000000019487, -0.5691508689421474 
3.03000000000197, -0.5692338516788185 
3.040000000001991, -0.5692991973351431 
3.050000000002012, -0.5693150969479814 
3.060000000002033, -0.5692616987248899 
3.070000000002054, -0.5691238188733106 
3.0800000000020753, -0.5688881094911659 
3.0900000000020964, -0.5685441224253437 
3.1000000000021175, -0.5680886498257895 
3.1100000000021386, -0.5675313624298167 
3.1200000000021597, -0.5668978017499358 
3.130000000002181, -0.5662257603755247 
3.140000000002202, -0.5655549553879294 
3.150000000002223, -0.5649151151697046 
3.160000000002244, -0.5643189612183551 
3.1700000000022652, -0.5637629543990605 
3.1800000000022863, -0.5632339286801693 
3.1900000000023074, -0.5627173716343059 
3.2000000000023285, -0.5622037551694382 
3.2100000000023496, -0.5616917104748398 
3.2200000000023707, -0.5611890937352062 
3.230000000002392, -0.5607138801826439 
3.240000000002413, -0.5602965161192238 
3.250000000002434, -0.5599847189864764 
3.260000000002455, -0.5598513065565653 
3.2700000000024763, -0.560005457227139 
3.2800000000024974, -0.5606074919469823 
3.2900000000025185, -0.5618861352909036 
3.3000000000025396, -0.5641539103297866 
3.3100000000025607, -0.5678084149663907 
3.3200000000025818, -0.5732921441190725 
3.330000000002603, -0.5809656759554673 
3.340000000002624, -0.5908597478182916 
3.350000000002645, -0.602380300508456 
3.360000000002666, -0.6142466547045377 
3.3700000000026873, -0.6249423383800626 
3.3800000000027084, -0.6334386070057287 
3.3900000000027295, -0.6395324648489377 
3.4000000000027506, -0.6436044038326036 
3.4100000000027717, -0.646205973538323 
3.420000000002793, -0.6478138025379289 
3.430000000002814, -0.6487650507701509 
3.440000000002835, -0.6492754080866732 
3.450000000002856, -0.649473204719659 
3.460000000002877, -0.64942620857503 
3.4700000000028983, -0.6491574234024936 
3.4800000000029194, -0.6486516607409685 
3.4900000000029405, -0.6478555850422189 
3.5000000000029616, -0.6466751105651302 
3.5100000000029827, -0.6449777401541466 
3.520000000003004, -0.6426134096550324 
3.530000000003025, -0.6394683167607105 
3.540000000003046, -0.6355460119442663 
3.550000000003067, -0.6310270807541231 
3.5600000000030882, -0.6262430288090889 
3.5700000000031094, -0.6215640528893834 
3.5800000000031305, -0.6172815952853118 
3.5900000000031516, -0.6135576706252089 
3.6000000000031727, -0.6104408406740298 
3.6100000000031938, -0.6079086545885127 
3.620000000003215, -0.6059054211181909 
3.630000000003236, -0.6043655660360916 
3.640000000003257, -0.6032248554262845 
3.650000000003278, -0.6024245410665824 
3.6600000000032993, -0.6019123802435735 
3.6700000000033204, -0.6016427467170288 
3.6800000000033415, -0.6015767583948273 
3.6900000000033626, -0.601682626808539 
3.7000000000033837, -0.601936135588847 
3.710000000003405, -0.6023210721964416 
3.720000000003426, -0.6028293518072309 
3.730000000003447, -0.6034603095369679 
3.740000000003468, -0.6042181916726928 
3.750000000003489, -0.6051065920696789 
3.7600000000035103, -0.6061191989006407 
3.7700000000035314, -0.6072285082147967 
3.7800000000035525, -0.6083778892557725 
3.7900000000035736, -0.6094847947938234 
3.8000000000035947, -0.6104590002149954 
3.810000000003616, -0.6112285833633587 
3.820000000003637, -0.6117579681143772 
3.830000000003658, -0.6120480459521278 
3.840000000003679, -0.6121224981069764 
3.8500000000037002, -0.612011453480376 
3.8600000000037213, -0.6117399660923413 
3.8700000000037424, -0.6113225121670969 
3.8800000000037635, -0.6107616033546777 
3.8900000000037847, -0.6100485572176956 
3.9000000000038058, -0.6091654166687228 
3.910000000003827, -0.6080874764150868 
3.920000000003848, -0.606784591147111 
3.930000000003869, -0.6052145095226819 
3.94000000000389, -0.6032922005577935 
3.9500000000039113, -0.6008177101653582 
3.9600000000039324, -0.5973983890726984 
3.9700000000039535, -0.5925453259702891 
3.9800000000039746, -0.5861332872742581 
3.9900000000039957, -0.5788769121333105 
4.000000000004016, -0.5720632988464129 
4.010000000003993, -0.566700641512964 
4.02000000000397, -0.563063677843178 
4.030000000003946, -0.560885921382036 
4.040000000003923, -0.5597264925226979 
4.0500000000039, -0.5591917035450102 
4.0600000000038765, -0.5590007253596866 
4.070000000003853, -0.5589755119388108 
4.08000000000383, -0.5590106924086133 
4.090000000003807, -0.5590459940218581 
4.100000000003783, -0.5590465519559583 
4.11000000000376, -0.558990496289794 
4.120000000003737, -0.558862137844396 
4.130000000003713, -0.5586495418835083 
4.14000000000369, -0.558345753072256 
4.150000000003667, -0.5579525836270709 
4.1600000000036434, -0.5574844996069758 
4.17000000000362, -0.5569689023425852 
4.180000000003597, -0.5564402685277051 
4.1900000000035735, -0.555929717222651 
4.20000000000355, -0.5554553290134714 
4.210000000003527, -0.5550182806874677 
4.220000000003504, -0.554606095662913 
4.23000000000348, -0.5542004006119151 
4.240000000003457, -0.5537849400529574 
4.250000000003434, -0.5533507005897494 
4.26000000000341, -0.5528976458447066 
4.270000000003387, -0.5524347260398914 
4.280000000003364, -0.5519803839311723 
4.2900000000033405, -0.5515652408899857 
4.300000000003317, -0.5512380434126076 
4.310000000003294, -0.5510757564267932 
4.320000000003271, -0.5511987398920389 
4.330000000003247, -0.5517916583343526 
4.340000000003224, -0.5531289873051107 
4.350000000003201, -0.5555982531598092 
4.360000000003177, -0.5597001239548006 
4.370000000003154, -0.5659787861072245 
4.380000000003131, -0.5748130480476517 
4.390000000003107, -0.5860474316202213 
4.400000000003084, -0.5986661491029615 
4.410000000003061, -0.61096543446866 
4.4200000000030375, -0.621364848206472 
4.430000000003014, -0.6291602604750521 
4.440000000002991, -0.6345301472309114 
4.450000000002968, -0.638050990304474 
4.460000000002944, -0.6402985005378423 
4.470000000002921, -0.6417025795128584 
4.480000000002898, -0.6425472569955402 
4.490000000002874, -0.6430092965929346 
4.500000000002851, -0.643192996502161 
4.510000000002828, -0.6431529300133079 
4.520000000002804, -0.6429063710660986 
4.530000000002781, -0.6424385024734561 
4.540000000002758, -0.6417034964937001 
4.5500000000027345, -0.6406257293049785 
4.560000000002711, -0.6391083119056599 
4.570000000002688, -0.6370584972710712 
4.580000000002665, -0.6344339097027802 
4.590000000002641, -0.6312928046116486 
4.600000000002618, -0.6278093933340879 
4.610000000002595, -0.6242286641646067 
4.620000000002571, -0.6207865723586168 
4.630000000002548, -0.6176499729360704 
4.640000000002525, -0.6149029220358175 
4.6500000000025015, -0.6125659538721886 
4.660000000002478, -0.6106236216488711 
4.670000000002455, -0.6090457851098419 
4.6800000000024315, -0.6077995921881587 
4.690000000002408, -0.6068544490716425 
4.700000000002385, -0.6061831517276952 
4.710000000002362, -0.6057615530484558 
4.720000000002338, -0.6055681316658347 
4.730000000002315, -0.605584059190168 
4.740000000002292, -0.6057938672085028 
4.750000000002268, -0.6061865232788947 
4.760000000002245, -0.6067565348169385 
4.770000000002222, -0.6075044794233876 
4.7800000000021985, -0.6084359961336543 
4.790000000002175, -0.6095578276779323 
4.800000000002152, -0.6108694552828001 
4.810000000002129, -0.6123502093911168 
4.820000000002105, -0.6139454807471587 
4.830000000002082, -0.6155609527340277 
4.840000000002059, -0.6170752787001648 
4.850000000002035, -0.6183719636483059 
4.860000000002012, -0.619373895520366 
4.870000000001989, -0.6200584371710971 
4.880000000001965, -0.620446982227349 
4.890000000001942, -0.6205817377432813 
4.900000000001919, -0.6205050192254745 
4.9100000000018955, -0.6202472044921349 
4.920000000001872, -0.6198217477918906 
