t, s[1].omega / s[0].omega 
0, -0.7799044568429105 
0.009999999999999995, -0.770352011462459 
0.019999999999999934, -0.7613751058106734 
0.029999999999999874, -0.7536159659164563 
0.04000000000000012, -0.7473855326043582 
0.050000000000000405, -0.7427099047049366 
0.06000000000000069, -0.7394277243398836 
0.07000000000000098, -0.7372821896994758 
0.08000000000000126, -0.7359905826770599 
0.09000000000000155, -0.7352904394715132 
0.10000000000000184, -0.7349646897224171 
0.11000000000000212, -0.7348492452391879 
0.12000000000000241, -0.7348282400769178 
0.130000000000002, -0.7348229752957454 
0.1400000000000009, -0.7347798091733606 
0.1499999999999998, -0.7346605182749394 
0.1599999999999987, -0.7344370352817635 
0.1699999999999976, -0.7340910682272953 
0.1799999999999965, -0.7336172855475871 
0.1899999999999954, -0.7330264501299222 
0.1999999999999943, -0.7323439800462046 
0.2099999999999932, -0.7316022736072854 
0.2199999999999921, -0.7308304070891317 
0.229999999999991, -0.7300473169152647 
0.2399999999999899, -0.7292617785911888 
0.2499999999999888, -0.7284776733503785 
0.2599999999999877, -0.7277006031431313 
0.2699999999999866, -0.7269428576702813 
0.2799999999999855, -0.7262260098061911 
0.2899999999999844, -0.7255817784600321 
0.2999999999999833, -0.7250517112020222 
0.3099999999999822, -0.724685580341758 
0.3199999999999811, -0.7245381413784246 
0.32999999999998, -0.7246643876865495 
0.3399999999999789, -0.725114273393084 
0.3499999999999778, -0.7259283517332334 
0.35999999999997667, -0.7271353462595153 
0.36999999999997557, -0.7287513574823155 
0.37999999999997447, -0.7307787575009386 
0.38999999999997337, -0.7332016320224117 
0.39999999999997227, -0.7359749203882824 
0.40999999999997117, -0.7390077325069614 
0.41999999999997006, -0.7421489699404304 
0.42999999999996896, -0.7451922582536427 
0.43999999999996786, -0.7479151369176779 
0.44999999999996676, -0.7501430067548978 
0.45999999999996566, -0.7517988119251207 
0.46999999999996456, -0.7529050217031859 
0.47999999999996346, -0.7535450042787933 
0.48999999999996235, -0.7538171089590042 
0.49999999999996125, -0.7538048775619602 
0.5099999999999602, -0.7535659940863566 
0.519999999999959, -0.7531329576472002 
0.529999999999958, -0.7525196198549284 
0.5399999999999568, -0.7517324749056556 
0.5499999999999557, -0.7507904435504655 
0.5599999999999546, -0.7497611949896953 
0.5699999999999535, -0.7488239559495152 
0.5799999999999524, -0.7483608313580149 
0.5899999999999513, -0.749044945673669 
0.5999999999999502, -0.7518210161245433 
0.6099999999999491, -0.7576071455822387 
0.619999999999948, -0.766668434937481 
0.6299999999999469, -0.7780766411676403 
0.6399999999999458, -0.7899663651521749 
0.6499999999999447, -0.8005503491300182 
0.6599999999999436, -0.8089003721241269 
0.6699999999999425, -0.8149443834983165 
0.6799999999999414, -0.8190637194409323 
0.6899999999999403, -0.8217479648793455 
0.6999999999999392, -0.823424886607208 
0.7099999999999381, -0.8244115176789718 
0.719999999999937, -0.824919924968499 
0.7299999999999359, -0.8250780982976348 
0.7399999999999348, -0.8249483003903327 
0.7499999999999337, -0.8245365297930931 
0.7599999999999326, -0.8237908851752511 
0.7699999999999315, -0.8225875082965723 
0.7799999999999304, -0.8207041088037024 
0.7899999999999293, -0.8177881701421967 
0.7999999999999282, -0.8133478778640718 
0.8099999999999271, -0.8068297232284962 
0.819999999999926, -0.7978569089291653 
0.8299999999999249, -0.7865881081624646 
0.8399999999999238, -0.7739228842891503 
0.8499999999999227, -0.7612606444473815 
0.8599999999999216, -0.7499324829741381 
0.8699999999999205, -0.7407535949755663 
0.8799999999999194, -0.7339382468925117 
0.8899999999999183, -0.729267140679034 
0.8999999999999172, -0.7263091024350289 
0.9099999999999161, -0.724590617025585 
0.919999999999915, -0.7236928521573429 
0.9299999999999139, -0.723290655991786 
0.9399999999999128, -0.7231544336721616 
0.9499999999999117, -0.7231331252149709 
0.9599999999999106, -0.7231313603707774 
0.9699999999999095, -0.7230884387756944 
0.9799999999999084, -0.7229625444371389 
0.9899999999999073, -0.7227212519637005 
0.9999999999999062, -0.7223385084692283 
1.0099999999999052, -0.7217975825290308 
1.019999999999904, -0.7210975798978796 
1.029999999999903, -0.7202583258423522 
1.039999999999902, -0.7193179221826018 
1.0499999999999008, -0.7183220407274216 
1.0599999999998997, -0.7173108393124398 
1.0699999999998986, -0.7163111804032561 
1.0799999999998975, -0.7153371362183012 
1.0899999999998964, -0.7143961224041786 
1.0999999999998953, -0.7134960790135703 
1.1099999999998942, -0.712650673146191 
1.119999999999893, -0.7118818449505071 
1.129999999999892, -0.7112202400963377 
1.1399999999998909, -0.7107040616181114 
1.1499999999998898, -0.7103765265173733 
1.1599999999998887, -0.7102821414571827 
1.1699999999998876, -0.7104624606600562 
1.1799999999998865, -0.7109524137592285 
1.1899999999998854, -0.7117782016255576 
1.1999999999998843, -0.7129569885971467 
1.2099999999998832, -0.7144974043499848 
1.219999999999882, -0.7163986479125066 
1.229999999999881, -0.7186452879410548 
1.2399999999998799, -0.7211955493808453 
1.2499999999998788, -0.7239644741175967 
1.2599999999998777, -0.7268108391462142 
1.2699999999998766, -0.7295442985593426 
1.2799999999998755, -0.7319647982088393 
1.2899999999998744, -0.7339215733879495 
1.2999999999998733, -0.735354403975735 
1.3099999999998722, -0.7362903311509955 
1.319999999999871, -0.736806652801155 
1.32999999999987, -0.7369905380510956 
1.3399999999998689, -0.7369140560966387 
1.3499999999998678, -0.7366254618100597 
1.3599999999998666, -0.7361503642989792 
1.3699999999998655, -0.7354980520606973 
1.3799999999998644, -0.7346725963868528 
1.3899999999998633, -0.733692714567802 
1.3999999999998622, -0.732628101734085 
1.4099999999998611, -0.7316606820125615 
1.41999999999986, -0.7311687643051291 
1.429999999999859, -0.7317945338826987 
1.4399999999998578, -0.734383697309875 
1.4499999999998567, -0.739646949844155 
1.4599999999998556, -0.7475825328590922 
1.4699999999998545, -0.7571574296491228 
1.4799999999998534, -0.7667784135064217 
1.4899999999998523, -0.7751718412519945 
1.4999999999998512, -0.7817949768081689 
1.5099999999998501, -0.7866688627225336 
1.519999999999849, -0.7900756964848104 
1.529999999999848, -0.7923577811916271 
1.5399999999998468, -0.7938210993782377 
1.5499999999998457, -0.7947016176049986 
1.5599999999998446, -0.795163184192492 
1.5699999999998435, -0.7953071004358878 
1.5799999999998424, -0.7951820203606903 
1.5899999999998413, -0.7947886530908805 
1.5999999999998402, -0.7940767782720064 
1.6099999999998391, -0.792933767120511 
1.619999999999838, -0.7911668975892628 
1.629999999999837, -0.7884905274509384 
1.6399999999998358, -0.7845468344899591 
1.6499999999998347, -0.7790044921067366 
1.6599999999998336, -0.7717506079780957 
1.6699999999998325, -0.7630817451458841 
1.6799999999998314, -0.7537104481582 
1.6899999999998303, -0.7445242839561057 
1.6999999999998292, -0.7362739206870044 
1.709999999999828, -0.7294004504666904 
1.719999999999827, -0.7240373174822439 
1.729999999999826, -0.7200994088857435 
1.7399999999998248, -0.7173798069105168 
1.7499999999998237, -0.7156236398521029 
1.7599999999998226, -0.7145771025624381 
1.7699999999998215, -0.7140165886009007 
1.7799999999998204, -0.7137621975048515 
1.7899999999998193, -0.713679344947169 
1.7999999999998182, -0.7136726462722357 
1.809999999999817, -0.7136763832139679 
1.819999999999816, -0.7136451524286536 
1.8299999999998149, -0.7135471230656554 
1.8399999999998138, -0.7133610968981984 
1.8499999999998127, -0.7130771166340604 
1.8599999999998116, -0.7126984727830241 
1.8699999999998105, -0.7122414758776181 
1.8799999999998094, -0.7117303088223375 
1.8899999999998083, -0.7111881717911734 
1.8999999999998072, -0.7106295728617025 
1.909999999999806, -0.7100582238830814 
1.919999999999805, -0.7094710268740196 
1.9299999999998039, -0.7088649409848309 
1.9399999999998028, -0.708242939756473 
1.9499999999998017, -0.7076173894168533 
1.9599999999998006, -0.7070115229157229 
1.9699999999997995, -0.7064604060766204 
1.9799999999997984, -0.7060120171660891 
1.9899999999997973, -0.7057279442611495 
1.9999999999997962, -0.705682632208633 
2.0099999999998173, -0.7059603623345099 
2.0199999999998384, -0.7066500207373598 
2.0299999999998595, -0.7078385896613978 
2.0399999999998806, -0.7096043600644225 
2.0499999999999017, -0.7120095931632012 
2.059999999999923, -0.7150900576429178 
2.069999999999944, -0.7188369853582535 
2.079999999999965, -0.7231684923044204 
2.089999999999986, -0.7278967155049284 
2.100000000000007, -0.7327147689254321 
2.1100000000000283, -0.7372391857895172 
2.1200000000000494, -0.7411168314853743 
2.1300000000000705, -0.7441404177399311 
2.1400000000000916, -0.7462900817353828 
2.1500000000001127, -0.7476825751167095 
2.160000000000134, -0.7484849485539534 
2.170000000000155, -0.7488504510584642 
2.180000000000176, -0.748891160723382 
2.190000000000197, -0.7486744129990032 
2.2000000000002182, -0.748227873141306 
2.2100000000002393, -0.7475449930534165 
2.2200000000002604, -0.7465885647842682 
2.2300000000002815, -0.7452937688353433 
2.2400000000003026, -0.7435747816636378 
2.2500000000003237, -0.7413407270666905 
2.260000000000345, -0.7385240357848778 
2.270000000000366, -0.7351104056598133 
2.280000000000387, -0.7311400638070619 
2.290000000000408, -0.7266772943031066 
2.3000000000004293, -0.7218608538200753 
2.3100000000004504, -0.717116012355913 
2.3200000000004715, -0.7131946766345509 
2.3300000000004926, -0.7107247473357664 
2.3400000000005137, -0.7097642772964775 
2.3500000000005348, -0.7098889214283205 
2.360000000000556, -0.7105624822878399 
2.370000000000577, -0.7113817516910317 
2.380000000000598, -0.7121228902167728 
2.390000000000619, -0.7126926518765545 
2.4000000000006403, -0.7130679018091548 
2.4100000000006614, -0.7132525920217712 
2.4200000000006825, -0.7132528879752797 
2.4300000000007036, -0.7130637624930891 
2.4400000000007247, -0.7126614243996312 
2.450000000000746, -0.7119991887700687 
2.460000000000767, -0.7110082137310283 
2.470000000000788, -0.7096082406568692 
2.480000000000809, -0.7077340145472499 
2.49000000000083, -0.7053744742484725 
2.5000000000008513, -0.702604188538581 
2.5100000000008724, -0.6995788748929505 
2.5200000000008935, -0.6964901482236578 
2.5300000000009146, -0.6935095553867269 
2.5400000000009357, -0.6907560190008561 
2.550000000000957, -0.6882943585601609 
2.560000000000978, -0.6861509867524855 
2.570000000000999, -0.6843312940121893 
2.58000000000102, -0.6828312548192051 
2.5900000000010412, -0.6816425385767595 
2.6000000000010624, -0.6807532896477942 
2.6100000000010835, -0.6801471328644495 
2.6200000000011046, -0.6798023536244562 
2.6300000000011257, -0.679692319774919 
2.6400000000011468, -0.6797873455214436 
2.650000000001168, -0.6800575395371073 
2.660000000001189, -0.6804758699764077 
2.67000000000121, -0.6810206860359522 
2.680000000001231, -0.6816770222957181 
2.6900000000012523, -0.6824359247545979 
2.7000000000012734, -0.6832908527006725 
2.7100000000012945, -0.6842305588888429 
2.7200000000013156, -0.6852295883836181 
2.7300000000013367, -0.6862406629415966 
2.740000000001358, -0.6871955571254285 
2.750000000001379, -0.6880185369699379 
2.7600000000014, -0.6886476287191272 
2.770000000001421, -0.6890510850445665 
2.780000000001442, -0.6892294288125476 
2.7900000000014633, -0.6892050509986813 
2.8000000000014844, -0.6890087816938714 
2.8100000000015055, -0.6886710641305719 
2.8200000000015266, -0.6882202884571903 
2.8300000000015477, -0.6876882720594761 
2.840000000001569, -0.6871234345901241 
2.85000000000159, -0.6866141561051576 
2.860000000001611, -0.6863263031380651 
2.870000000001632, -0.6865576431985378 
2.8800000000016532, -0.6878033874923923 
2.8900000000016743, -0.6908037143074561 
2.9000000000016954, -0.6964989816186181 
2.9100000000017165, -0.7057688624648649 
2.9200000000017377, -0.7188756227800566 
2.9300000000017588, -0.7348415378420612 
2.94000000000178, -0.7514384793837132 
2.950000000001801, -0.7662049832433675 
2.960000000001822, -0.7776875274851086 
2.970000000001843, -0.7857553375934273 
2.9800000000018643, -0.7910526020195692 
2.9900000000018854, -0.7943823570180204 
3.0000000000019065, -0.7964045226312282 
3.0100000000019276, -0.7975765664000651 
3.0200000000019487, -0.7981881011067509 
3.03000000000197, -0.7984091641428723 
3.040000000001991, -0.798326294264364 
3.050000000002012, -0.7979623730547404 
3.060000000002033, -0.7972813691499175 
3.070000000002054, -0.7961786896288411 
3.0800000000020753, -0.7944571260427308 
3.0900000000020964, -0.7917920257529611 
3.1000000000021175, -0.787705220737647 
3.1100000000021386, -0.7816032076692409 
3.1200000000021597, -0.7729701621078396 
3.130000000002181, -0.7617434558169602 
3.140000000002202, -0.7486521975314788 
3.150000000002223, -0.7351217396802726 
3.160000000002244, -0.7226874105290254 
3.1700000000022652, -0.7123945783148636 
3.1800000000022863, -0.7046023328770621 
3.1900000000023074, -0.6991429453209672 
3.2000000000023285, -0.6955827031503692 
3.2100000000023496, -0.6934248491886676 
3.2200000000023707, -0.6922224581291296 
3.230000000002392, -0.6916228754475784 
3.240000000002413, -0.6913717357401169 
3.250000000002434, -0.6912974620505821 
3.260000000002455, -0.6912894814282875 
3.2700000000024763, -0.6912775260211534 
3.2800000000024974, -0.6912153953636141 
3.2900000000025185, -0.6910703022526172 
3.3000000000025396, -0.6908179649718281 
3.3100000000025607, -0.690443017967561 
3.3200000000025818, -0.6899430065434294 
3.330000000002603, -0.6893320871831203 
3.340000000002624, -0.6886396260645278 
3.350000000002645, -0.6879018602531821 
3.360000000002666, -0.6871504385777489 
3.3700000000026873, -0.6864045184511532 
3.3800000000027084, -0.6856702807498933 
3.3900000000027295, -0.6849465395880255 
3.4000000000027506, -0.6842322315002416 
3.4100000000027717, -0.6835322780746693 
3.420000000002793, -0.6828608182052787 
3.430000000002814, -0.6822426846987344 
3.440000000002835, -0.6817142554333598 
3.450000000002856, -0.681324038659038 
3.460000000002877, -0.6811325803894367 
3.4700000000028983, -0.6812110782590329 
3.4800000000029194, -0.6816384706830403 
3.4900000000029405, -0.6824973844572205 
3.5000000000029616, -0.6838695935837988 
3.5100000000029827, -0.6858310252793965 
3.520000000003004, -0.688444665466995 
3.530000000003025, -0.6917474653183818 
3.540000000003046, -0.6957262131956025 
3.550000000003067, -0.7002810147954687 
3.5600000000030882, -0.7051885162236132 
3.5700000000031094, -0.7100983196396158 
3.5800000000031305, -0.71460056670239 
3.5900000000031516, -0.7183554364886806 
3.6000000000031727, -0.721203099606343 
3.6100000000031938, -0.7231751212957863 
3.620000000003215, -0.7244192119292558 
3.630000000003236, -0.7251100394083733 
3.640000000003257, -0.7253945056134734 
3.650000000003278, -0.7253732563814158 
3.6600000000032993, -0.7251011257875901 
3.6700000000033204, -0.7245921714328446 
3.6800000000033415, -0.7238222666314145 
3.6900000000033626, -0.7227267792289878 
3.7000000000033837, -0.7211927155514867 
3.710000000003405, -0.7190452299506785 
3.720000000003426, -0.7160285084878462 
3.730000000003447, -0.7117827354709393 
3.740000000003468, -0.7058329645690296 
3.750000000003489, -0.6976611573466305 
3.7600000000035103, -0.6870178991042591 
3.7700000000035314, -0.6744937188010448 
3.7800000000035525, -0.661768180927455 
3.7900000000035736, -0.6508469069385276 
3.8000000000035947, -0.642899190771005 
3.810000000003616, -0.6379163376712781 
3.820000000003637, -0.6352020757173323 
3.830000000003658, -0.6339459232100381 
3.840000000003679, -0.6335080681736397 
3.8500000000037002, -0.63346946095936 
3.8600000000037213, -0.6335853172772661 
3.8700000000037424, -0.6337233967191308 
3.8800000000037635, -0.6338153224332296 
3.8900000000037847, -0.6338245377500118 
3.9000000000038058, -0.633727158037876 
3.910000000003827, -0.6335016622733416 
3.920000000003848, -0.6331251210256498 
3.930000000003869, -0.6325753937271513 
3.94000000000389, -0.6318390392800491 
3.9500000000039113, -0.6309223508034708 
3.9600000000039324, -0.6298588384109476 
3.9700000000039535, -0.628705592629007 
3.9800000000039746, -0.6275277210740322 
3.9900000000039957, -0.626379652170682 
4.000000000004016, -0.6252941059381475 
4.010000000003993, -0.6242825318651273 
4.02000000000397, -0.6233432421167439 
4.030000000003946, -0.6224712050564211 
4.040000000003923, -0.6216655125054913 
4.0500000000039, -0.6209335865932978 
4.0600000000038765, -0.6202930970195658 
4.070000000003853, -0.6197728954985738 
4.08000000000383, -0.6194137219232881 
4.090000000003807, -0.6192688223110027 
4.100000000003783, -0.619404343291323 
4.11000000000376, -0.619899407923785 
4.120000000003737, -0.620845873462721 
4.130000000003713, -0.6223475456402825 
4.14000000000369, -0.6245176405689384 
4.150000000003667, -0.6274711664480261 
4.1600000000036434, -0.6313057375097771 
4.17000000000362, -0.6360620005297273 
4.180000000003597, -0.6416595596537698 
4.1900000000035735, -0.6478268058991945 
4.20000000000355, -0.6540831306935982 
4.210000000003527, -0.6598434377981123 
4.220000000003504, -0.6646275414833799 
4.23000000000348, -0.6682280770824137 
4.240000000003457, -0.6707116475704453 
4.250000000003434, -0.6722940917332669 
4.26000000000341, -0.6732127327243029 
4.270000000003387, -0.6736586033337095 
4.280000000003364, -0.6737594803720764 
4.2900000000033405, -0.6735850062240684 
4.300000000003317, -0.6731544582388652 
4.310000000003294, -0.6724383661828912 
4.320000000003271, -0.6713499203405995 
4.330000000003247, -0.6697227919119965 
4.340000000003224, -0.6672723596723988 
4.350000000003201, -0.663544392420206 
4.360000000003177, -0.657884301413931 
4.370000000003154, -0.6495272306763226 
4.380000000003131, -0.6379620187660475 
4.390000000003107, -0.6235364719046093 
4.400000000003084, -0.607760908300493 
4.410000000003061, -0.5927216296734624 
4.4200000000030375, -0.5800290425077301 
4.430000000003014, -0.5702944037034937 
4.440000000002991, -0.5633333647361152 
4.450000000002968, -0.5586041786134073 
4.460000000002944, -0.5555193853268712 
4.470000000002921, -0.5535821208221396 
4.480000000002898, -0.5524166815378181 
4.490000000002874, -0.5517555558999235 
4.500000000002851, -0.551415080008224 
4.510000000002828, -0.5512722363826446 
4.520000000002804, -0.5512461668359175 
4.530000000002781, -0.5512847053487329 
4.540000000002758, -0.5513553337206871 
4.5500000000027345, -0.5514398268971225 
4.560000000002711, -0.5515317383402066 
4.570000000002688, -0.5516354203474702 
4.580000000002665, -0.5517645676000101 
4.590000000002641, -0.5519380468897068 
4.600000000002618, -0.5521719819341756 
4.610000000002595, -0.5524697046836847 
4.620000000002571, -0.5528138601454186 
4.630000000002548, -0.5531657516127649 
4.640000000002525, -0.5534743725014262 
4.6500000000025015, -0.5536916535705154 
4.660000000002478, -0.5537855413765082 
4.670000000002455, -0.5537441682833593 
4.6800000000024315, -0.5535713547431746 
4.690000000002408, -0.5532787512137494 
4.700000000002385, -0.5528796101274296 
4.710000000002362, -0.5523863534762248 
4.720000000002338, -0.5518122333927578 
4.730000000002315, -0.5511772448864944 
4.740000000002292, -0.550519151982242 
4.750000000002268, -0.549910583383774 
4.760000000002245, -0.5494798890965858 
4.770000000002222, -0.5494206645278187 
4.7800000000021985, -0.549943707398675 
4.790000000002175, -0.5510868091251107 
4.800000000002152, -0.5523598252192052 
4.810000000002129, -0.552570239097694 
4.820000000002105, -0.5505240911164956 
4.830000000002082, -0.5463065402537766 
4.840000000002059, -0.54136811934332 
4.850000000002035, -0.5371847563970202 
4.860000000002012, -0.5343487278211784 
4.870000000001989, -0.5327313071704503 
4.880000000001965, -0.5319548888171134 
4.890000000001942, -0.5316706115455767 
4.900000000001919, -0.5316355531063287 
4.9100000000018955, -0.5317017661644698 
4.920000000001872, -0.5317854860164998 
