t, s[1].omega / s[0].omega 
0, -1.3199919296538174 
0.009999999999999995, -1.318993405371868 
0.019999999999999934, -1.317616304282514 
0.029999999999999874, -1.315861902637339 
0.04000000000000012, -1.3137320112127198 
0.050000000000000405, -1.3112290651432676 
0.06000000000000069, -1.308356244449589 
0.07000000000000098, -1.305117621278278 
0.08000000000000126, -1.301518329052449 
0.09000000000000155, -1.2975647480193009 
0.10000000000000184, -1.2932647010133484 
0.11000000000000212, -1.288627652612403 
0.12000000000000241, -1.2836649043301422 
0.130000000000002, -1.278389778276841 
0.1400000000000009, -1.2728177821547408 
0.1499999999999998, -1.2669667498974428 
0.1599999999999987, -1.260856954966085 
0.1699999999999976, -1.2545111972404772 
0.1799999999999965, -1.247954869090889 
0.1899999999999954, -1.2412160105357266 
0.1999999999999943, -1.234325365850613 
0.2099999999999932, -1.2273164528538327 
0.2199999999999921, -1.220225649860567 
0.229999999999991, -1.2130922932973793 
0.2399999999999899, -1.2059587618524363 
0.2499999999999888, -1.198870503080533 
0.2599999999999877, -1.1918759394045102 
0.2699999999999866, -1.185026177313481 
0.2799999999999855, -1.1783744412544979 
0.2899999999999844, -1.1719751662516413 
0.2999999999999833, -1.1658827124961746 
0.3099999999999822, -1.1601497097411373 
0.3199999999999811, -1.1548250944318736 
0.32999999999998, -1.14995195993755 
0.3399999999999789, -1.1455653896890743 
0.3499999999999778, -1.1416904739352889 
0.35999999999997667, -1.13834071485258 
0.36999999999997557, -1.135516998001288 
0.37999999999997447, -1.1332072526532155 
0.38999999999997337, -1.1313868473451771 
0.39999999999997227, -1.1300196826649698 
0.40999999999997117, -1.1290598650234713 
0.41999999999997006, -1.1284537858074861 
0.42999999999996896, -1.1281423983724403 
0.43999999999996786, -1.1280634835134777 
0.44999999999996676, -1.1281537192075053 
0.45999999999996566, -1.1283504149960093 
0.46999999999996456, -1.1285928256811013 
0.47999999999996346, -1.1288230135562758 
0.48999999999996235, -1.1289862757629316 
0.49999999999996125, -1.129031189133424 
0.5099999999999602, -1.1289093476895402 
0.519999999999959, -1.128574878894163 
0.529999999999958, -1.127983826386098 
0.5399999999999568, -1.127093482386625 
0.5499999999999557, -1.1258617451477795 
0.5599999999999546, -1.1242465678973195 
0.5699999999999535, -1.122205556969809 
0.5799999999999524, -1.1196957685009847 
0.5899999999999513, -1.1166737447040163 
0.5999999999999502, -1.113095821273391 
0.6099999999999491, -1.1089187255434652 
0.619999999999948, -1.1041004694324084 
0.6299999999999469, -1.0986015211998916 
0.6399999999999458, -1.092386215819329 
0.6499999999999447, -1.0854243367302459 
0.6599999999999436, -1.0776927746852132 
0.6699999999999425, -1.069177146328781 
0.6799999999999414, -1.0598732406634133 
0.6899999999999403, -1.0497881599813954 
0.6999999999999392, -1.038941036035194 
0.7099999999999381, -1.0273632325570652 
0.719999999999937, -1.015097989035108 
0.7299999999999359, -1.0021995123299885 
0.7399999999999348, -0.9887315747900666 
0.7499999999999337, -0.9747657221797471 
0.7599999999999326, -0.9603792255578621 
0.7699999999999315, -0.9456529245565558 
0.7799999999999304, -0.9306691049824984 
0.7899999999999293, -0.9155095340216765 
0.7999999999999282, -0.9002537464058843 
0.8099999999999271, -0.8849776403342844 
0.819999999999926, -0.8697524079765135 
0.8299999999999249, -0.8546437960019485 
0.8399999999999238, -0.8397116691417993 
0.8499999999999227, -0.8250098350789989 
0.8599999999999216, -0.8105860815170963 
0.8699999999999205, -0.7964823748584803 
0.8799999999999194, -0.7827351729299713 
0.8899999999999183, -0.7693758100270617 
0.8999999999999172, -0.7564309198123599 
0.9099999999999161, -0.7439228692159141 
0.919999999999915, -0.7318701836917945 
0.9299999999999139, -0.7202879505288309 
0.9399999999999128, -0.7091881921723707 
0.9499999999999117, -0.69858020563892 
0.9599999999999106, -0.6884708671607227 
0.9699999999999095, -0.6788649033124275 
0.9799999999999084, -0.6697651312074114 
0.9899999999999073, -0.6611726710728957 
0.9999999999999062, -0.6530871347768383 
1.0099999999999052, -0.6455067938227834 
1.019999999999904, -0.6384287300656961 
1.029999999999903, -0.6318489720227052 
1.039999999999902, -0.6257626192258438 
1.0499999999999008, -0.6201639566376685 
1.0599999999998997, -0.6150465607568157 
1.0699999999998986, -0.6104033986976704 
1.0799999999998975, -0.6062269212447023 
1.0899999999998964, -0.6025091506587391 
1.0999999999998953, -0.5992417638456079 
1.1099999999998942, -0.5964161713802527 
1.119999999999893, -0.5940235928031241 
1.129999999999892, -0.5920551285613425 
1.1399999999998909, -0.590501828945962 
1.1499999999998898, -0.5893547603703466 
1.1599999999998887, -0.5886050693356147 
1.1699999999998876, -0.5882440444304656 
1.1799999999998865, -0.5882631767081166 
1.1899999999998854, -0.5886542187666012 
1.1999999999998843, -0.5894092428243041 
1.2099999999998832, -0.590520698024089 
1.219999999999882, -0.5919814671100079 
1.229999999999881, -0.5937849224927819 
1.2399999999998799, -0.5959249815458263 
1.2499999999998788, -0.5983961607434858 
1.2599999999998777, -0.6011936279580614 
1.2699999999998766, -0.6043132518630908 
1.2799999999998755, -0.6077516469393116 
1.2899999999998744, -0.6115062120415722 
1.2999999999998733, -0.6155751598586628 
1.3099999999998722, -0.6199575338887817 
1.319999999999871, -0.6246532087748494 
1.32999999999987, -0.6296628690204114 
1.3399999999998689, -0.6349879602755583 
1.3499999999998678, -0.6406306065950894 
1.3599999999998666, -0.6465934863962959 
1.3699999999998655, -0.6528796593674672 
1.3799999999998644, -0.6594923364059114 
1.3899999999998633, -0.6664345849219031 
1.3999999999998622, -0.6737089626807177 
1.4099999999998611, -0.6813170749395979 
1.41999999999986, -0.689259052162213 
1.429999999999859, -0.697532949265828 
1.4399999999998578, -0.7061340723782643 
1.4499999999998567, -0.7150542456171091 
1.4599999999998556, -0.724281038522236 
1.4699999999998545, -0.7337969843663408 
1.4799999999998534, -0.7435788302445135 
1.4899999999998523, -0.7535968708100356 
1.4999999999998512, -0.7638144274904947 
1.5099999999998501, -0.7741875421713179 
1.519999999999849, -0.7846649564287955 
1.529999999999848, -0.7951884420351223 
1.5399999999998468, -0.8056935335804026 
1.5499999999998457, -0.8161106885860506 
1.5599999999998446, -0.826366865036692 
1.5699999999998435, -0.8363874636704177 
1.5799999999998424, -0.8460985377929805 
1.5899999999998413, -0.8554291337361293 
1.5999999999998402, -0.8643135977971196 
1.6099999999998391, -0.8726936768059663 
1.619999999999838, -0.8805202526682957 
1.629999999999837, -0.8877545855378931 
1.6399999999998358, -0.8943689906949774 
1.6499999999998347, -0.9003469325995465 
1.6599999999998336, -0.9056825765722173 
1.6699999999998325, -0.9103798856840573 
1.6799999999998314, -0.9144513819633414 
1.6899999999998303, -0.9179167047623898 
1.6999999999998292, -0.9208010963026367 
1.709999999999828, -0.9231339287587346 
1.719999999999827, -0.9249473636937707 
1.729999999999826, -0.9262752081443328 
1.7399999999998248, -0.9271520062056055 
1.7499999999998237, -0.927612383277893 
1.7599999999998226, -0.9276906435271619 
1.7699999999998215, -0.927420609754135 
1.7799999999998204, -0.9268356881252351 
1.7899999999998193, -0.9259691370051351 
1.7999999999998182, -0.9248545181875968 
1.809999999999817, -0.9235263089232822 
1.819999999999816, -0.9220206532167459 
1.8299999999998149, -0.920376230048291 
1.8399999999998138, -0.9186352138448903 
1.8499999999998127, -0.9168442982991144 
1.8599999999998116, -0.9150557483884153 
1.8699999999998105, -0.9133284373099816 
1.8799999999998094, -0.9117288154113176 
1.8899999999998083, -0.9103317477153052 
1.8999999999998072, -0.9092211462017026 
1.909999999999806, -0.908490313710302 
1.919999999999805, -0.9082419094262899 
1.9299999999998039, -0.9085874427586007 
1.9399999999998028, -0.9096462044749519 
1.9499999999998017, -0.9115435527510237 
1.9599999999998006, -0.914408488987021 
1.9699999999997995, -0.9183704856409288 
1.9799999999997984, -0.923555567771118 
1.9899999999997973, -0.9300817030498462 
1.9999999999997962, -0.9380536223415018 
2.0099999999998173, -0.9475572731482554 
2.0199999999998384, -0.9586541965081335 
2.0299999999998595, -0.9713762047397894 
2.0399999999998806, -0.985720807875872 
2.0499999999999017, -1.0016478714722767 
2.059999999999923, -1.019077967430407 
2.069999999999944, -1.0378927868571408 
2.079999999999965, -1.0579378157368768 
2.089999999999986, -1.0790272436684654 
2.100000000000007, -1.1009508156036265 
2.1100000000000283, -1.123482093161251 
2.1200000000000494, -1.146387415438291 
2.1300000000000705, -1.1694347776079352 
2.1400000000000916, -1.1924018937036633 
2.1500000000001127, -1.2150828641981588 
2.160000000000134, -1.2372930920549676 
2.170000000000155, -1.2588723341087575 
2.180000000000176, -1.2796859919995842 
2.190000000000197, -1.2996249065275984 
2.2000000000002182, -1.3186040080825006 
2.2100000000002393, -1.3365601977741832 
2.2200000000002604, -1.353449804459164 
2.2300000000002815, -1.3692459018889613 
2.2400000000003026, -1.3839356963522507 
2.2500000000003237, -1.3975181225696762 
2.260000000000345, -1.4100017228601454 
2.270000000000366, -1.4214028355292383 
2.280000000000387, -1.4317440834338964 
2.290000000000408, -1.4410531312582742 
2.3000000000004293, -1.4493616679737122 
2.3100000000004504, -1.4567045670086236 
2.3200000000004715, -1.4631191788463704 
2.3300000000004926, -1.4686447174136832 
2.3400000000005137, -1.473321711220697 
2.3500000000005348, -1.4771915013574792 
2.360000000000556, -1.480295779781577 
2.370000000000577, -1.4826761715684953 
2.380000000000598, -1.48437387282382 
2.390000000000619, -1.4854293608958313 
2.4000000000006403, -1.4858821948015484 
2.4100000000006614, -1.4857709211147165 
2.4200000000006825, -1.4851330939824685 
2.4300000000007036, -1.4840054077538651 
2.4400000000007247, -1.4824239275929778 
2.450000000000746, -1.4804243885989188 
2.460000000000767, -1.4780425192843898 
2.470000000000788, -1.4753143336034094 
2.480000000000809, -1.4722763307634272 
2.49000000000083, -1.4689655478625612 
2.5000000000008513, -1.4654194302453225 
2.5100000000008724, -1.4616755191964772 
2.5200000000008935, -1.4577710027612005 
2.5300000000009146, -1.4537422243456366 
2.5400000000009357, -1.4496242819247098 
2.550000000000957, -1.4454508630844787 
2.560000000000978, -1.4412544358081698 
2.570000000000999, -1.437066848182206 
2.58000000000102, -1.4329202898666846 
2.5900000000010412, -1.4288484533568353 
2.6000000000010624, -1.424887630329363 
2.6100000000010835, -1.421077415649229 
2.6200000000011046, -1.417460691764404 
2.6300000000011257, -1.4140826415844503 
2.6400000000011468, -1.410988686255986 
2.650000000001168, -1.4082214459680638 
2.660000000001189, -1.4058170400188084 
2.67000000000121, -1.4038012267866653 
2.680000000001231, -1.4021859827724912 
2.6900000000012523, -1.400967094493199 
2.7000000000012734, -1.4001231802124308 
2.7100000000012945, -1.3996163014664982 
2.7200000000013156, -1.3993940306110646 
2.7300000000013367, -1.3993925856398592 
2.740000000001358, -1.3995404885116094 
2.750000000001379, -1.3997621750892046 
2.7600000000014, -1.3999810710667797 
2.770000000001421, -1.4001218074260366 
2.780000000001442, -1.4001114294395984 
2.7900000000014633, -1.3998796114072698 
2.8000000000014844, -1.3993579999053578 
2.8100000000015055, -1.398478865690797 
2.8200000000015266, -1.397173257315474 
2.8300000000015477, -1.3953688338080905 
2.840000000001569, -1.3929875260370344 
2.85000000000159, -1.3899431500913926 
2.860000000001611, -1.3861390803400122 
2.870000000001632, -1.38146608975635 
2.8800000000016532, -1.3758004823785213 
2.8900000000016743, -1.3690026766683927 
2.9000000000016954, -1.3609164460952117 
2.9100000000017165, -1.3513690790542439 
2.9200000000017377, -1.3401727755287716 
2.9300000000017588, -1.327127639777557 
2.94000000000178, -1.3120266389341735 
2.950000000001801, -1.2946628542822631 
2.960000000001822, -1.2748392302381235 
2.970000000001843, -1.2523808034612325 
2.9800000000018643, -1.2271490598822157 
2.9900000000018854, -1.1990576322646018 
3.0000000000019065, -1.168088061270679 
3.0100000000019276, -1.1343038867878088 
3.0200000000019487, -1.0978610383921177 
3.03000000000197, -1.0590124924809992 
3.040000000001991, -1.018105566634719 
3.050000000002012, -0.9755710530524997 
3.060000000002033, -0.9319045511807773 
3.070000000002054, -0.8876416167870848 
3.0800000000020753, -0.8433293993013158 
3.0900000000020964, -0.799498014130095 
3.1000000000021175, -0.7566348410467232 
3.1100000000021386, -0.7151642863541302 
3.1200000000021597, -0.6754344947596702 
3.130000000002181, -0.6377113322072688 
3.140000000002202, -0.6021789516903907 
3.150000000002223, -0.568945573602901 
3.160000000002244, -0.5380528115104042 
3.1700000000022652, -0.5094869027256715 
3.1800000000022863, -0.48319045428476204 
3.1900000000023074, -0.4590736727224678 
3.2000000000023285, -0.4370244158385809 
3.2100000000023496, -0.41691672603029306 
3.2200000000023707, -0.3986177501089596 
3.230000000002392, -0.3819931163311329 
3.240000000002413, -0.3669109362131881 
3.250000000002434, -0.3532446428705487 
3.260000000002455, -0.34087488573192415 
3.2700000000024763, -0.3296906876074222 
3.2800000000024974, -0.31959004483103254 
3.2900000000025185, -0.31048012177936557 
3.3000000000025396, -0.30227716195806137 
3.3100000000025607, -0.29490621148554985 
3.3200000000025818, -0.2883007282652606 
3.330000000002603, -0.2824021316509507 
3.340000000002624, -0.2771593327322348 
3.350000000002645, -0.272528274030449 
3.360000000002666, -0.2684714988578418 
3.3700000000026873, -0.2649577643282994 
3.3800000000027084, -0.26196170754381043 
3.3900000000027295, -0.2594635714179993 
3.4000000000027506, -0.25744899460937315 
3.4100000000027717, -0.2559088688611911 
3.420000000002793, -0.25483926647598387 
3.430000000002814, -0.254241440527996 
3.440000000002835, -0.2541219006051607 
3.450000000002856, -0.25449256726272346 
3.460000000002877, -0.2553710088610149 
3.4700000000028983, -0.2567807649444317 
3.4800000000029194, -0.2587517606748938 
3.4900000000029405, -0.26132081690570663 
3.5000000000029616, -0.2645322600637849 
3.5100000000029827, -0.2684386348163116 
3.520000000003004, -0.273101520142606 
3.530000000003025, -0.278592445380678 
3.540000000003046, -0.2849938963516695 
3.550000000003067, -0.29240039183217476 
3.5600000000030882, -0.3009195962160367 
3.5700000000031094, -0.3106734136551632 
3.5800000000031305, -0.32179898048736316 
3.5900000000031516, -0.3344494343842143 
3.6000000000031727, -0.34879428855404815 
3.6100000000031938, -0.3650191763997926 
3.620000000003215, -0.38332465687896106 
3.630000000003236, -0.4039236874241098 
3.640000000003257, -0.42703728934634505 
3.650000000003278, -0.45288786855249746 
3.6600000000032993, -0.4816896423455772 
3.6700000000033204, -0.5136357048507528 
3.6800000000033415, -0.5488814945688991 
3.6900000000033626, -0.5875248647847277 
3.7000000000033837, -0.6295836380998262 
3.710000000003405, -0.6749724320225913 
3.720000000003426, -0.7234815573077885 
3.730000000003447, -0.7747616701482509 
3.740000000003468, -0.8283182444976255 
3.750000000003489, -0.8835194399074304 
3.7600000000035103, -0.9396193408799747 
3.7700000000035314, -0.99579594817744 
3.7800000000035525, -1.051200267103457 
3.7900000000035736, -1.1050102494155476 
3.8000000000035947, -1.1564820853510338 
3.810000000003616, -1.2049918786270952 
3.820000000003637, -1.2500628892116354 
3.830000000003658, -1.2913765539621584 
3.840000000003679, -1.3287684466961942 
3.8500000000037002, -1.3622124665702044 
3.8600000000037213, -1.3917975251396428 
3.8700000000037424, -1.4177009366067266 
3.8800000000037635, -1.4401619510974895 
3.8900000000037847, -1.4594578067230133 
3.9000000000038058, -1.4758836272160958 
3.910000000003827, -1.4897366392755247 
3.920000000003848, -1.5013045897652821 
3.930000000003869, -1.5108578923209897 
3.94000000000389, -1.5186448737082967 
3.9500000000039113, -1.5248894624943745 
3.9600000000039324, -1.5297907136418372 
3.9700000000039535, -1.5335236527492404 
3.9800000000039746, -1.5362410257510506 
3.9900000000039957, -1.5380756370006785 
4.000000000004016, -1.5391430409825901 
4.010000000003993, -1.5395444152278899 
4.02000000000397, -1.5393694820303359 
4.030000000003946, -1.5386993640788573 
4.040000000003923, -1.5376092561878771 
4.0500000000039, -1.5361707770931075 
4.0600000000038765, -1.5344538412780069 
4.070000000003853, -1.532527875455144 
4.08000000000383, -1.5304622159113663 
4.090000000003807, -1.5283255793344452 
4.100000000003783, -1.526184610993708 
4.11000000000376, -1.5241016733679584 
4.120000000003737, -1.5221322155937436 
4.130000000003713, -1.5203222089510866 
4.14000000000369, -1.5187061892345626 
4.150000000003667, -1.517306373344981 
4.1600000000036434, -1.516133113400903 
4.17000000000362, -1.5151866619260526 
4.180000000003597, -1.5144599242422758 
4.1900000000035735, -1.5139416518445221 
4.20000000000355, -1.51361944111622 
4.210000000003527, -1.5134819615423467 
4.220000000003504, -1.5135200225647323 
4.23000000000348, -1.513726347862648 
4.240000000003457, -1.5140941996392916 
4.250000000003434, -1.514615225734572 
4.26000000000341, -1.515277042625798 
4.270000000003387, -1.516061089656979 
4.280000000003364, -1.5169411917390307 
4.2900000000033405, -1.5178830762529711 
4.300000000003317, -1.5188448568328174 
4.310000000003294, -1.5197782841709695 
4.320000000003271, -1.520630423921854 
4.330000000003247, -1.521345379284061 
4.340000000003224, -1.5218657240115787 
4.350000000003201, -1.5221334193659795 
4.360000000003177, -1.5220901160494202 
4.370000000003154, -1.5216768557178313 
4.380000000003131, -1.5208332670060032 
4.390000000003107, -1.5194963940458244 
4.400000000003084, -1.517599307915318 
4.410000000003061, -1.5150696447193532 
4.4200000000030375, -1.5118281992617888 
4.430000000003014, -1.507787688746204 
4.440000000002991, -1.5028517911116153 
4.450000000002968, -1.4969145586351567 
4.460000000002944, -1.4898603081107502 
4.470000000002921, -1.4815640916293935 
4.480000000002898, -1.4718928534941684 
4.490000000002874, -1.4607073757480444 
4.500000000002851, -1.4478651040245123 
4.510000000002828, -1.4332239241185685 
4.520000000002804, -1.4166469252628664 
4.530000000002781, -1.3980081361779293 
4.540000000002758, -1.3771991522484297 
4.5500000000027345, -1.3541364847623145 
4.560000000002711, -1.3287693554979798 
4.570000000002688, -1.3010875347407895 
4.580000000002665, -1.2711286866468112 
4.590000000002641, -1.2389845600779765 
4.600000000002618, -1.2048052732088932 
4.610000000002595, -1.1688009224527556 
4.620000000002571, -1.1312398382871551 
4.630000000002548, -1.0924430393867306 
4.640000000002525, -1.0527748032059134 
4.6500000000025015, -1.0126297388450478 
4.660000000002478, -0.9724172399324726 
4.670000000002455, -0.9325446088087609 
4.6800000000024315, -0.8934003784823993 
4.690000000002408, -0.8553393513800437 
4.700000000002385, -0.8186706193059298 
4.710000000002362, -0.7836493856566754 
4.720000000002338, -0.7504728806332299 
4.730000000002315, -0.7192801548257225 
4.740000000002292, -0.6901551453681486 
4.750000000002268, -0.6631321787455811 
4.760000000002245, -0.638203007398931 
4.770000000002222, -0.6153245421976823 
4.7800000000021985, -0.5944265921659813 
4.790000000002175, -0.5754191087417834 
4.800000000002152, -0.5581986163880609 
4.810000000002129, -0.5426536704266373 
4.820000000002105, -0.5286693054015776 
4.830000000002082, -0.516130521715199 
4.840000000002059, -0.5049249092428262 
4.850000000002035, -0.49494453130009924 
4.860000000002012, -0.4860871982784083 
4.870000000001989, -0.47825725416228193 
4.880000000001965, -0.4713659862603793 
4.890000000001942, -0.4653317526057817 
4.900000000001919, -0.46007990511146507 
4.9100000000018955, -0.4555425711984483 
4.920000000001872, -0.4516583430201511 
