t, s[1].omega / s[0].omega 
0, -0.6800124479093042 
0.009999999999999995, -0.6812448850433638 
0.019999999999999934, -0.6823917691121655 
0.029999999999999874, -0.6833645718433224 
0.04000000000000012, -0.684099060748002 
0.050000000000000405, -0.6845703682226235 
0.06000000000000069, -0.6847895080680116 
0.07000000000000098, -0.6847878125350753 
0.08000000000000126, -0.6846011169121351 
0.09000000000000155, -0.6842606825978816 
0.10000000000000184, -0.6837918808081683 
0.11000000000000212, -0.6832197192983739 
0.12000000000000241, -0.682581668059355 
0.130000000000002, -0.6819508210067271 
0.1400000000000009, -0.6814745583551675 
0.1499999999999998, -0.6814330436332496 
0.1599999999999987, -0.6823122082604652 
0.1699999999999976, -0.6848563400311515 
0.1799999999999965, -0.690007218542666 
0.1899999999999954, -0.6985829814585431 
0.1999999999999943, -0.7106509341377125 
0.2099999999999932, -0.7249818075854408 
0.2199999999999921, -0.7393443370940126 
0.229999999999991, -0.751694670393557 
0.2399999999999899, -0.7611130198646553 
0.2499999999999888, -0.7677287335886895 
0.2599999999999877, -0.7721407330963623 
0.2699999999999866, -0.7749828271123269 
0.2799999999999855, -0.7767568382053726 
0.2899999999999844, -0.777813244079249 
0.2999999999999833, -0.778379320840774 
0.3099999999999822, -0.7785916959429608 
0.3199999999999811, -0.778520214578796 
0.32999999999998, -0.7781806994008497 
0.3399999999999789, -0.7775368003334646 
0.3499999999999778, -0.7764913828858967 
0.35999999999997667, -0.7748691734599797 
0.36999999999997557, -0.7723986710172378 
0.37999999999997447, -0.7687173197489037 
0.38999999999997337, -0.7634455815129109 
0.39999999999997227, -0.7563674783975096 
0.40999999999997117, -0.7476601144712788 
0.41999999999997006, -0.7379804595643483 
0.42999999999996896, -0.7282668931314229 
0.43999999999996786, -0.7193851233731546 
0.44999999999996676, -0.7118834660221094 
0.45999999999996566, -0.7059586429648379 
0.46999999999996456, -0.7015490247973126 
0.47999999999996346, -0.6984491714619971 
0.48999999999996235, -0.6963972611441809 
0.49999999999996125, -0.6951301800878193 
0.5099999999999602, -0.6944142615778468 
0.519999999999959, -0.6940591904559477 
0.529999999999958, -0.6939202834287495 
0.5399999999999568, -0.6938933503985768 
0.5499999999999557, -0.6939059662381895 
0.5599999999999546, -0.6939083764824504 
0.5699999999999535, -0.6938663423469189 
0.5799999999999524, -0.6937572093583386 
0.5899999999999513, -0.6935692856213703 
0.5999999999999502, -0.6933030109857106 
0.6099999999999491, -0.6929708778985836 
0.619999999999948, -0.6925932756377182 
0.6299999999999469, -0.6921904264481368 
0.6399999999999458, -0.6917743398197802 
0.6499999999999447, -0.6913455173343358 
0.6599999999999436, -0.690896058015355 
0.6699999999999425, -0.6904167058789129 
0.6799999999999414, -0.6899036612789391 
0.6899999999999403, -0.6893625587615898 
0.6999999999999392, -0.6888099035633697 
0.7099999999999381, -0.688273873999607 
0.719999999999937, -0.6877960445013854 
0.7299999999999359, -0.6874342864954593 
0.7399999999999348, -0.6872659452588327 
0.7499999999999337, -0.6873898101214088 
0.7599999999999326, -0.6879254595603495 
0.7699999999999315, -0.6890091410391107 
0.7799999999999304, -0.6907859379563482 
0.7899999999999293, -0.6933976828041949 
0.7999999999999282, -0.6969641493525038 
0.8099999999999271, -0.7015520846837086 
0.819999999999926, -0.7071262582599873 
0.8299999999999249, -0.7134869027181815 
0.8399999999999238, -0.7202260689573181 
0.8499999999999227, -0.7267661894652597 
0.8599999999999216, -0.7325198128812074 
0.8699999999999205, -0.7370981276228702 
0.8799999999999194, -0.7404152134141448 
0.8899999999999183, -0.7426252274840918 
0.8999999999999172, -0.7439806808853763 
0.9099999999999161, -0.7447214142891879 
0.919999999999915, -0.7450270486482287 
0.9299999999999139, -0.7450114161663743 
0.9399999999999128, -0.744731751733232 
0.9499999999999117, -0.7441973820743131 
0.9599999999999106, -0.7433720858056562 
0.9699999999999095, -0.7421682262396119 
0.9799999999999084, -0.7404316186114976 
0.9899999999999073, -0.7379163576630863 
0.9999999999999062, -0.7342513277831509 
1.0099999999999052, -0.7289118648073113 
1.019999999999904, -0.7212482518645851 
1.029999999999903, -0.7106978259951323 
1.039999999999902, -0.6973070160963946 
1.0499999999999008, -0.6823043127198061 
1.0599999999998997, -0.6679119351277989 
1.0699999999998986, -0.656166944257286 
1.0799999999998975, -0.6479062897564586 
1.0899999999998964, -0.6428052478838726 
1.0999999999998953, -0.6400145690053308 
1.1099999999998942, -0.638683775585908 
1.119999999999893, -0.6381741360685349 
1.129999999999892, -0.6380733813134929 
1.1399999999998909, -0.6381397767774002 
1.1499999999998898, -0.6382404970237221 
1.1599999999998887, -0.638304771690542 
1.1699999999998876, -0.6382932131593864 
1.1799999999998865, -0.6381794660928943 
1.1899999999998854, -0.637940479684025 
1.1999999999998843, -0.6375533985462125 
1.2099999999998832, -0.6369984888001083 
1.219999999999882, -0.6362672767848783 
1.229999999999881, -0.6353723344101498 
1.2399999999998799, -0.6343517230747009 
1.2499999999998788, -0.6332621365246356 
1.2599999999998777, -0.6321625735880194 
1.2699999999998766, -0.6310981107959849 
1.2799999999998755, -0.6300926062227251 
1.2899999999998744, -0.6291517427677594 
1.2999999999998733, -0.6282718080034116 
1.3099999999998722, -0.6274487325167065 
1.319999999999871, -0.626684363672588 
1.32999999999987, -0.625989749067737 
1.3399999999998689, -0.6253866386658058 
1.3499999999998678, -0.6249083927728295 
1.3599999999998666, -0.6246008121117582 
1.3699999999998655, -0.6245228424948753 
1.3799999999998644, -0.624746929840825 
1.3899999999998633, -0.6253589086671067 
1.3999999999998622, -0.6264573926877359 
1.4099999999998611, -0.6281522806514961 
1.41999999999986, -0.6305607332011091 
1.429999999999859, -0.6337965015338035 
1.4399999999998578, -0.6379452402614265 
1.4499999999998567, -0.6430173071436986 
1.4599999999998556, -0.6488784400527617 
1.4699999999998545, -0.6551878050542383 
1.4799999999998534, -0.6614117734035457 
1.4899999999998523, -0.6669688915809705 
1.4999999999998512, -0.6714463616954911 
1.5099999999998501, -0.6747254388106455 
1.519999999999849, -0.6769336440897447 
1.529999999999848, -0.6783064017413339 
1.5399999999998468, -0.6790737542899723 
1.5499999999998457, -0.6794100016163338 
1.5599999999998446, -0.6794260342175333 
1.5699999999998435, -0.6791768389228345 
1.5799999999998424, -0.6786682600127382 
1.5899999999998413, -0.6778561961179372 
1.5999999999998402, -0.6766346718621612 
1.6099999999998391, -0.6748092857836727 
1.619999999999838, -0.6720535025287806 
1.629999999999837, -0.6678556698015448 
1.6399999999998358, -0.6615024604204348 
1.6499999999998347, -0.6522209283463869 
1.6599999999998336, -0.6396289213746902 
1.6699999999998325, -0.6243619559217157 
1.6799999999998314, -0.60821108754664 
1.6899999999998303, -0.5933159404372814 
1.6999999999998292, -0.5811130508333583 
1.709999999999828, -0.5719894440575788 
1.719999999999827, -0.5656094805571678 
1.729999999999826, -0.5613653378850832 
1.7399999999998248, -0.5586563408124097 
1.7499999999998237, -0.5569960478223924 
1.7599999999998226, -0.5560265413288715 
1.7699999999998215, -0.5554982251279206 
1.7799999999998204, -0.555242791114766 
1.7899999999998193, -0.5551493220678192 
1.7999999999998182, -0.5551459426464824 
1.809999999999817, -0.5551868490360933 
1.819999999999816, -0.555243931223605 
1.8299999999998149, -0.5553021535506866 
1.8399999999998138, -0.5553577029471329 
1.8499999999998127, -0.5554173547404351 
1.8599999999998116, -0.5554967973337792 
1.8699999999998105, -0.5556157346237589 
1.8799999999998094, -0.5557893192028206 
1.8899999999998083, -0.5560183756017371 
1.8999999999998072, -0.5562831153084861 
1.909999999999806, -0.5565448055026704 
1.919999999999805, -0.5567562301621922 
1.9299999999998039, -0.556876082332359 
1.9399999999998028, -0.5568793489043358 
1.9499999999998017, -0.5567590443722785 
1.9599999999998006, -0.5565211299410908 
1.9699999999997995, -0.5561778009842478 
1.9799999999997984, -0.5557431820029455 
1.9899999999997973, -0.5552330476019944 
1.9999999999997962, -0.5546690504865034 
2.0099999999998173, -0.5540882958533131 
2.0199999999998384, -0.5535600271427591 
2.0299999999998595, -0.5532111484940598 
2.0399999999998806, -0.5532578868546756 
2.0499999999999017, -0.55402426968768 
2.059999999999923, -0.5558885957772198 
2.069999999999944, -0.5590525532831404 
2.079999999999965, -0.5631061539887061 
2.089999999999986, -0.5667860316082973 
2.100000000000007, -0.5686702617382992 
2.1100000000000283, -0.5684615246752163 
2.1200000000000494, -0.5671382182980256 
2.1300000000000705, -0.5658320720591528 
2.1400000000000916, -0.5650610787562507 
2.1500000000001127, -0.564819147545379 
2.160000000000134, -0.5649115550340065 
2.170000000000155, -0.5651522761586631 
2.180000000000176, -0.5654181904294215 
2.190000000000197, -0.56564138922365 
2.2000000000002182, -0.5657882728085837 
2.2100000000002393, -0.5658420770932412 
2.2200000000002604, -0.565791553031824 
2.2300000000002815, -0.565624818081243 
2.2400000000003026, -0.5653274623779563 
2.2500000000003237, -0.5648848691351152 
2.260000000000345, -0.5642888435347283 
2.270000000000366, -0.5635468728079902 
2.280000000000387, -0.5626889640897403 
2.290000000000408, -0.5617655500278604 
2.3000000000004293, -0.5608345956155649 
2.3100000000004504, -0.5599443641486814 
2.3200000000004715, -0.5591216674053674 
2.3300000000004926, -0.5583706017299368 
2.3400000000005137, -0.5576797438398917 
2.3500000000005348, -0.5570324042435982 
2.360000000000556, -0.5564152596190444 
2.370000000000577, -0.5558234092467067 
2.380000000000598, -0.55526255516163 
2.390000000000619, -0.5547502946377003 
2.4000000000006403, -0.5543183983854527 
2.4100000000006614, -0.5540172612095716 
2.4200000000006825, -0.553923171221643 
2.4300000000007036, -0.5541488113179415 
2.4400000000007247, -0.5548572384644198 
2.450000000000746, -0.55627894073356 
2.460000000000767, -0.5587293384201939 
2.470000000000788, -0.5626179979964553 
2.480000000000809, -0.5684273017923281 
2.49000000000083, -0.5766164061870029 
2.5000000000008513, -0.5873945155655078 
2.5100000000008724, -0.600373222962537 
2.5200000000008935, -0.6143259925492881 
2.5300000000009146, -0.6274672039750316 
2.5400000000009357, -0.6382836290310021 
2.550000000000957, -0.6462034254857933 
2.560000000000978, -0.6515227978191309 
2.570000000000999, -0.654900768754207 
2.58000000000102, -0.6569658274129899 
2.5900000000010412, -0.6581771627355074 
2.6000000000010624, -0.6588299952851239 
2.6100000000010835, -0.659099193118266 
2.6200000000011046, -0.6590773075525096 
2.6300000000011257, -0.6587977089036061 
2.6400000000011468, -0.6582441529587395 
2.650000000001168, -0.657349730410933 
2.660000000001189, -0.6559889618337087 
2.67000000000121, -0.653971285750666 
2.680000000001231, -0.6510549359948598 
2.6900000000012523, -0.6470113834183362 
2.7000000000012734, -0.6417548831957295 
2.7100000000012945, -0.6354790082234139 
2.7200000000013156, -0.6286694764975782 
2.7300000000013367, -0.6219351437660019 
2.740000000001358, -0.6157818243554992 
2.750000000001379, -0.610493660722554 
2.7600000000014, -0.6061497545439558 
2.770000000001421, -0.6027008826928897 
2.780000000001442, -0.6000401423859671 
2.7900000000014633, -0.5980461985191912 
2.8000000000014844, -0.5966035694881737 
2.8100000000015055, -0.5956098247181474 
2.8200000000015266, -0.5949770192481276 
2.8300000000015477, -0.5946312450192482 
2.840000000001569, -0.5945118598824535 
2.85000000000159, -0.5945708036962063 
2.860000000001611, -0.594772019261811 
2.870000000001632, -0.5950909541008226 
2.8800000000016532, -0.5955140873920748 
2.8900000000016743, -0.5960381575893516 
2.9000000000016954, -0.5966682009615649 
2.9100000000017165, -0.5974129585534127 
2.9200000000017377, -0.5982764170675523 
2.9300000000017588, -0.5992460603856531 
2.94000000000178, -0.6002819434775725 
2.950000000001801, -0.6013141647159126 
2.960000000001822, -0.6022552465726332 
2.970000000001843, -0.603024792711765 
2.9800000000018643, -0.603572478419766 
2.9900000000018854, -0.6038853896326436 
3.0000000000019065, -0.6039786383470247 
3.0100000000019276, -0.6038792288520592 
3.0200000000019487, -0.6036127945046488 
3.03000000000197, -0.6031965588309283 
3.040000000001991, -0.6026375290599219 
3.050000000002012, -0.6019341899262896 
3.060000000002033, -0.601081006987315 
3.070000000002054, -0.60007602507742 
3.0800000000020753, -0.598931001416155 
3.0900000000020964, -0.5976774411599342 
3.1000000000021175, -0.5963449673602319 
3.1100000000021386, -0.5948634490233087 
3.1200000000021597, -0.5928623204283957 
3.130000000002181, -0.5895479273819111 
3.140000000002202, -0.5841391895116923 
3.150000000002223, -0.5768590798936256 
3.160000000002244, -0.5691944722117274 
3.1700000000022652, -0.5627717550892728 
3.1800000000022863, -0.5583069212499936 
3.1900000000023074, -0.5556368072328842 
3.2000000000023285, -0.5542450889502939 
3.2100000000023496, -0.5536329458386244 
3.2200000000023707, -0.553441523065519 
3.230000000002392, -0.5534468012083543 
3.240000000002413, -0.5535197780109042 
3.250000000002434, -0.5535892812510133 
3.260000000002455, -0.5536158705266742 
3.2700000000024763, -0.5535757209752576 
3.2800000000024974, -0.5534518191458131 
3.2900000000025185, -0.5532306025870357 
3.3000000000025396, -0.5529030805091375 
3.3100000000025607, -0.5524693808879924 
3.3200000000025818, -0.5519441300416752 
3.330000000002603, -0.5513581972563595 
3.340000000002624, -0.5507530351450394 
3.350000000002645, -0.5501685734927958 
3.360000000002666, -0.5496307847316656 
3.3700000000026873, -0.5491454825008697 
3.3800000000027084, -0.5487006648967009 
3.3900000000027295, -0.5482749515381798 
3.4000000000027506, -0.5478473386103617 
3.4100000000027717, -0.5474041783339608 
3.420000000002793, -0.5469420687983557 
3.430000000002814, -0.5464681386817938 
3.440000000002835, -0.5460003340261006 
3.450000000002856, -0.5455699118221042 
3.460000000002877, -0.5452276255865364 
3.4700000000028983, -0.5450548408895572 
3.4800000000029194, -0.5451810408886619 
3.4900000000029405, -0.5458093499866967 
3.5000000000029616, -0.5472506797614463 
3.5100000000029827, -0.5499622056163631 
3.520000000003004, -0.5545712312857861 
3.530000000003025, -0.5618322553992343 
3.540000000003046, -0.5724163322000233 
3.550000000003067, -0.5864379404325402 
3.5600000000030882, -0.6028712607358758 
3.5700000000031094, -0.6194963575494842 
3.5800000000031305, -0.6339064569576547 
3.5900000000031516, -0.6448043566130861 
3.6000000000031727, -0.6522728697887857 
3.6100000000031938, -0.6571039688559626 
3.620000000003215, -0.6601401170658325 
3.630000000003236, -0.6620141039010712 
3.640000000003257, -0.6631391273133993 
3.650000000003278, -0.6637684376347542 
3.6600000000032993, -0.6640501794319772 
3.6700000000033204, -0.6640630978578563 
3.6800000000033415, -0.6638360343913227 
3.6900000000033626, -0.663356023776859 
3.7000000000033837, -0.6625690060379876 
3.710000000003405, -0.661377908687143 
3.720000000003426, -0.6596467815794591 
3.730000000003447, -0.6572256614104259 
3.740000000003468, -0.6540098657512794 
3.750000000003489, -0.650022716214528 
3.7600000000035103, -0.645466557114707 
3.7700000000035314, -0.6406816201069627 
3.7800000000035525, -0.6360274775915731 
3.7900000000035736, -0.6317743071302233 
3.8000000000035947, -0.6280655480637046 
3.810000000003616, -0.624940927970312 
3.820000000003637, -0.6223787008092836 
3.830000000003658, -0.6203300001109414 
3.840000000003679, -0.6187386526867255 
3.8500000000037002, -0.617549805644517 
3.8600000000037213, -0.6167124722682752 
3.8700000000037424, -0.6161797592126476 
3.8800000000037635, -0.6159088182911565 
3.8900000000037847, -0.615861295446609 
3.9000000000038058, -0.616004314028596 
3.910000000003827, -0.6163117193294301 
3.920000000003848, -0.6167652490903237 
3.930000000003869, -0.6173552508294624 
3.94000000000389, -0.6180803233509737 
3.9500000000039113, -0.6189447825531423 
3.9600000000039324, -0.6199525219064975 
3.9700000000039535, -0.621096518994247 
3.9800000000039746, -0.6223458586920085 
3.9900000000039957, -0.6236365168773672 
4.000000000004016, -0.624875099250655 
4.010000000003993, -0.6259601679594031 
4.02000000000397, -0.6268123753631059 
4.030000000003946, -0.6273946960180135 
4.040000000003923, -0.6277114013567001 
4.0500000000039, -0.6277914819062163 
4.0600000000038765, -0.6276699354991703 
4.070000000003853, -0.6273753371298728 
4.08000000000383, -0.6269246936763289 
4.090000000003807, -0.6263234082132851 
4.100000000003783, -0.6255686637683999 
4.11000000000376, -0.6246562338073326 
4.120000000003737, -0.6235919752516317 
4.130000000003713, -0.6224082236537147 
4.14000000000369, -0.6211777809112529 
4.150000000003667, -0.6199975353574079 
4.1600000000036434, -0.6188856759769095 
4.17000000000362, -0.617569529213142 
4.180000000003597, -0.6153729165888231 
4.1900000000035735, -0.6116588609016004 
4.20000000000355, -0.6066800966857505 
4.210000000003527, -0.6016406745630992 
4.220000000003504, -0.5976975355043666 
4.23000000000348, -0.5952364814097949 
4.240000000003457, -0.5940155390927642 
4.250000000003434, -0.5935955050804298 
4.26000000000341, -0.5935992255421076 
4.270000000003387, -0.5937776570967835 
4.280000000003364, -0.5939888374762188 
4.2900000000033405, -0.594159285354548 
4.300000000003317, -0.5942525691417782 
4.310000000003294, -0.59424877542234 
4.320000000003271, -0.5941325797356742 
4.330000000003247, -0.5938874359672408 
4.340000000003224, -0.593494779193281 
4.350000000003201, -0.5929382530047855 
4.360000000003177, -0.5922124948591819 
4.370000000003154, -0.5913331183750397 
4.380000000003131, -0.5903410150021337 
4.390000000003107, -0.5892950731819979 
4.400000000003084, -0.5882552459929524 
4.410000000003061, -0.5872657487079497 
4.4200000000030375, -0.5863474554121223 
4.430000000003014, -0.5855010525441419 
4.440000000002991, -0.5847163542828862 
4.450000000002968, -0.5839821027331923 
4.460000000002944, -0.5832928906056926 
4.470000000002921, -0.5826528009303571 
4.480000000002898, -0.5820771833522002 
4.490000000002874, -0.5815942693426778 
4.500000000002851, -0.5812477089427058 
4.510000000002828, -0.5811003982421844 
4.520000000002804, -0.5812395332351679 
4.530000000002781, -0.5817826275481337 
4.540000000002758, -0.5828839978582805 
4.5500000000027345, -0.5847404583626099 
4.560000000002711, -0.5875927906678442 
4.570000000002688, -0.5917146461421297 
4.580000000002665, -0.5973721100335223 
4.590000000002641, -0.6047293291623475 
4.600000000002618, -0.6136873630610464 
4.610000000002595, -0.6237107131972046 
4.620000000002571, -0.6338116851906984 
4.630000000002548, -0.6428577001920023 
4.640000000002525, -0.650062754669697 
4.6500000000025015, -0.6552475850546805 
4.660000000002478, -0.6586975653513748 
4.670000000002455, -0.6608605601774277 
4.6800000000024315, -0.662140232761812 
4.690000000002408, -0.6628275902547113 
4.700000000002385, -0.6631067405034231 
4.710000000002362, -0.6630797083009968 
4.720000000002338, -0.6627864951453414 
4.730000000002315, -0.6622140900972091 
4.740000000002292, -0.6612937007996822 
4.750000000002268, -0.6598866644889312 
4.760000000002245, -0.6577623050594402 
4.770000000002222, -0.6545819491287401 
4.7800000000021985, -0.649928041764357 
4.790000000002175, -0.6434410143327727 
4.800000000002152, -0.6350806765839265 
4.810000000002129, -0.6253540458639438 
4.820000000002105, -0.615234245154201 
4.830000000002082, -0.6057506476017471 
4.840000000002059, -0.5975976180064512 
4.850000000002035, -0.591031288414978 
4.860000000002012, -0.5859903306565919 
4.870000000001989, -0.5822603499841474 
4.880000000001965, -0.5795876864768108 
4.890000000001942, -0.5777355156972188 
4.900000000001919, -0.5765037531102271 
4.9100000000018955, -0.5757317998519476 
4.920000000001872, -0.5752948057516495 
