t, s[1].omega / s[0].omega 
0, -0.59999772878975 
0.009999999999999995, -0.5997901581796677 
0.019999999999999934, -0.5996107104647738 
0.029999999999999874, -0.5994324075101887 
0.04000000000000012, -0.5992231605647675 
0.050000000000000405, -0.5989575686569136 
0.06000000000000069, -0.5986238432610895 
0.07000000000000098, -0.5982248447854414 
0.08000000000000126, -0.5977763998026562 
0.09000000000000155, -0.5973070832739461 
0.10000000000000184, -0.5968624206391466 
0.11000000000000212, -0.5965152731683468 
0.12000000000000241, -0.596383964856704 
0.130000000000002, -0.5966600901495129 
0.1400000000000009, -0.5976479560169822 
0.1499999999999998, -0.5998156566137526 
0.1599999999999987, -0.6038502136729748 
0.1699999999999976, -0.6106878531700611 
0.1799999999999965, -0.6214426055498563 
0.1899999999999954, -0.6370859478624431 
0.1999999999999943, -0.6577399168961164 
0.2099999999999932, -0.681814685208692 
0.2199999999999921, -0.7059557658354864 
0.229999999999991, -0.7265886571269485 
0.2399999999999899, -0.7418626757710133 
0.2499999999999888, -0.7520126217653076 
0.2599999999999877, -0.758311822978486 
0.2699999999999866, -0.7620699906739319 
0.2799999999999855, -0.7642468019643623 
0.2899999999999844, -0.7654485084787863 
0.2999999999999833, -0.7660291354978185 
0.3099999999999822, -0.7661803194616129 
0.3199999999999811, -0.7659869804790611 
0.32999999999998, -0.7654529517282679 
0.3399999999999789, -0.7645022116092131 
0.3499999999999778, -0.7629571274757605 
0.35999999999997667, -0.7604927483297538 
0.36999999999997557, -0.7565741713575002 
0.37999999999997447, -0.7504200097103282 
0.38999999999997337, -0.7411131860274707 
0.39999999999997227, -0.7280280328969317 
0.40999999999997117, -0.7115108679427077 
0.41999999999997006, -0.6932052529893636 
0.42999999999996896, -0.6754265624344714 
0.43999999999996786, -0.6600521848869199 
0.44999999999996676, -0.6479309121858806 
0.45999999999996566, -0.6390280285829919 
0.46999999999996456, -0.6328465941627233 
0.47999999999996346, -0.6287616898362265 
0.48999999999996235, -0.6261933732881854 
0.49999999999996125, -0.6246690652659923 
0.5099999999999602, -0.6238311754656783 
0.519999999999959, -0.6234226815558721 
0.529999999999958, -0.6232660931856538 
0.5399999999999568, -0.6232425583753757 
0.5499999999999557, -0.623274056738564 
0.5599999999999546, -0.6233099277711579 
0.5699999999999535, -0.6233181523327763 
0.5799999999999524, -0.623281201902116 
0.5899999999999513, -0.6231953392590786 
0.5999999999999502, -0.6230707970665625 
0.6099999999999491, -0.6229292212530266 
0.619999999999948, -0.6227960073421175 
0.6299999999999469, -0.6226890483713142 
0.6399999999999458, -0.6226091400189502 
0.6499999999999447, -0.6225375369564772 
0.6599999999999436, -0.6224425222307652 
0.6699999999999425, -0.6222915923947008 
0.6799999999999414, -0.6220625971598245 
0.6899999999999403, -0.6217488661164355 
0.6999999999999392, -0.621358569801601 
0.7099999999999381, -0.6209124212769983 
0.719999999999937, -0.620444002096884 
0.7299999999999359, -0.6200053305431958 
0.7399999999999348, -0.6196791012886985 
0.7499999999999337, -0.619598817901231 
0.7599999999999326, -0.6199780730592745 
0.7699999999999315, -0.6211493984190388 
0.7799999999999304, -0.6236097554778197 
0.7899999999999293, -0.6280604168843277 
0.7999999999999282, -0.6354067658577291 
0.8099999999999271, -0.6466407338670621 
0.819999999999926, -0.6624817971737749 
0.8299999999999249, -0.6827126056280732 
0.8399999999999238, -0.7055258768298585 
0.8499999999999227, -0.727740110748122 
0.8599999999999216, -0.7463058111280976 
0.8699999999999205, -0.7598504820369356 
0.8799999999999194, -0.768772462120004 
0.8899999999999183, -0.7742733339051197 
0.8999999999999172, -0.7775277305440237 
0.9099999999999161, -0.7793831306406872 
0.919999999999915, -0.7803707255735002 
0.9299999999999139, -0.780797085889233 
0.9399999999999128, -0.780822580043431 
0.9499999999999117, -0.7805082884231459 
0.9599999999999106, -0.7798346580104594 
0.9699999999999095, -0.7786955173952014 
0.9799999999999084, -0.7768663457228957 
0.9899999999999073, -0.7739427450772738 
0.9999999999999062, -0.7692540143659802 
1.0099999999999052, -0.7618021410583984 
1.019999999999904, -0.7503865601413601 
1.029999999999903, -0.7341676668064658 
1.039999999999902, -0.7136281733603866 
1.0499999999999008, -0.6910595734966314 
1.0599999999998997, -0.6696327389018355 
1.0699999999998986, -0.6517576196996873 
1.0799999999998975, -0.6383032045161301 
1.0899999999998964, -0.6289392210036294 
1.0999999999998953, -0.6228121362419301 
1.1099999999998942, -0.6190145127542972 
1.119999999999893, -0.6167877131969506 
1.129999999999892, -0.6155663898557019 
1.1399999999998909, -0.6149571055474767 
1.1499999999998898, -0.6146986631256682 
1.1599999999998887, -0.6146234594697172 
1.1699999999998876, -0.6146261402082738 
1.1799999999998865, -0.6146406526859023 
1.1899999999998854, -0.6146250522078416 
1.1999999999998843, -0.6145530559192858 
1.2099999999998832, -0.6144112143311381 
1.219999999999882, -0.6141998240762153 
1.229999999999881, -0.6139341838903338 
1.2399999999998799, -0.6136419376582533 
1.2499999999998788, -0.6133543261607857 
1.2599999999998777, -0.6130939636052848 
1.2699999999998766, -0.6128653210589575 
1.2799999999998755, -0.612653170935152 
1.2899999999998744, -0.6124297600567234 
1.2999999999998733, -0.6121666074242837 
1.3099999999998722, -0.6118447069711986 
1.319999999999871, -0.6114592093136494 
1.32999999999987, -0.6110193415375054 
1.3399999999998689, -0.6105473354376963 
1.3499999999998678, -0.6100800364945815 
1.3599999999998666, -0.6096754065455706 
1.3699999999998655, -0.6094251265395562 
1.3799999999998644, -0.6094742475892392 
1.3899999999998633, -0.6100486878518188 
1.3999999999998622, -0.6114903858233388 
1.4099999999998611, -0.6142965318869023 
1.41999999999986, -0.6191500400695412 
1.429999999999859, -0.6269065210946522 
1.4399999999998578, -0.6384622165530042 
1.4499999999998567, -0.6543887355165217 
1.4599999999998556, -0.6742988927573796 
1.4699999999998545, -0.6962937001849555 
1.4799999999998534, -0.7173030863993046 
1.4899999999998523, -0.7345764977835872 
1.4999999999998512, -0.7470270390078259 
1.5099999999998501, -0.7551673960517699 
1.519999999999849, -0.7601667161196801 
1.529999999999848, -0.7631166065264237 
1.5399999999998468, -0.7647898994893334 
1.5499999999998457, -0.765666323236745 
1.5599999999998446, -0.7660202613804825 
1.5699999999998435, -0.7659919871561482 
1.5799999999998424, -0.7656287155392943 
1.5899999999998413, -0.7648989516311941 
1.5999999999998402, -0.7636830126531071 
1.6099999999998391, -0.7617382385162955 
1.619999999999838, -0.7586362665862308 
1.629999999999837, -0.7536838965590114 
1.6399999999998358, -0.7458942435203011 
1.6499999999998347, -0.734184405773718 
1.6599999999998336, -0.7180055425601919 
1.6699999999998325, -0.6981971805511547 
1.6799999999998314, -0.6771405840714599 
1.6899999999998303, -0.6576554299219249 
1.6999999999998292, -0.6416327843842197 
1.709999999999828, -0.629609826985152 
1.719999999999827, -0.6211896053657655 
1.729999999999826, -0.6156064635715952 
1.7399999999998248, -0.6120811927654437 
1.7499999999998237, -0.6099660734143946 
1.7599999999998226, -0.6087736834018368 
1.7699999999998215, -0.6081586432987123 
1.7799999999998204, -0.6078863530527128 
1.7899999999998193, -0.6078024034733878 
1.7999999999998182, -0.6078072806593149 
1.809999999999817, -0.607837429089186 
1.819999999999816, -0.6078524934161346 
1.8299999999998149, -0.6078281703662517 
1.8399999999998138, -0.6077537309806742 
1.8499999999998127, -0.6076323212516126 
1.8599999999998116, -0.607480760245785 
1.8699999999998105, -0.6073252246723062 
1.8799999999998094, -0.607191649976464 
1.8899999999998083, -0.6070940317921727 
1.8999999999998072, -0.6070265387860538 
1.909999999999806, -0.6069640825532441 
1.919999999999805, -0.6068715168992544 
1.9299999999998039, -0.606716600851988 
1.9399999999998028, -0.6064798867814695 
1.9499999999998017, -0.6061578543269114 
1.9599999999998006, -0.6057610252798835 
1.9699999999997995, -0.6053116577731232 
1.9799999999997984, -0.6048449838266488 
1.9899999999997973, -0.6044163161595845 
1.9999999999997962, -0.6041156722029976 
2.0099999999998173, -0.6040919366880213 
2.0199999999998384, -0.6045891257705759 
2.0299999999998595, -0.6059966639438334 
2.0399999999998806, -0.6089110542005587 
2.0499999999999017, -0.6141916227272545 
2.059999999999923, -0.6229558178923902 
2.069999999999944, -0.636389396936349 
2.079999999999965, -0.6551895308333974 
2.089999999999986, -0.6786363305718119 
2.100000000000007, -0.7039725978203684 
2.1100000000000283, -0.7272761929623541 
2.1200000000000494, -0.7456207742148067 
2.1300000000000705, -0.7583500566980532 
2.1400000000000916, -0.7664582632151726 
2.1500000000001127, -0.7713696913833198 
2.160000000000134, -0.7742544431768512 
2.170000000000155, -0.7758923674598104 
2.180000000000176, -0.7767536212403907 
2.190000000000197, -0.7771033677742493 
2.2000000000002182, -0.7770755146297496 
2.2100000000002393, -0.7767126590207415 
2.2200000000002604, -0.7759788907108094 
2.2300000000002815, -0.774749012411754 
2.2400000000003026, -0.7727733782868426 
2.2500000000003237, -0.7696183659050855 
2.260000000000345, -0.7646012093563486 
2.270000000000366, -0.7567968981857123 
2.280000000000387, -0.7452863861957251 
2.290000000000408, -0.7297760611640607 
2.3000000000004293, -0.7112724133745598 
2.3100000000004504, -0.6920046685997503 
2.3200000000004715, -0.6743762625658 
2.3300000000004926, -0.659909315532858 
2.3400000000005137, -0.6490045076906963 
2.3500000000005348, -0.6413114576590137 
2.360000000000556, -0.6361759107188619 
2.370000000000577, -0.6329214486148808 
2.380000000000598, -0.6309720437281884 
2.390000000000619, -0.629883492869075 
2.4000000000006403, -0.6293343558633142 
2.4100000000006614, -0.6291027574318899 
2.4200000000006825, -0.6290409917234363 
2.4300000000007036, -0.6290530306306417 
2.4400000000007247, -0.6290769427158102 
2.450000000000746, -0.6290728194826205 
2.460000000000767, -0.6290161300191 
2.470000000000788, -0.6288957735145388 
2.480000000000809, -0.6287148657907744 
2.49000000000083, -0.6284907110835889 
2.5000000000008513, -0.6282502081865149 
2.5100000000008724, -0.6280198634367673 
2.5200000000008935, -0.6278142532330492 
2.5300000000009146, -0.6276291050977522 
2.5400000000009357, -0.6274430106881641 
2.550000000000957, -0.6272268341012845 
2.560000000000978, -0.6269555015541595 
2.570000000000999, -0.6266162323916722 
2.58000000000102, -0.6262109678881088 
2.5900000000010412, -0.6257553275347171 
2.6000000000010624, -0.6252782012746514 
2.6100000000010835, -0.6248250996416257 
2.6200000000011046, -0.624466827125782 
2.6300000000011257, -0.6243141758171028 
2.6400000000011468, -0.6245389456711008 
2.650000000001168, -0.625400922668371 
2.660000000001189, -0.6272785937663918 
2.67000000000121, -0.6306967960678319 
2.680000000001231, -0.6363338020527081 
2.6900000000012523, -0.6449681664425896 
2.7000000000012734, -0.6572924942675397 
2.7100000000012945, -0.6735147961882122 
2.7200000000013156, -0.6928081139932833 
2.7300000000013367, -0.7130463643959977 
2.740000000001358, -0.7314561123782072 
2.750000000001379, -0.7459941537215398 
2.7600000000014, -0.7561779480585851 
2.770000000001421, -0.7627177602290165 
2.780000000001442, -0.766685402036263 
2.7900000000014633, -0.7689936987646733 
2.8000000000014844, -0.7702649745255123 
2.8100000000015055, -0.7708771637390895 
2.8200000000015266, -0.771039886137202 
2.8300000000015477, -0.7708501726090404 
2.840000000001569, -0.7703209835436448 
2.85000000000159, -0.769385166352641 
2.860000000001611, -0.7678751107120485 
2.870000000001632, -0.7654739144413517 
2.8800000000016532, -0.761634562439375 
2.8900000000016743, -0.7554864532033359 
2.9000000000016954, -0.7458288242211479 
2.9100000000017165, -0.7314535778210437 
2.9200000000017377, -0.7120182894683401 
2.9300000000017588, -0.6890251669540842 
2.94000000000178, -0.6656413065575478 
2.950000000001801, -0.6450479569012699 
2.960000000001822, -0.6289496904737023 
2.970000000001843, -0.6174547430811013 
2.9800000000018643, -0.6097853903447772 
2.9900000000018854, -0.6049404442211407 
3.0000000000019065, -0.6020310789652795 
3.0100000000019276, -0.6003791992730506 
3.0200000000019487, -0.5995077386383753 
3.03000000000197, -0.5990977300246458 
3.040000000001991, -0.5989433501565794 
3.050000000002012, -0.5989149174459417 
3.060000000002033, -0.5989315569372071 
3.070000000002054, -0.5989426117429619 
3.0800000000020753, -0.5989164009737312 
3.0900000000020964, -0.5988350309687024 
3.1000000000021175, -0.5986937176728003 
3.1100000000021386, -0.5985019835496141 
3.1200000000021597, -0.5982828208280953 
3.130000000002181, -0.5980664978048746 
3.140000000002202, -0.5978793341631693 
3.150000000002223, -0.5977322043084835 
3.160000000002244, -0.5976148721460375 
3.1700000000022652, -0.5974994634074652 
3.1800000000022863, -0.597351400899807 
3.1900000000023074, -0.5971419275706416 
3.2000000000023285, -0.5968560757401784 
3.2100000000023496, -0.5964941441617506 
3.2200000000023707, -0.5960695498964773 
3.230000000002392, -0.5956075478888609 
3.240000000002413, -0.5951481804010534 
3.250000000002434, -0.594755466564363 
3.260000000002455, -0.5945346009624158 
3.2700000000024763, -0.5946595419934548 
3.2800000000024974, -0.5954138828934121 
3.2900000000025185, -0.5972467045521992 
3.3000000000025396, -0.6008385369885765 
3.3100000000025607, -0.6071519175953555 
3.3200000000025818, -0.6173909617468974 
3.330000000002603, -0.6327106684238369 
3.340000000002624, -0.6534922628581697 
3.350000000002645, -0.6783455588108384 
3.360000000002666, -0.7038436435340689 
3.3700000000026873, -0.7260391510696462 
3.3800000000027084, -0.7426842057773742 
3.3900000000027295, -0.7538381085779409 
3.4000000000027506, -0.7607995652981563 
3.4100000000027717, -0.7649747876828289 
3.420000000002793, -0.7674126491578804 
3.430000000002814, -0.7687819197986141 
3.440000000002835, -0.7694766727362878 
3.450000000002856, -0.7697142889268085 
3.460000000002877, -0.7695978771487092 
3.4700000000028983, -0.769147052439952 
3.4800000000029194, -0.7683037529847816 
3.4900000000029405, -0.7669156280218314 
3.5000000000029616, -0.7646966236771421 
3.5100000000029827, -0.7611700259945041 
3.520000000003004, -0.7556283299194325 
3.530000000003025, -0.7472116412314933 
3.540000000003046, -0.7352606992603803 
3.550000000003067, -0.7199333852808169 
3.5600000000030882, -0.7025925720376424 
3.5700000000031094, -0.6853629222759714 
3.5800000000031305, -0.6701246726289534 
3.5900000000031516, -0.6578586707168386 
3.6000000000031727, -0.6486793130836672 
3.6100000000031938, -0.6421970599759869 
3.620000000003215, -0.6378457225830263 
3.630000000003236, -0.6350683764691374 
3.640000000003257, -0.6333942582376045 
3.650000000003278, -0.6324572186709233 
3.6600000000032993, -0.6319882269651438 
3.6700000000033204, -0.631798208239095 
3.6800000000033415, -0.631758862877914 
3.6900000000033626, -0.631785185852686 
3.7000000000033837, -0.6318215466823487 
3.710000000003405, -0.6318321877764815 
3.720000000003426, -0.6317962888973641 
3.730000000003447, -0.631706813647143 
3.740000000003468, -0.6315708800542046 
3.750000000003489, -0.631408076342895 
3.7600000000035103, -0.631243836216263 
3.7700000000035314, -0.6310985841472821 
3.7800000000035525, -0.6309774731706959 
3.7900000000035736, -0.6308664815365665 
3.8000000000035947, -0.6307374405685083 
3.810000000003616, -0.6305593642524726 
3.820000000003637, -0.6303098026763309 
3.830000000003658, -0.6299809180885254 
3.840000000003679, -0.6295797886329652 
3.8500000000037002, -0.6291265562006112 
3.8600000000037213, -0.6286546529668343 
3.8700000000037424, -0.6282157933676683 
3.8800000000037635, -0.6278910145688312 
3.8900000000037847, -0.6278084897049094 
3.9000000000038058, -0.6281685262727922 
3.910000000003827, -0.6292751711204688 
3.920000000003848, -0.6315710188869399 
3.930000000003869, -0.6356649219708985 
3.94000000000389, -0.6423267427333529 
3.9500000000039113, -0.6523936125729365 
3.9600000000039324, -0.6664975021187474 
3.9700000000039535, -0.684554022201745 
3.9800000000039746, -0.7052013041270642 
3.9900000000039957, -0.7258128600484971 
4.000000000004016, -0.7435819450697346 
4.010000000003993, -0.7569409762238704 
4.02000000000397, -0.7659495133589085 
4.030000000003946, -0.7715877892416724 
4.040000000003923, -0.7749501463209221 
4.0500000000039, -0.776874463277225 
4.0600000000038765, -0.7779025199558549 
4.070000000003853, -0.7783525614272297 
4.08000000000383, -0.778393801420865 
4.090000000003807, -0.7780941357821878 
4.100000000003783, -0.7774406291907131 
4.11000000000376, -0.7763356382361691 
4.120000000003737, -0.7745673501610828 
4.130000000003713, -0.7717495470448915 
4.14000000000369, -0.7672303410552692 
4.150000000003667, -0.7600064493690627 
4.1600000000036434, -0.7487862225605618 
4.17000000000362, -0.7324839271357835 
4.180000000003597, -0.7112514351953401 
4.1900000000035735, -0.6872686953516978 
4.20000000000355, -0.6640214255511839 
4.210000000003527, -0.6444183933522526 
4.220000000003504, -0.6296427267935324 
4.23000000000348, -0.6194105325166549 
4.240000000003457, -0.6127701692494172 
4.250000000003434, -0.608690925345491 
4.26000000000341, -0.6063175834687462 
4.270000000003387, -0.6050226771835621 
4.280000000003364, -0.6043771510040556 
4.2900000000033405, -0.6041009560354884 
4.300000000003317, -0.604017148870146 
4.310000000003294, -0.6040160539918241 
4.320000000003271, -0.6040297908569617 
4.330000000003247, -0.6040157001729967 
4.340000000003224, -0.6039470992312863 
4.350000000003201, -0.6038099676090927 
4.360000000003177, -0.6036036922413894 
4.370000000003154, -0.6033426187772875 
4.380000000003131, -0.6030541178320966 
4.390000000003107, -0.6027705186325227 
4.400000000003084, -0.6025168760431303 
4.410000000003061, -0.6023005191001066 
4.4200000000030375, -0.6021080655025495 
4.430000000003014, -0.6019114960065584 
4.440000000002991, -0.6016798783397841 
4.450000000002968, -0.6013904940886898 
4.460000000002944, -0.6010346275375414 
4.470000000002921, -0.6006179178763794 
4.480000000002898, -0.6001588276061063 
4.490000000002874, -0.5996892175566045 
4.500000000002851, -0.5992596585546117 
4.510000000002828, -0.598951056650812 
4.520000000002804, -0.598894044986723 
4.530000000002781, -0.5992978587372463 
4.540000000002758, -0.6004900643004898 
4.5500000000027345, -0.6029658392678826 
4.560000000002711, -0.6074365606388799 
4.570000000002688, -0.6148438435263945 
4.580000000002665, -0.6262558403267073 
4.590000000002641, -0.6425007462987008 
4.600000000002618, -0.6634407060244079 
4.610000000002595, -0.6872124073106387 
4.620000000002571, -0.7104159850768452 
4.630000000002548, -0.7297747227493583 
4.640000000002525, -0.7438431402895214 
4.6500000000025015, -0.7530790594347017 
4.660000000002478, -0.7587687311837932 
4.670000000002455, -0.7621442783235012 
4.6800000000024315, -0.7640839031756645 
4.690000000002408, -0.7651348262222994 
4.700000000002385, -0.7656130528380038 
4.710000000002362, -0.7656857790051048 
4.720000000002338, -0.7654204436506096 
4.730000000002315, -0.7648051779527145 
4.740000000002292, -0.7637453422864467 
4.750000000002268, -0.7620365089101607 
4.760000000002245, -0.7593127228770997 
4.770000000002222, -0.7549800971656138 
4.7800000000021985, -0.7481900297224897 
4.790000000002175, -0.737993906169745 
4.800000000002152, -0.723849707313844 
4.810000000002129, -0.7063388072217952 
4.820000000002105, -0.6873739702321394 
4.830000000002082, -0.6693837074022537 
4.840000000002059, -0.6541604359895598 
4.850000000002035, -0.6423847251521553 
4.860000000002012, -0.6338792222875871 
4.870000000001989, -0.6280632684671936 
4.880000000001965, -0.6242762755632427 
4.890000000001942, -0.6219314897604998 
4.900000000001919, -0.6205638779497584 
4.9100000000018955, -0.6198289056024694 
4.920000000001872, -0.619483207987585 
