t, s[1].omega / s[0].omega 
0, -1.2999920056956051 
0.009999999999999995, -1.2990393696871163 
0.019999999999999934, -1.2977857853683448 
0.029999999999999874, -1.296248341389173 
0.04000000000000012, -1.2944698050587415 
0.050000000000000405, -1.2925326782766315 
0.06000000000000069, -1.2905747913103176 
0.07000000000000098, -1.288791513886486 
0.08000000000000126, -1.2873943306208204 
0.09000000000000155, -1.2865130152380992 
0.10000000000000184, -1.2861090298517028 
0.11000000000000212, -1.2860002162788573 
0.12000000000000241, -1.2859726393680941 
0.130000000000002, -1.2858592065599033 
0.1400000000000009, -1.2855376174902748 
0.1499999999999998, -1.2848835102903358 
0.1599999999999987, -1.2837129328103887 
0.1699999999999976, -1.2817226583960686 
0.1799999999999965, -1.2784360277149855 
0.1899999999999954, -1.2731933043355634 
0.1999999999999943, -1.2652813155679046 
0.2099999999999932, -1.254330520349635 
0.2199999999999921, -1.2409821584661083 
0.229999999999991, -1.227374415890146 
0.2399999999999899, -1.216508463053541 
0.2499999999999888, -1.2103236718526624 
0.2599999999999877, -1.2083885022224496 
0.2699999999999866, -1.2088076743235252 
0.2799999999999855, -1.2099045383564062 
0.2899999999999844, -1.2108527192858471 
0.2999999999999833, -1.211421716621782 
0.3099999999999822, -1.211613517136001 
0.3199999999999811, -1.211464641765002 
0.32999999999998, -1.2109691004636933 
0.3399999999999789, -1.2100458218075083 
0.3499999999999778, -1.208514846048407 
0.35999999999997667, -1.2060916588591515 
0.36999999999997557, -1.202481989661945 
0.37999999999997447, -1.1977769395801618 
0.38999999999997337, -1.1933092924954016 
0.39999999999997227, -1.1922975361398715 
0.40999999999997117, -1.1982884576991633 
0.41999999999997006, -1.2113781153022563 
0.42999999999996896, -1.227224819733687 
0.43999999999996786, -1.2409842325431408 
0.44999999999996676, -1.2506164565511773 
0.45999999999996566, -1.2564988099163186 
0.46999999999996456, -1.2597843933187718 
0.47999999999996346, -1.2614770462287752 
0.48999999999996235, -1.2622293083207157 
0.49999999999996125, -1.262412687085999 
0.5099999999999602, -1.2622238186855301 
0.519999999999959, -1.2617692317929996 
0.529999999999958, -1.2611397444693098 
0.5399999999999568, -1.2604985358333516 
0.5499999999999557, -1.2601744491322788 
0.5599999999999546, -1.2606612421811485 
0.5699999999999535, -1.2623899705652928 
0.5799999999999524, -1.2653919908160982 
0.5899999999999513, -1.2692334324866574 
0.5999999999999502, -1.2732974770850536 
0.6099999999999491, -1.2770786774990261 
0.619999999999948, -1.2802810672858898 
0.6299999999999469, -1.2827838685500113 
0.6399999999999458, -1.2845813380202773 
0.6499999999999447, -1.2857367700006797 
0.6599999999999436, -1.2863495594492125 
0.6699999999999425, -1.2865296100354533 
0.6799999999999414, -1.2863803521699777 
0.6899999999999403, -1.2859941497755671 
0.6999999999999392, -1.2854597668470578 
0.7099999999999381, -1.2848741238921633 
0.719999999999937, -1.2843436953460428 
0.7299999999999359, -1.2839647679503 
0.7399999999999348, -1.2837934159973854 
0.7499999999999337, -1.2838306268426092 
0.7599999999999326, -1.2840295387561587 
0.7699999999999315, -1.2843119234703473 
0.7799999999999304, -1.2845865969413766 
0.7899999999999293, -1.2847667233128013 
0.7999999999999282, -1.2847791595344382 
0.8099999999999271, -1.2845641435905597 
0.819999999999926, -1.2840716848036888 
0.8299999999999249, -1.283260647276283 
0.8399999999999238, -1.2821013291259233 
0.8499999999999227, -1.2805796416270767 
0.8599999999999216, -1.2787026368615195 
0.8699999999999205, -1.2765081676613674 
0.8799999999999194, -1.274081979106842 
0.8899999999999183, -1.271580352019579 
0.8999999999999172, -1.2692409875966688 
0.9099999999999161, -1.267342273966432 
0.919999999999915, -1.2660844765880088 
0.9299999999999139, -1.2654643074103418 
0.9399999999999128, -1.265280447253343 
0.9499999999999117, -1.2652702807774046 
0.9599999999999106, -1.265226922451399 
0.9699999999999095, -1.2650149119315237 
0.9799999999999084, -1.264522952562053 
0.9899999999999073, -1.2636023736861774 
0.9999999999999062, -1.2620032400442553 
1.0099999999999052, -1.2593056449239888 
1.019999999999904, -1.2548646231260931 
1.029999999999903, -1.2478467396112913 
1.039999999999902, -1.2375174290243893 
1.0499999999999008, -1.2239178097824588 
1.0599999999998997, -1.2086816953357566 
1.0699999999998986, -1.1950012242127745 
1.0799999999998975, -1.1858786098703065 
1.0899999999998964, -1.1819857476527518 
1.0999999999998953, -1.1816693912832583 
1.1099999999998942, -1.182799397787415 
1.119999999999893, -1.184055101744613 
1.129999999999892, -1.1849517093625515 
1.1399999999998909, -1.185422630428458 
1.1499999999998898, -1.1855186880700033 
1.1599999999998887, -1.1852783546559906 
1.1699999999998876, -1.1846819781479243 
1.1799999999998865, -1.1836288463590119 
1.1899999999998854, -1.181917155004575 
1.1999999999998843, -1.179248797987428 
1.2099999999998832, -1.1753552553268816 
1.219999999999882, -1.1704434935632164 
1.229999999999881, -1.16604322505092 
1.2399999999998799, -1.1654309937023153 
1.2499999999998788, -1.1718083348575385 
1.2599999999998777, -1.1848073017041838 
1.2699999999998766, -1.20008507347697 
1.2799999999998755, -1.213167901168033 
1.2899999999998744, -1.222285482839343 
1.2999999999998733, -1.2278590064735737 
1.3099999999998722, -1.230983591465361 
1.319999999999871, -1.232599938127491 
1.32999999999987, -1.233318815183755 
1.3399999999998689, -1.2334879818458244 
1.3499999999998678, -1.2332897782342354 
1.3599999999998666, -1.2328183486746918 
1.3699999999998655, -1.2321478507515238 
1.3799999999998644, -1.2314193309788992 
1.3899999999998633, -1.230953432183246 
1.3999999999998622, -1.2313068835715653 
1.4099999999998611, -1.2330926662402661 
1.41999999999986, -1.236557203911771 
1.429999999999859, -1.2413250064985857 
1.4399999999998578, -1.2466244684879162 
1.4499999999998567, -1.2517097296869208 
1.4599999999998556, -1.2560924925533052 
1.4699999999998545, -1.259552806855106 
1.4799999999998534, -1.2620655828488954 
1.4899999999998523, -1.2637249010019371 
1.4999999999998512, -1.2646824267948185 
1.5099999999998501, -1.2651001920638927 
1.519999999999849, -1.2651215285710449 
1.529999999999848, -1.2648628719704513 
1.5399999999998468, -1.264423386217922 
1.5499999999998457, -1.2639038136616274 
1.5599999999998446, -1.2634195533620998 
1.5699999999998435, -1.2630895537476179 
1.5799999999998424, -1.2629988585706704 
1.5899999999998413, -1.2631649142440604 
1.5999999999998402, -1.2635386823870927 
1.6099999999998391, -1.2640324880081821 
1.619999999999838, -1.264548365517107 
1.629999999999837, -1.2649965681705702 
1.6399999999998358, -1.2653049153497178 
1.6499999999998347, -1.2654203163768152 
1.6599999999998336, -1.2653057721162535 
1.6699999999998325, -1.2649370790869998 
1.6799999999998314, -1.264301130283243 
1.6899999999998303, -1.2633957046008846 
1.6999999999998292, -1.2622308280635102 
1.709999999999828, -1.2608326542359378 
1.719999999999827, -1.259250592464641 
1.729999999999826, -1.257566703382918 
1.7399999999998248, -1.2559031072329767 
1.7499999999998237, -1.2544168673131268 
1.7599999999998226, -1.2532649187645077 
1.7699999999998215, -1.252535514763792 
1.7799999999998204, -1.2521916521843932 
1.7899999999998193, -1.2520889043636267 
1.7999999999998182, -1.2520529327971928 
1.809999999999817, -1.251938260961388 
1.819999999999816, -1.2516310415454002 
1.8299999999998149, -1.2510165385454775 
1.8399999999998138, -1.2499385297174888 
1.8499999999998127, -1.248164072136775 
1.8599999999998116, -1.2453660126942465 
1.8699999999998105, -1.241147793656706 
1.8799999999998094, -1.2351445302732897 
1.8899999999998083, -1.227221191754025 
1.8999999999998072, -1.2177390092340814 
1.909999999999806, -1.2077581732284217 
1.919999999999805, -1.198898988535587 
1.9299999999998039, -1.1926357932336735 
1.9399999999998028, -1.1894106091369314 
1.9499999999998017, -1.1884928752948356 
1.9599999999998006, -1.1887270196698971 
1.9699999999997995, -1.1892529256913864 
1.9799999999997984, -1.1896593299798808 
1.9899999999997973, -1.1898133870581993 
1.9999999999997962, -1.189681648779313 
2.0099999999998173, -1.1892266004783045 
2.0199999999998384, -1.1883487543321802 
2.0299999999998595, -1.1868352904211377 
2.0399999999998806, -1.184295446640487 
2.0499999999999017, -1.1801004947514693 
2.059999999999923, -1.1734408608945097 
2.069999999999944, -1.1637804516364776 
2.079999999999965, -1.1519540282128757 
2.089999999999986, -1.1411594859487137 
2.100000000000007, -1.1356715605495074 
2.1100000000000283, -1.1371751951837281 
2.1200000000000494, -1.1432674917650634 
2.1300000000000705, -1.1502019287721807 
2.1400000000000916, -1.1557391929651328 
2.1500000000001127, -1.1594157800568525 
2.160000000000134, -1.1615907494991686 
2.170000000000155, -1.1627453223175868 
2.180000000000176, -1.1632386595430408 
2.190000000000197, -1.1632845318721678 
2.2000000000002182, -1.162984572176979 
2.2100000000002393, -1.1623618992950524 
2.2200000000002604, -1.1613928429634968 
2.2300000000002815, -1.1600646122567637 
2.2400000000003026, -1.158516916583362 
2.2500000000003237, -1.1573249639554675 
2.260000000000345, -1.15781128518776 
2.270000000000366, -1.1618585323760997 
2.280000000000387, -1.1706966139897614 
2.290000000000408, -1.183491041342239 
2.3000000000004293, -1.197546205964564 
2.3100000000004504, -1.210079053432046 
2.3200000000004715, -1.2196143185455044 
2.3300000000004926, -1.2260497858034998 
2.3400000000005137, -1.2300089742414557 
2.3500000000005348, -1.2322517130784367 
2.360000000000556, -1.2333920002427399 
2.370000000000577, -1.233842397810526 
2.380000000000598, -1.233853877352208 
2.390000000000619, -1.2335760861635698 
2.4000000000006403, -1.233115908620031 
2.4100000000006614, -1.2325956027486507 
2.4200000000006825, -1.2322047923342998 
2.4300000000007036, -1.2322073710121777 
2.4400000000007247, -1.2328518562305717 
2.450000000000746, -1.234221692627001 
2.460000000000767, -1.236172497482362 
2.470000000000788, -1.2384230184205323 
2.480000000000809, -1.2406925060872627 
2.49000000000083, -1.242774751021217 
2.5000000000008513, -1.2445445376841366 
2.5100000000008724, -1.2459377429735263 
2.5200000000008935, -1.2469321278041616 
2.5300000000009146, -1.2475355375784973 
2.5400000000009357, -1.2477785596046245 
2.550000000000957, -1.2477076928066233 
2.560000000000978, -1.2473788281840013 
2.570000000000999, -1.2468541869611252 
2.58000000000102, -1.2462046063751493 
2.5900000000010412, -1.245513298892872 
2.6000000000010624, -1.2448721241785798 
2.6100000000010835, -1.244365314346182 
2.6200000000011046, -1.2440483660774642 
2.6300000000011257, -1.243934553514479 
2.6400000000011468, -1.2439922093336846 
2.650000000001168, -1.2441518600066932 
2.660000000001189, -1.244323864256239 
2.67000000000121, -1.244419071754204 
2.680000000001231, -1.2443600956942735 
2.6900000000012523, -1.2440810014059374 
2.7000000000012734, -1.2435234435344527 
2.7100000000012945, -1.2426365948056184 
2.7200000000013156, -1.241381944011249 
2.7300000000013367, -1.2397398675571445 
2.740000000001358, -1.237715829885556 
2.750000000001379, -1.2353481295972988 
2.7600000000014, -1.2327212757237374 
2.770000000001421, -1.229985194351539 
2.780000000001442, -1.227367691053577 
2.7900000000014633, -1.2251479509591596 
2.8000000000014844, -1.2235603622273654 
2.8100000000015055, -1.2226670848181913 
2.8200000000015266, -1.222319702336907 
2.8300000000015477, -1.2222609922227128 
2.840000000001569, -1.222257480276427 
2.85000000000159, -1.2221508118392772 
2.860000000001611, -1.2218317468670081 
2.870000000001632, -1.2211874402319673 
2.8800000000016532, -1.2200474635226497 
2.8900000000016743, -1.2181304629682153 
2.9000000000016954, -1.2149968524931871 
2.9100000000017165, -1.2100421736303626 
2.9200000000017377, -1.20261067585848 
2.9300000000017588, -1.1923240913592257 
2.94000000000178, -1.1796085691362501 
2.950000000001801, -1.166096410621406 
2.960000000001822, -1.1542918101856625 
2.970000000001843, -1.1462732367304123 
2.9800000000018643, -1.1424265057120093 
2.9900000000018854, -1.1415527301559505 
3.0000000000019065, -1.1420650736082147 
3.0100000000019276, -1.1428814286362832 
3.0200000000019487, -1.1435237225199277 
3.03000000000197, -1.1438625338070054 
3.040000000001991, -1.1438919296307817 
3.050000000002012, -1.1436123555831614 
3.060000000002033, -1.142976707606394 
3.070000000002054, -1.141853147907159 
3.0800000000020753, -1.1399795574855873 
3.0900000000020964, -1.1369078795681264 
3.1000000000021175, -1.1319844753022064 
3.1100000000021386, -1.1245190007944204 
3.1200000000021597, -1.1144015379530454 
3.130000000002181, -1.103140443899884 
3.140000000002202, -1.0941747902655006 
3.150000000002223, -1.0908791969635163 
3.160000000002244, -1.0936251675762003 
3.1700000000022652, -1.0996929975850454 
3.1800000000022863, -1.1059689738096088 
3.1900000000023074, -1.1108344388544569 
3.2000000000023285, -1.1140506569231787 
3.2100000000023496, -1.1159622983186401 
3.2200000000023707, -1.1169795112677188 
3.230000000002392, -1.117403731934804 
3.240000000002413, -1.117412793649763 
3.250000000002434, -1.1170859043502046 
3.260000000002455, -1.1164266232365774 
3.2700000000024763, -1.1153805877950587 
3.2800000000024974, -1.1138679483998053 
3.2900000000025185, -1.1118812258100212 
3.3000000000025396, -1.109732637790584 
3.3100000000025607, -1.1084751624036813 
3.3200000000025818, -1.110162525853987 
3.330000000002603, -1.117111901021849 
3.340000000002624, -1.129942453666446 
3.350000000002645, -1.1462944469092131 
3.360000000002666, -1.1622405159846152 
3.3700000000026873, -1.1749256470797613 
3.3800000000027084, -1.1836171833499285 
3.3900000000027295, -1.188977760769125 
3.4000000000027506, -1.1920364424601169 
3.4100000000027717, -1.193649499641516 
3.420000000002793, -1.1943847693556475 
3.430000000002814, -1.1945769402673987 
3.440000000002835, -1.1944101779165481 
3.450000000002856, -1.193987295865887 
3.460000000002877, -1.1933911582844863 
3.4700000000028983, -1.1927563285674898 
3.4800000000029194, -1.1923518080008297 
3.4900000000029405, -1.1926152455994503 
3.5000000000029616, -1.194024087983338 
3.5100000000029827, -1.1968050040418163 
3.520000000003004, -1.2007388340867777 
3.530000000003025, -1.2052774139167428 
3.540000000003046, -1.2098264725725554 
3.550000000003067, -1.2139378513701633 
3.5600000000030882, -1.2173528681229029 
3.5700000000031094, -1.2199721742146008 
3.5800000000031305, -1.2218126295155134 
3.5900000000031516, -1.2229663124915553 
3.6000000000031727, -1.2235611579258805 
3.6100000000031938, -1.2237278364378683 
3.620000000003215, -1.2235809062602425 
3.630000000003236, -1.2232174820228927 
3.640000000003257, -1.2227296778063914 
3.650000000003278, -1.2222208306396865 
3.6600000000032993, -1.2218092495272534 
3.6700000000033204, -1.221605433354913 
3.6800000000033415, -1.221671983471591 
3.6900000000033626, -1.2220000795950234 
3.7000000000033837, -1.2225216832065855 
3.710000000003405, -1.2231405753194138 
3.720000000003426, -1.2237591033226678 
3.730000000003447, -1.2242937508450478 
3.740000000003468, -1.2246812009082746 
3.750000000003489, -1.2248777563064972 
3.7600000000035103, -1.2248558084852224 
3.7700000000035314, -1.2246004183181916 
3.7800000000035525, -1.2241072188925608 
3.7900000000035736, -1.2233818457162524 
3.8000000000035947, -1.2224411032829436 
3.810000000003616, -1.2213160863083465 
3.820000000003637, -1.2200568451730986 
3.830000000003658, -1.218736717008113 
3.840000000003679, -1.217452744928186 
3.8500000000037002, -1.216317338567118 
3.8600000000037213, -1.2154353341707043 
3.8700000000037424, -1.2148657873600182 
3.8800000000037635, -1.2145881606417928 
3.8900000000037847, -1.2145057203045129 
3.9000000000038058, -1.2144879989323694 
3.910000000003827, -1.2144131175228814 
3.920000000003848, -1.2141793946303818 
3.930000000003869, -1.2136909964174378 
3.94000000000389, -1.2128369898820361 
3.9500000000039113, -1.2114787197161299 
3.9600000000039324, -1.209454852023263 
3.9700000000039535, -1.2066089734028895 
3.9800000000039746, -1.202836725890394 
3.9900000000039957, -1.1981419636974426 
4.000000000004016, -1.1926927235237588 
4.010000000003993, -1.186869041413177 
4.02000000000397, -1.1812690381696567 
4.030000000003946, -1.1765941063485514 
4.040000000003923, -1.1733699046288946 
4.0500000000039, -1.1716638329966336 
4.0600000000038765, -1.1710877327612317 
4.070000000003853, -1.1710950010817704 
4.08000000000383, -1.171259036143827 
4.090000000003807, -1.1713432370936652 
4.100000000003783, -1.171235090551619 
4.11000000000376, -1.1708600191355873 
4.120000000003737, -1.1701145199992478 
4.130000000003713, -1.16880864058826 
4.14000000000369, -1.166599658013442 
4.150000000003667, -1.1629147358989267 
4.1600000000036434, -1.156908043901365 
4.17000000000362, -1.147594709826194 
4.180000000003597, -1.1343866877398627 
4.1900000000035735, -1.1180398031213152 
4.20000000000355, -1.1012491726324285 
4.210000000003527, -1.0876564071209915 
4.220000000003504, -1.079537319829372 
4.23000000000348, -1.0765286433335282 
4.240000000003457, -1.0766244350173428 
4.250000000003434, -1.07788189531449 
4.26000000000341, -1.0791930219540082 
4.270000000003387, -1.0801536763030328 
4.280000000003364, -1.0807063533812549 
4.2900000000033405, -1.080898233415992 
4.300000000003317, -1.080772075362703 
4.310000000003294, -1.0803244742420428 
4.320000000003271, -1.0794827401973042 
4.330000000003247, -1.0780758016123786 
4.340000000003224, -1.0757903201395504 
4.350000000003201, -1.0721240578495448 
4.360000000003177, -1.0663993963248979 
4.370000000003154, -1.0579934445803025 
4.380000000003131, -1.0469709065339212 
4.390000000003107, -1.034920393395661 
4.400000000003084, -1.0249302885737857 
4.410000000003061, -1.0197957569588965 
4.4200000000030375, -1.0199043825650056 
4.430000000003014, -1.023298311384194 
4.440000000002991, -1.027565394729723 
4.450000000002968, -1.031233352373222 
4.460000000002944, -1.0338527931162191 
4.470000000002921, -1.0355133801804495 
4.480000000002898, -1.0364512556307615 
4.490000000002874, -1.0368741471576437 
4.500000000002851, -1.0369153805227698 
4.510000000002828, -1.03663312900292 
4.520000000002804, -1.0360145627434827 
4.530000000002781, -1.034970704643616 
4.540000000002758, -1.0333200946915932 
4.5500000000027345, -1.0307717816588247 
4.560000000002711, -1.026946056721947 
4.570000000002688, -1.0215228115822073 
4.580000000002665, -1.0146335376766216 
4.590000000002641, -1.0074258445348785 
4.600000000002618, -1.002189018409085 
4.610000000002595, -1.0012284492702728 
4.620000000002571, -1.0050337379867442 
4.630000000002548, -1.0118102721292028 
4.640000000002525, -1.0190013200301369 
4.6500000000025015, -1.0249234384094226 
4.660000000002478, -1.0291036195636745 
4.670000000002455, -1.0317694081045223 
4.6800000000024315, -1.0333350744179597 
4.690000000002408, -1.034156970365251 
4.700000000002385, -1.0344746817614092 
4.710000000002362, -1.034422163912606 
4.720000000002338, -1.0340492627493965 
4.730000000002315, -1.0333339143937903 
4.740000000002292, -1.032182756784932 
4.750000000002268, -1.0304280302552704 
4.760000000002245, -1.027846036082492 
4.770000000002222, -1.024257399088142 
4.7800000000021985, -1.0198037354475162 
4.790000000002175, -1.0154148783056347 
4.800000000002152, -1.0130952512852516 
4.810000000002129, -1.0152125169680266 
4.820000000002105, -1.022657408738024 
4.830000000002082, -1.033670452728248 
4.840000000002059, -1.045048617992566 
4.850000000002035, -1.0543804079698513 
4.860000000002012, -1.06093077076857 
4.870000000001989, -1.065076847587832 
4.880000000001965, -1.06751356678611 
4.890000000001942, -1.0688395240777235 
4.900000000001919, -1.069459124315356 
4.9100000000018955, -1.0696102463519304 
4.920000000001872, -1.0694122044805205 
4.930000000001849, -1.068901365397904 
4.940000000001826, -1.0680536013514463 
