t, s[1].omega / s[0].omega 
0, -0.7099976915555118 
0.009999999999999995, -0.7097867475600846 
0.019999999999999934, -0.7095987644626292 
0.029999999999999874, -0.7093925915561756 
0.04000000000000012, -0.7091217828598599 
0.050000000000000405, -0.7087549363676479 
0.06000000000000069, -0.7082876415997249 
0.07000000000000098, -0.7077451392611606 
0.08000000000000126, -0.7071821685619366 
0.09000000000000155, -0.706686420565612 
0.10000000000000184, -0.7063869451013544 
0.11000000000000212, -0.706463665577798 
0.12000000000000241, -0.7071513264463185 
0.130000000000002, -0.7087320439577887 
0.1400000000000009, -0.7115157977385317 
0.1499999999999998, -0.7158152935175663 
0.1599999999999987, -0.7219246008081385 
0.1699999999999976, -0.7301044308049539 
0.1799999999999965, -0.7405608586182869 
0.1899999999999954, -0.7533842783191881 
0.1999999999999943, -0.7684052645496662 
0.2099999999999932, -0.7849628109232116 
0.2199999999999921, -0.8017292664160841 
0.229999999999991, -0.8169221661053496 
0.2399999999999899, -0.8290409025256968 
0.2499999999999888, -0.8375713470629218 
0.2599999999999877, -0.8429684510483313 
0.2699999999999866, -0.8460925173915023 
0.2799999999999855, -0.847727598973387 
0.2899999999999844, -0.848411774256193 
0.2999999999999833, -0.8484544574006085 
0.3099999999999822, -0.8480000174841018 
0.3199999999999811, -0.8470826563661202 
0.32999999999998, -0.8456751251079897 
0.3399999999999789, -0.8437726291232546 
0.3499999999999778, -0.8416143235285538 
0.35999999999997667, -0.8402655787304715 
0.36999999999997557, -0.8429497555322657 
0.37999999999997447, -0.8574658073157639 
0.38999999999997337, -0.8987448482254063 
0.39999999999997227, -0.9858239043332533 
0.40999999999997117, -1.1215038818676704 
0.41999999999997006, -1.2671075890554897 
0.42999999999996896, -1.3733013869701014 
0.43999999999996786, -1.4314232390621275 
0.44999999999996676, -1.4587883905776107 
0.45999999999996566, -1.470944812205017 
0.46999999999996456, -1.4762141758573541 
0.47999999999996346, -1.4783716568434957 
0.48999999999996235, -1.479045884720668 
0.49999999999996125, -1.4789486632016262 
0.5099999999999602, -1.4784588018911105 
0.519999999999959, -1.4779412021085871 
0.529999999999958, -1.4778646416144994 
0.5399999999999568, -1.478578484050722 
0.5499999999999557, -1.479983061822598 
0.5599999999999546, -1.4816591871114468 
0.5699999999999535, -1.4832495842744642 
0.5799999999999524, -1.4845730676616742 
0.5899999999999513, -1.485541735551218 
0.5999999999999502, -1.48609838740393 
0.6099999999999491, -1.4861995952762963 
0.619999999999948, -1.4858086881349584 
0.6299999999999469, -1.4848887422933634 
0.6399999999999458, -1.4833963840722706 
0.6499999999999447, -1.4812768474549132 
0.6599999999999436, -1.4784632590308664 
0.6699999999999425, -1.4748910303012923 
0.6799999999999414, -1.4705643523584955 
0.6899999999999403, -1.465746525173747 
0.6999999999999392, -1.4612214145044238 
0.7099999999999381, -1.4581078425901672 
0.719999999999937, -1.4568712020944938 
0.7299999999999359, -1.4568467818337218 
0.7399999999999348, -1.4570899761921257 
0.7499999999999337, -1.4570403895802433 
0.7599999999999326, -1.456389266919701 
0.7699999999999315, -1.454702446870626 
0.7799999999999304, -1.450932376724909 
0.7899999999999293, -1.4424105371046019 
0.7999999999999282, -1.4224606712829106 
0.8099999999999271, -1.376258250041968 
0.819999999999926, -1.2828697061547627 
0.8299999999999249, -1.147172511226333 
0.8399999999999238, -1.0257789025190973 
0.8499999999999227, -0.9643498942520962 
0.8599999999999216, -0.956940447074294 
0.8699999999999205, -0.9750440631798478 
0.8799999999999194, -0.996108832368579 
0.8899999999999183, -1.0114235457150071 
0.8999999999999172, -1.0206692269342024 
0.9099999999999161, -1.0257843588640863 
0.919999999999915, -1.0284534245799426 
0.9299999999999139, -1.0297029837909617 
0.9399999999999128, -1.030062212551358 
0.9499999999999117, -1.0297353238211602 
0.9599999999999106, -1.028677464456586 
0.9699999999999095, -1.0265611258414944 
0.9799999999999084, -1.0226001048720117 
0.9899999999999073, -1.0151417039254964 
0.9999999999999062, -1.000893141595316 
1.0099999999999052, -0.9737773676353936 
1.019999999999904, -0.9240080961047552 
1.029999999999903, -0.8385489467091375 
1.039999999999902, -0.7045190624902702 
1.0499999999999008, -0.5270346187458401 
1.0599999999998997, -0.3567862531893032 
1.0699999999998986, -0.24393804906172428 
1.0799999999998975, -0.1844459389444529 
1.0899999999998964, -0.15492451676637148 
1.0999999999998953, -0.1398660446282303 
1.1099999999998942, -0.13176680215705447 
1.119999999999893, -0.12718667254157448 
1.129999999999892, -0.12450885705628185 
1.1399999999998909, -0.12294259919464472 
1.1499999999998898, -0.12209297684204531 
1.1599999999998887, -0.12177255619446922 
1.1699999999998876, -0.12192042219236199 
1.1799999999998865, -0.12257549494475858 
1.1899999999998854, -0.12388698982350259 
1.1999999999998843, -0.12616615131611128 
1.2099999999998832, -0.13000657687892753 
1.219999999999882, -0.1365411347909378 
1.229999999999881, -0.14797938781229172 
1.2399999999998799, -0.16864993773881892 
1.2499999999998788, -0.20641272900856783 
1.2599999999998777, -0.27143516711330523 
1.2699999999998766, -0.3633907634161163 
1.2799999999998755, -0.4555488568180971 
1.2899999999998744, -0.5193910027672957 
1.2999999999998733, -0.5540794461539085 
1.3099999999998722, -0.5714253418870591 
1.319999999999871, -0.5802338219118325 
1.32999999999987, -0.5849168798705503 
1.3399999999998689, -0.5874938500817033 
1.3499999999998678, -0.5889022161657094 
1.3599999999998666, -0.5895904098970954 
1.3699999999998655, -0.5897666373996525 
1.3799999999998644, -0.5895019230022711 
1.3899999999998633, -0.588770323602483 
1.3999999999998622, -0.5874638000911383 
1.4099999999998611, -0.5854094094779939 
1.41999999999986, -0.5824220870665123 
1.429999999999859, -0.5784180796412867 
1.4399999999998578, -0.5735496819121717 
1.4499999999998567, -0.5682327862969747 
1.4599999999998556, -0.5629889093956909 
1.4699999999998545, -0.5582249984781774 
1.4799999999998534, -0.5541315208351055 
1.4899999999998523, -0.550720130701942 
1.4999999999998512, -0.5479102079884022 
1.5099999999998501, -0.5455976751249276 
1.519999999999849, -0.5436922880737601 
1.529999999999848, -0.5421321451829503 
1.5399999999998468, -0.5408858644276339 
1.5499999999998457, -0.5399495182834639 
1.5599999999998446, -0.5393423425314798 
1.5699999999998435, -0.5391031760479338 
1.5799999999998424, -0.5392885318944421 
1.5899999999998413, -0.539972941501187 
1.5999999999998402, -0.5412523796107254 
1.6099999999998391, -0.5432517856360162 
1.619999999999838, -0.5461375931091828 
1.629999999999837, -0.5501352039027931 
1.6399999999998358, -0.5555481378391243 
1.6499999999998347, -0.5627668862899167 
1.6599999999998336, -0.5722353044772841 
1.6699999999998325, -0.5843080987611485 
1.6799999999998314, -0.598919898126236 
1.6899999999998303, -0.6151304011008933 
1.6999999999998292, -0.6310109664049973 
1.709999999999828, -0.6444300604521804 
1.719999999999827, -0.6542457843142494 
1.729999999999826, -0.6606329435193901 
1.7399999999998248, -0.6644487242415278 
1.7499999999998237, -0.6665630491349748 
1.7599999999998226, -0.6675924921898032 
1.7699999999998215, -0.6678959262012081 
1.7799999999998204, -0.6676355530197998 
1.7899999999998193, -0.6668166366311479 
1.7999999999998182, -0.6652790629584737 
1.809999999999817, -0.662617932356102 
1.819999999999816, -0.6579804730184572 
1.8299999999998149, -0.6496339722661761 
1.8399999999998138, -0.6342045274278212 
1.8499999999998127, -0.6060056541259451 
1.8599999999998116, -0.558918009709779 
1.8699999999998105, -0.49432159220395944 
1.8799999999998094, -0.4269291708517796 
1.8899999999998083, -0.37280536480915283 
1.8999999999998072, -0.3362398327622485 
1.909999999999806, -0.31334800907716864 
1.919999999999805, -0.29920954368146657 
1.9299999999998039, -0.2903419709789027 
1.9399999999998028, -0.284646328651453 
1.9499999999998017, -0.2809113532362656 
1.9599999999998006, -0.2784401843839451 
1.9699999999997995, -0.27683051449315244 
1.9799999999997984, -0.27585396722447886 
1.9899999999997973, -0.2753921746792657 
1.9999999999997962, -0.27540556439321884 
2.0099999999998173, -0.27592328072631866 
2.0199999999998384, -0.27705055662488665 
2.0299999999998595, -0.2789961375555519 
2.0399999999998806, -0.28212968507081515 
2.0499999999999017, -0.2870901065737102 
2.059999999999923, -0.2949816955891401 
2.069999999999944, -0.3077038308142985 
2.079999999999965, -0.32838268262612985 
2.089999999999986, -0.3614091200373047 
2.100000000000007, -0.410278901555128 
2.1100000000000283, -0.4713426663541457 
2.1200000000000494, -0.530361424386199 
2.1300000000000705, -0.5737689147474041 
2.1400000000000916, -0.5998545920218221 
2.1500000000001127, -0.6140373490916445 
2.160000000000134, -0.6215551434405213 
2.170000000000155, -0.6255618821875515 
2.180000000000176, -0.62768793890137 
2.190000000000197, -0.6287385034167291 
2.2000000000002182, -0.6290972203964097 
2.2100000000002393, -0.6289176768986231 
2.2200000000002604, -0.628200546436801 
2.2300000000002815, -0.6268085072553078 
2.2400000000003026, -0.6244469329690121 
2.2500000000003237, -0.6206463723535575 
2.260000000000345, -0.6148286198920797 
2.270000000000366, -0.6065773156522887 
2.280000000000387, -0.5960888641724787 
2.290000000000408, -0.5843884357123488 
2.3000000000004293, -0.5728937259000169 
2.3100000000004504, -0.5626914956059522 
2.3200000000004715, -0.5542251298002295 
2.3300000000004926, -0.5474540639602447 
2.3400000000005137, -0.5421276442485448 
2.3500000000005348, -0.5379640391777905 
2.360000000000556, -0.5347245000543761 
2.370000000000577, -0.5322296456008385 
2.380000000000598, -0.5303527694254048 
2.390000000000619, -0.5290072660091003 
2.4000000000006403, -0.5281349778318701 
2.4100000000006614, -0.5276976766334653 
2.4200000000006825, -0.5276721033363709 
2.4300000000007036, -0.5280484076193342 
2.4400000000007247, -0.5288317168811274 
2.450000000000746, -0.5300465838460297 
2.460000000000767, -0.5317439652525957 
2.470000000000788, -0.5340098175877841 
2.480000000000809, -0.5369727557316246 
2.49000000000083, -0.5408044644098569 
2.5000000000008513, -0.5456991399056903 
2.5100000000008724, -0.5518075616154197 
2.5200000000008935, -0.5591011241747011 
2.5300000000009146, -0.5671942308636174 
2.5400000000009357, -0.5752847591484789 
2.550000000000957, -0.5824135427265931 
2.560000000000978, -0.587930926728466 
2.570000000000999, -0.5917319861411148 
2.58000000000102, -0.5940966286034014 
2.5900000000010412, -0.595405028201953 
2.6000000000010624, -0.5959650547909874 
2.6100000000010835, -0.5959627157894314 
2.6200000000011046, -0.5954629587368949 
2.6300000000011257, -0.594406853704824 
2.6400000000011468, -0.5925732491794592 
2.650000000001168, -0.5894686568141831 
2.660000000001189, -0.5840769734597802 
2.67000000000121, -0.5743603834392347 
2.680000000001231, -0.55652460150086 
2.6900000000012523, -0.5250218965849883 
2.7000000000012734, -0.4764260125364824 
2.7100000000012945, -0.4173393287115462 
2.7200000000013156, -0.36293685938976705 
2.7300000000013367, -0.3229049866450657 
2.740000000001358, -0.29689281154746877 
2.750000000001379, -0.28068376107550475 
2.7600000000014, -0.2705444908770129 
2.770000000001421, -0.264059521290877 
2.780000000001442, -0.25980638611239953 
2.7900000000014633, -0.2569653101220557 
2.8000000000014844, -0.25506438367173195 
2.8100000000015055, -0.2538352809785968 
2.8200000000015266, -0.253135879152833 
2.8300000000015477, -0.2529117513336679 
2.840000000001569, -0.2531823636343975 
2.85000000000159, -0.25404717827390616 
2.860000000001611, -0.2557145223491037 
2.870000000001632, -0.25856552886840917 
2.8800000000016532, -0.2632814288453311 
2.8900000000016743, -0.2710918767845907 
2.9000000000016954, -0.28424810634011266 
2.9100000000017165, -0.306837150112684 
2.9200000000017377, -0.3456842186372825 
2.9300000000017588, -0.4091378090986689 
2.94000000000178, -0.49812900417771366 
2.950000000001801, -0.5934694619796502 
2.960000000001822, -0.6680063963383052 
2.970000000001843, -0.7134916769165358 
2.9800000000018643, -0.7378565412224625 
2.9900000000018854, -0.7504061365862549 
3.0000000000019065, -0.7568967588956924 
3.0100000000019276, -0.7602811653485477 
3.0200000000019487, -0.7619985903857751 
3.03000000000197, -0.7627396292591111 
3.040000000001991, -0.7628129660420372 
3.050000000002012, -0.7623010422739689 
3.060000000002033, -0.7611008152996682 
3.070000000002054, -0.7588800749092923 
3.0800000000020753, -0.7549412444139822 
3.0900000000020964, -0.7479807122334732 
3.1000000000021175, -0.7358442163315027 
3.1100000000021386, -0.7157771980610309 
3.1200000000021597, -0.6861080729481387 
3.130000000002181, -0.648999793387259 
3.140000000002202, -0.61060955184342 
3.150000000002223, -0.5769961678589265 
3.160000000002244, -0.5507968450439502 
3.1700000000022652, -0.5316860354793449 
3.1800000000022863, -0.5181847395549235 
3.1900000000023074, -0.5087810145899796 
3.2000000000023285, -0.5022858073805228 
3.2100000000023496, -0.4978458882486401 
3.2200000000023707, -0.4948668423032978 
3.230000000002392, -0.49293591680211113 
3.240000000002413, -0.4917648031757856 
3.250000000002434, -0.4911512478828624 
3.260000000002455, -0.4909543348157114 
3.2700000000024763, -0.4910789933939307 
3.2800000000024974, -0.4914668248422844 
3.2900000000025185, -0.49209157640524265 
3.3000000000025396, -0.4929581538027638 
3.3100000000025607, -0.49410374932418577 
3.3200000000025818, -0.49559848050045574 
3.330000000002603, -0.4975411192141004 
3.340000000002624, -0.500043060481042 
3.350000000002645, -0.5031907926363429 
3.360000000002666, -0.5069789748424097 
3.3700000000026873, -0.5112290893771232 
3.3800000000027084, -0.5155596271046863 
3.3900000000027295, -0.5194898212586568 
3.4000000000027506, -0.5226444582588287 
3.4100000000027717, -0.5248891399799364 
3.420000000002793, -0.5262968055294063 
3.430000000002814, -0.527025594256245 
3.440000000002835, -0.5272191267416496 
3.450000000002856, -0.5269585379041267 
3.460000000002877, -0.5262417068742984 
3.4700000000028983, -0.5249577094167198 
3.4800000000029194, -0.5228253731256446 
3.4900000000029405, -0.5192496112125864 
3.5000000000029616, -0.5130109462597919 
3.5100000000029827, -0.5016865621825252 
3.520000000003004, -0.48101561368355633 
3.530000000003025, -0.44591574637622167 
3.540000000003046, -0.3962883491687389 
3.550000000003067, -0.34276905909777206 
3.5600000000030882, -0.29869656963498153 
3.5700000000031094, -0.268523330911601 
3.5800000000031305, -0.2495347304001417 
3.5900000000031516, -0.23777711181737454 
3.6000000000031727, -0.23037451189932553 
3.6100000000031938, -0.22558359794725594 
3.620000000003215, -0.22240053856070277 
3.630000000003236, -0.22025213101772995 
3.640000000003257, -0.21881329021404522 
3.650000000003278, -0.21790826018285286 
3.6600000000032993, -0.2174607121112279 
3.6700000000033204, -0.21747399426264521 
3.6800000000033415, -0.2180346733801884 
3.6900000000033626, -0.21934221476121185 
3.7000000000033837, -0.2217799404976978 
3.710000000003405, -0.2260649723545288 
3.720000000003426, -0.23356266403257306 
3.730000000003447, -0.24695017961888527 
3.740000000003468, -0.2715666053824073 
3.750000000003489, -0.3176451320934937 
3.7600000000035103, -0.4010292449585566 
3.7700000000035314, -0.5312484615237953 
3.7800000000035525, -0.6834191352987551 
3.7900000000035736, -0.8087917489262617 
3.8000000000035947, -0.887077109553214 
3.810000000003616, -0.9288808934224045 
3.820000000003637, -0.949813439313106 
3.830000000003658, -0.96014827084696 
3.840000000003679, -0.9652608812834862 
3.8500000000037002, -0.9677477887372975 
3.8600000000037213, -0.9688289531247829 
3.8700000000037424, -0.9690539462469602 
3.8800000000037635, -0.9686177994428343 
3.8900000000037847, -0.9674754475309866 
3.9000000000038058, -0.9653348449548022 
3.910000000003827, -0.9615446499370552 
3.920000000003848, -0.9548664538130625 
3.930000000003869, -0.9431726134158296 
3.94000000000389, -0.923346796235724 
3.9500000000039113, -0.8919731506476959 
3.9600000000039324, -0.8463406281583439 
3.9700000000039535, -0.7818941444391886 
3.9800000000039746, -0.6890309713961954 
3.9900000000039957, -0.5712089644562889 
4.000000000004016, -0.46198770503384534 
4.010000000003993, -0.388448846594926 
4.02000000000397, -0.34775191496728636 
4.030000000003946, -0.32684345295763323 
4.040000000003923, -0.31618785382754144 
4.0500000000039, -0.31067525593813256 
4.0600000000038765, -0.30777997446863625 
4.070000000003853, -0.30625766466547216 
4.08000000000383, -0.3054816805204034 
4.090000000003807, -0.30512867888070977 
4.100000000003783, -0.30503026827151447 
4.11000000000376, -0.30510242944305666 
4.120000000003737, -0.3053126574857824 
4.130000000003713, -0.30566661308312326 
4.14000000000369, -0.3062054832153798 
4.150000000003667, -0.3070090259601196 
4.1600000000036434, -0.30820074151328836 
4.17000000000362, -0.3099518362763126 
4.180000000003597, -0.31247748503474354 
4.1900000000035735, -0.3160078665834967 
4.20000000000355, -0.3207004596475907 
4.210000000003527, -0.32647259920966537 
4.220000000003504, -0.3328380680477206 
4.23000000000348, -0.3389742847692724 
4.240000000003457, -0.34410905485821075 
4.250000000003434, -0.3478895568281984 
4.26000000000341, -0.3503909648933143 
4.270000000003387, -0.3518841747807068 
4.280000000003364, -0.35263680134542874 
4.2900000000033405, -0.35283091730348837 
4.300000000003317, -0.352549792983638 
4.310000000003294, -0.35178223644711515 
4.320000000003271, -0.3504232137616706 
4.330000000003247, -0.3482747252819962 
4.340000000003224, -0.3450767054956233 
4.350000000003201, -0.34062082624323886 
4.360000000003177, -0.33496331592441153 
4.370000000003154, -0.3285903947307308 
4.380000000003131, -0.32228510636682395 
4.390000000003107, -0.31673461934216773 
4.400000000003084, -0.3122591818224482 
4.410000000003061, -0.30884384879138804 
4.4200000000030375, -0.30630694555900245 
4.430000000003014, -0.3044317662217993 
4.440000000002991, -0.3030268384954859 
4.450000000002968, -0.30194349411436844 
4.460000000002944, -0.3010768893811921 
4.470000000002921, -0.30036212108335475 
4.480000000002898, -0.2997698480407779 
4.490000000002874, -0.29930459874505194 
4.500000000002851, -0.2990097118442224 
4.510000000002828, -0.29898473809159076 
4.520000000002804, -0.29942603335961787 
4.530000000002781, -0.3007132509327755 
4.540000000002758, -0.3035913787098307 
4.5500000000027345, -0.3095530588102502 
4.560000000002711, -0.3216064252228225 
4.570000000002688, -0.3455193665210394 
4.580000000002665, -0.3901095347638813 
4.590000000002641, -0.4590908755159792 
4.600000000002618, -0.5261901222780954 
4.610000000002595, -0.5339350824468123 
4.620000000002571, -0.4656973625246369 
4.630000000002548, -0.3755244493812288 
4.640000000002525, -0.31031042692617283 
4.6500000000025015, -0.27379337072097576 
4.660000000002478, -0.25490036455177306 
4.670000000002455, -0.2451237309455711 
4.6800000000024315, -0.23993488121503725 
4.690000000002408, -0.23711147943264543 
4.700000000002385, -0.235561049698758 
4.710000000002362, -0.23473327568662308 
4.720000000002338, -0.23434564051031953 
4.730000000002315, -0.23425567686207086 
4.740000000002292, -0.2344016221835937 
4.750000000002268, -0.23477679355905198 
4.760000000002245, -0.23542255717532634 
4.770000000002222, -0.23643364602552364 
4.7800000000021985, -0.23797403528450123 
4.790000000002175, -0.24030403553113974 
4.800000000002152, -0.24381808192100268 
4.810000000002129, -0.24907822050674527 
4.820000000002105, -0.25677851649943884 
4.830000000002082, -0.26748051264362893 
4.840000000002059, -0.28096486187331154 
4.850000000002035, -0.29558203963012103 
4.860000000002012, -0.30875964118806276 
4.870000000001989, -0.31870406398213497 
4.880000000001965, -0.3252610819607479 
4.890000000001942, -0.3292380089321884 
