t, s[1].omega / s[0].omega 
0, -1.080042067659971 
0.009999999999999995, -1.0838157716157468 
0.019999999999999934, -1.0866830274043813 
0.029999999999999874, -1.0886731860735788 
0.04000000000000012, -1.089911886536947 
0.050000000000000405, -1.0905624038197828 
0.06000000000000069, -1.0907788474352516 
0.07000000000000098, -1.0906848424578799 
0.08000000000000126, -1.0903754965940229 
0.09000000000000155, -1.0899348240272266 
0.10000000000000184, -1.0894614888726397 
0.11000000000000212, -1.089092804978347 
0.12000000000000241, -1.0890076651567 
0.130000000000002, -1.0893879460778102 
0.1400000000000009, -1.0903468260318558 
0.1499999999999998, -1.09187420642581 
0.1599999999999987, -1.0938437057973343 
0.1699999999999976, -1.096068535593162 
0.1799999999999965, -1.0983592606099657 
0.1899999999999954, -1.100555218077457 
0.1999999999999943, -1.102531989193134 
0.2099999999999932, -1.1041991743916713 
0.2199999999999921, -1.1054991803155096 
0.229999999999991, -1.106409147248992 
0.2399999999999899, -1.106941238323939 
0.2499999999999888, -1.1071362706573096 
0.2599999999999877, -1.107051889890435 
0.2699999999999866, -1.106752069831386 
0.2799999999999855, -1.1063040021802448 
0.2899999999999844, -1.105782899618343 
0.2999999999999833, -1.105278660942675 
0.3099999999999822, -1.104893697054094 
0.3199999999999811, -1.1047239795800825 
0.32999999999998, -1.104829511528233 
0.3399999999999789, -1.1052141744007304 
0.3499999999999778, -1.105828934249891 
0.35999999999997667, -1.1065926205459065 
0.36999999999997557, -1.1074153560986424 
0.37999999999997447, -1.10821533352443 
0.38999999999997337, -1.1089270294193094 
0.39999999999997227, -1.1095025387317032 
0.40999999999997117, -1.109909038927961 
0.41999999999997006, -1.1101254299249956 
0.42999999999996896, -1.1101403063919129 
0.43999999999996786, -1.1099520018992002 
0.44999999999996676, -1.1095699347628445 
0.45999999999996566, -1.1090159315222852 
0.46999999999996456, -1.1083251370063536 
0.47999999999996346, -1.107546952163588 
0.48999999999996235, -1.1067451893043974 
0.49999999999996125, -1.1059942653866224 
0.5099999999999602, -1.1053685626725542 
0.519999999999959, -1.1049266995984601 
0.529999999999958, -1.104696870554252 
0.5399999999999568, -1.1046689966529437 
0.5499999999999557, -1.1047966695166116 
0.5599999999999546, -1.1050090771378893 
0.5699999999999535, -1.1052281754084192 
0.5799999999999524, -1.1053828080424564 
0.5899999999999513, -1.1054150536034322 
0.5999999999999502, -1.105280859775777 
0.6099999999999491, -1.1049494733354739 
0.619999999999948, -1.104403680734659 
0.6299999999999469, -1.103639911053383 
0.6399999999999458, -1.102667108887283 
0.6499999999999447, -1.1015052451555323 
0.6599999999999436, -1.1001854060314873 
0.6699999999999425, -1.0987522425342902 
0.6799999999999414, -1.0972674189865088 
0.6899999999999403, -1.0958110255270346 
0.6999999999999392, -1.09447719157565 
0.7099999999999381, -1.09336054632202 
0.719999999999937, -1.092532873374625 
0.7299999999999359, -1.092016737480248 
0.7399999999999348, -1.091772111188225 
0.7499999999999337, -1.0917089997454625 
0.7599999999999326, -1.0917186036722175 
0.7699999999999315, -1.0917004429858495 
0.7799999999999304, -1.091571405238405 
0.7899999999999293, -1.0912604291039427 
0.7999999999999282, -1.090700368557267 
0.8099999999999271, -1.0898261688295605 
0.819999999999926, -1.0885825466073518 
0.8299999999999249, -1.0869377917127632 
0.8399999999999238, -1.0848956549273276 
0.8499999999999227, -1.0824990149174 
0.8599999999999216, -1.0798266295541208 
0.8699999999999205, -1.0769895780560652 
0.8799999999999194, -1.0741309943991209 
0.8899999999999183, -1.0714242322116743 
0.8999999999999172, -1.0690574233926955 
0.9099999999999161, -1.0671939577986764 
0.919999999999915, -1.0659164137108235 
0.9299999999999139, -1.0651885769107472 
0.9399999999999128, -1.0648711432113058 
0.9499999999999117, -1.064783176850647 
0.9599999999999106, -1.0647619280657177 
0.9699999999999095, -1.0646864328123702 
0.9799999999999084, -1.064467874842847 
0.9899999999999073, -1.0640266975317823 
0.9999999999999062, -1.0632718253125792 
1.0099999999999052, -1.0620902600210134 
1.019999999999904, -1.0603533053538479 
1.029999999999903, -1.057943523139628 
1.039999999999902, -1.0547970608179118 
1.0499999999999008, -1.0509426855484927 
1.0599999999998997, -1.0465177653613211 
1.0699999999998986, -1.0417583550469791 
1.0799999999998975, -1.0369750982146329 
1.0899999999998964, -1.0325199850788054 
1.0999999999998953, -1.0287328829020916 
1.1099999999998942, -1.025860307871011 
1.119999999999893, -1.023973940635319 
1.129999999999892, -1.0229481073767404 
1.1399999999998909, -1.0225262694701027 
1.1499999999998898, -1.0224309526306457 
1.1599999999998887, -1.0224422798434578 
1.1699999999998876, -1.0224155356902487 
1.1799999999998865, -1.022258302072148 
1.1899999999998854, -1.021896783659531 
1.1999999999998843, -1.0212468089980085 
1.2099999999998832, -1.0201941754426511 
1.219999999999882, -1.0185884772182996 
1.229999999999881, -1.0162589578395553 
1.2399999999998799, -1.0130597599268527 
1.2499999999998788, -1.0089358343331618 
1.2599999999998777, -1.0039777464967081 
1.2699999999998766, -0.9984324163272774 
1.2799999999998755, -0.9926668050273101 
1.2899999999998744, -0.9871072589912856 
1.2999999999998733, -0.9821706185978905 
1.3099999999998722, -0.9781868248053787 
1.319999999999871, -0.9753212375863306 
1.32999999999987, -0.9735326820027795 
1.3399999999998689, -0.9726051203690135 
1.3499999999998678, -0.9722429861306623 
1.3599999999998666, -0.9721708534392401 
1.3699999999998655, -0.9721859356640801 
1.3799999999998644, -0.972158610681604 
1.3899999999998633, -0.9720059164791574 
1.3999999999998622, -0.9716611609268103 
1.4099999999998611, -0.9710501315785969 
1.41999999999986, -0.9700772850798625 
1.429999999999859, -0.9686256366855652 
1.4399999999998578, -0.9665760520862845 
1.4499999999998567, -0.9638467632795591 
1.4599999999998556, -0.9604386092866246 
1.4699999999998545, -0.956458863904815 
1.4799999999998534, -0.9521074038027628 
1.4899999999998523, -0.9476372017362044 
1.4999999999998512, -0.9433140021779174 
1.5099999999998501, -0.9393864874822597 
1.519999999999849, -0.9360605858220395 
1.529999999999848, -0.9334699563579505 
1.5399999999998468, -0.9316481669356481 
1.5499999999998457, -0.9305209943126848 
1.5599999999998446, -0.9299322944471937 
1.5699999999998435, -0.9296940699363514 
1.5799999999998424, -0.9296338910322343 
1.5899999999998413, -0.9296189645645008 
1.5999999999998402, -0.9295556431001961 
1.6099999999998391, -0.9293756767710886 
1.619999999999838, -0.9290208997233108 
1.629999999999837, -0.9284336241005733 
1.6399999999998358, -0.9275565992055025 
1.6499999999998347, -0.9263435722361821 
1.6599999999998336, -0.9247763877088031 
1.6699999999998325, -0.9228783705635237 
1.6799999999998314, -0.9207138105180748 
1.6899999999998303, -0.9183734441076454 
1.6999999999998292, -0.9159564536426176 
1.709999999999828, -0.9135592717863867 
1.719999999999827, -0.9112728467898993 
1.729999999999826, -0.9091831038097103 
1.7399999999998248, -0.9073684646773442 
1.7499999999998237, -0.9058914890707734 
1.7599999999998226, -0.9047863255511999 
1.7699999999998215, -0.9040478858694737 
1.7799999999998204, -0.9036299473630344 
1.7899999999998193, -0.9034553747622953 
1.7999999999998182, -0.9034341723635265 
1.809999999999817, -0.9034805143620351 
1.819999999999816, -0.9035222528439079 
1.8299999999998149, -0.9035025764440296 
1.8399999999998138, -0.903377880980422 
1.8499999999998127, -0.9031163022963872 
1.8599999999998116, -0.9026988433285481 
1.8699999999998105, -0.902121596106874 
1.8799999999998094, -0.901395612881109 
1.8899999999998083, -0.9005425550896227 
1.8999999999998072, -0.8995882203361727 
1.909999999999806, -0.8985581563467375 
1.919999999999805, -0.8974776317537868 
1.9299999999998039, -0.8963747994629001 
1.9399999999998028, -0.8952842521480221 
1.9499999999998017, -0.8942486196121797 
1.9599999999998006, -0.8933168748960248 
1.9699999999997995, -0.8925389268696099 
1.9799999999997984, -0.8919572827720319 
1.9899999999997973, -0.8915980719071419 
1.9999999999997962, -0.8914646263447527 
2.0099999999998173, -0.8915362550656625 
2.0199999999998384, -0.8917728646710812 
2.0299999999998595, -0.8921236154677687 
2.0399999999998806, -0.8925362870749043 
2.0499999999999017, -0.8929644166919373 
2.059999999999923, -0.8933709924739949 
2.069999999999944, -0.8937289493463976 
2.079999999999965, -0.8940191523044417 
2.089999999999986, -0.894226733519346 
2.100000000000007, -0.8943374777030983 
2.1100000000000283, -0.8943366953362408 
2.1200000000000494, -0.8942119403637736 
2.1300000000000705, -0.8939580920849467 
2.1400000000000916, -0.8935815322230694 
2.1500000000001127, -0.8931015429255689 
2.160000000000134, -0.8925499406776451 
2.170000000000155, -0.8919710194639586 
2.180000000000176, -0.8914222148693268 
2.190000000000197, -0.8909733285578068 
2.2000000000002182, -0.8907010518250189 
2.2100000000002393, -0.8906774318138968 
2.2200000000002604, -0.8909552451647075 
2.2300000000002815, -0.8915565943928451 
2.2400000000003026, -0.8924699414165145 
2.2500000000003237, -0.8936558740244476 
2.260000000000345, -0.8950573726152934 
2.270000000000366, -0.8966091725481051 
2.280000000000387, -0.8982426150547314 
2.290000000000408, -0.8998854985870031 
2.3000000000004293, -0.9014598304026913 
2.3100000000004504, -0.9028829328861295 
2.3200000000004715, -0.9040766379183452 
2.3300000000004926, -0.9049832770906997 
2.3400000000005137, -0.905579428928023 
2.3500000000005348, -0.9058778128230787 
2.360000000000556, -0.9059168182987175 
2.370000000000577, -0.9057462521029522 
2.380000000000598, -0.9054184473208211 
2.390000000000619, -0.9049886789245525 
2.4000000000006403, -0.9045241807402876 
2.4100000000006614, -0.9041182490697965 
2.4200000000006825, -0.9039027535692201 
2.4300000000007036, -0.9040486645756131 
2.4400000000007247, -0.9047447044957693 
2.450000000000746, -0.9061546228196999 
2.460000000000767, -0.9083697774126034 
2.470000000000788, -0.9113797827633483 
2.480000000000809, -0.9150711151389167 
2.49000000000083, -0.9192449003439895 
2.5000000000008513, -0.9236399925137538 
2.5100000000008724, -0.92795838183547 
2.5200000000008935, -0.9319022807332787 
2.5300000000009146, -0.9352283036302896 
2.5400000000009357, -0.9378013310258403 
2.550000000000957, -0.9396144422783503 
2.560000000000978, -0.9407601164189086 
2.570000000000999, -0.9413748367811798 
2.58000000000102, -0.9415913826456862 
2.5900000000010412, -0.9415154469729086 
2.6000000000010624, -0.9412240135190022 
2.6100000000010835, -0.9407777311322818 
2.6200000000011046, -0.9402434600758708 
2.6300000000011257, -0.9397271486479266 
2.6400000000011468, -0.9394147330110378 
2.650000000001168, -0.9396058493007138 
2.660000000001189, -0.9407065325706527 
2.67000000000121, -0.9431458867602128 
2.680000000001231, -0.947223599583445 
2.6900000000012523, -0.9529585780005666 
2.7000000000012734, -0.9600244395802668 
2.7100000000012945, -0.9678035084602413 
2.7200000000013156, -0.9755316896860542 
2.7300000000013367, -0.982487845396703 
2.740000000001358, -0.9881725245049415 
2.750000000001379, -0.9924041630750657 
2.7600000000014, -0.9952863660663356 
2.770000000001421, -0.9970818267944492 
2.780000000001442, -0.9980812181258392 
2.7900000000014633, -0.9985259091385836 
2.8000000000014844, -0.9985862856364704 
2.8100000000015055, -0.9983716257307554 
2.8200000000015266, -0.9979525256404251 
2.8300000000015477, -0.9973903373845223 
2.840000000001569, -0.9967774948859536 
2.85000000000159, -0.9962927448317102 
2.860000000001611, -0.9962591321144716 
2.870000000001632, -0.997158326562227 
2.8800000000016532, -0.9995338831245633 
2.8900000000016743, -1.0037717111303706 
2.9000000000016954, -1.0098713261030778 
2.9100000000017165, -1.01737110346471 
2.9200000000017377, -1.0254774626467449 
2.9300000000017588, -1.033308177969378 
2.94000000000178, -1.0401323675698735 
2.950000000001801, -1.0455293226068643 
2.960000000001822, -1.0494228229519436 
2.970000000001843, -1.0519943529227258 
2.9800000000018643, -1.0535399557132858 
2.9900000000018854, -1.0543511628680418 
3.0000000000019065, -1.0546565049305778 
3.0100000000019276, -1.0546129588191293 
3.0200000000019487, -1.0543230862712265 
3.03000000000197, -1.0538630617656404 
3.040000000001991, -1.0533188354978766 
3.050000000002012, -1.0528310817496052 
3.060000000002033, -1.0526376803640067 
3.070000000002054, -1.0530765916763412 
3.0800000000020753, -1.0545031496478763 
3.0900000000020964, -1.0571333515485617 
3.1000000000021175, -1.0609175529038897 
3.1100000000021386, -1.0655452155113951 
3.1200000000021597, -1.070561808707388 
3.130000000002181, -1.075501243319477 
3.140000000002202, -1.0799738934552374 
3.150000000002223, -1.0837120912786937 
3.160000000002244, -1.0865895907543448 
3.1700000000022652, -1.0886152113437073 
3.1800000000022863, -1.089896481623576 
3.1900000000023074, -1.0905857461564779 
3.2000000000023285, -1.0908331332682504 
3.2100000000023496, -1.0907623055973468 
3.2200000000023707, -1.0904693804641103 
3.230000000002392, -1.090038093993992 
3.240000000002413, -1.0895640301777343 
3.250000000002434, -1.0891782330361184 
3.260000000002455, -1.0890520500124654 
3.2700000000024763, -1.0893630351809684 
3.2800000000024974, -1.0902274060105013 
3.2900000000025185, -1.0916450814578706 
3.3000000000025396, -1.0935020260767412 
3.3100000000025607, -1.0956217096524514 
3.3200000000025818, -1.097821479337047 
3.330000000002603, -1.0999447331550232 
3.340000000002624, -1.1018693363172631 
3.350000000002645, -1.1035054800542763 
3.360000000002666, -1.104793854005567 
3.3700000000026873, -1.1057072767751868 
3.3800000000027084, -1.1062519030903195 
3.3900000000027295, -1.106462682349696 
3.4000000000027506, -1.1063929653135867 
3.4100000000027717, -1.1061041410031855 
3.420000000002793, -1.1056616098475318 
3.430000000002814, -1.1051384998958524 
3.440000000002835, -1.1046219888135818 
3.450000000002856, -1.10421211553869 
3.460000000002877, -1.104004748341841 
3.4700000000028983, -1.1040632342163625 
3.4800000000029194, -1.1043972807401292 
3.4900000000029405, -1.1049637801752317 
3.5000000000029616, -1.1056856812539102 
3.5100000000029827, -1.1064748774583189 
3.520000000003004, -1.1072494828909683 
3.530000000003025, -1.1079429383148773 
3.540000000003046, -1.1085061270879883 
3.550000000003067, -1.108905261053409 
3.5600000000030882, -1.1091185395722927 
3.5700000000031094, -1.1091338306476266 
3.5800000000031305, -1.1089483548264922 
3.5900000000031516, -1.10856989543789 
3.6000000000031727, -1.1080182757127068 
3.6100000000031938, -1.1073264851255806 
3.620000000003215, -1.10654173654461 
3.630000000003236, -1.1057258432129582 
3.640000000003257, -1.104952044003642 
3.650000000003278, -1.104295262750195 
3.6600000000032993, -1.103816864498825 
3.6700000000033204, -1.1035495435241927 
3.6800000000033415, -1.1034882209120702 
3.6900000000033626, -1.1035904624033779 
3.7000000000033837, -1.103787308886533 
3.710000000003405, -1.1040004049237682 
3.720000000003426, -1.104156979138504 
3.730000000003447, -1.104197095064111 
3.740000000003468, -1.1040746442407332 
3.750000000003489, -1.1037567478244816 
3.7600000000035103, -1.103224048918787 
3.7700000000035314, -1.1024711096842743 
3.7800000000035525, -1.1015055314852615 
3.7900000000035736, -1.1003463421988542 
3.8000000000035947, -1.0990236544230607 
3.810000000003616, -1.0975807411652938 
3.820000000003637, -1.0960774937670295 
3.830000000003658, -1.094592367366437 
3.840000000003679, -1.0932190108074713 
3.8500000000037002, -1.0920539771216258 
3.8600000000037213, -1.0911742236098134 
3.8700000000037424, -1.0906100555360638 
3.8800000000037635, -1.0903289657785384 
3.8900000000037847, -1.0902450473426712 
3.9000000000038058, -1.090249315594445 
3.910000000003827, -1.0902387550344028 
3.920000000003848, -1.0901278188672576 
3.930000000003869, -1.0898442186370239 
3.94000000000389, -1.089320346361435 
3.9500000000039113, -1.088490147190489 
3.9600000000039324, -1.0872955632041208 
3.9700000000039535, -1.0857000993957973 
3.9800000000039746, -1.0837017762928252 
3.9900000000039957, -1.0813382662906486 
4.000000000004016, -1.0786842140815605 
4.010000000003993, -1.0758471056425034 
4.02000000000397, -1.0729663493876127 
4.030000000003946, -1.0702121133346312 
4.040000000003923, -1.0677726107258265 
4.0500000000039, -1.0658182877318294 
4.0600000000038765, -1.0644467641898943 
4.070000000003853, -1.0636396653172464 
4.08000000000383, -1.0632696151792775 
4.090000000003807, -1.0631573633573144 
4.100000000003783, -1.0631348025900873 
4.11000000000376, -1.0630746187184086 
4.120000000003737, -1.0628845429157927 
4.130000000003713, -1.062485361750647 
4.14000000000369, -1.061789264192963 
4.150000000003667, -1.0606875149048836 
4.1600000000036434, -1.059053762534036 
4.17000000000362, -1.056767686912952 
4.180000000003597, -1.0537555302366393 
4.1900000000035735, -1.050030575881311 
4.20000000000355, -1.0457128048647122 
4.210000000003527, -1.0410219316709965 
4.220000000003504, -1.0362547055310993 
4.23000000000348, -1.031754106373845 
4.240000000003457, -1.0278616050776193 
4.250000000003434, -1.0248419643350721 
4.26000000000341, -1.0227998606679498 
4.270000000003387, -1.021643609915818 
4.280000000003364, -1.0211357327611803 
4.2900000000033405, -1.0209987135655256 
4.300000000003317, -1.0210017605019126 
4.310000000003294, -1.0209886547208198 
4.320000000003271, -1.020860307403463 
4.330000000003247, -1.0205420276372235 
4.340000000003224, -1.0199536383680874 
4.350000000003201, -1.0189883913681903 
4.360000000003177, -1.017504422793128 
4.370000000003154, -1.015336404328404 
4.380000000003131, -1.0123352990693353 
4.390000000003107, -1.0084306885946843 
4.400000000003084, -1.0036874267088076 
4.410000000003061, -0.9983228369082608 
4.4200000000030375, -0.9926769562230037 
4.430000000003014, -0.9871565849938607 
4.440000000002991, -0.9821714708852587 
4.450000000002968, -0.9780630052984766 
4.460000000002944, -0.9750282720226207 
4.470000000002921, -0.9730687023556289 
4.480000000002898, -0.9720038883088294 
4.490000000002874, -0.971553876136074 
4.500000000002851, -0.9714398068060655 
4.510000000002828, -0.971446654778978 
4.520000000002804, -0.9714332408125517 
4.530000000002781, -0.9713100422023032 
4.540000000002758, -0.9710092457554188 
4.5500000000027345, -0.9704598776280932 
4.560000000002711, -0.9695723455468002 
4.570000000002688, -0.9682357884857566 
4.580000000002665, -0.966333554041497 
4.590000000002641, -0.9637787511727549 
4.600000000002618, -0.9605582704753417 
4.610000000002595, -0.9567599298589211 
4.620000000002571, -0.9525641865433332 
4.630000000002548, -0.9482083472648363 
4.640000000002525, -0.9439472633388455 
4.6500000000025015, -0.9400242194658306 
4.660000000002478, -0.9366474786096086 
4.670000000002455, -0.9339632531221872 
4.6800000000024315, -0.9320270787208103 
4.690000000002408, -0.930789850461659 
4.700000000002385, -0.9301147717549918 
4.710000000002362, -0.9298220012875478 
4.720000000002338, -0.9297373118920401 
4.730000000002315, -0.9297214506243735 
4.740000000002292, -0.9296745514271727 
4.750000000002268, -0.9295247857305167 
4.760000000002245, -0.9292132380262823 
4.770000000002222, -0.9286831846097116 
4.7800000000021985, -0.9278782139355128 
4.790000000002175, -0.9267507675415526 
4.800000000002152, -0.9252780574248624 
4.810000000002129, -0.9234761434890671 
4.820000000002105, -0.9214016834720213 
4.830000000002082, -0.9191394400623476 
4.840000000002059, -0.9167846775130586 
4.850000000002035, -0.9144311477560155 
4.860000000002012, -0.9121676276835211 
4.870000000001989, -0.910078546121753 
4.880000000001965, -0.9082425207898085 
4.890000000001942, -0.9067252625460067 
4.900000000001919, -0.9055676245656332 
4.9100000000018955, -0.9047738644930778 
4.920000000001872, -0.9043072751392343 
4.930000000001849, -0.9040976010917573 
