t, s[1].omega / s[0].omega 
0, -0.08999782986496557 
0.009999999999999995, -0.08990037245638734 
0.019999999999999934, -0.09002462060769278 
0.029999999999999874, -0.09032594288636475 
0.04000000000000012, -0.09073400659014447 
0.050000000000000405, -0.09116525376026889 
0.06000000000000069, -0.09154201182452923 
0.07000000000000098, -0.09180819255980568 
0.08000000000000126, -0.09193309202061087 
0.09000000000000155, -0.09190400591250905 
0.10000000000000184, -0.0917143742423557 
0.11000000000000212, -0.09135319363354037 
0.12000000000000241, -0.09079816372121616 
0.130000000000002, -0.09001385949080405 
0.1400000000000009, -0.0889577108968594 
0.1499999999999998, -0.08759816879666368 
0.1599999999999987, -0.08594547683230884 
0.1699999999999976, -0.08408102124044643 
0.1799999999999965, -0.08215670688281258 
0.1899999999999954, -0.080349681047289 
0.1999999999999943, -0.07880005337258196 
0.2099999999999932, -0.0775762447285954 
0.2199999999999921, -0.076680235796347 
0.229999999999991, -0.07607156969101872 
0.2399999999999899, -0.07568876397857253 
0.2499999999999888, -0.07546248564462724 
0.2599999999999877, -0.0753240600021261 
0.2699999999999866, -0.07521234720027924 
0.2799999999999855, -0.0750782691975302 
0.2899999999999844, -0.07488497319805029 
0.2999999999999833, -0.07460328562482545 
0.3099999999999822, -0.07420386927437705 
0.3199999999999811, -0.07364758683709738 
0.32999999999998, -0.07287492492584999 
0.3399999999999789, -0.07179618392240093 
0.3499999999999778, -0.07028896860557557 
0.35999999999997667, -0.06821911967483062 
0.36999999999997557, -0.06550606875320156 
0.37999999999997447, -0.06222418824440514 
0.38999999999997337, -0.05865790892320216 
0.39999999999997227, -0.05521212280907269 
0.40999999999997117, -0.05222418316301366 
0.41999999999997006, -0.04984594161727854 
0.42999999999996896, -0.04806289730132548 
0.43999999999996786, -0.04677502399459504 
0.44999999999996676, -0.04586139057228723 
0.45999999999996566, -0.045210593533072725 
0.46999999999996456, -0.04472971528707167 
0.47999999999996346, -0.044344891569632186 
0.48999999999996235, -0.04399916391636207 
0.49999999999996125, -0.043648581571714584 
0.5099999999999602, -0.04325628570541606 
0.519999999999959, -0.04278434627874171 
0.529999999999958, -0.04218279542985664 
0.5399999999999568, -0.04137460056661097 
0.5499999999999557, -0.04023589564999402 
0.5599999999999546, -0.03857688820689446 
0.5699999999999535, -0.036147669026488735 
0.5799999999999524, -0.03272144876174919 
0.5899999999999513, -0.028288720900769993 
0.5999999999999502, -0.0232380173318729 
0.6099999999999491, -0.01825619964025712 
0.619999999999948, -0.013951939309812634 
0.6299999999999469, -0.010588992957300852 
0.6399999999999458, -0.008124498938566177 
0.6499999999999447, -0.006377817704277035 
0.6599999999999436, -0.005152882255184468 
0.6699999999999425, -0.004285824605117466 
0.6799999999999414, -0.0036517068873671184 
0.6899999999999403, -0.003158178129932752 
0.6999999999999392, -0.0027373715046166624 
0.7099999999999381, -0.0023382438162508957 
0.719999999999937, -0.0019186900018578115 
0.7299999999999359, -0.0014363140157443422 
0.7399999999999348, -0.000836414181253673 
0.7499999999999337, -0.000035179816146441373 
0.7599999999999326, 0.000683744764349079 
0.7699999999999315, 0.0019327438270689275 
0.7799999999999304, 0.0040052544212729295 
0.7899999999999293, 0.007144816353495944 
0.7999999999999282, 0.011335024538426495 
0.8099999999999271, 0.01611132408598389 
0.819999999999926, 0.02071772215050443 
0.8299999999999249, 0.02454133435854838 
0.8399999999999238, 0.027362648665737555 
0.8499999999999227, 0.02926921474905409 
0.8599999999999216, 0.03046598072225052 
0.8699999999999205, 0.031156834762574963 
0.8799999999999194, 0.03150580643088483 
0.8899999999999183, 0.03163601559394397 
0.8999999999999172, 0.03163840531271431 
0.9099999999999161, 0.031580449069340294 
0.919999999999915, 0.031513785855841726 
0.9299999999999139, 0.031482038005243934 
0.9399999999999128, 0.03153001212310369 
0.9499999999999117, 0.031715261169670245 
0.9599999999999106, 0.032122622731195545 
0.9699999999999095, 0.03287972600978364 
0.9799999999999084, 0.034162230546426586 
0.9899999999999073, 0.0361594663286159 
0.9999999999999062, 0.038964562607748734 
1.0099999999999052, 0.04241901879742409 
1.019999999999904, 0.04607454839347254 
1.029999999999903, 0.049396337612675215 
1.039999999999902, 0.05203487455181566 
1.0499999999999008, 0.05390985484135077 
1.0599999999998997, 0.05511555336855286 
1.0699999999998986, 0.05580339714680048 
1.0799999999998975, 0.05611839465623493 
1.0899999999998964, 0.05618086905523233 
1.0999999999998953, 0.05608710416377277 
1.1099999999998942, 0.05591349190732091 
1.119999999999893, 0.05572000351725753 
1.129999999999892, 0.05555394391930872 
1.1399999999998909, 0.05545544527036552 
1.1499999999998898, 0.055464941857291096 
1.1599999999998887, 0.055631822441577536 
1.1699999999998876, 0.0560223444841075 
1.1799999999998865, 0.05672205329967054 
1.1899999999998854, 0.05782256045603988 
1.1999999999998843, 0.059379937403330106 
1.2099999999998832, 0.06134878733825805 
1.219999999999882, 0.06354001535071227 
1.229999999999881, 0.06566786205534411 
1.2399999999998799, 0.06747255420442752 
1.2499999999998788, 0.06881440104769215 
1.2599999999998777, 0.06967688395176123 
1.2699999999998766, 0.07011590001454909 
1.2799999999998755, 0.07021299037304743 
1.2899999999998744, 0.07005292941861131 
1.2999999999998733, 0.0697179731595598 
1.3099999999998722, 0.06928621599800387 
1.319999999999871, 0.06882778619157146 
1.32999999999987, 0.068399992219002 
1.3399999999998689, 0.06804547126471822 
1.3499999999998678, 0.06779523807668023 
1.3599999999998666, 0.06767503826257287 
1.3699999999998655, 0.06771177806803147 
1.3799999999998644, 0.06793671788306023 
1.3899999999998633, 0.06838195261754303 
1.3999999999998622, 0.06906683660405087 
1.4099999999998611, 0.06997502077651511 
1.41999999999986, 0.07103363859469145 
1.429999999999859, 0.07211568353931717 
1.4399999999998578, 0.07307511830139445 
1.4499999999998567, 0.07379345214186164 
1.4599999999998556, 0.07420495849632518 
1.4699999999998545, 0.07429218826633392 
1.4799999999998534, 0.07406926357366997 
1.4899999999998523, 0.07357112900574274 
1.4999999999998512, 0.07285286996667703 
1.5099999999998501, 0.0719911426479637 
1.519999999999849, 0.0710771787281155 
1.529999999999848, 0.07019925107018052 
1.5399999999998468, 0.06942432880517416 
1.5499999999998457, 0.0687904965656176 
1.5599999999998446, 0.06831206911325433 
1.5699999999998435, 0.0679905197423969 
1.5799999999998424, 0.06782370907861872 
1.5899999999998413, 0.067809625129248 
1.5999999999998402, 0.067943836689591 
1.6099999999998391, 0.0682115990773678 
1.619999999999838, 0.06857790788566404 
1.629999999999837, 0.06898188357102729 
1.6399999999998358, 0.0693418118904944 
1.6499999999998347, 0.06957026610016986 
1.6599999999998336, 0.06959002316114911 
1.6699999999998325, 0.06934168647160269 
1.6799999999998314, 0.06878379380049479 
1.6899999999998303, 0.06789478441902208 
1.6999999999998292, 0.06668514833518076 
1.709999999999828, 0.0652166835415151 
1.719999999999827, 0.06361012452978683 
1.729999999999826, 0.062020493990780745 
1.7399999999998248, 0.060586342830133935 
1.7499999999998237, 0.059388774679177525 
1.7599999999998226, 0.05844648153190496 
1.7699999999998215, 0.05773799134240133 
1.7799999999998204, 0.05722738325110606 
1.7899999999998193, 0.056879882720949834 
1.7999999999998182, 0.056666387546513416 
1.809999999999817, 0.056560682098910756 
1.819999999999816, 0.056533052309150664 
1.8299999999998149, 0.05654353245353503 
1.8399999999998138, 0.05653796193722397 
1.8499999999998127, 0.05644886166852897 
1.8599999999998116, 0.05619999653758671 
1.8699999999998105, 0.05571087671187054 
1.8799999999998094, 0.054899315906971814 
1.8899999999998083, 0.05368676837112748 
1.8999999999998072, 0.052017543945611144 
1.909999999999806, 0.049899950114659766 
1.919999999999805, 0.047453887010672206 
1.9299999999998039, 0.044914771835535904 
1.9399999999998028, 0.042554796859770025 
1.9499999999998017, 0.040568117180725984 
1.9599999999998006, 0.039016216875355496 
1.9699999999997995, 0.03785838997707276 
1.9799999999997984, 0.037012594492206216 
1.9899999999997973, 0.036398017459018925 
1.9999999999997962, 0.035950857036441644 
2.0099999999998173, 0.035623811059455564 
2.0199999999998384, 0.035379114285211184 
2.0299999999998595, 0.035180159834654924 
2.0399999999998806, 0.03498400648439779 
2.0499999999999017, 0.03473614826482383 
2.059999999999923, 0.03436804924191232 
2.069999999999944, 0.03379644683662311 
2.079999999999965, 0.032922862816606904 
2.089999999999986, 0.03163486183296571 
2.100000000000007, 0.029818278075668746 
2.1100000000000283, 0.02739717552868759 
2.1200000000000494, 0.024409279375222213 
2.1300000000000705, 0.02107681804459542 
2.1400000000000916, 0.017777728500521638 
2.1500000000001127, 0.014881868635462486 
2.160000000000134, 0.01258422754878968 
2.170000000000155, 0.010880687012245392 
2.180000000000176, 0.009657237692058125 
2.190000000000197, 0.008780988795029497 
2.2000000000002182, 0.008143579022123456 
2.2100000000002393, 0.007668224979289777 
2.2200000000002604, 0.007301846780022667 
2.2300000000002815, 0.007004087133158319 
2.2400000000003026, 0.00673720727119278 
2.2500000000003237, 0.0064578579819522626 
2.260000000000345, 0.006111145636493542 
2.270000000000366, 0.005627033885009016 
2.280000000000387, 0.004918299170795868 
2.290000000000408, 0.00387940001328839 
2.3000000000004293, 0.002389287933747818 
2.3100000000004504, 0.0003292409801079077 
2.3200000000004715, -0.0019911688074558728 
2.3300000000004926, -0.0048162766418539185 
2.3400000000005137, -0.007934127791635581 
2.3500000000005348, -0.010930405135164387 
2.360000000000556, -0.013438842822356498 
2.370000000000577, -0.015297687616631897 
2.380000000000598, -0.016544173202439498 
2.390000000000619, -0.017310231003952018 
2.4000000000006403, -0.01773392545071157 
2.4100000000006614, -0.017922776429393966 
2.4200000000006825, -0.01795095416992877 
2.4300000000007036, -0.017868789138277486 
2.4400000000007247, -0.0177141475107 
2.450000000000746, -0.017522551088255525 
2.460000000000767, -0.01733529789881957 
2.470000000000788, -0.017205030377830107 
2.480000000000809, -0.017198409792813656 
2.49000000000083, -0.017396474228287363 
2.5000000000008513, -0.017893482735800423 
2.5100000000008724, -0.018792124451847452 
2.5200000000008935, -0.0201865775790512 
2.5300000000009146, -0.022121027359227784 
2.5400000000009357, -0.02452528982347398 
2.550000000000957, -0.027171818772556023 
2.560000000000978, -0.029726178936128955 
2.570000000000999, -0.03189046965756521 
2.58000000000102, -0.033521863978788445 
2.5900000000010412, -0.03463436526550207 
2.6000000000010624, -0.03532389787138224 
2.6100000000010835, -0.03569878120423491 
2.6200000000011046, -0.035847004030218114 
2.6300000000011257, -0.03583072628671576 
2.6400000000011468, -0.03569249328087068 
2.650000000001168, -0.03546458185847519 
2.660000000001189, -0.03517831885237581 
2.67000000000121, -0.034871959099832275 
2.680000000001231, -0.034595619065211455 
2.6900000000012523, -0.03441204931132639 
2.7000000000012734, -0.03439368903725319 
2.7100000000012945, -0.03461789109104887 
2.7200000000013156, -0.035160558388475746 
2.7300000000013367, -0.03608365028160938 
2.740000000001358, -0.03740949553497701 
2.750000000001379, -0.03908384683473086 
2.7600000000014, -0.04095306866304174 
2.770000000001421, -0.042793915786324216 
2.780000000001442, -0.0443965846697644 
2.7900000000014633, -0.04564034087809499 
2.8000000000014844, -0.04650659081147812 
2.8100000000015055, -0.047040841048813134 
2.8200000000015266, -0.047307978735225596 
2.8300000000015477, -0.04736572739255137 
2.840000000001569, -0.047256295506104454 
2.85000000000159, -0.04700846965491269 
2.860000000001611, -0.04664448464138647 
2.870000000001632, -0.04618883328494457 
2.8800000000016532, -0.045676734875849896 
2.8900000000016743, -0.045159059489346565 
2.9000000000016954, -0.04470074803674935 
2.9100000000017165, -0.0443730254309611 
2.9200000000017377, -0.04424359371976193 
2.9300000000017588, -0.044368571945523655 
2.94000000000178, -0.04478487664345295 
2.950000000001801, -0.045498253211809406 
2.960000000001822, -0.04646678874338246 
2.970000000001843, -0.047591764273185996 
2.9800000000018643, -0.04873376668067744 
2.9900000000018854, -0.049755305995170584 
3.0000000000019065, -0.05056325308144405 
3.0100000000019276, -0.05112271273776779 
3.0200000000019487, -0.051441851175249485 
3.03000000000197, -0.051547262085029036 
3.040000000001991, -0.05146551779079772 
3.050000000002012, -0.051214836480675374 
3.060000000002033, -0.05080487449042466 
3.070000000002054, -0.050242367150764355 
3.0800000000020753, -0.049541077565004275 
3.0900000000020964, -0.048733224077356106 
3.1000000000021175, -0.047876442941282855 
3.1100000000021386, -0.047049676910648736 
3.1200000000021597, -0.04633762122766162 
3.130000000002181, -0.04581240777536962 
3.140000000002202, -0.04552224174435752 
3.150000000002223, -0.04548814030899866 
3.160000000002244, -0.04570270337602859 
3.1700000000022652, -0.04612695914965771 
3.1800000000022863, -0.04668950377413094 
3.1900000000023074, -0.04729648873104035 
3.2000000000023285, -0.04785384240420527 
3.2100000000023496, -0.048290221014028856 
3.2200000000023707, -0.04856677215981635 
3.230000000002392, -0.048671189482936375 
3.240000000002413, -0.04860419692664618 
3.250000000002434, -0.048367182699293784 
3.260000000002455, -0.04795502472470316 
3.2700000000024763, -0.04735505377491977 
3.2800000000024974, -0.04655287389969595 
3.2900000000025185, -0.04554578760968398 
3.3000000000025396, -0.044361225682591224 
3.3100000000025607, -0.04307004563524422 
3.3200000000025818, -0.041780551249284564 
3.330000000002603, -0.04061019833313149 
3.340000000002624, -0.039651999775775146 
3.350000000002645, -0.038956669125649705 
3.360000000002666, -0.03853419923037078 
3.3700000000026873, -0.03836336886043624 
3.3800000000027084, -0.03839909183371117 
3.3900000000027295, -0.03857728742324909 
3.4000000000027506, -0.03882257070496541 
3.4100000000027717, -0.03906097366571006 
3.420000000002793, -0.039232788609170274 
3.430000000002814, -0.0392983837192543 
3.440000000002835, -0.03923485969151917 
3.450000000002856, -0.03902719148677695 
3.460000000002877, -0.03865878956263253 
3.4700000000028983, -0.03810472228049408 
3.4800000000029194, -0.037329835434758936 
3.4900000000029405, -0.036294963613975925 
3.5000000000029616, -0.034975189425355206 
3.5100000000029827, -0.03338919253150062 
3.520000000003004, -0.031624429508764366 
3.530000000003025, -0.029831350529979806 
3.540000000003046, -0.028177083119392727 
3.550000000003067, -0.026788516080431302 
3.5600000000030882, -0.025724715653352565 
3.5700000000031094, -0.02498521284260664 
3.5800000000031305, -0.02453224876777663 
3.5900000000031516, -0.024308142100879445 
3.6000000000031727, -0.02424466898451471 
3.6100000000031938, -0.024269850417753903 
3.620000000003215, -0.024315989600761624 
3.630000000003236, -0.024327311874515884 
3.640000000003257, -0.024263098913812713 
3.650000000003278, -0.024094647561091285 
3.6600000000032993, -0.023797938912824397 
3.6700000000033204, -0.023345126299505314 
3.6800000000033415, -0.022697428699698007 
3.6900000000033626, -0.021802230442905038 
3.7000000000033837, -0.020599410809127076 
3.710000000003405, -0.019044002910380723 
3.720000000003426, -0.01714646243537479 
3.730000000003447, -0.015010454015317051 
3.740000000003468, -0.012827515972786654 
3.750000000003489, -0.01081178843951533 
3.7600000000035103, -0.009119843712325548 
3.7700000000035314, -0.00781564702181844 
3.7800000000035525, -0.006887389174808242 
3.7900000000035736, -0.0062816664678429935 
3.8000000000035947, -0.005928312993791986 
3.810000000003616, -0.005752215149411987 
3.820000000003637, -0.005679272085918661 
3.830000000003658, -0.005642028241209371 
3.840000000003679, -0.005584869567289879 
3.8500000000037002, -0.005465791941336616 
3.8600000000037213, -0.005253207671027233 
3.8700000000037424, -0.004919026624249657 
3.8800000000037635, -0.004430448699153093 
3.8900000000037847, -0.0037428512991787783 
3.9000000000038058, -0.002796933509935185 
3.910000000003827, -0.0015260565841902596 
3.920000000003848, 0.00009113486171403403 
3.930000000003869, 0.0016573374368085664 
3.94000000000389, 0.0034636191208564544 
3.9500000000039113, 0.00530002449836351 
3.9600000000039324, 0.006940570699268544 
3.9700000000039535, 0.008228530514370435 
3.9800000000039746, 0.009107465283775098 
3.9900000000039957, 0.009597817437706792 
4.000000000004016, 0.009759255396602681 
4.010000000003993, 0.009665562770283435 
4.02000000000397, 0.009393771537645663 
4.030000000003946, 0.009019089473428431 
4.040000000003923, 0.008609731745085785 
4.0500000000039, 0.008221859595021365 
4.0600000000038765, 0.007897817755065482 
4.070000000003853, 0.007669315914244396 
4.08000000000383, 0.007564286955537412 
4.090000000003807, 0.0076148458856224715 
4.100000000003783, 0.00786375672233561 
4.11000000000376, 0.008366054731364205 
4.120000000003737, 0.009180091910442036 
4.130000000003713, 0.010341274619301314 
4.14000000000369, 0.011820678006188166 
4.150000000003667, 0.013494185379033938 
4.1600000000036434, 0.01516165837258869 
4.17000000000362, 0.016619774805430535 
4.180000000003597, 0.017734235576209692 
4.1900000000035735, 0.018460668776296377 
4.20000000000355, 0.01882085724781554 
4.210000000003527, 0.018870266937232087 
4.220000000003504, 0.018677934384931073 
4.23000000000348, 0.018318203211357777 
4.240000000003457, 0.017865941715130094 
4.250000000003434, 0.017390206111382554 
4.26000000000341, 0.01694770090579612 
4.270000000003387, 0.01658014409344402 
4.280000000003364, 0.01631733065921018 
4.2900000000033405, 0.016184121594013195 
4.300000000003317, 0.016208162600134027 
4.310000000003294, 0.0164253608137459 
4.320000000003271, 0.016879832016302804 
4.330000000003247, 0.017613637345795758 
4.340000000003224, 0.01864238692126733 
4.350000000003201, 0.019922271227210415 
4.360000000003177, 0.021332103283421288 
4.370000000003154, 0.022697865023532673 
4.380000000003131, 0.023853576359037593 
4.390000000003107, 0.024693700554070285 
4.400000000003084, 0.025184278073683175 
4.410000000003061, 0.025343047252609628 
4.4200000000030375, 0.025215987599261108 
4.430000000003014, 0.024864270626328924 
4.440000000002991, 0.02435912726151783 
4.450000000002968, 0.023776638386218883 
4.460000000002944, 0.023188714422622637 
4.470000000002921, 0.022653641671585786 
4.480000000002898, 0.02221197533252535 
4.490000000002874, 0.021889713318685826 
4.500000000002851, 0.021705918057486062 
4.510000000002828, 0.021680527167415954 
4.520000000002804, 0.02183899590900489 
4.530000000002781, 0.022210947233723865 
4.540000000002758, 0.022819791954546087 
4.5500000000027345, 0.023662308624154173 
4.560000000002711, 0.024685513616616535 
4.570000000002688, 0.025779460192514446 
4.580000000002665, 0.02680170777768426 
4.590000000002641, 0.027622857521762467 
4.600000000002618, 0.028161099549413926 
4.610000000002595, 0.028387446385593373 
4.620000000002571, 0.028311903007079926 
4.630000000002548, 0.02796956311455418 
4.640000000002525, 0.027414735583317928 
4.6500000000025015, 0.026718723654348363 
4.660000000002478, 0.02596310121865142 
4.670000000002455, 0.02522620721901105 
4.6800000000024315, 0.024569381046806 
4.690000000002408, 0.024031261299078024 
4.700000000002385, 0.02363192659598496 
4.710000000002362, 0.023382132698213237 
4.720000000002338, 0.023291881187502264 
4.730000000002315, 0.023374726915250804 
4.740000000002292, 0.023645839443267317 
4.750000000002268, 0.024112506334885767 
4.760000000002245, 0.0247581213711511 
4.770000000002222, 0.02552695467781559 
4.7800000000021985, 0.026323018736126736 
4.790000000002175, 0.027030907212006523 
