t, s[1].omega / s[0].omega 
0, -0.68999769569612 
0.009999999999999995, -0.6897568509176634 
0.019999999999999934, -0.6894912341122127 
0.029999999999999874, -0.6891908642519247 
0.04000000000000012, -0.688845603762358 
0.050000000000000405, -0.6884506626049959 
0.06000000000000069, -0.6880095709033983 
0.07000000000000098, -0.6875347954339496 
0.08000000000000126, -0.6870478151238705 
0.09000000000000155, -0.6865803608391601 
0.10000000000000184, -0.6861774682325977 
0.11000000000000212, -0.6859019330182237 
0.12000000000000241, -0.685839007379668 
0.130000000000002, -0.686099702854895 
0.1400000000000009, -0.6868208476331301 
0.1499999999999998, -0.6881600071836775 
0.1599999999999987, -0.6902831315345238 
0.1699999999999976, -0.6933417722579807 
0.1799999999999965, -0.6974352196024153 
0.1899999999999954, -0.7025541907574353 
0.1999999999999943, -0.70851428846367 
0.2099999999999932, -0.7149150044451823 
0.2199999999999921, -0.7211854152433725 
0.229999999999991, -0.7267463455877496 
0.2399999999999899, -0.7312116553105042 
0.2499999999999888, -0.7344853557240748 
0.2599999999999877, -0.7367021985018094 
0.2699999999999866, -0.7380954705752056 
0.2799999999999855, -0.7388922952968189 
0.2899999999999844, -0.739267142942159 
0.2999999999999833, -0.739334943410445 
0.3099999999999822, -0.7391591226274004 
0.3199999999999811, -0.7387602515482337 
0.32999999999998, -0.7381196116705743 
0.3399999999999789, -0.7371757512003223 
0.3499999999999778, -0.7358130950385945 
0.35999999999997667, -0.733842385187613 
0.36999999999997557, -0.7309763855308671 
0.37999999999997447, -0.726816849463787 
0.38999999999997337, -0.7208975246784485 
0.39999999999997227, -0.7128601427841252 
0.40999999999997117, -0.7027925934037877 
0.41999999999997006, -0.6915257330308114 
0.42999999999996896, -0.6804840849373301 
0.43999999999996786, -0.6710363130369706 
0.44999999999996676, -0.6639025413297082 
0.45999999999996566, -0.6590750558560294 
0.46999999999996456, -0.6561130800000734 
0.47999999999996346, -0.6544635226660469 
0.48999999999996235, -0.6536443277856279 
0.49999999999996125, -0.6533022726392308 
0.5099999999999602, -0.6532045138627314 
0.519999999999959, -0.6532080707258539 
0.529999999999958, -0.6532288067767974 
0.5399999999999568, -0.6532172192058442 
0.5499999999999557, -0.6531418758066267 
0.5599999999999546, -0.6529793322134212 
0.5699999999999535, -0.6527093861903576 
0.5799999999999524, -0.6523150784476256 
0.5899999999999513, -0.6517867990297248 
0.5999999999999502, -0.6511284365202921 
0.6099999999999491, -0.6503613395140612 
0.619999999999948, -0.64952167599672 
0.6299999999999469, -0.6486507751797902 
0.6399999999999458, -0.647783555093046 
0.6499999999999447, -0.6469415590102303 
0.6599999999999436, -0.6461332599064421 
0.6699999999999425, -0.6453595099517836 
0.6799999999999414, -0.6446201806141592 
0.6899999999999403, -0.6439192302743467 
0.6999999999999392, -0.6432675890824218 
0.7099999999999381, -0.642684610933302 
0.719999999999937, -0.6421989947139577 
0.7299999999999359, -0.641849576619766 
0.7399999999999348, -0.6416858988956501 
0.7499999999999337, -0.6417682639628652 
0.7599999999999326, -0.6421670501044205 
0.7699999999999315, -0.642961171195968 
0.7799999999999304, -0.6442353843316982 
0.7899999999999293, -0.6460753557256866 
0.7999999999999282, -0.6485578555908122 
0.8099999999999271, -0.6517317024163909 
0.819999999999926, -0.6555852631752918 
0.8299999999999249, -0.6600030870849085 
0.8399999999999238, -0.6647319338590852 
0.8499999999999227, -0.6693963501790087 
0.8599999999999216, -0.6735924876300013 
0.8699999999999205, -0.6770238021382802 
0.8799999999999194, -0.6795852928470795 
0.8899999999999183, -0.681343302770298 
0.8999999999999172, -0.6824512934877955 
0.9099999999999161, -0.6830716544251424 
0.919999999999915, -0.6833346194965537 
0.9299999999999139, -0.6833272371601168 
0.9399999999999128, -0.6830956512270953 
0.9499999999999117, -0.6826491157194222 
0.9599999999999106, -0.6819601646444287 
0.9699999999999095, -0.6809582977946848 
0.9799999999999084, -0.6795153835279086 
0.9899999999999073, -0.6774220347648987 
0.9999999999999062, -0.674359749110377 
1.0099999999999052, -0.6698918039057906 
1.019999999999904, -0.663532817731821 
1.029999999999903, -0.6549796255714349 
1.039999999999902, -0.6444780064302005 
1.0499999999999008, -0.6330211791362176 
1.0599999999998997, -0.6220267398162603 
1.0699999999998986, -0.6126733509616604 
1.0799999999998975, -0.6054861748778404 
1.0899999999998964, -0.6003952490946458 
1.0999999999998953, -0.5970178620483662 
1.1099999999998942, -0.5949008155522322 
1.119999999999893, -0.5936458015527916 
1.129999999999892, -0.5929479419524234 
1.1399999999998909, -0.5925916865676839 
1.1499999999998898, -0.592432174905243 
1.1599999999998887, -0.5923751757298387 
1.1699999999998876, -0.5923603748032769 
1.1799999999998865, -0.5923490987054703 
1.1899999999998854, -0.5923162613637631 
1.1999999999998843, -0.5922460112815144 
1.2099999999998832, -0.5921304246638414 
1.219999999999882, -0.5919701210582036 
1.229999999999881, -0.5917748338455431 
1.2399999999998799, -0.591561537426019 
1.2499999999998788, -0.5913489106517856 
1.2599999999998777, -0.591149673556555 
1.2699999999998766, -0.5909646173809951 
1.2799999999998755, -0.5907818062857583 
1.2899999999998744, -0.5905815127083918 
1.2999999999998733, -0.5903440549475306 
1.3099999999998722, -0.5900563531877367 
1.319999999999871, -0.5897147009260408 
1.32999999999987, -0.5893242998433903 
1.3399999999998689, -0.5888979560216356 
1.3499999999998678, -0.5884562515257609 
1.3599999999998666, -0.5880306056968416 
1.3699999999998655, -0.5876700388573115 
1.3799999999998644, -0.5874523517714323 
1.3899999999998633, -0.5875004033603695 
1.3999999999998622, -0.5880034233400604 
1.4099999999998611, -0.589240481423023 
1.41999999999986, -0.5915958979421284 
1.429999999999859, -0.5955413234797717 
1.4399999999998578, -0.6015379572217535 
1.4499999999998567, -0.6098096146780401 
1.4599999999998556, -0.620021369933756 
1.4699999999998545, -0.6311070805607801 
1.4799999999998534, -0.6415827436746542 
1.4899999999998523, -0.6502574904074369 
1.4999999999998512, -0.6567078632981 
1.5099999999998501, -0.6611592015858253 
1.519999999999849, -0.6640937063618171 
1.529999999999848, -0.6659719029297474 
1.5399999999998468, -0.6671379434123348 
1.5499999999998457, -0.6678220924675153 
1.5599999999998446, -0.668168921113607 
1.5699999999998435, -0.6682628325087846 
1.5799999999998424, -0.6681448007005428 
1.5899999999998413, -0.6678210492703334 
1.5999999999998402, -0.6672656509064294 
1.6099999999998391, -0.6664195219915543 
1.619999999999838, -0.6651901103615738 
1.629999999999837, -0.6634599124519235 
1.6399999999998358, -0.661115280159786 
1.6499999999998347, -0.6581008765243992 
1.6599999999998336, -0.6544804827242261 
1.6699999999998325, -0.6504574016511635 
1.6799999999998314, -0.6463224968821011 
1.6899999999998303, -0.642359411728239 
1.6999999999998292, -0.638771673155228 
1.709999999999828, -0.6356641599606688 
1.719999999999827, -0.6330638555079904 
1.729999999999826, -0.630951050047371 
1.7399999999998248, -0.6292839646074826 
1.7499999999998237, -0.6280131767957507 
1.7599999999998226, -0.6270884437296969 
1.7699999999998215, -0.6264614606406735 
1.7799999999998204, -0.6260870602517887 
1.7899999999998193, -0.6259241104854408 
1.7999999999998182, -0.6259364879020156 
1.809999999999817, -0.6260940626861762 
1.819999999999816, -0.6263735126204711 
1.8299999999998149, -0.6267587932265187 
1.8399999999998138, -0.6272410171817857 
1.8499999999998127, -0.6278172153730777 
1.8599999999998116, -0.6284870980279796 
1.8699999999998105, -0.6292470206735246 
1.8799999999998094, -0.6300815886395782 
1.8899999999998083, -0.6309558774739369 
1.8999999999998072, -0.6318137110892436 
1.909999999999806, -0.6325866074342767 
1.919999999999805, -0.6332116328730717 
1.9299999999998039, -0.6336485401404126 
1.9399999999998028, -0.6338860667340201 
1.9499999999998017, -0.6339358202996417 
1.9599999999998006, -0.6338204044803688 
1.9699999999997995, -0.6335631271272482 
1.9799999999997984, -0.6331825294955066 
1.9899999999997973, -0.6326916339736136 
1.9999999999997962, -0.6321010623875083 
2.0099999999998173, -0.6314260422929583 
2.0199999999998384, -0.6306984795397839 
2.0299999999998595, -0.6299855429785451 
2.0399999999998806, -0.6294135122732292 
2.0499999999999017, -0.629186020250095 
2.059999999999923, -0.629565896652046 
2.069999999999944, -0.6307719184236305 
2.079999999999965, -0.6327824997052721 
2.089999999999986, -0.635199671935409 
2.100000000000007, -0.6374365189385132 
2.1100000000000283, -0.6391527913495589 
2.1200000000000494, -0.6404214487411741 
2.1300000000000705, -0.641473894596208 
2.1400000000000916, -0.6424421802562145 
2.1500000000001127, -0.6433313422795093 
2.160000000000134, -0.6440989630790561 
2.170000000000155, -0.6447118933888426 
2.180000000000176, -0.6451599041895587 
2.190000000000197, -0.6454485134968153 
2.2000000000002182, -0.6455882292178129 
2.2100000000002393, -0.6455863094354711 
2.2200000000002604, -0.6454415510195395 
2.2300000000002815, -0.6451413394994147 
2.2400000000003026, -0.6446608732450783 
2.2500000000003237, -0.6439658599311039 
2.260000000000345, -0.6430210328485313 
2.270000000000366, -0.6418056621383533 
2.280000000000387, -0.6403319594566302 
2.290000000000408, -0.6386553387201933 
2.3000000000004293, -0.6368659208526734 
2.3100000000004504, -0.6350634199330928 
2.3200000000004715, -0.633330896943886 
2.3300000000004926, -0.6317216324473587 
2.3400000000005137, -0.6302610740467391 
2.3500000000005348, -0.6289568175708078 
2.360000000000556, -0.6278091374938051 
2.370000000000577, -0.6268183233417062 
2.380000000000598, -0.6259883611994944 
2.390000000000619, -0.625327947928074 
2.4000000000006403, -0.6248499892012058 
2.4100000000006614, -0.6245704472661204 
2.4200000000006825, -0.6245071322895408 
2.4300000000007036, -0.6246788521692811 
2.4400000000007247, -0.6251051539985865 
2.450000000000746, -0.6258065990880325 
2.460000000000767, -0.6268050500902942 
2.470000000000788, -0.6281227919706168 
2.480000000000809, -0.6297785290547242 
2.49000000000083, -0.6317777960276686 
2.5000000000008513, -0.6340962438971454 
2.5100000000008724, -0.636658602368521 
2.5200000000008935, -0.639324711993388 
2.5300000000009146, -0.6419010575765108 
2.5400000000009357, -0.6441873746984206 
2.550000000000957, -0.646038608528672 
2.560000000000978, -0.6474016867571387 
2.570000000000999, -0.6483060466287991 
2.58000000000102, -0.6488251440477525 
2.5900000000010412, -0.6490387340275564 
2.6000000000010624, -0.6490106345600558 
2.6100000000010835, -0.6487803135141007 
2.6200000000011046, -0.6483611606179858 
2.6300000000011257, -0.6477396146146471 
2.6400000000011468, -0.6468716414682169 
2.650000000001168, -0.6456742210511606 
2.660000000001189, -0.6440095998143698 
2.67000000000121, -0.6416605381857866 
2.680000000001231, -0.6383001355929562 
2.6900000000012523, -0.6334814618954849 
2.7000000000012734, -0.6267213046306973 
2.7100000000012945, -0.617781842544903 
2.7200000000013156, -0.6070910378623198 
2.7300000000013367, -0.5958744050514355 
2.740000000001358, -0.5856359358525817 
2.750000000001379, -0.5774030413700559 
2.7600000000014, -0.5714351908826326 
2.770000000001421, -0.5674459536429688 
2.780000000001442, -0.5649471869305711 
2.7900000000014633, -0.5634701511678661 
2.8000000000014844, -0.5626486242084539 
2.8100000000015055, -0.5622252629079953 
2.8200000000015266, -0.562030114460847 
2.8300000000015477, -0.5619551021117974 
2.840000000001569, -0.561932836595607 
2.85000000000159, -0.5619213498178344 
2.860000000001611, -0.5618941324328975 
2.870000000001632, -0.5618344869391497 
2.8800000000016532, -0.5617333222031526 
2.8900000000016743, -0.5615893990307956 
2.9000000000016954, -0.5614104056498699 
2.9100000000017165, -0.5612125147255961 
2.9200000000017377, -0.5610164125056561 
2.9300000000017588, -0.5608399538294859 
2.94000000000178, -0.5606904320540369 
2.950000000001801, -0.560560583715065 
2.960000000001822, -0.5604307562668727 
2.970000000001843, -0.5602762096861843 
2.9800000000018643, -0.5600755969010845 
2.9900000000018854, -0.5598164753830267 
3.0000000000019065, -0.5594963775911471 
3.0100000000019276, -0.5591210374507647 
3.0200000000019487, -0.5587025195869372 
3.03000000000197, -0.5582593644443901 
3.040000000001991, -0.5578199288679478 
3.050000000002012, -0.5574297783849314 
3.060000000002033, -0.5571642158797968 
3.070000000002054, -0.5571471931901032 
3.0800000000020753, -0.5575767674553104 
3.0900000000020964, -0.558752474533515 
3.1000000000021175, -0.5610869384962027 
3.1100000000021386, -0.5650585378168714 
3.1200000000021597, -0.5710367004116553 
3.130000000002181, -0.5789540778675064 
3.140000000002202, -0.5880133186935306 
3.150000000002223, -0.5968519529144888 
3.160000000002244, -0.6042631727176989 
3.1700000000022652, -0.6097933226058955 
3.1800000000022863, -0.6136539440024967 
3.1900000000023074, -0.6162850472684156 
3.2000000000023285, -0.6180711589110319 
3.2100000000023496, -0.619277401416287 
3.2200000000023707, -0.6200749601396839 
3.230000000002392, -0.6205741005674666 
3.240000000002413, -0.6208454431625112 
3.250000000002434, -0.6209315359714054 
3.260000000002455, -0.6208527886035773 
3.2700000000024763, -0.6206102946627482 
3.2800000000024974, -0.6201872576258368 
3.2900000000025185, -0.6195510713713953 
3.3000000000025396, -0.618659176422435 
3.3100000000025607, -0.6174722666758435 
3.3200000000025818, -0.6159754499754311 
3.330000000002603, -0.614199751545735 
3.340000000002624, -0.6122285794479311 
3.350000000002645, -0.6101790982131227 
3.360000000002666, -0.6081677227856926 
3.3700000000026873, -0.6062814973072135 
3.3800000000027084, -0.6045688374231111 
3.3900000000027295, -0.6030467719997636 
3.4000000000027506, -0.6017144024312366 
3.4100000000027717, -0.600564743293071 
3.420000000002793, -0.5995921404886743 
3.430000000002814, -0.5987956813461278 
3.440000000002835, -0.5981800336846298 
3.450000000002856, -0.5977550086265115 
3.460000000002877, -0.597534711359847 
3.4700000000028983, -0.597536804081886 
3.4800000000029194, -0.5977821855122967 
3.4900000000029405, -0.5982951855315315 
3.5000000000029616, -0.5991040628520576 
3.5100000000029827, -0.6002410768359373 
3.520000000003004, -0.601740610805821 
3.530000000003025, -0.6036328325523247 
3.540000000003046, -0.6059297914686501 
3.550000000003067, -0.6086024171268293 
3.5600000000030882, -0.6115534523608119 
3.5700000000031094, -0.6146033565733185 
3.5800000000031305, -0.6175133499584661 
3.5900000000031516, -0.6200518302304918 
3.6000000000031727, -0.6220693498565921 
3.6100000000031938, -0.6235306584501878 
3.620000000003215, -0.6244899091981735 
3.630000000003236, -0.625040377520372 
3.640000000003257, -0.6252733769464692 
3.650000000003278, -0.6252575098140178 
3.6600000000032993, -0.6250323807464663 
3.6700000000033204, -0.6246077637173968 
3.6800000000033415, -0.6239619425276796 
3.6900000000033626, -0.6230354829336449 
3.7000000000033837, -0.621717715471685 
3.710000000003405, -0.619823944164499 
3.720000000003426, -0.6170655146015616 
3.730000000003447, -0.6130305949985635 
3.740000000003468, -0.6072301960233025 
3.750000000003489, -0.5992985614933458 
3.7600000000035103, -0.5893556284768776 
3.7700000000035314, -0.5782593830091234 
3.7800000000035525, -0.5673572019044149 
3.7900000000035736, -0.5578428235553592 
3.8000000000035947, -0.5503075725792146 
3.810000000003616, -0.5447607196300616 
3.820000000003637, -0.5408911548273426 
3.830000000003658, -0.5383010322611104 
3.840000000003679, -0.5366288519991909 
3.8500000000037002, -0.535589642956468 
3.8600000000037213, -0.5349747834100722 
3.8700000000037424, -0.5346380245851516 
3.8800000000037635, -0.5344797133689637 
3.8900000000037847, -0.5344334093199594 
3.9000000000038058, -0.5344558230839604 
3.910000000003827, -0.5345198982761945 
3.920000000003848, -0.5346105691897945 
3.930000000003869, -0.5347225769159722 
3.94000000000389, -0.5348593915077033 
3.9500000000039113, -0.535031774368224 
3.9600000000039324, -0.5352542812572605 
3.9700000000039535, -0.5355387596981052 
3.9800000000039746, -0.5358858656894071 
3.9900000000039957, -0.5362780044365393 
4.000000000004016, -0.5366782532947266 
4.010000000003993, -0.5370379489165813 
4.02000000000397, -0.5373104205563471 
4.030000000003946, -0.5374634741868007 
4.040000000003923, -0.5374840050456988 
4.0500000000039, -0.5373742008790241 
4.0600000000038765, -0.5371438272820341 
4.070000000003853, -0.5368032399433289 
4.08000000000383, -0.5363591397077057 
4.090000000003807, -0.5358129260405733 
4.100000000003783, -0.535160746891391 
4.11000000000376, -0.5343942321905724 
4.120000000003737, -0.5335002592913222 
4.130000000003713, -0.5324555057272224 
4.14000000000369, -0.5312054220257407 
4.150000000003667, -0.529609568408448 
4.1600000000036434, -0.5273459723772705 
4.17000000000362, -0.5238498677130009 
4.180000000003597, -0.518515819317097 
4.1900000000035735, -0.5112895683305259 
4.20000000000355, -0.5030998821378037 
4.210000000003527, -0.4953874951559076 
4.220000000003504, -0.48918511471065723 
4.23000000000348, -0.4847569567253755 
4.240000000003457, -0.4818523332972128 
4.250000000003434, -0.4800607440529078 
4.26000000000341, -0.4790098480598407 
4.270000000003387, -0.4784237148405265 
4.280000000003364, -0.47811683672950644 
4.2900000000033405, -0.47797083903617965 
4.300000000003317, -0.47791235167041624 
4.310000000003294, -0.47789667386545515 
4.320000000003271, -0.4778970796734541 
4.330000000003247, -0.47789856312191137 
4.340000000003224, -0.4778948877551822 
4.350000000003201, -0.4778878958121112 
4.360000000003177, -0.47788775437204994 
4.370000000003154, -0.47791230621344444 
4.380000000003131, -0.47798363884288275 
4.390000000003107, -0.47812113151813296 
4.400000000003084, -0.47833245109040146 
4.410000000003061, -0.4786060872617569 
4.4200000000030375, -0.4789097406306845 
4.430000000003014, -0.47919709644253183 
4.440000000002991, -0.4794209224096436 
4.450000000002968, -0.47954576770769214 
4.460000000002944, -0.47955366251429243 
4.470000000002921, -0.47944155015537104 
4.480000000002898, -0.47921419334937176 
4.490000000002874, -0.4788769156848812 
4.500000000002851, -0.4784301784005881 
4.510000000002828, -0.4778656605301211 
4.520000000002804, -0.4771622419470433 
4.530000000002781, -0.47627938717694035 
4.540000000002758, -0.4751437576129831 
4.5500000000027345, -0.47362174166790716 
4.560000000002711, -0.47146811825376433 
4.570000000002688, -0.46825262316490013 
4.580000000002665, -0.46332748448783667 
4.590000000002641, -0.4560217263185507 
4.600000000002618, -0.4462149271328011 
4.610000000002595, -0.4348806936353828 
4.620000000002571, -0.42375610933159197 
4.630000000002548, -0.4142953631854798 
4.640000000002525, -0.40705891601663835 
4.6500000000025015, -0.40189123454113496 
4.660000000002478, -0.3983474850137847 
4.670000000002455, -0.39597348170133073 
4.6800000000024315, -0.3944083955631667 
4.690000000002408, -0.3933949209605592 
4.700000000002385, -0.39275921183933266 
4.710000000002362, -0.39238759396455863 
4.720000000002338, -0.3922081149565595 
4.730000000002315, -0.3921778553249764 
4.740000000002292, -0.39227497632278296 
4.750000000002268, -0.3924942762611973 
4.760000000002245, -0.39284517462397783 
4.770000000002222, -0.3933510243919661 
4.7800000000021985, -0.394048280900971 
4.790000000002175, -0.3949833280664874 
4.800000000002152, -0.39620391676587896 
4.810000000002129, -0.3977420218898201 
4.820000000002105, -0.39958762759643607 
4.830000000002082, -0.4016616184579222 
4.840000000002059, -0.40380860295205656 
4.850000000002035, -0.4058307693111322 
4.860000000002012, -0.4075544421390078 
4.870000000001989, -0.40888518997124246 
4.880000000001965, -0.40981536870263124 
4.890000000001942, -0.4103925143991371 
4.900000000001919, -0.41068070979122695 
4.9100000000018955, -0.41073494578403 
