t, s[1].omega / s[0].omega 
0, -1.219948907243551 
0.009999999999999995, -1.2142610377271823 
0.019999999999999934, -1.2076344455123116 
0.029999999999999874, -1.2006351830914503 
0.04000000000000012, -1.1941353215425736 
0.050000000000000405, -1.1890598679173365 
0.06000000000000069, -1.1859285930399266 
0.07000000000000098, -1.1845671999845957 
0.08000000000000126, -1.1843225939456654 
0.09000000000000155, -1.1845300107544898 
0.10000000000000184, -1.1847712598300197 
0.11000000000000212, -1.184855010231781 
0.12000000000000241, -1.184701084669245 
0.130000000000002, -1.1842444267659853 
0.1400000000000009, -1.1833694374485086 
0.1499999999999998, -1.1818495354219072 
0.1599999999999987, -1.1792702771525911 
0.1699999999999976, -1.1749400158728769 
0.1799999999999965, -1.167864984566874 
0.1899999999999954, -1.1570148088582424 
0.1999999999999943, -1.1421897627805395 
0.2099999999999932, -1.1252698066264206 
0.2199999999999921, -1.1102943834757872 
0.229999999999991, -1.10101145422292 
0.2399999999999899, -1.0980597654350865 
0.2499999999999888, -1.0992058598950116 
0.2599999999999877, -1.1017702616491023 
0.2699999999999866, -1.104166605652138 
0.2799999999999855, -1.105877600625409 
0.2899999999999844, -1.1069105335641802 
0.2999999999999833, -1.1074125694946857 
0.3099999999999822, -1.107511891270828 
0.3199999999999811, -1.1072743810814538 
0.32999999999998, -1.1066956422860208 
0.3399999999999789, -1.105694653159869 
0.3499999999999778, -1.1041027079508876 
0.35999999999997667, -1.1016657258286338 
0.36999999999997557, -1.0981231325966274 
0.37999999999997447, -1.0934938330160533 
0.38999999999997337, -1.088668292924403 
0.39999999999997227, -1.0859444175915731 
0.40999999999997117, -1.0883384092561679 
0.41999999999997006, -1.0971336992533276 
0.42999999999996896, -1.110111103554786 
0.43999999999996786, -1.1231978456317173 
0.44999999999996676, -1.1335396519219738 
0.45999999999996566, -1.1404967295261754 
0.46999999999996456, -1.1447128115096068 
0.47999999999996346, -1.1470821860099676 
0.48999999999996235, -1.1483029285859712 
0.49999999999996125, -1.1488167941404879 
0.5099999999999602, -1.1488714270760556 
0.519999999999959, -1.1485888092194665 
0.529999999999958, -1.148016232188543 
0.5399999999999568, -1.14717246080159 
0.5499999999999557, -1.1461199392452515 
0.5599999999999546, -1.1451032383356465 
0.5699999999999535, -1.1447520009189245 
0.5799999999999524, -1.1461752203622102 
0.5899999999999513, -1.1505869417445393 
0.5999999999999502, -1.1584265139985725 
0.6099999999999491, -1.1687683704373986 
0.619999999999948, -1.1797638750456363 
0.6299999999999469, -1.1896596865512619 
0.6399999999999458, -1.1974648697979116 
0.6499999999999447, -1.202994640957323 
0.6599999999999436, -1.206570003774795 
0.6699999999999425, -1.2086869022319164 
0.6799999999999414, -1.2098049774888608 
0.6899999999999403, -1.210267032636166 
0.6999999999999392, -1.2102997151984736 
0.7099999999999381, -1.2100475563181643 
0.719999999999937, -1.2096166008206186 
0.7299999999999359, -1.2091211388797345 
0.7399999999999348, -1.208724668480643 
0.7499999999999337, -1.2086451140104846 
0.7599999999999326, -1.2090886550401463 
0.7699999999999315, -1.210138465358034 
0.7799999999999304, -1.2117012919410124 
0.7899999999999293, -1.213565395983 
0.7999999999999282, -1.2155022661354824 
0.8099999999999271, -1.2173304208858744 
0.819999999999926, -1.2189289112007433 
0.8299999999999249, -1.2202264381227743 
0.8399999999999238, -1.2211873701729838 
0.8499999999999227, -1.2218025545975388 
0.8599999999999216, -1.2220844877439387 
0.8699999999999205, -1.2220634735587403 
0.8799999999999194, -1.2217829736665258 
0.8899999999999183, -1.2212958776556109 
0.8999999999999172, -1.2206645032570373 
0.9099999999999161, -1.2199635341059154 
0.919999999999915, -1.219279475855024 
0.9299999999999139, -1.2186995794233626 
0.9399999999999128, -1.2182921277611225 
0.9499999999999117, -1.2180890997025284 
0.9599999999999106, -1.218078646988735 
0.9699999999999095, -1.2182076953073873 
0.9799999999999084, -1.2183951190862774 
0.9899999999999073, -1.218551988419208 
0.9999999999999062, -1.218597670945266 
1.0099999999999052, -1.2184646516601432 
1.019999999999904, -1.2180961503687342 
1.029999999999903, -1.2174443963917694 
1.039999999999902, -1.2164730003846131 
1.0499999999999008, -1.215161640238647 
1.0599999999998997, -1.2135102009422338 
1.0699999999998986, -1.2115424502329941 
1.0799999999998975, -1.2093123080098849 
1.0899999999998964, -1.2069150486551563 
1.0999999999998953, -1.2045002457767002 
1.1099999999998942, -1.2022726201904241 
1.119999999999893, -1.2004559826012906 
1.129999999999892, -1.1992084036052537 
1.1399999999998909, -1.1985350024872883 
1.1499999999998898, -1.1982841697954312 
1.1599999999998887, -1.1982380226300389 
1.1699999999998876, -1.198206501755073 
1.1799999999998865, -1.1980559582215347 
1.1899999999998854, -1.1976836492433158 
1.1999999999998843, -1.196974671530342 
1.2099999999998832, -1.1957598788487436 
1.219999999999882, -1.1937808144362931 
1.229999999999881, -1.1906744808904512 
1.2399999999998799, -1.1860088596022045 
1.2499999999998788, -1.1794092861968737 
1.2599999999998777, -1.1707877384727112 
1.2699999999998766, -1.1606099808075925 
1.2799999999998755, -1.1500316944527582 
1.2899999999998744, -1.1406681658890068 
1.2999999999998733, -1.133908791260864 
1.3099999999998722, -1.1301780184827876 
1.319999999999871, -1.128840380793477 
1.32999999999987, -1.1288219609415528 
1.3399999999998689, -1.1292534232162756 
1.3499999999998678, -1.1296667783804097 
1.3599999999998666, -1.129881248300708 
1.3699999999998655, -1.1298423940620506 
1.3799999999998644, -1.1295165892693977 
1.3899999999998633, -1.1288311612077264 
1.3999999999998622, -1.1276275579237223 
1.4099999999998611, -1.125603199597178 
1.41999999999986, -1.1222344737885228 
1.429999999999859, -1.116713963635239 
1.4399999999998578, -1.1080327365398093 
1.4499999999998567, -1.0954667052203901 
1.4599999999998556, -1.0795938210630334 
1.4699999999998545, -1.063115781293674 
1.4799999999998534, -1.0499449518878188 
1.4899999999998523, -1.0425947308174723 
1.4999999999998512, -1.040638116099662 
1.5099999999998501, -1.0418166498475459 
1.519999999999849, -1.0439847354034044 
1.529999999999848, -1.0459680772549829 
1.5399999999998468, -1.047390387476859 
1.5499999999998457, -1.048254555286367 
1.5599999999998446, -1.0486670931559976 
1.5699999999998435, -1.0487208082141297 
1.5799999999998424, -1.0484576957954153 
1.5899999999998413, -1.0478561369105206 
1.5999999999998402, -1.046815717948314 
1.6099999999998391, -1.0451289976720068 
1.619999999999838, -1.0424415697850176 
1.629999999999837, -1.0382271220046728 
1.6399999999998358, -1.0318624036200608 
1.6499999999998347, -1.022960581751474 
1.6599999999998336, -1.0120432159669626 
1.6699999999998325, -1.0011127721604878 
1.6799999999998314, -0.9930897118494286 
1.6899999999998303, -0.9899178167290861 
1.6999999999998292, -0.9911852463351499 
1.709999999999828, -0.9948302120568243 
1.719999999999827, -0.998835038155289 
1.729999999999826, -1.002119381825885 
1.7399999999998248, -1.0044210677375565 
1.7499999999998237, -1.0058666083981245 
1.7599999999998226, -1.006670934546496 
1.7699999999998215, -1.0070116733612093 
1.7799999999998204, -1.0069979462364624 
1.7899999999998193, -1.0066700159699469 
1.7999999999998182, -1.0059995538199586 
1.809999999999817, -1.0048787776508434 
1.819999999999816, -1.0030947626787046 
1.8299999999998149, -1.0002937771380704 
1.8399999999998138, -0.9959632239894531 
1.8499999999998127, -0.9895090309906968 
1.8599999999998116, -0.9805619022906813 
1.8699999999998105, -0.9695642187781995 
1.8799999999998094, -0.9582606172414796 
1.8899999999998083, -0.9492584089837275 
1.8999999999998072, -0.9444813318631015 
1.909999999999806, -0.9439241748996426 
1.919999999999805, -0.9460289649946796 
1.9299999999998039, -0.949015974210015 
1.9399999999998028, -0.9517549240090494 
1.9499999999998017, -0.9538213482561277 
1.9599999999998006, -0.9551983615802315 
1.9699999999997995, -0.9560124658952566 
1.9799999999997984, -0.9563973651769453 
1.9899999999997973, -0.9564450840343941 
1.9999999999997962, -0.9561936583766366 
2.0099999999998173, -0.9556216102711371 
2.0199999999998384, -0.9546347069675496 
2.0299999999998595, -0.9530371584222378 
2.0399999999998806, -0.9504837031265254 
2.0499999999999017, -0.9464215560332493 
2.059999999999923, -0.9400690362074402 
2.069999999999944, -0.9305512100626299 
2.079999999999965, -0.9173563869446371 
2.089999999999986, -0.9010666716578843 
2.100000000000007, -0.883753169449968 
2.1100000000000283, -0.868264204367034 
2.1200000000000494, -0.8567294246414507 
2.1300000000000705, -0.849645027749127 
2.1400000000000916, -0.8461710694977986 
2.1500000000001127, -0.8449968239704209 
2.160000000000134, -0.8449908821862986 
2.170000000000155, -0.8454206645014972 
2.180000000000176, -0.8459010710359689 
2.190000000000197, -0.8462650557707013 
2.2000000000002182, -0.8464538700921617 
2.2100000000002393, -0.8464480999154791 
2.2200000000002604, -0.8462295051669875 
2.2300000000002815, -0.8457592968265972 
2.2400000000003026, -0.8449631713871664 
2.2500000000003237, -0.8437201754708592 
2.260000000000345, -0.8418607718859945 
2.270000000000366, -0.8391886275684355 
2.280000000000387, -0.8355419971785963 
2.290000000000408, -0.8308872316130183 
2.3000000000004293, -0.8253917227807597 
2.3100000000004504, -0.8194105622327073 
2.3200000000004715, -0.8133841351166436 
2.3300000000004926, -0.807717709093931 
2.3400000000005137, -0.802708936139892 
2.3500000000005348, -0.7985312936714504 
2.360000000000556, -0.7952470171622422 
2.370000000000577, -0.7928274354325187 
2.380000000000598, -0.7911744817573717 
2.390000000000619, -0.7901450320726919 
2.4000000000006403, -0.7895779487447095 
2.4100000000006614, -0.7893190351718605 
2.4200000000006825, -0.7892378914687789 
2.4300000000007036, -0.789234034586758 
2.4400000000007247, -0.7892342663246943 
2.450000000000746, -0.7891858255288025 
2.460000000000767, -0.7890498028526942 
2.470000000000788, -0.7887978063244855 
2.480000000000809, -0.7884127583018816 
2.49000000000083, -0.7878920782871094 
2.5000000000008513, -0.7872492262085451 
2.5100000000008724, -0.7865099928617447 
2.5200000000008935, -0.7857040403476424 
2.5300000000009146, -0.7848565651397721 
2.5400000000009357, -0.7839849611405321 
2.550000000000957, -0.7831013149300087 
2.560000000000978, -0.7822178790091988 
2.570000000000999, -0.7813521395123371 
2.58000000000102, -0.7805297623441037 
2.5900000000010412, -0.779785224729858 
2.6000000000010624, -0.779160294260312 
2.6100000000010835, -0.7787003482186532 
2.6200000000011046, -0.7784487963514543 
2.6300000000011257, -0.7784407377451454 
2.6400000000011468, -0.778697749906511 
2.650000000001168, -0.7792255730403183 
2.660000000001189, -0.7800152894621699 
2.67000000000121, -0.7810470435480106 
2.680000000001231, -0.7822941958713227 
2.6900000000012523, -0.7837254595821359 
2.7000000000012734, -0.7853031032354334 
2.7100000000012945, -0.7869769281865391 
2.7200000000013156, -0.7886768021231091 
2.7300000000013367, -0.790310334022653 
2.740000000001358, -0.7917731946753415 
2.750000000001379, -0.7929727628595655 
2.7600000000014, -0.7938534025918595 
2.770000000001421, -0.7944069694216909 
2.780000000001442, -0.7946633174983988 
2.7900000000014633, -0.7946706288746038 
2.8000000000014844, -0.794478784414814 
2.8100000000015055, -0.7941323661661877 
2.8200000000015266, -0.7936736800636537 
2.8300000000015477, -0.7931548029253 
2.840000000001569, -0.7926589860788731 
2.85000000000159, -0.7923322979709944 
2.860000000001611, -0.7924231750450692 
2.870000000001632, -0.79331851873252 
2.8800000000016532, -0.7955511578621917 
2.8900000000016743, -0.7997420332626551 
2.9000000000016954, -0.8064441465682224 
2.9100000000017165, -0.8158882311934338 
2.9200000000017377, -0.8277040331823313 
2.9300000000017588, -0.8407950264780721 
2.94000000000178, -0.8535770960042012 
2.950000000001801, -0.8645758710383857 
2.960000000001822, -0.872995818217035 
2.970000000001843, -0.8788367175657477 
2.9800000000018643, -0.8825861606564667 
2.9900000000018854, -0.8848438639889166 
3.0000000000019065, -0.886108838464405 
3.0100000000019276, -0.8867258548539525 
3.0200000000019487, -0.8869064867371115 
3.03000000000197, -0.8867651174083597 
3.040000000001991, -0.8863469924862498 
3.050000000002012, -0.885644791332141 
3.060000000002033, -0.88460761829185 
3.070000000002054, -0.8831508480944757 
3.0800000000020753, -0.8811825984702514 
3.0900000000020964, -0.8786735241398803 
3.1000000000021175, -0.875798978466969 
3.1100000000021386, -0.8731375923401561 
3.1200000000021597, -0.8717733978212646 
3.130000000002181, -0.8730069385487147 
3.140000000002202, -0.8775795777509316 
3.150000000002223, -0.8849737076814106 
3.160000000002244, -0.8935882372587862 
3.1700000000022652, -0.9016917753112816 
3.1800000000022863, -0.9082303611794948 
3.1900000000023074, -0.9129556940537699 
3.2000000000023285, -0.9161105312089312 
3.2100000000023496, -0.9180885602046762 
3.2200000000023707, -0.9192455302853201 
3.230000000002392, -0.9198395431682075 
3.240000000002413, -0.9200325239598584 
3.250000000002434, -0.919907203044251 
3.260000000002455, -0.919479338555354 
3.2700000000024763, -0.918697773167622 
3.2800000000024974, -0.9174287904842974 
3.2900000000025185, -0.9154220242568462 
3.3000000000025396, -0.9122594114292676 
3.3100000000025607, -0.9073074978358097 
3.3200000000025818, -0.8997429526703176 
3.330000000002603, -0.8887940517952231 
3.340000000002624, -0.8743176085797147 
3.350000000002645, -0.857473507113023 
3.360000000002666, -0.8407276604796156 
3.3700000000026873, -0.8267296779005813 
3.3800000000027084, -0.8169421580377312 
3.3900000000027295, -0.8112580473852127 
3.4000000000027506, -0.8086184696645798 
3.4100000000027717, -0.8078044397125017 
3.420000000002793, -0.8078767733492841 
3.430000000002814, -0.8082609636181933 
3.440000000002835, -0.8086624027827115 
3.450000000002856, -0.8089528091354321 
3.460000000002877, -0.8090840822491738 
3.4700000000028983, -0.8090357288563771 
3.4800000000029194, -0.8087854499675908 
3.4900000000029405, -0.8082921221157393 
3.5000000000029616, -0.8074851126341793 
3.5100000000029827, -0.8062599407733076 
3.520000000003004, -0.8044869043705509 
3.530000000003025, -0.8020429559757911 
3.540000000003046, -0.7988685125517749 
3.550000000003067, -0.79502503086631 
3.5600000000030882, -0.790708934374863 
3.5700000000031094, -0.7862012048445995 
3.5800000000031305, -0.7817858689564228 
3.5900000000031516, -0.7776895772562492 
3.6000000000031727, -0.7740627393308295 
3.6100000000031938, -0.7709883056969745 
3.620000000003215, -0.7684973378903475 
3.630000000003236, -0.7665805831904708 
3.640000000003257, -0.7651955234250388 
3.650000000003278, -0.7642727196443303 
3.6600000000032993, -0.7637245671139812 
3.6700000000033204, -0.7634565044712242 
3.6800000000033415, -0.7633780820096744 
3.6900000000033626, -0.7634108734803863 
3.7000000000033837, -0.7634918840844611 
3.710000000003405, -0.7635733079230637 
3.720000000003426, -0.7636207498658869 
3.730000000003447, -0.7636118402091537 
3.740000000003468, -0.7635357920169119 
3.750000000003489, -0.7633926651220775 
3.7600000000035103, -0.763190320990463 
3.7700000000035314, -0.7629385405770266 
3.7800000000035525, -0.7626427242944744 
3.7900000000035736, -0.7623010249577071 
3.8000000000035947, -0.7619067965142354 
3.810000000003616, -0.7614545637340109 
3.820000000003637, -0.7609458105315186 
3.830000000003658, -0.7603922340697651 
3.840000000003679, -0.7598168305820037 
3.8500000000037002, -0.7592545173392855 
3.8600000000037213, -0.7587532645511345 
3.8700000000037424, -0.7583751210132068 
3.8800000000037635, -0.7581954211783509 
3.8900000000037847, -0.7582985722065205 
3.9000000000038058, -0.7587701984817941 
3.910000000003827, -0.7596873351670259 
3.920000000003848, -0.7611094063569237 
3.930000000003869, -0.7630717910344131 
3.94000000000389, -0.765581159201354 
3.9500000000039113, -0.7686091572916104 
3.9600000000039324, -0.7720807500804499 
3.9700000000039535, -0.7758578933359762 
3.9800000000039746, -0.7797291081563841 
3.9900000000039957, -0.7834254329029035 
4.000000000004016, -0.786677031095075 
4.010000000003993, -0.7892917945791482 
4.02000000000397, -0.791205747016504 
4.030000000003946, -0.7924718969900477 
4.040000000003923, -0.7932060061940088 
4.0500000000039, -0.7935318028921756 
4.0600000000038765, -0.7935495692509666 
4.070000000003853, -0.7933270618912256 
4.08000000000383, -0.792902991366863 
4.090000000003807, -0.7922964771476795 
4.100000000003783, -0.7915220697245658 
4.11000000000376, -0.7906157001862408 
4.120000000003737, -0.789681727898641 
4.130000000003713, -0.7889722924165522 
4.14000000000369, -0.7889976029994872 
4.150000000003667, -0.7906216248546862 
4.1600000000036434, -0.7950131538554777 
4.17000000000362, -0.8032584396964495 
4.180000000003597, -0.8155961943084732 
4.1900000000035735, -0.8307589716300644 
4.20000000000355, -0.8462684513522166 
4.210000000003527, -0.859736252850943 
4.220000000003504, -0.8699723628097967 
4.23000000000348, -0.8770247318425255 
4.240000000003457, -0.8815661114794603 
4.250000000003434, -0.8843523962334212 
4.26000000000341, -0.8859835228515829 
4.270000000003387, -0.8868663122410692 
4.280000000003364, -0.8872510924552406 
4.2900000000033405, -0.887276228363573 
4.300000000003317, -0.8869991893073177 
4.310000000003294, -0.8864105815382445 
4.320000000003271, -0.8854314987243386 
4.330000000003247, -0.8838937854059934 
4.340000000003224, -0.8815026516173333 
4.350000000003201, -0.8777876706849508 
4.360000000003177, -0.8720730342323918 
4.370000000003154, -0.8635536813488587 
4.380000000003131, -0.8516227930790767 
4.390000000003107, -0.8365001116808418 
4.400000000003084, -0.8197641787926596 
4.410000000003061, -0.8040052045314349 
4.4200000000030375, -0.7915187180210179 
4.430000000003014, -0.7832047268379876 
4.440000000002991, -0.778584139471242 
4.450000000002968, -0.7765363269471035 
4.460000000002944, -0.7759645145627643 
4.470000000002921, -0.7760837690648917 
4.480000000002898, -0.7764319695492021 
4.490000000002874, -0.7767757879382554 
4.500000000002851, -0.7770127779114809 
4.510000000002828, -0.7771020162149334 
4.520000000002804, -0.7770225215844301 
4.530000000002781, -0.7767498558645388 
4.540000000002758, -0.7762427771322156 
4.5500000000027345, -0.7754363075316851 
4.560000000002711, -0.7742428079205098 
4.570000000002688, -0.7725670483340427 
4.580000000002665, -0.7703401404973118 
4.590000000002641, -0.7675642626493183 
4.600000000002618, -0.7643408005400867 
4.610000000002595, -0.7608545694166113 
4.620000000002571, -0.7573196497066537 
4.630000000002548, -0.7539237084786098 
4.640000000002525, -0.7508005257737225 
4.6500000000025015, -0.7480312137237898 
4.660000000002478, -0.7456581542061824 
4.670000000002455, -0.7436980573369544 
4.6800000000024315, -0.7421491146891022 
4.690000000002408, -0.740993270423571 
4.700000000002385, -0.740196835889001 
4.710000000002362, -0.7397123149314533 
4.720000000002338, -0.7394826686281195 
4.730000000002315, -0.739447400203117 
4.740000000002292, -0.739548740563811 
4.750000000002268, -0.7397363321764505 
4.760000000002245, -0.7399698032469618 
4.770000000002222, -0.7402196239243628 
4.7800000000021985, -0.7404668927196328 
4.790000000002175, -0.7407020903800935 
4.800000000002152, -0.7409220471317653 
4.810000000002129, -0.7411245943490816 
4.820000000002105, -0.7413021808790923 
4.830000000002082, -0.7414378507146212 
4.840000000002059, -0.7415069089146236 
4.850000000002035, -0.7414842790806183 
4.860000000002012, -0.7413533598271708 
4.870000000001989, -0.7411113013554522 
4.880000000001965, -0.7407691357848919 
4.890000000001942, -0.7403493961840817 
4.900000000001919, -0.739885061277844 
4.9100000000018955, -0.7394221106617659 
4.920000000001872, -0.739025823044078 
4.930000000001849, -0.7387892448773458 
