t, s[1].omega / s[0].omega 
0, -0.999997274038182 
0.009999999999999995, -0.9996445420451252 
0.019999999999999934, -0.9991302567508056 
0.029999999999999874, -0.9984489372499367 
0.04000000000000012, -0.997600248759484 
0.050000000000000405, -0.996597343740555 
0.06000000000000069, -0.9954725660735004 
0.07000000000000098, -0.9942794140399426 
0.08000000000000126, -0.993090388624576 
0.09000000000000155, -0.9919898815961888 
0.10000000000000184, -0.9910621243410487 
0.11000000000000212, -0.9903772337644524 
0.12000000000000241, -0.9899802944222478 
0.130000000000002, -0.9898860835853694 
0.1400000000000009, -0.9900781405146475 
0.1499999999999998, -0.9905105918430587 
0.1599999999999987, -0.9911138032139194 
0.1699999999999976, -0.991805065788722 
0.1799999999999965, -0.9925020515798829 
0.1899999999999954, -0.9931344702134413 
0.1999999999999943, -0.9936509512743888 
0.2099999999999932, -0.9940209288118057 
0.2199999999999921, -0.9942322221461487 
0.229999999999991, -0.9942848263822496 
0.2399999999999899, -0.9941823766215214 
0.2499999999999888, -0.9939247130384207 
0.2599999999999877, -0.9935054686296269 
0.2699999999999866, -0.9929161609900786 
0.2799999999999855, -0.9921545156573134 
0.2899999999999844, -0.991232818587823 
0.2999999999999833, -0.9901832933194953 
0.3099999999999822, -0.9890597978411798 
0.3199999999999811, -0.9879357526933585 
0.32999999999998, -0.9868973080809438 
0.3399999999999789, -0.9860312179906667 
0.3499999999999778, -0.9854100662431399 
0.35999999999997667, -0.9850802540976107 
0.36999999999997557, -0.9850564710021802 
0.37999999999997447, -0.9853218180092851 
0.38999999999997337, -0.9858310621230852 
0.39999999999997227, -0.9865167455957908 
0.40999999999997117, -0.9872991140151214 
0.41999999999997006, -0.988098520173331 
0.42999999999996896, -0.9888465679948276 
0.43999999999996786, -0.989492963690012 
0.44999999999996676, -0.9900073142384266 
0.45999999999996566, -0.9903763082402905 
0.46999999999996456, -0.9905970549072897 
0.47999999999996346, -0.9906685148621075 
0.48999999999996235, -0.9905846913574285 
0.49999999999996125, -0.990333345143953 
0.5099999999999602, -0.9899012573052618 
0.519999999999959, -0.9892832375949171 
0.529999999999958, -0.9884904008579627 
0.5399999999999568, -0.9875549616005701 
0.5499999999999557, -0.9865315006819398 
0.5599999999999546, -0.9854951301036304 
0.5699999999999535, -0.9845353636309497 
0.5799999999999524, -0.9837441853942067 
0.5899999999999513, -0.983200071651515 
0.5999999999999502, -0.9829538574587396 
0.6099999999999491, -0.9830219930359949 
0.619999999999948, -0.9833875503509538 
0.6299999999999469, -0.9840054860833385 
0.6399999999999458, -0.9848098843216488 
0.6499999999999447, -0.985723397446067 
0.6599999999999436, -0.986668503225615 
0.6699999999999425, -0.9875779712927422 
0.6799999999999414, -0.988401615400389 
0.6899999999999403, -0.989108018602193 
0.6999999999999392, -0.9896813609484523 
0.7099999999999381, -0.9901143821564204 
0.719999999999937, -0.9903998899409627 
0.7299999999999359, -0.990524731950726 
0.7399999999999348, -0.9904698377633764 
0.7499999999999337, -0.9902168431306925 
0.7599999999999326, -0.9897578405226884 
0.7699999999999315, -0.9891034239457284 
0.7799999999999304, -0.9882866111996431 
0.7899999999999293, -0.987363452032118 
0.7999999999999282, -0.986411438979096 
0.8099999999999271, -0.9855243761535533 
0.819999999999926, -0.9848010442041027 
0.8299999999999249, -0.9843281080344302 
0.8399999999999238, -0.9841632930688883 
0.8499999999999227, -0.9843264117238814 
0.8599999999999216, -0.9848005284133775 
0.8699999999999205, -0.9855393444207603 
0.8799999999999194, -0.9864763572697681 
0.8899999999999183, -0.9875346304572923 
0.8999999999999172, -0.9886372761578733 
0.9099999999999161, -0.9897171797483304 
0.919999999999915, -0.9907234464577859 
0.9299999999999139, -0.9916229421064889 
0.9399999999999128, -0.9923967989222676 
0.9499999999999117, -0.9930330984298759 
0.9599999999999106, -0.9935185357873977 
0.9699999999999095, -0.9938332113331687 
0.9799999999999084, -0.9939520095070498 
0.9899999999999073, -0.9938525404043548 
0.9999999999999062, -0.9935254944754649 
1.0099999999999052, -0.9929822539655195 
1.019999999999904, -0.9922577658436398 
1.029999999999903, -0.9914103718017555 
1.039999999999902, -0.9905203584882587 
1.0499999999999008, -0.9896857387973319 
1.0599999999998997, -0.9890115797114323 
1.0699999999998986, -0.9885920901706982 
1.0799999999998975, -0.9884914139057182 
1.0899999999998964, -0.9887323890720026 
1.0999999999998953, -0.9892974584509366 
1.1099999999998942, -0.9901378079447584 
1.119999999999893, -0.9911845429966931 
1.129999999999892, -0.99235930711609 
1.1399999999998909, -0.993584492974624 
1.1499999999998898, -0.9947923901212162 
1.1599999999998887, -0.9959312231096173 
1.1699999999998876, -0.9969663950106292 
1.1799999999998865, -0.9978766885799609 
1.1899999999998854, -0.9986467644410258 
1.1999999999998843, -0.999259030147107 
1.2099999999998832, -0.999689167201525 
1.219999999999882, -0.9999085958373726 
1.229999999999881, -0.9998933456681617 
1.2399999999998799, -0.9996346373592975 
1.2499999999998788, -0.9991459109697511 
1.2599999999998777, -0.998464791487476 
1.2699999999998766, -0.997652341890502 
1.2799999999998755, -0.9967916436593799 
1.2899999999998744, -0.995983931687924 
1.2999999999998733, -0.9953379609845864 
1.3099999999998722, -0.994951345611395 
1.319999999999871, -0.9948901013334311 
1.32999999999987, -0.9951766388419702 
1.3399999999998689, -0.9957910841676455 
1.3499999999998678, -0.9966816412157069 
1.3599999999998666, -0.9977768745423861 
1.3699999999998655, -0.9989967836210775 
1.3799999999998644, -1.0002629319413252 
1.3899999999998633, -1.00150730710284 
1.3999999999998622, -1.0026780518873468 
1.4099999999998611, -1.003740416292709 
1.41999999999986, -1.0046727176895651 
1.429999999999859, -1.0054587609791719 
1.4399999999998578, -1.0060799228176827 
1.4499999999998567, -1.0065111881660558 
1.4599999999998556, -1.006724185908587 
1.4699999999998545, -1.0066963181234485 
1.4799999999998534, -1.0064210914018716 
1.4899999999998523, -1.0059146055204384 
1.4999999999998512, -1.0052171193052595 
1.5099999999998501, -1.0043922008756083 
1.519999999999849, -1.0035251946826325 
1.529999999999848, -1.0027187822184302 
1.5399999999998468, -1.0020813136322333 
1.5499999999998457, -1.0017074262904242 
1.5599999999998446, -1.001658136377776 
1.5699999999998435, -1.0019505535708693 
1.5799999999998424, -1.0025607754504395 
1.5899999999998413, -1.0034346199529312 
1.5999999999998402, -1.0044993894518242 
1.6099999999998391, -1.0056744866350114 
1.619999999999838, -1.0068815017765327 
1.629999999999837, -1.008053138172026 
1.6399999999998358, -1.00913883632985 
1.6499999999998347, -1.010105506147573 
1.6599999999998336, -1.0109333346970082 
1.6699999999998325, -1.0116082164381792 
1.6799999999998314, -1.012113998268038 
1.6899999999998303, -1.012428702122735 
1.6999999999998292, -1.0125275378142982 
1.709999999999828, -1.0123916438175258 
1.719999999999827, -1.0120178516815912 
1.729999999999826, -1.0114248866067737 
1.7399999999998248, -1.010655137048996 
1.7499999999998237, -1.009774079151071 
1.7599999999998226, -1.0088682869884085 
1.7699999999998215, -1.0080394413326477 
1.7799999999998204, -1.0073909139976145 
1.7899999999998193, -1.0070083734105217 
1.7999999999998182, -1.0069425699124648 
1.809999999999817, -1.0072026851784994 
1.819999999999816, -1.007760835429477 
1.8299999999998149, -1.0085616547116694 
1.8399999999998138, -1.009532163850418 
1.8499999999998127, -1.010591670935742 
1.8599999999998116, -1.0116622517239287 
1.8699999999998105, -1.0126780874299275 
1.8799999999998094, -1.013591032665951 
1.8899999999998083, -1.014371100600588 
1.8999999999998072, -1.0150021538415863 
1.909999999999806, -1.0154743677752653 
1.919999999999805, -1.0157765175967317 
1.9299999999998039, -1.0158920806198477 
1.9399999999998028, -1.015801810469816 
1.9499999999998017, -1.015491760167394 
1.9599999999998006, -1.0149624497281589 
1.9699999999997995, -1.0142350659526749 
1.9799999999997984, -1.0133537607852854 
1.9899999999997973, -1.01238532688564 
1.9999999999997962, -1.0114162669695326 
2.0099999999998173, -1.0105447655486985 
2.0199999999998384, -1.009865879926549 
2.0299999999998595, -1.0094535731888759 
2.0399999999998806, -1.0093475785160877 
2.0499999999999017, -1.0095502153029212 
2.059999999999923, -1.0100309075291145 
2.069999999999944, -1.0107332936609705 
2.079999999999965, -1.011583280701735 
2.089999999999986, -1.0124991669592773 
2.100000000000007, -1.013403164392198 
2.1100000000000283, -1.0142311389160124 
2.1200000000000494, -1.0149378559699276 
2.1300000000000705, -1.01549708046878 
2.1400000000000916, -1.0158971489490947 
2.1500000000001127, -1.0161334360733631 
2.160000000000134, -1.0162005451521234 
2.170000000000155, -1.0160880997433062 
2.180000000000176, -1.0157827542006963 
2.190000000000197, -1.015275528171419 
2.2000000000002182, -1.0145705429144432 
2.2100000000002393, -1.0136913699160368 
2.2200000000002604, -1.0126837989139557 
2.2300000000002815, -1.01161545926671 
2.2400000000003026, -1.0105716891493788 
2.2500000000003237, -1.0096458047038188 
2.260000000000345, -1.0089240238653445 
2.270000000000366, -1.0084699729220705 
2.280000000000387, -1.0083152165884108 
2.290000000000408, -1.0084576409743917 
2.3000000000004293, -1.0088643812715292 
2.3100000000004504, -1.0094766429988453 
2.3200000000004715, -1.0102174030070825 
2.3300000000004926, -1.0110028924269343 
2.3400000000005137, -1.0117552279532496 
2.3500000000005348, -1.0124120571413024 
2.360000000000556, -1.0129311199086861 
2.370000000000577, -1.0132898928899283 
2.380000000000598, -1.0134810569284078 
2.390000000000619, -1.0135049088037256 
2.4000000000006403, -1.0133613531752734 
2.4100000000006614, -1.013045356077213 
2.4200000000006825, -1.012548520801948 
2.4300000000007036, -1.01186598391644 
2.4400000000007247, -1.0110049313568978 
2.450000000000746, -1.0099910876963698 
2.460000000000767, -1.0088717063836325 
2.470000000000788, -1.0077148957739261 
2.480000000000809, -1.006604464360208 
2.49000000000083, -1.005629268053244 
2.5000000000008513, -1.0048687039319677 
2.5100000000008724, -1.0043794761674043 
2.5200000000008935, -1.0041881939549764 
2.5300000000009146, -1.0042896624037896 
2.5400000000009357, -1.0046481142552053 
2.550000000000957, -1.0052011084508985 
2.560000000000978, -1.0058681603083648 
2.570000000000999, -1.0065637264198142 
2.58000000000102, -1.007210329554336 
2.5900000000010412, -1.0077476110867931 
2.6000000000010624, -1.0081361150250516 
2.6100000000010835, -1.0083565341688119 
2.6200000000011046, -1.00840504787669 
2.6300000000011257, -1.0082855915359268 
2.6400000000011468, -1.0080016422958051 
2.650000000001168, -1.0075514977305584 
2.660000000001189, -1.006929730435582 
2.67000000000121, -1.0061339815068584 
2.680000000001231, -1.005173429885809 
2.6900000000012523, -1.0040753315065853 
2.7000000000012734, -1.002888010043752 
2.7100000000012945, -1.0016798671942773 
2.7200000000013156, -1.0005336157725153 
2.7300000000013367, -0.9995352893330259 
2.740000000001358, -0.9987603101939425 
2.750000000001379, -0.9982614944899499 
2.7600000000014, -0.9980624079073627 
2.770000000001421, -0.9981552964516047 
2.780000000001442, -0.9985016442225336 
2.7900000000014633, -0.9990362391037311 
2.8000000000014844, -0.9996767588986663 
2.8100000000015055, -1.0003374611369928 
2.8200000000015266, -1.0009421637506493 
2.8300000000015477, -1.0014326550412838 
2.840000000001569, -1.0017719071235598 
2.85000000000159, -1.0019429792918855 
2.860000000001611, -1.001944097819269 
2.870000000001632, -1.0017806976132162 
2.8800000000016532, -1.0014571350701496 
2.8900000000016743, -1.0009721366802342 
2.9000000000016954, -1.0003205598967146 
2.9100000000017165, -0.999500426621326 
2.9200000000017377, -0.9985214583293265 
2.9300000000017588, -0.99741154154673 
2.94000000000178, -0.9962195737011149 
2.950000000001801, -0.9950142793094142 
2.960000000001822, -0.9938782330346839 
2.970000000001843, -0.9928967483354878 
2.9800000000018643, -0.9921439966820994 
2.9900000000018854, -0.9916711749219447 
3.0000000000019065, -0.9915000357645174 
3.0100000000019276, -0.9916210687111774 
3.0200000000019487, -0.9919944914771109 
3.03000000000197, -0.9925547782182601 
3.040000000001991, -0.99322039221539 
3.050000000002012, -0.9939071991045074 
3.060000000002033, -0.9945410006875977 
3.070000000002054, -0.9950655879711724 
3.0800000000020753, -0.9954456766107409 
3.0900000000020964, -0.9956654606633726 
3.1000000000021175, -0.995723275556674 
3.1100000000021386, -0.9956233933452346 
3.1200000000021597, -0.9953679097044772 
3.130000000002181, -0.9949527915020407 
3.140000000002202, -0.9943703901305789 
3.150000000002223, -0.9936170170611434 
3.160000000002244, -0.9927015933947031 
3.1700000000022652, -0.9916518814737258 
3.1800000000022863, -0.9905170577860414 
3.1900000000023074, -0.9893664914899176 
3.2000000000023285, -0.9882839360124005 
3.2100000000023496, -0.9873564162903838 
3.2200000000023707, -0.9866598107318095 
3.230000000002392, -0.9862461675574922 
3.240000000002413, -0.9861369147899269 
3.250000000002434, -0.9863218061700676 
3.260000000002455, -0.9867611979358886 
3.2700000000024763, -0.9873912067924367 
3.2800000000024974, -0.9881329493942184 
3.2900000000025185, -0.9889049876979702 
3.3000000000025396, -0.9896352560716719 
3.3100000000025607, -0.9902689971379623 
3.3200000000025818, -0.990771629842928 
3.330000000002603, -0.9911269563921138 
3.340000000002624, -0.9913313431011651 
3.350000000002645, -0.9913853344884185 
3.360000000002666, -0.9912859682048288 
3.3700000000026873, -0.9910237934997739 
3.3800000000027084, -0.9905865097713252 
3.3900000000027295, -0.9899673182937176 
3.4000000000027506, -0.9891736711725451 
3.4100000000027717, -0.9882330497004137 
3.420000000002793, -0.9871950791353139 
3.430000000002814, -0.9861303760607704 
3.440000000002835, -0.9851253045389482 
3.450000000002856, -0.9842711541914605 
3.460000000002877, -0.9836488587376848 
3.4700000000028983, -0.9833144843681211 
3.4800000000029194, -0.9832911798554952 
3.4900000000029405, -0.9835687240173201 
3.5000000000029616, -0.9841076559823628 
3.5100000000029827, -0.9848456695187985 
3.520000000003004, -0.9857065098159777 
3.530000000003025, -0.9866112581637024 
3.540000000003046, -0.9874894721936132 
3.550000000003067, -0.9882869801956626 
3.5600000000030882, -0.9889687298535684 
3.5700000000031094, -0.9895166883693024 
3.5800000000031305, -0.9899235899940434 
3.5900000000031516, -0.9901844706937932 
3.6000000000031727, -0.9902895815652244 
3.6100000000031938, -0.9902226102718141 
3.620000000003215, -0.9899656877156496 
3.630000000003236, -0.9895086487078897 
3.640000000003257, -0.9888577920778108 
3.650000000003278, -0.9880409348894988 
3.6600000000032993, -0.9871088150661489 
3.6700000000033204, -0.9861339904372888 
3.6800000000033415, -0.9852064566386811 
3.6900000000033626, -0.9844235393701954 
3.7000000000033837, -0.9838738505897088 
3.710000000003405, -0.9836203572945832 
3.720000000003426, -0.9836900011625899 
3.730000000003447, -0.9840730610855797 
3.740000000003468, -0.9847292072839287 
3.750000000003489, -0.9855958898348496 
3.7600000000035103, -0.9865976920561743 
3.7700000000035314, -0.9876568221891059 
3.7800000000035525, -0.98870341150608 
3.7900000000035736, -0.9896829710559578 
3.8000000000035947, -0.9905591068725248 
3.810000000003616, -0.9913111303903571 
3.820000000003637, -0.9919274627497809 
3.830000000003658, -0.992397181668089 
3.840000000003679, -0.992703604116457 
3.8500000000037002, -0.9928237764216095 
3.8600000000037213, -0.992734891054015 
3.8700000000037424, -0.992424404752627 
3.8800000000037635, -0.9918986354931633 
3.8900000000037847, -0.9911868661017464 
3.9000000000038058, -0.990341850165827 
3.910000000003827, -0.9894386577128848 
3.920000000003848, -0.9885711547459144 
3.930000000003869, -0.9878427714229409 
3.94000000000389, -0.987349981246589 
3.9500000000039113, -0.9871630922754372 
3.9600000000039324, -0.9873132556713916 
3.9700000000039535, -0.9877910607453968 
3.9800000000039746, -0.9885541355223493 
3.9900000000039957, -0.9895377348733043 
4.000000000004016, -0.9906651923657991 
4.010000000003993, -0.9918582027385296 
4.02000000000397, -0.9930464719589143 
4.030000000003946, -0.9941747202768184 
4.040000000003923, -0.9952051157400366 
4.0500000000039, -0.9961145803167207 
4.0600000000038765, -0.9968879380718179 
4.070000000003853, -0.9975095463488782 
4.08000000000383, -0.9979575238279109 
4.090000000003807, -0.9982043610351915 
4.100000000003783, -0.9982244758204747 
4.11000000000376, -0.9980048639138782 
4.120000000003737, -0.9975533137051863 
4.130000000003713, -0.9969015605673678 
4.14000000000369, -0.9961050128095867 
4.150000000003667, -0.9952414973179695 
4.1600000000036434, -0.9944082225380748 
4.17000000000362, -0.9937129392427055 
4.180000000003597, -0.9932569221913476 
4.1900000000035735, -0.9931142716061782 
4.20000000000355, -0.9933174552633159 
4.210000000003527, -0.9938557092147601 
4.220000000003504, -0.9946838281127528 
4.23000000000348, -0.9957342629338312 
4.240000000003457, -0.9969284005324539 
4.250000000003434, -0.9981868682862707 
4.26000000000341, -0.9994388392423842 
4.270000000003387, -1.0006286741437558 
4.280000000003364, -1.0017180440721685 
4.2900000000033405, -1.0026829595219895 
4.300000000003317, -1.0035067636958732 
4.310000000003294, -1.0041719004074965 
4.320000000003271, -1.0046546526651092 
4.330000000003247, -1.00492647581862 
4.340000000003224, -1.0049620930369374 
4.350000000003201, -1.0047501450251517 
4.360000000003177, -1.0043008944224925 
4.370000000003154, -1.0036487836542998 
4.380000000003131, -1.0028518545218827 
4.390000000003107, -1.0019904257470211 
4.400000000003084, -1.00116383025637 
4.410000000003061, -1.0004809081655992 
4.4200000000030375, -1.0000421659110938 
4.430000000003014, -0.9999188828384438 
4.440000000002991, -1.000139519419043 
4.450000000002968, -1.0006894599442266 
4.460000000002944, -1.0015206316484375 
4.470000000002921, -1.0025636488600338 
4.480000000002898, -1.003738853564201 
4.490000000002874, -1.0049665156744043 
4.500000000002851, -1.0061761157205982 
4.510000000002828, -1.0073128591719795 
4.520000000002804, -1.008339568276976 
4.530000000002781, -1.009233513079732 
4.540000000002758, -1.0099793553108742 
4.5500000000027345, -1.0105610597329828 
4.560000000002711, -1.010956903376087 
4.570000000002688, -1.0111409907305868 
4.580000000002665, -1.0110911960812523 
4.590000000002641, -1.010799335878621 
4.600000000002618, -1.0102784404542844 
4.610000000002595, -1.0095652801110582 
4.620000000002571, -1.008720009186835 
4.630000000002548, -1.0078246748717574 
4.640000000002525, -1.0069788394044088 
4.6500000000025015, -1.0062883869574326 
4.660000000002478, -1.0058469635237628 
4.670000000002455, -1.0057167210514468 
4.6800000000024315, -1.0059179737396327 
4.690000000002408, -1.0064312007351153 
4.700000000002385, -1.0072064173352189 
4.710000000002362, -1.0081737076628519 
4.720000000002338, -1.0092532516343335 
4.730000000002315, -1.0103656137760129 
4.740000000002292, -1.0114414084688905 
4.750000000002268, -1.0124278509887685 
4.760000000002245, -1.0132904316707882 
4.770000000002222, -1.0140095905827897 
4.7800000000021985, -1.0145736670600651 
4.790000000002175, -1.0149708910217996 
4.800000000002152, -1.0151843891886636 
4.810000000002129, -1.0151934256390667 
4.820000000002105, -1.014980731152854 
4.830000000002082, -1.0145420091487347 
4.840000000002059, -1.013892996670338 
4.850000000002035, -1.0130723896427927 
4.860000000002012, -1.0121419041924828 
4.870000000001989, -1.0111842580967938 
4.880000000001965, -1.010296992227604 
4.890000000001942, -1.0095794134381457 
4.900000000001919, -1.0091143742865163 
4.9100000000018955, -1.008952418342362 
4.920000000001872, -1.0091054995780755 
4.930000000001849, -1.0095502874498739 
