t, s[1].omega / s[0].omega 
0, -1.0199978223350346 
0.009999999999999995, -1.0223932383962597 
0.019999999999999934, -1.0286403275970333 
0.029999999999999874, -1.0360140750142501 
0.04000000000000012, -1.0423987511113582 
0.050000000000000405, -1.0470202006646887 
0.06000000000000069, -1.0500052357886165 
0.07000000000000098, -1.0517751554891455 
0.08000000000000126, -1.052722186054832 
0.09000000000000155, -1.0531185668918903 
0.10000000000000184, -1.0531217215697004 
0.11000000000000212, -1.0527984881280754 
0.12000000000000241, -1.0521418821581514 
0.130000000000002, -1.051077079749596 
0.1400000000000009, -1.049466064532658 
0.1499999999999998, -1.0471396099744956 
0.1599999999999987, -1.0440212159617677 
0.1699999999999976, -1.040435694237954 
0.1799999999999965, -1.0375843524265402 
0.1899999999999954, -1.03772906993885 
0.1999999999999943, -1.0432118352992186 
0.2099999999999932, -1.0543862597168194 
0.2199999999999921, -1.0686608101445474 
0.229999999999991, -1.0822835591374003 
0.2399999999999899, -1.092851457473969 
0.2499999999999888, -1.0999544956867415 
0.2599999999999877, -1.1042928537711514 
0.2699999999999866, -1.1067635140055325 
0.2799999999999855, -1.1080642091274426 
0.2899999999999844, -1.1086409115729632 
0.2999999999999833, -1.108747336287025 
0.3099999999999822, -1.1085104322311734 
0.3199999999999811, -1.1079776336914464 
0.32999999999998, -1.1071542618302357 
0.3399999999999789, -1.1060556313985253 
0.3499999999999778, -1.104813988597742 
0.35999999999997667, -1.1038765963619754 
0.36999999999997557, -1.1042322588034679 
0.37999999999997447, -1.1073592593848298 
0.38999999999997337, -1.1145070898840057 
0.39999999999997227, -1.1255927022885521 
0.40999999999997117, -1.1388517713389699 
0.41999999999997006, -1.151794983492096 
0.42999999999996896, -1.1625323458422887 
0.43999999999996786, -1.1703582733197542 
0.44999999999996676, -1.175507187833387 
0.45999999999996566, -1.1786204484705318 
0.46999999999996456, -1.1803491742980872 
0.47999999999996346, -1.1811885260859074 
0.48999999999996235, -1.1814625268141543 
0.49999999999996125, -1.1813664192346445 
0.5099999999999602, -1.1810189040934318 
0.519999999999959, -1.180513937712114 
0.529999999999958, -1.1799764778329178 
0.5399999999999568, -1.1796160786702294 
0.5499999999999557, -1.1797367508886771 
0.5599999999999546, -1.1806437446673308 
0.5699999999999535, -1.182471488203685 
0.5799999999999524, -1.185084978243741 
0.5899999999999513, -1.188155257761869 
0.5999999999999502, -1.1913184078949874 
0.6099999999999491, -1.194283319711303 
0.619999999999948, -1.1968586704762845 
0.6299999999999469, -1.198939340410434 
0.6399999999999458, -1.2004875134019601 
0.6499999999999447, -1.2015182889268057 
0.6599999999999436, -1.2020857216219074 
0.6699999999999425, -1.2022659794022617 
0.6799999999999414, -1.202141269111835 
0.6899999999999403, -1.2017912909588366 
0.6999999999999392, -1.2012953699964795 
0.7099999999999381, -1.2007413585260522 
0.719999999999937, -1.2002302759118415 
0.7299999999999359, -1.199864129691828 
0.7399999999999348, -1.1997171895205716 
0.7499999999999337, -1.199810877716129 
0.7599999999999326, -1.2001116115139394 
0.7699999999999315, -1.2005481323364224 
0.7799999999999304, -1.201033388901601 
0.7899999999999293, -1.2014825967177234 
0.7999999999999282, -1.2018246398479928 
0.8099999999999271, -1.2020059909151883 
0.819999999999926, -1.2019895031480954 
0.8299999999999249, -1.2017518168349692 
0.8399999999999238, -1.2012813803472713 
0.8499999999999227, -1.2005773417836374 
0.8599999999999216, -1.1996495161620186 
0.8699999999999205, -1.1985200987327556 
0.8799999999999194, -1.1972274768145603 
0.8899999999999183, -1.1958312562875872 
0.8999999999999172, -1.1944158761613146 
0.9099999999999161, -1.1930884821207224 
0.919999999999915, -1.1919651670761502 
0.9299999999999139, -1.1911403806796614 
0.9399999999999128, -1.190646268025295 
0.9499999999999117, -1.1904303975289292 
0.9599999999999106, -1.1903769262881008 
0.9699999999999095, -1.1903543118711861 
0.9799999999999084, -1.190248397099879 
0.9899999999999073, -1.1899638532693784 
0.9999999999999062, -1.1894066147180724 
1.0099999999999052, -1.1884655098458905 
1.019999999999904, -1.1870052938141467 
1.029999999999903, -1.1848784213638022 
1.039999999999902, -1.1819572253019068 
1.0499999999999008, -1.1781790559309395 
1.0599999999998997, -1.1735916969277116 
1.0699999999998986, -1.168391708632639 
1.0799999999998975, -1.162951266352649 
1.0899999999998964, -1.1578072044173873 
1.0999999999998953, -1.1535530649064543 
1.1099999999998942, -1.1506115065621683 
1.119999999999893, -1.1490192394286283 
1.129999999999892, -1.1484388473294802 
1.1399999999998909, -1.1483977839317454 
1.1499999999998898, -1.1485162973657475 
1.1599999999998887, -1.1485725161909441 
1.1699999999998876, -1.148452806591058 
1.1799999999998865, -1.1480787486623245 
1.1899999999998854, -1.1473469315158078 
1.1999999999998843, -1.1460768470583236 
1.2099999999998832, -1.143954650754326 
1.219999999999882, -1.1404753750176824 
1.229999999999881, -1.1349255476301983 
1.2399999999998799, -1.1265124257224628 
1.2499999999998788, -1.1147740464361946 
1.2599999999998777, -1.1002324963703178 
1.2699999999998766, -1.0848120976107734 
1.2799999999998755, -1.071306262002453 
1.2899999999998744, -1.0619064509062555 
1.2999999999998733, -1.057022583155349 
1.3099999999998722, -1.0554907375410416 
1.319999999999871, -1.0557041787610815 
1.32999999999987, -1.0564755883845232 
1.3399999999998689, -1.0572058673485116 
1.3499999999998678, -1.0576860301251525 
1.3599999999998666, -1.0578789212525208 
1.3699999999998655, -1.057789058509159 
1.3799999999998644, -1.057400199144364 
1.3899999999998633, -1.0566404896524368 
1.3999999999998622, -1.0553473739428854 
1.4099999999998611, -1.053216735219936 
1.41999999999986, -1.0497350229655023 
1.429999999999859, -1.0441286605315623 
1.4399999999998578, -1.035445772856767 
1.4499999999998567, -1.0229768547233031 
1.4599999999998556, -1.0070925180949994 
1.4699999999998545, -0.9899344368441799 
1.4799999999998534, -0.9748385497335406 
1.4899999999998523, -0.9644248813947989 
1.4999999999998512, -0.959152583200553 
1.5099999999998501, -0.9576758664338968 
1.519999999999849, -0.9581822174638525 
1.529999999999848, -0.9593305427066859 
1.5399999999998468, -0.960430131281815 
1.5499999999998457, -0.9612348696516925 
1.5599999999998446, -0.9617086660986649 
1.5699999999998435, -0.9618802300173531 
1.5799999999998424, -0.9617742463557173 
1.5899999999998413, -0.9613806943320613 
1.5999999999998402, -0.9606345717767324 
1.6099999999998391, -0.9593901552871664 
1.619999999999838, -0.957381830773576 
1.629999999999837, -0.9541742834752043 
1.6399999999998358, -0.9491317076086043 
1.6499999999998347, -0.9414884786534872 
1.6599999999998336, -0.9306451494883659 
1.6699999999998325, -0.9167039962071041 
1.6799999999998314, -0.900904019441221 
1.6899999999998303, -0.8853961879444876 
1.6999999999998292, -0.8723073000980037 
1.709999999999828, -0.8628189959630692 
1.719999999999827, -0.8569333255667733 
1.729999999999826, -0.8538707172069309 
1.7399999999998248, -0.8526302965997757 
1.7499999999998237, -0.8523662917415441 
1.7599999999998226, -0.8525136836299104 
1.7699999999998215, -0.8527548980192912 
1.7799999999998204, -0.8529344768520668 
1.7899999999998193, -0.8529817998967555 
1.7999999999998182, -0.8528584986054165 
1.809999999999817, -0.8525265152753294 
1.819999999999816, -0.8519286820560563 
1.8299999999998149, -0.8509771350233558 
1.8399999999998138, -0.8495512037513997 
1.8499999999998127, -0.8475129386596851 
1.8599999999998116, -0.8447489116702835 
1.8699999999998105, -0.8412316581299237 
1.8799999999998094, -0.8370668986590019 
1.8899999999998083, -0.8324864668041725 
1.8999999999998072, -0.8277856201537995 
1.909999999999806, -0.8232479174452912 
1.919999999999805, -0.819098496182843 
1.9299999999998039, -0.8154914913711002 
1.9399999999998028, -0.8125147365659859 
1.9499999999998017, -0.8101966506009901 
1.9599999999998006, -0.8085114171349055 
1.9699999999997995, -0.8073861997503895 
1.9799999999997984, -0.8067144738221851 
1.9899999999997973, -0.8063748294407078 
1.9999999999997962, -0.8062498677468488 
2.0099999999998173, -0.8062392267839826 
2.0199999999998384, -0.8062642743947297 
2.0299999999998595, -0.8062662381297002 
2.0399999999998806, -0.8062017092668075 
2.0499999999999017, -0.8060392114561283 
2.059999999999923, -0.8057587456904614 
2.069999999999944, -0.8053536378958392 
2.079999999999965, -0.8048316221899074 
2.089999999999986, -0.8042118958734527 
2.100000000000007, -0.8035180401825315 
2.1100000000000283, -0.8027706821309148 
2.1200000000000494, -0.8019843444700449 
2.1300000000000705, -0.8011696079661673 
2.1400000000000916, -0.8003381753867004 
2.1500000000001127, -0.7995076651486331 
2.160000000000134, -0.79870445534365 
2.170000000000155, -0.7979643691470636 
2.180000000000176, -0.797331273440761 
2.190000000000197, -0.7968533843806325 
2.2000000000002182, -0.7965773342002859 
2.2100000000002393, -0.7965410984265603 
2.2200000000002604, -0.7967679169245915 
2.2300000000002815, -0.7972633461125851 
2.2400000000003026, -0.7980163157785358 
2.2500000000003237, -0.7990032769092961 
2.260000000000345, -0.8001932070113872 
2.270000000000366, -0.8015508792559791 
2.280000000000387, -0.8030363963542649 
2.290000000000408, -0.8046005582189135 
2.3000000000004293, -0.8061783950746151 
2.3100000000004504, -0.807686590108289 
2.3200000000004715, -0.8090315667004766 
2.3300000000004926, -0.810129495131854 
2.3400000000005137, -0.8109287317137049 
2.3500000000005348, -0.8114202283834618 
2.360000000000556, -0.8116302763242282 
2.370000000000577, -0.8116034417241892 
2.380000000000598, -0.8113876530149083 
2.390000000000619, -0.8110281113154189 
2.4000000000006403, -0.8105709635347381 
2.4100000000006614, -0.8100758848220151 
2.4200000000006825, -0.8096370925965545 
2.4300000000007036, -0.8094114354602926 
2.4400000000007247, -0.8096475835537358 
2.450000000000746, -0.8107020132803159 
2.460000000000767, -0.8130199919387551 
2.470000000000788, -0.8170614437038075 
2.480000000000809, -0.8231676007055453 
2.49000000000083, -0.8313912619885293 
2.5000000000008513, -0.8413464252443074 
2.5100000000008724, -0.8521695637403288 
2.5200000000008935, -0.8626921370880798 
2.5300000000009146, -0.8718211648629891 
2.5400000000009357, -0.8789218664610974 
2.550000000000957, -0.8839356248854113 
2.560000000000978, -0.887199796442597 
2.570000000000999, -0.8891767643602047 
2.58000000000102, -0.8902743116891276 
2.5900000000010412, -0.8907851451283368 
2.6000000000010624, -0.890893369289324 
2.6100000000010835, -0.8907003122054972 
2.6200000000011046, -0.890248158300176 
2.6300000000011257, -0.8895374343751742 
2.6400000000011468, -0.8885433605365813 
2.650000000001168, -0.8872430274361005 
2.660000000001189, -0.8856741389452891 
2.67000000000121, -0.8840521941701786 
2.680000000001231, -0.8829531987306394 
2.6900000000012523, -0.8834779205507122 
2.7000000000012734, -0.8871443561827027 
2.7100000000012945, -0.8952048411194717 
2.7200000000013156, -0.9075542205852889 
2.7300000000013367, -0.9222366096584482 
2.740000000001358, -0.936405247405116 
2.750000000001379, -0.947945804704337 
2.7600000000014, -0.956210963820937 
2.770000000001421, -0.9616153799443283 
2.780000000001442, -0.9649307372248263 
2.7900000000014633, -0.9668570482301595 
2.8000000000014844, -0.967893557177705 
2.8100000000015055, -0.9683535165778379 
2.8200000000015266, -0.968413425127719 
2.8300000000015477, -0.9681538505100045 
2.840000000001569, -0.9675825591264179 
2.85000000000159, -0.9666417529679319 
2.860000000001611, -0.965204915634932 
2.870000000001632, -0.9630750380565342 
2.8800000000016532, -0.9600123194715199 
2.8900000000016743, -0.9558468050647525 
2.9000000000016954, -0.9507385792257759 
2.9100000000017165, -0.9455361228138136 
2.9200000000017377, -0.9418806258159798 
2.9300000000017588, -0.9415453298577457 
2.94000000000178, -0.9451783857714767 
2.950000000001801, -0.9516751005732524 
2.960000000001822, -0.9589749587942432 
2.970000000001843, -0.9653897830619836 
2.9800000000018643, -0.9702049351566112 
2.9900000000018854, -0.9734564718048471 
3.0000000000019065, -0.9754870290415611 
3.0100000000019276, -0.9766575629360539 
3.0200000000019487, -0.9772407397589709 
3.03000000000197, -0.9774085346957087 
3.040000000001991, -0.9772476245196176 
3.050000000002012, -0.9767727447398423 
3.060000000002033, -0.975927968948669 
3.070000000002054, -0.9745730948124454 
3.0800000000020753, -0.9724562611541959 
3.0900000000020964, -0.9691839913287799 
3.1000000000021175, -0.9642275917274803 
3.1100000000021386, -0.9570545682263824 
3.1200000000021597, -0.947496983602616 
3.130000000002181, -0.9363072613812428 
3.140000000002202, -0.9254128759672602 
3.150000000002223, -0.9171969672778344 
3.160000000002244, -0.9130540634443369 
3.1700000000022652, -0.9126170663235053 
3.1800000000022863, -0.9143835229835651 
3.1900000000023074, -0.9168493666132068 
3.2000000000023285, -0.9191069839552719 
3.2100000000023496, -0.9208183032293782 
3.2200000000023707, -0.9219634887150491 
3.230000000002392, -0.9226356186763498 
3.240000000002413, -0.9229348337606573 
3.250000000002434, -0.9229278870250139 
3.260000000002455, -0.9226350231921969 
3.2700000000024763, -0.9220213242797552 
3.2800000000024974, -0.9209805693972205 
3.2900000000025185, -0.9193049656711754 
3.3000000000025396, -0.9166396172542515 
3.3100000000025607, -0.9124367890289807 
3.3200000000025818, -0.905965729932454 
3.330000000002603, -0.8964922083277072 
3.340000000002624, -0.8837248608311526 
3.350000000002645, -0.8683664524047428 
3.360000000002666, -0.8522323786771672 
3.3700000000026873, -0.8375667090770179 
3.3800000000027084, -0.8260188274240917 
3.3900000000027295, -0.8181067788509162 
3.4000000000027506, -0.8133943740595525 
3.4100000000027717, -0.8110006355265236 
3.420000000002793, -0.8100367518160437 
3.430000000002814, -0.8098225120048635 
3.440000000002835, -0.809922024262425 
3.450000000002856, -0.8100910282400042 
3.460000000002877, -0.8102055202808549 
3.4700000000028983, -0.810203525537872 
3.4800000000029194, -0.8100462153561043 
3.4900000000029405, -0.8096942448964389 
3.5000000000029616, -0.8090943594259314 
3.5100000000029827, -0.8081746977877378 
3.520000000003004, -0.8068515471548376 
3.530000000003025, -0.8050517859598034 
3.540000000003046, -0.8027484775353105 
3.550000000003067, -0.7999921178473278 
3.5600000000030882, -0.7969127383095352 
3.5700000000031094, -0.7936861457915371 
3.5800000000031305, -0.790486739160405 
3.5900000000031516, -0.7874554495416863 
3.6000000000031727, -0.7846918486712017 
3.6100000000031938, -0.7822610912820263 
3.620000000003215, -0.7802032025525449 
3.630000000003236, -0.7785381189166525 
3.640000000003257, -0.7772660996772726 
3.650000000003278, -0.7763664521052147 
3.6600000000032993, -0.7757980473300715 
3.6700000000033204, -0.7755036123703263 
3.6800000000033415, -0.7754173311468202 
3.6900000000033626, -0.7754733580112942 
3.7000000000033837, -0.7756126061962026 
3.710000000003405, -0.7757865231788583 
3.720000000003426, -0.775958283938558 
3.730000000003447, -0.7761026667554779 
3.740000000003468, -0.7762053912594842 
3.750000000003489, -0.7762614714484929 
3.7600000000035103, -0.7762715214253908 
3.7700000000035314, -0.7762361126999023 
3.7800000000035525, -0.7761506017346085 
3.7900000000035736, -0.7760038324508207 
3.8000000000035947, -0.7757820352034229 
3.810000000003616, -0.7754755750742596 
3.820000000003637, -0.7750844983941236 
3.830000000003658, -0.7746207226137175 
3.840000000003679, -0.7741079571160538 
3.8500000000037002, -0.7735818319546658 
3.8600000000037213, -0.77309163369332 
3.8700000000037424, -0.7727029972731126 
3.8800000000037635, -0.7724992975913204 
3.8900000000037847, -0.7725790737345519 
3.9000000000038058, -0.7730480072484437 
3.910000000003827, -0.7740064769082486 
3.920000000003848, -0.7755359960194411 
3.930000000003869, -0.77768788910206 
3.94000000000389, -0.7804748331349998 
3.9500000000039113, -0.783862302088052 
3.9600000000039324, -0.7877559417826274 
3.9700000000039535, -0.7919857261145354 
3.9800000000039746, -0.796299099245719 
3.9900000000039957, -0.8003856456599838 
4.000000000004016, -0.8039461919798381 
4.010000000003993, -0.806780465694103 
4.02000000000397, -0.808836005032523 
4.030000000003946, -0.8101868711965329 
4.040000000003923, -0.8109692373826854 
4.0500000000039, -0.8113217649664541 
4.0600000000038765, -0.811353951827039 
4.070000000003853, -0.8111386336343388 
4.08000000000383, -0.8107171581329992 
4.090000000003807, -0.8101102924864862 
4.100000000003783, -0.8093348541072682 
4.11000000000376, -0.8084322157847754 
4.120000000003737, -0.8075197698823777 
4.130000000003713, -0.8068767311729212 
4.14000000000369, -0.807060135221862 
4.150000000003667, -0.8089970097901164 
4.1600000000036434, -0.8139106541807808 
4.17000000000362, -0.8228867817735418 
4.180000000003597, -0.8360720294261734 
4.1900000000035735, -0.8520373955459408 
4.20000000000355, -0.8681552632124971 
4.210000000003527, -0.8819748081817146 
4.220000000003504, -0.8923394215900137 
4.23000000000348, -0.8993788187143522 
4.240000000003457, -0.9038428898730742 
4.250000000003434, -0.9065361066897634 
4.26000000000341, -0.9080803565478346 
4.270000000003387, -0.9088882432842519 
4.280000000003364, -0.90920829643208 
4.2900000000033405, -0.9091741388000341 
4.300000000003317, -0.9088374251421281 
4.310000000003294, -0.9081825259832403 
4.320000000003271, -0.9071247801769635 
4.330000000003247, -0.9054940704236234 
4.340000000003224, -0.9030074621692712 
4.350000000003201, -0.8992447609704802 
4.360000000003177, -0.8936665216101762 
4.370000000003154, -0.8857532836639915 
4.380000000003131, -0.8753502247035755 
4.390000000003107, -0.8631505450966074 
4.400000000003084, -0.8508985921960072 
4.410000000003061, -0.8407786112943334 
4.4200000000030375, -0.8342151547542468 
4.430000000003014, -0.831196274450785 
4.440000000002991, -0.8306811041133472 
4.450000000002968, -0.8314444312982598 
4.460000000002944, -0.8325987910777981 
4.470000000002921, -0.8336750759203302 
4.480000000002898, -0.834494846301982 
4.490000000002874, -0.8350265993948878 
4.500000000002851, -0.8352911445500835 
4.510000000002828, -0.8353124758714934 
4.520000000002804, -0.8350944356321864 
4.530000000002781, -0.8346073627306654 
4.540000000002758, -0.8337757491289743 
4.5500000000027345, -0.8324640832223198 
4.560000000002711, -0.8304658215506242 
4.570000000002688, -0.8275126502992618 
4.580000000002665, -0.8233329959950734 
4.590000000002641, -0.8177764851634091 
4.600000000002618, -0.8109589477837635 
4.610000000002595, -0.8033141721784245 
4.620000000002571, -0.7954799673427907 
4.630000000002548, -0.7880912443384896 
4.640000000002525, -0.7816192612391071 
4.6500000000025015, -0.7763180516559777 
4.660000000002478, -0.7722476176976366 
4.670000000002455, -0.769324975858906 
4.6800000000024315, -0.7673770852733552 
4.690000000002408, -0.7661885401967428 
4.700000000002385, -0.7655414165195816 
4.710000000002362, -0.7652435669463593 
4.720000000002338, -0.7651427142019755 
4.730000000002315, -0.7651275409813632 
4.740000000002292, -0.7651203902763235 
4.750000000002268, -0.7650670633546295 
4.760000000002245, -0.7649280543373325 
4.770000000002222, -0.7646738274474293 
4.7800000000021985, -0.7642849747102748 
4.790000000002175, -0.7637558602041603 
4.800000000002152, -0.7630978234751452 
4.810000000002129, -0.7623373439888103 
4.820000000002105, -0.7615079748029373 
4.830000000002082, -0.7606402307443549 
4.840000000002059, -0.7597554910036453 
4.850000000002035, -0.7588665751898219 
4.860000000002012, -0.757982970453569 
4.870000000001989, -0.7571168631682903 
4.880000000001965, -0.7562873808433628 
4.890000000001942, -0.7555224442756316 
4.900000000001919, -0.7548585557901768 
4.9100000000018955, -0.7543387214464377 
4.920000000001872, -0.7540085192766585 
4.930000000001849, -0.753910736127219 
