t, s[1].omega / s[0].omega 
0, -1.519896388429769 
0.009999999999999995, -1.507886643691774 
0.019999999999999934, -1.4942896586323222 
0.029999999999999874, -1.4835794978310206 
0.04000000000000012, -1.4792593005027608 
0.050000000000000405, -1.479956275773 
0.06000000000000069, -1.4821496316394571 
0.07000000000000098, -1.483906974287138 
0.08000000000000126, -1.4848763932544895 
0.09000000000000155, -1.4852172423157217 
0.10000000000000184, -1.485101509327451 
0.11000000000000212, -1.4846144400662584 
0.12000000000000241, -1.4837895090377953 
0.130000000000002, -1.4827338269309787 
0.1400000000000009, -1.481888243112916 
0.1499999999999998, -1.4822356514219552 
0.1599999999999987, -1.484782806390227 
0.1699999999999976, -1.4894051138906315 
0.1799999999999965, -1.4948134561388222 
0.1899999999999954, -1.499745641018703 
0.1999999999999943, -1.503615168413977 
0.2099999999999932, -1.5063526295882552 
0.2199999999999921, -1.5081076076698117 
0.229999999999991, -1.5090806489420323 
0.2399999999999899, -1.5094570902384334 
0.2499999999999888, -1.5093872289937535 
0.2599999999999877, -1.5089880771888555 
0.2699999999999866, -1.508358164206321 
0.2799999999999855, -1.507596398072305 
0.2899999999999844, -1.5068099927482144 
0.2999999999999833, -1.5061045545729033 
0.3099999999999822, -1.505569075398689 
0.3199999999999811, -1.505255667973911 
0.32999999999998, -1.5051423396956263 
0.3399999999999789, -1.5051210690317722 
0.3499999999999778, -1.5050446211960635 
0.35999999999997667, -1.504771649174112 
0.36999999999997557, -1.5041558907803272 
0.37999999999997447, -1.5029928511211323 
0.38999999999997337, -1.5009501261557197 
0.39999999999997227, -1.4974993826968914 
0.40999999999997117, -1.4918974661161175 
0.41999999999997006, -1.4833618701644742 
0.42999999999996896, -1.4717311759881972 
0.43999999999996786, -1.4586996231469518 
0.44999999999996676, -1.448190594043196 
0.45999999999996566, -1.4433931947132488 
0.46999999999996456, -1.443418704110491 
0.47999999999996346, -1.4452061859300855 
0.48999999999996235, -1.4468196509258158 
0.49999999999996125, -1.4477694762893054 
0.5099999999999602, -1.448132273424912 
0.519999999999959, -1.448048330642176 
0.529999999999958, -1.447588737509192 
0.5399999999999568, -1.446761511735595 
0.5499999999999557, -1.4455993245560537 
0.5599999999999546, -1.4443953432282546 
0.5699999999999535, -1.4440657331659432 
0.5799999999999524, -1.4460447818263136 
0.5899999999999513, -1.4510104088815134 
0.5999999999999502, -1.4578629633127904 
0.6099999999999491, -1.4647374461458167 
0.619999999999948, -1.4704182043758656 
0.6299999999999469, -1.4745633992220626 
0.6399999999999458, -1.4773117675092315 
0.6499999999999447, -1.4789548810018007 
0.6599999999999436, -1.479782975554167 
0.6699999999999425, -1.4800313945125985 
0.6799999999999414, -1.4798739336793685 
0.6899999999999403, -1.4794396820170508 
0.6999999999999392, -1.4788402593581238 
0.7099999999999381, -1.478190795841909 
0.719999999999937, -1.4776052465734435 
0.7299999999999359, -1.4771695126352686 
0.7399999999999348, -1.4769232651725752 
0.7499999999999337, -1.4768559950000517 
0.7599999999999326, -1.476901576414139 
0.7699999999999315, -1.476949230825288 
0.7799999999999304, -1.4768764065293463 
0.7899999999999293, -1.4765659437103316 
0.7999999999999282, -1.4758896072901369 
0.8099999999999271, -1.4746754099004433 
0.819999999999926, -1.4726793679336108 
0.8299999999999249, -1.4695775360205583 
0.8399999999999238, -1.465002717428002 
0.8499999999999227, -1.4586791335878269 
0.8599999999999216, -1.4507439371765933 
0.8699999999999205, -1.442238252864406 
0.8799999999999194, -1.4351905413639332 
0.8899999999999183, -1.4313409141760232 
0.8999999999999172, -1.4305105069041084 
0.9099999999999161, -1.4311339879033187 
0.919999999999915, -1.431936520305775 
0.9299999999999139, -1.4324256037212986 
0.9399999999999128, -1.4325263798443977 
0.9499999999999117, -1.4322552449622203 
0.9599999999999106, -1.4315872963221257 
0.9699999999999095, -1.4304251050527736 
0.9799999999999084, -1.4286548065813682 
0.9899999999999073, -1.4264301897704361 
0.9999999999999062, -1.4248714779124052 
1.0099999999999052, -1.4265516949244668 
1.019999999999904, -1.433720253726086 
1.029999999999903, -1.4451676609425796 
1.039999999999902, -1.4570761132170842 
1.0499999999999008, -1.4666315547610083 
1.0599999999998997, -1.4731577579324626 
1.0699999999998986, -1.4771565489533904 
1.0799999999998975, -1.4793846438352694 
1.0899999999998964, -1.4804693318931652 
1.0999999999998953, -1.4808370609831973 
1.1099999999998942, -1.480753693772852 
1.119999999999893, -1.480389642057754 
1.129999999999892, -1.479881837589059 
1.1399999999998909, -1.4793741489266858 
1.1499999999998898, -1.4790084127088161 
1.1599999999998887, -1.4788691426557559 
1.1699999999998876, -1.4789500068855341 
1.1799999999998865, -1.4791799991686325 
1.1899999999998854, -1.4794608850594604 
1.1999999999998843, -1.4796865847884602 
1.2099999999998832, -1.4797567933625806 
1.219999999999882, -1.4795820079803925 
1.229999999999881, -1.4790741665551999 
1.2399999999998799, -1.478132679010126 
1.2499999999998788, -1.4766373137976534 
1.2599999999998777, -1.4744527829550749 
1.2699999999998766, -1.4714496564592043 
1.2799999999998755, -1.4675583570124355 
1.2899999999998744, -1.462891062955199 
1.2999999999998733, -1.4579375969560089 
1.3099999999998722, -1.453644094514702 
1.319999999999871, -1.450958159004861 
1.32999999999987, -1.4500176005311922 
1.3399999999998689, -1.4501106385585518 
1.3499999999998678, -1.4504553087919176 
1.3599999999998666, -1.45064317241926 
1.3699999999998655, -1.4505384354913584 
1.3799999999998644, -1.450076290142946 
1.3899999999998633, -1.4491388905109206 
1.3999999999998622, -1.4474877594018827 
1.4099999999998611, -1.4447700345095593 
1.41999999999986, -1.440827554534415 
1.429999999999859, -1.4368008850320386 
1.4399999999998578, -1.4365423580489736 
1.4499999999998567, -1.4444780498458647 
1.4599999999998556, -1.4594118508152603 
1.4699999999998545, -1.4749996742118037 
1.4799999999998534, -1.4867439597864154 
1.4899999999998523, -1.4940709125629696 
1.4999999999998512, -1.4981506015940087 
1.5099999999998501, -1.500220471063204 
1.519999999999849, -1.5011229496129124 
1.529999999999848, -1.5013478569615555 
1.5399999999998468, -1.501166992422926 
1.5499999999998457, -1.5007501137201016 
1.5599999999998446, -1.5002518824446278 
1.5699999999998435, -1.4998534115663664 
1.5799999999998424, -1.4997193974819862 
1.5899999999998413, -1.4999022613375677 
1.5999999999998402, -1.500320860585903 
1.6099999999998391, -1.5008364065707223 
1.619999999999838, -1.501318069540641 
1.629999999999837, -1.5016600928308503 
1.6399999999998358, -1.5017800597984636 
1.6499999999998347, -1.5016108189211645 
1.6599999999998336, -1.5010885922130182 
1.6699999999998325, -1.500143979171566 
1.6799999999998314, -1.4987000403982853 
1.6899999999998303, -1.4966787680301938 
1.6999999999998292, -1.494022005315329 
1.709999999999828, -1.4907452585604266 
1.719999999999827, -1.4870487639794434 
1.729999999999826, -1.4834488089199658 
1.7399999999998248, -1.4807002986935474 
1.7499999999998237, -1.4792881819549155 
1.7599999999998226, -1.4789844742545797 
1.7699999999998215, -1.4791571726686503 
1.7799999999998204, -1.479319719935941 
1.7899999999998193, -1.4792523545413858 
1.7999999999998182, -1.4788546699796201 
1.809999999999817, -1.4780004996227611 
1.819999999999816, -1.4764380072575123 
1.8299999999998149, -1.4737303353705138 
1.8399999999998138, -1.4693999079225948 
1.8499999999998127, -1.4638437886603914 
1.8599999999998116, -1.4603415139721239 
1.8699999999998105, -1.4647528209915814 
1.8799999999998094, -1.4784413121633644 
1.8899999999998083, -1.4949641878900493 
1.8999999999998072, -1.5080451752588464 
1.909999999999806, -1.5162549367185376 
1.919999999999805, -1.5207784184807052 
1.9299999999998039, -1.52304730742906 
1.9399999999998028, -1.5240366543707407 
1.9499999999998017, -1.5243004870926478 
1.9599999999998006, -1.524136939807727 
1.9699999999997995, -1.5237254319062148 
1.9799999999997984, -1.5232264343441462 
1.9899999999997973, -1.5228311782909567 
1.9999999999997962, -1.5227167609166683 
2.0099999999998173, -1.5229373345599322 
2.0199999999998384, -1.5233994233798285 
2.0299999999998595, -1.5239505100972004 
2.0399999999998806, -1.5244533442070098 
2.0499999999999017, -1.524801613852229 
2.059999999999923, -1.524914377380766 
2.069999999999944, -1.5247254224368731 
2.079999999999965, -1.524169993660126 
2.089999999999986, -1.5231750941356004 
2.100000000000007, -1.5216572830015727 
2.1100000000000283, -1.5195298780963118 
2.1200000000000494, -1.5167281471402285 
2.1300000000000705, -1.5132764923720958 
2.1400000000000916, -1.509425422901637 
2.1500000000001127, -1.5057929595161643 
2.160000000000134, -1.5032040708620173 
2.170000000000155, -1.5020527880992887 
2.180000000000176, -1.5019401541440813 
2.190000000000197, -1.502176222411285 
2.2000000000002182, -1.5023173929731042 
2.2100000000002393, -1.5021873535022878 
2.2200000000002604, -1.5016962079229417 
2.2300000000002815, -1.5007016876057353 
2.2400000000003026, -1.498924936113576 
2.2500000000003237, -1.495953799910255 
2.260000000000345, -1.4916331563428193 
2.270000000000366, -1.4874604779307101 
2.280000000000387, -1.4880677099276334 
2.290000000000408, -1.4976807682854374 
2.3000000000004293, -1.513322123589948 
2.3100000000004504, -1.5280050895679402 
2.3200000000004715, -1.5382273872518746 
2.3300000000004926, -1.5442549331684414 
2.3400000000005137, -1.547460444973494 
2.3500000000005348, -1.5489941271417826 
2.360000000000556, -1.5495716579309164 
2.370000000000577, -1.5495922529161028 
2.380000000000598, -1.5492808475443696 
2.390000000000619, -1.5487979405058583 
2.4000000000006403, -1.5483100484016776 
2.4100000000006614, -1.5479895671493815 
2.4200000000006825, -1.547937164133193 
2.4300000000007036, -1.5481283071619776 
2.4400000000007247, -1.5484588711605332 
2.450000000000746, -1.5488094226321016 
2.460000000000767, -1.5490678654485013 
2.470000000000788, -1.5491348736662816 
2.480000000000809, -1.5489217291595474 
2.49000000000083, -1.5483359847433285 
2.5000000000008513, -1.547263939768175 
2.5100000000008724, -1.5455606841001943 
2.5200000000008935, -1.5430537885381965 
2.5300000000009146, -1.5395734776790149 
2.5400000000009357, -1.535048790650443 
2.550000000000957, -1.529734110215937 
2.560000000000978, -1.5245059437297899 
2.570000000000999, -1.520709424706442 
2.58000000000102, -1.5190844485299297 
2.5900000000010412, -1.5190423594298201 
2.6000000000010624, -1.5195124768675035 
2.6100000000010835, -1.5198594653356965 
2.6200000000011046, -1.519887776244714 
2.6300000000011257, -1.519552363446859 
2.6400000000011468, -1.5187846475342934 
2.650000000001168, -1.517432499902405 
2.660000000001189, -1.5153254344947493 
2.67000000000121, -1.5126957593144619 
2.680000000001231, -1.5112058887161381 
2.6900000000012523, -1.514228866166277 
2.7000000000012734, -1.5234386021769957 
2.7100000000012945, -1.5357076201364201 
2.7200000000013156, -1.5466598050616063 
2.7300000000013367, -1.55443747272387 
2.740000000001358, -1.559261673258484 
2.750000000001379, -1.561971750804195 
2.7600000000014, -1.563321829834403 
2.770000000001421, -1.5638291507897129 
2.780000000001442, -1.5638124169425824 
2.7900000000014633, -1.5634679767989796 
2.8000000000014844, -1.5629411047932653 
2.8100000000015055, -1.562373271527718 
2.8200000000015266, -1.561899889556257 
2.8300000000015477, -1.5616058339150867 
2.840000000001569, -1.5615033254641189 
2.85000000000159, -1.5615502678598914 
2.860000000001611, -1.5616623365308164 
2.870000000001632, -1.561723912266154 
2.8800000000016532, -1.5616130514960176 
2.8900000000016743, -1.5612082067853785 
2.9000000000016954, -1.5603621411658737 
2.9100000000017165, -1.5588616091499896 
2.9200000000017377, -1.5563923356362825 
2.9300000000017588, -1.5525302352981094 
2.94000000000178, -1.5468128964947503 
2.950000000001801, -1.539027448413946 
2.960000000001822, -1.5298774790690226 
2.970000000001843, -1.5215998690952268 
2.9800000000018643, -1.5168317133918037 
2.9900000000018854, -1.5158872595136916 
3.0000000000019065, -1.516803728589624 
3.0100000000019276, -1.517875040839225 
3.0200000000019487, -1.5185086728839712 
3.03000000000197, -1.5186701824343019 
3.040000000001991, -1.518424472564123 
3.050000000002012, -1.5177872201314213 
3.060000000002033, -1.51672884169639 
3.070000000002054, -1.5153175306047841 
3.0800000000020753, -1.5141115147265236 
3.0900000000020964, -1.5145679832108674 
3.1000000000021175, -1.518254967612256 
3.1100000000021386, -1.524857055146057 
3.1200000000021597, -1.5322357567144216 
3.130000000002181, -1.5385587527149198 
3.140000000002202, -1.5431903624385628 
3.150000000002223, -1.546241800086047 
3.160000000002244, -1.5480567411505575 
3.1700000000022652, -1.5489751561480931 
3.1800000000022863, -1.5492639687202998 
3.1900000000023074, -1.5491137251129012 
3.2000000000023285, -1.548660738972193 
3.2100000000023496, -1.5480184087837934 
3.2200000000023707, -1.5473011072374865 
3.230000000002392, -1.5466227675607898 
3.240000000002413, -1.5460771666711064 
3.250000000002434, -1.5457245218388318 
3.260000000002455, -1.545572516066772 
3.2700000000024763, -1.545549281145762 
3.2800000000024974, -1.545520536936262 
3.2900000000025185, -1.545340977015626 
3.3000000000025396, -1.544867741909897 
3.3100000000025607, -1.5439191551405667 
3.3200000000025818, -1.5422049049270796 
3.330000000002603, -1.539247274203128 
3.340000000002624, -1.5343262818339556 
3.350000000002645, -1.526568809518092 
3.360000000002666, -1.5154908748433669 
3.3700000000026873, -1.5023118819446097 
3.3800000000027084, -1.4909491657335305 
3.3900000000027295, -1.485407007493626 
3.4000000000027506, -1.485319593936294 
3.4100000000027717, -1.4873193729084515 
3.420000000002793, -1.4891307458352172 
3.430000000002814, -1.490189909940121 
3.440000000002835, -1.490602479595146 
3.450000000002856, -1.4905414271177944 
3.460000000002877, -1.490100443700187 
3.4700000000028983, -1.4893121971580994 
3.4800000000029194, -1.4882578186235278 
3.4900000000029405, -1.4873144710084873 
3.5000000000029616, -1.4874150510129809 
3.5100000000029827, -1.4896623811254883 
3.520000000003004, -1.494133304046738 
3.530000000003025, -1.4995984128879676 
3.540000000003046, -1.5046977595522053 
3.550000000003067, -1.5087466385394563 
3.5600000000030882, -1.5116335393895057 
3.5700000000031094, -1.513501189373144 
3.5800000000031305, -1.514555632752804 
3.5900000000031516, -1.5149899144592216 
3.6000000000031727, -1.5149609244531177 
3.6100000000031938, -1.5145899986416866 
3.620000000003215, -1.5139773295842518 
3.630000000003236, -1.5132215106703701 
3.640000000003257, -1.5124294220572427 
3.650000000003278, -1.5117079246972926 
3.6600000000032993, -1.511149183462005 
3.6700000000033204, -1.5108114328996536 
3.6800000000033415, -1.5106810513541662 
3.6900000000033626, -1.510655129685323 
3.7000000000033837, -1.5105857134131297 
3.710000000003405, -1.5103291049833065 
3.720000000003426, -1.5097391251167374 
3.730000000003447, -1.508614098311967 
3.740000000003468, -1.5066245618934702 
3.750000000003489, -1.5032391829194443 
3.7600000000035103, -1.4976943780662666 
3.7700000000035314, -1.489155366089086 
3.7800000000035525, -1.477380927624789 
3.7900000000035736, -1.4640318775439995 
3.8000000000035947, -1.4531692617269958 
3.810000000003616, -1.4482097785003103 
3.820000000003637, -1.4482889125506715 
3.830000000003658, -1.4501972614502576 
3.840000000003679, -1.4519043058715668 
3.8500000000037002, -1.4529089999815616 
3.8600000000037213, -1.4533023071770654 
3.8700000000037424, -1.4532380018101514 
3.8800000000037635, -1.4527967788705112 
3.8900000000037847, -1.4519950959927854 
3.9000000000038058, -1.4508748681088153 
3.910000000003827, -1.4497342606566774 
3.920000000003848, -1.4494650730183989 
3.930000000003869, -1.4514142697459333 
3.94000000000389, -1.4561601118050713 
3.9500000000039113, -1.4626235789617 
3.9600000000039324, -1.4690711410224835 
3.9700000000039535, -1.4743966687998538 
3.9800000000039746, -1.4782928071580417 
3.9900000000039957, -1.4808848060845072 
4.000000000004016, -1.482436001906636 
4.010000000003993, -1.4832106764800634 
4.02000000000397, -1.4834258028624154 
4.030000000003946, -1.4832441257139617 
4.040000000003923, -1.4827888152537365 
4.0500000000039, -1.4821682526604472 
4.0600000000038765, -1.4814949990235888 
4.070000000003853, -1.4808808292367601 
4.08000000000383, -1.4804122540249522 
4.090000000003807, -1.4801337921612299 
4.100000000003783, -1.480039911922225 
4.11000000000376, -1.480064534591632 
4.120000000003737, -1.4800930802487617 
4.130000000003713, -1.4799990846090607 
4.14000000000369, -1.479661492491776 
4.150000000003667, -1.478944979805277 
4.1600000000036434, -1.4776627257367647 
4.17000000000362, -1.4755428238350086 
4.180000000003597, -1.472216073345922 
4.1900000000035735, -1.467256757456741 
4.20000000000355, -1.460345915582749 
4.210000000003527, -1.4516659836244403 
4.220000000003504, -1.4424779411233124 
4.23000000000348, -1.4351206653839177 
4.240000000003457, -1.4313909317946694 
4.250000000003434, -1.4308313939901642 
4.26000000000341, -1.4316463925652354 
4.270000000003387, -1.432535880943168 
4.280000000003364, -1.4330543657842387 
4.2900000000033405, -1.4331616198330903 
4.300000000003317, -1.4328904523415207 
4.310000000003294, -1.4322257153862732 
4.320000000003271, -1.4310851204881696 
4.330000000003247, -1.4293929703268575 
4.340000000003224, -1.4273859579124477 
4.350000000003201, -1.426272562216141 
4.360000000003177, -1.4284867121977636 
4.370000000003154, -1.435764869456045 
4.380000000003131, -1.4465966539178878 
4.390000000003107, -1.45752344348545 
4.400000000003084, -1.466213652022639 
4.410000000003061, -1.4721675033289188 
4.4200000000030375, -1.4758433141415013 
4.430000000003014, -1.4779033617071151 
4.440000000002991, -1.478901867976066 
4.450000000002968, -1.4792228328698949 
4.460000000002944, -1.4791111507199604 
4.470000000002921, -1.478728265687531 
4.480000000002898, -1.4782072752861084 
4.490000000002874, -1.47768777508952 
4.500000000002851, -1.4773041644550549 
4.510000000002828, -1.4771348077110689 
4.520000000002804, -1.4771752337269022 
4.530000000002781, -1.4773618540823272 
4.540000000002758, -1.4776014906454433 
4.5500000000027345, -1.4777884304059 
4.560000000002711, -1.477820281789748 
4.570000000002688, -1.4776039100980471 
4.580000000002665, -1.4770449422864094 
4.590000000002641, -1.4760323292059723 
4.600000000002618, -1.4744304861932145 
4.610000000002595, -1.472084706137793 
4.620000000002571, -1.4688459476650473 
4.630000000002548, -1.464634878442059 
4.640000000002525, -1.4595843958801562 
4.6500000000025015, -1.4542602511177092 
4.660000000002478, -1.4497241230519706 
4.670000000002455, -1.4469800814090106 
4.6800000000024315, -1.4460963747398043 
4.690000000002408, -1.4462596785934803 
4.700000000002385, -1.4466479825825318 
4.710000000002362, -1.4468569778851146 
4.720000000002338, -1.4467626955109616 
4.730000000002315, -1.4463093063484056 
4.740000000002292, -1.4453877069035177 
4.750000000002268, -1.4437752586435701 
4.760000000002245, -1.4411562357753265 
4.770000000002222, -1.4374516466593117 
4.7800000000021985, -1.433903278632939 
4.790000000002175, -1.4342979147688988 
4.800000000002152, -1.4426443482220477 
4.810000000002129, -1.4574512368404444 
4.820000000002105, -1.4726479284198353 
4.830000000002082, -1.4840835740892941 
4.840000000002059, -1.4912592206350688 
4.850000000002035, -1.495286154694974 
4.860000000002012, -1.4973447738450287 
4.870000000001989, -1.498248837564831 
4.880000000001965, -1.4984777044708375 
4.890000000001942, -1.4983004078297886 
4.900000000001919, -1.4978858388051868 
4.9100000000018955, -1.4973864210788281 
4.920000000001872, -1.4969783673143704 
4.930000000001849, -1.4968217346075854 
4.940000000001826, -1.4969702519895807 
