t, s[1].omega / s[0].omega 
0, -0.5499977432698784 
0.009999999999999995, -0.5497877191953368 
0.019999999999999934, -0.5496010015089119 
0.029999999999999874, -0.5494178739348548 
0.04000000000000012, -0.5492143951964408 
0.050000000000000405, -0.5489705834046211 
0.06000000000000069, -0.5486752809790656 
0.07000000000000098, -0.5483268418412426 
0.08000000000000126, -0.5479314899057487 
0.09000000000000155, -0.5475019571273176 
0.10000000000000184, -0.5470582983381063 
0.11000000000000212, -0.5466319846094224 
0.12000000000000241, -0.5462741936274162 
0.130000000000002, -0.5460694824856829 
0.1400000000000009, -0.5461560652001115 
0.1499999999999998, -0.5467523512507491 
0.1599999999999987, -0.5481832869735845 
0.1699999999999976, -0.5508841605711617 
0.1799999999999965, -0.5553306373366699 
0.1899999999999954, -0.5618231524343689 
0.1999999999999943, -0.5701289991981682 
0.2099999999999932, -0.5792483343070087 
0.2199999999999921, -0.5877471542796822 
0.229999999999991, -0.5945675856462398 
0.2399999999999899, -0.5994874336742995 
0.2499999999999888, -0.6028577775784997 
0.2599999999999877, -0.605143391529934 
0.2699999999999866, -0.6067003981832403 
0.2799999999999855, -0.6077582500795723 
0.2899999999999844, -0.6084603379365932 
0.2999999999999833, -0.6088979729437879 
0.3099999999999822, -0.6091293266903269 
0.3199999999999811, -0.6091888171082642 
0.32999999999998, -0.6090915961612017 
0.3399999999999789, -0.6088356433229871 
0.3499999999999778, -0.6084031678002092 
0.35999999999997667, -0.6077634159335454 
0.36999999999997557, -0.6068798327965093 
0.37999999999997447, -0.6057241905218802 
0.38999999999997337, -0.6042962399061999 
0.39999999999997227, -0.6026396194764528 
0.40999999999997117, -0.6008406476559063 
0.41999999999997006, -0.5990058859295866 
0.42999999999996896, -0.5972314194404255 
0.43999999999996786, -0.5955823809419863 
0.44999999999996676, -0.5940901554845445 
0.45999999999996566, -0.5927617820334982 
0.46999999999996456, -0.5915924708483407 
0.47999999999996346, -0.5905755173368343 
0.48999999999996235, -0.5897081133510722 
0.49999999999996125, -0.5889938769254394 
0.5099999999999602, -0.5884434618744951 
0.519999999999959, -0.5880743073620914 
0.529999999999958, -0.5879101583808949 
0.5399999999999568, -0.5879807095086329 
0.5499999999999557, -0.5883215732522715 
0.5599999999999546, -0.5889746051146415 
0.5699999999999535, -0.5899882614708772 
0.5799999999999524, -0.5914169593766697 
0.5899999999999513, -0.5933172321646574 
0.5999999999999502, -0.5957369844994316 
0.6099999999999491, -0.5986934271895287 
0.619999999999948, -0.6021383765846987 
0.6299999999999469, -0.6059211149743715 
0.6399999999999458, -0.6097776744012072 
0.6499999999999447, -0.6133803206235113 
0.6599999999999436, -0.616442238185631 
0.6699999999999425, -0.618811820252228 
0.6799999999999414, -0.6204903100338204 
0.6899999999999403, -0.6215780992754484 
0.6999999999999392, -0.6222053208200272 
0.7099999999999381, -0.6224863182579499 
0.719999999999937, -0.6225018183056494 
0.7299999999999359, -0.6222964798665629 
0.7399999999999348, -0.6218804226336372 
0.7499999999999337, -0.6212282528394403 
0.7599999999999326, -0.620272220493434 
0.7699999999999315, -0.6188874842474463 
0.7799999999999304, -0.6168695016691071 
0.7899999999999293, -0.6139112845354016 
0.7999999999999282, -0.6096092571921561 
0.8099999999999271, -0.6035587445929745 
0.819999999999926, -0.5955931551249569 
0.8299999999999249, -0.5860762338492834 
0.8399999999999238, -0.575948698841483 
0.8499999999999227, -0.5663539875205317 
0.8599999999999216, -0.5581389196182577 
0.8699999999999205, -0.5516403425264407 
0.8799999999999194, -0.5467904387959972 
0.8899999999999183, -0.5433228760118973 
0.8999999999999172, -0.5409269792663747 
0.9099999999999161, -0.5393236019026199 
0.919999999999915, -0.538289099230358 
0.9299999999999139, -0.5376548460787081 
0.9399999999999128, -0.5372982822466608 
0.9499999999999117, -0.5371326564737918 
0.9599999999999106, -0.5370980774036289 
0.9699999999999095, -0.5371545659022752 
0.9799999999999084, -0.5372771250809651 
0.9899999999999073, -0.5374525967190291 
0.9999999999999062, -0.5376778309796705 
1.0099999999999052, -0.5379582707921624 
1.019999999999904, -0.5383055444640787 
1.029999999999903, -0.5387325539399426 
1.039999999999902, -0.5392454862582355 
1.0499999999999008, -0.5398343692685299 
1.0599999999998997, -0.5404664683108973 
1.0699999999998986, -0.5410879524071034 
1.0799999999998975, -0.5416361489305501 
1.0899999999998964, -0.5420574126317124 
1.0999999999998953, -0.5423203958535093 
1.1099999999998942, -0.5424178804508752 
1.119999999999893, -0.5423590303666899 
1.129999999999892, -0.5421587841359921 
1.1399999999998909, -0.5418294544194093 
1.1499999999998898, -0.5413757682400118 
1.1599999999998887, -0.5407922341558342 
1.1699999999998876, -0.5400610932894943 
1.1799999999998865, -0.5391489143491344 
1.1899999999998854, -0.537998856072626 
1.1999999999998843, -0.5365127392246872 
1.2099999999998832, -0.5345128252950533 
1.219999999999882, -0.5316762165886012 
1.229999999999881, -0.5274758069785577 
1.2399999999998799, -0.5212745893973078 
1.2499999999998788, -0.512772936018867 
1.2599999999998777, -0.5026058920595416 
1.2699999999998766, -0.49229537250736727 
1.2799999999998755, -0.4833501097748135 
1.2899999999998744, -0.4765004361372188 
1.2999999999998733, -0.47170378623401427 
1.3099999999998722, -0.46854274805488594 
1.319999999999871, -0.46654632380956995 
1.32999999999987, -0.46532802061567347 
1.3399999999998689, -0.46461063531060043 
1.3499999999998678, -0.46420838579329315 
1.3599999999998666, -0.46400131551268753 
1.3699999999998655, -0.4639137755856567 
1.3799999999998644, -0.463899119092417 
1.3899999999998633, -0.4639297852287692 
1.3999999999998622, -0.46399147660956935 
1.4099999999998611, -0.46408027610975566 
1.41999999999986, -0.46420157862138434 
1.429999999999859, -0.4643694241141728 
1.4399999999998578, -0.464604438868891 
1.4499999999998567, -0.4649287225918255 
1.4599999999998556, -0.46535720544195824 
1.4699999999998545, -0.4658872042396568 
1.4799999999998534, -0.4664904643811913 
1.4899999999998523, -0.4671133950682462 
1.4999999999998512, -0.4676887898033688 
1.5099999999998501, -0.46815499583096304 
1.519999999999849, -0.4684718614264404 
1.529999999999848, -0.4686249039409785 
1.5399999999998468, -0.46861829099371055 
1.5499999999998457, -0.46846341826497745 
1.5599999999998446, -0.4681687985802938 
1.5699999999998435, -0.4677327621214011 
1.5799999999998424, -0.46713741283857424 
1.5899999999998413, -0.4663409765813332 
1.5999999999998402, -0.46526490083246835 
1.6099999999998391, -0.4637711469770176 
1.619999999999838, -0.4616257809150013 
1.629999999999837, -0.45845520121239086 
1.6399999999998358, -0.45373908413845987 
1.6499999999998347, -0.44695266143954704 
1.6599999999998336, -0.4379577969450367 
1.6699999999998325, -0.4274258177679008 
1.6799999999998314, -0.4167248428381446 
1.6899999999998303, -0.407188870629286 
1.6999999999998292, -0.3995117879921414 
1.709999999999828, -0.3937358893867934 
1.719999999999827, -0.3895599810880571 
1.729999999999826, -0.3866046534432658 
1.7399999999998248, -0.38453816243308997 
1.7499999999998237, -0.3831089928150494 
1.7599999999998226, -0.38213938964393646 
1.7699999999998215, -0.3815089865759936 
1.7799999999998204, -0.3811395802532305 
1.7899999999998193, -0.3809838964397674 
1.7999999999998182, -0.38101834665551354 
1.809999999999817, -0.3812390868852772 
1.819999999999816, -0.3816606612531353 
1.8299999999998149, -0.382316498332428 
1.8399999999998138, -0.38326017628782116 
1.8499999999998127, -0.3845653705068015 
1.8599999999998116, -0.38632043512719494 
1.8699999999998105, -0.3886108100636342 
1.8799999999998094, -0.3914812777747376 
1.8899999999998083, -0.39487803492704737 
1.8999999999998072, -0.39859688301546264 
1.909999999999806, -0.40229494212305006 
1.919999999999805, -0.40560129499161357 
1.9299999999998039, -0.408264228469283 
1.9399999999998028, -0.4102186415171444 
1.9499999999998017, -0.4115419607789139 
1.9599999999998006, -0.41236770393691735 
1.9699999999997995, -0.41282273105106393 
1.9799999999997984, -0.41300147585759983 
1.9899999999997973, -0.4129624981810351 
1.9999999999997962, -0.4127326559502039 
2.0099999999998173, -0.4123117108946853 
2.0199999999998384, -0.41167591116694363 
2.0299999999998595, -0.4107826821525202 
2.0399999999998806, -0.4095811704328959 
2.0499999999999017, -0.40803384175253354 
2.059999999999923, -0.4061481562202231 
2.069999999999944, -0.40400266081657554 
2.079999999999965, -0.40174215126301516 
2.089999999999986, -0.39953410708055187 
2.100000000000007, -0.3975136014034027 
2.1100000000000283, -0.39575269957761666 
2.1200000000000494, -0.3942637012350749 
2.1300000000000705, -0.39302074541716164 
2.1400000000000916, -0.39198239251752115 
2.1500000000001127, -0.3911073038687368 
2.160000000000134, -0.3903625735488409 
2.170000000000155, -0.3897270737214527 
2.180000000000176, -0.38919246294385706 
2.190000000000197, -0.38876397665817264 
2.2000000000002182, -0.38846252788194774 
2.2100000000002393, -0.3883293157582608 
2.2200000000002604, -0.3884341539423945 
2.2300000000002815, -0.38888894150519243 
2.2400000000003026, -0.38986755787697186 
2.2500000000003237, -0.39163138918126217 
2.260000000000345, -0.39455160430654324 
2.270000000000366, -0.3990971002969435 
2.280000000000387, -0.4057149989563177 
2.290000000000408, -0.41450624129614333 
2.3000000000004293, -0.424751433949183 
2.3100000000004504, -0.43479337905906484 
2.3200000000004715, -0.44286658292776293 
2.3300000000004926, -0.4482536391925341 
2.3400000000005137, -0.4514079572573462 
2.3500000000005348, -0.4531759522570784 
2.360000000000556, -0.45420869565017963 
2.370000000000577, -0.45486314455022114 
2.380000000000598, -0.4553050586205156 
2.390000000000619, -0.455607456611055 
2.4000000000006403, -0.4558037662047833 
2.4100000000006614, -0.4559105216853946 
2.4200000000006825, -0.45593587624123766 
2.4300000000007036, -0.4558827289322857 
2.4400000000007247, -0.45575044283347255 
2.450000000000746, -0.4555370079503539 
2.460000000000767, -0.45524254001024245 
2.470000000000788, -0.4548740054803241 
2.480000000000809, -0.4544495077473162 
2.49000000000083, -0.45399908999423333 
2.5000000000008513, -0.45355965190876885 
2.5100000000008724, -0.4531649426239988 
2.5200000000008935, -0.4528351598222747 
2.5300000000009146, -0.45257115565559236 
2.5400000000009357, -0.4523556157346998 
2.550000000000957, -0.45216020153000136 
2.560000000000978, -0.4519551298818804 
2.570000000000999, -0.4517169135605368 
2.58000000000102, -0.4514316307304713 
2.5900000000010412, -0.45109403613408655 
2.6000000000010624, -0.4507047598728179 
2.6100000000010835, -0.4502678179421645 
2.6200000000011046, -0.44978962746237966 
2.6300000000011257, -0.4492798187901294 
2.6400000000011468, -0.4487535932557953 
2.650000000001168, -0.44823453994603774 
2.660000000001189, -0.4477542166975246 
2.67000000000121, -0.4473377817033066 
2.680000000001231, -0.4469512388790694 
2.6900000000012523, -0.44637571295784406 
2.7000000000012734, -0.4450256128310045 
2.7100000000012945, -0.4419384558602024 
2.7200000000013156, -0.43634557940850727 
2.7300000000013367, -0.4286094342462735 
2.740000000001358, -0.42027622720963526 
2.750000000001379, -0.41293923480778777 
2.7600000000014, -0.4073450465267096 
2.770000000001421, -0.4034589886418787 
2.780000000001442, -0.4009090675062156 
2.7900000000014633, -0.3992943721516654 
2.8000000000014844, -0.3982986297984809 
2.8100000000015055, -0.39770204337993764 
2.8200000000015266, -0.39736103773985926 
2.8300000000015477, -0.3971851346232198 
2.840000000001569, -0.3971191380291855 
2.85000000000159, -0.39713128031806927 
2.860000000001611, -0.3972061068836573 
2.870000000001632, -0.3973407646429386 
2.8800000000016532, -0.3975435075809148 
2.8900000000016743, -0.397833146955776 
2.9000000000016954, -0.39823782091824095 
2.9100000000017165, -0.39879112160651864 
2.9200000000017377, -0.39952376015765506 
2.9300000000017588, -0.4004501112546423 
2.94000000000178, -0.4015519396111757 
2.950000000001801, -0.40276673948863595 
2.960000000001822, -0.4039920593518015 
2.970000000001843, -0.4051115333373942 
2.9800000000018643, -0.406031171121918 
2.9900000000018854, -0.4067029546362561 
3.0000000000019065, -0.40712348007419286 
3.0100000000019276, -0.40731557955518927 
3.0200000000019487, -0.40730789531455763 
3.03000000000197, -0.4071204879310185 
3.040000000001991, -0.4067563345349984 
3.050000000002012, -0.4061951937147096 
3.060000000002033, -0.40538653097682575 
3.070000000002054, -0.40424008865025807 
3.0800000000020753, -0.40261678105053245 
3.0900000000020964, -0.40033144575584795 
3.1000000000021175, -0.39719206257080064 
3.1100000000021386, -0.3930997327676297 
3.1200000000021597, -0.38818163390115284 
3.130000000002181, -0.3828385980491037 
3.140000000002202, -0.3776076346620235 
3.150000000002223, -0.37293075319480107 
3.160000000002244, -0.36902329735220496 
3.1700000000022652, -0.3658973476125499 
3.1800000000022863, -0.36345393813619087 
3.1900000000023074, -0.3615618773710579 
3.2000000000023285, -0.36010026856357247 
3.2100000000023496, -0.3589740472646995 
3.2200000000023707, -0.3581160496360962 
3.230000000002392, -0.3574843783583873 
3.240000000002413, -0.35705941145969355 
3.250000000002434, -0.3568423484746698 
3.260000000002455, -0.3568561607559659 
3.2700000000024763, -0.35714955457527425 
3.2800000000024974, -0.35780461829975846 
3.2900000000025185, -0.3589487841749187 
3.3000000000025396, -0.3607708028738518 
3.3100000000025607, -0.36353674087667026 
3.3200000000025818, -0.3675917028056376 
3.330000000002603, -0.373311408421941 
3.340000000002624, -0.38094268050220764 
3.350000000002645, -0.3903019604945324 
3.360000000002666, -0.4004974392165469 
3.3700000000026873, -0.410095634014738 
3.3800000000027084, -0.41786264298935194 
3.3900000000027295, -0.42339103060273364 
3.4000000000027506, -0.4270013117203524 
3.4100000000027717, -0.429259115096715 
3.420000000002793, -0.43064961848898875 
3.430000000002814, -0.43149776356800507 
3.440000000002835, -0.43199918378594687 
3.450000000002856, -0.432266496735443 
3.460000000002877, -0.432362511789687 
3.4700000000028983, -0.4323198555466566 
3.4800000000029194, -0.4321521131660037 
3.4900000000029405, -0.431860961856177 
3.5000000000029616, -0.4314425246414012 
3.5100000000029827, -0.4308949713781812 
3.520000000003004, -0.43022743462453344 
3.530000000003025, -0.429467258521181 
3.540000000003046, -0.42866042266610577 
3.550000000003067, -0.4278622355209224 
3.5600000000030882, -0.4271219660321403 
3.5700000000031094, -0.42646968923237577 
3.5800000000031305, -0.4259114456974221 
3.5900000000031516, -0.42543303853875425 
3.6000000000031727, -0.4250088935368992 
3.6100000000031938, -0.4246116146207437 
3.620000000003215, -0.42421892240904596 
3.630000000003236, -0.4238166934635017 
3.640000000003257, -0.4233989146446013 
3.650000000003278, -0.4229664490951869 
3.6600000000032993, -0.4225263724075664 
3.6700000000033204, -0.42209298885938384 
3.6800000000033415, -0.4216911388094844 
3.6900000000033626, -0.4213620865861367 
3.7000000000033837, -0.4211714279617385 
3.710000000003405, -0.4212152744217355 
3.720000000003426, -0.42161171272478404 
3.730000000003447, -0.4224446920095131 
3.740000000003468, -0.42360678158341336 
3.750000000003489, -0.4245384923386063 
3.7600000000035103, -0.4241257766013808 
3.7700000000035314, -0.4212878911551057 
3.7800000000035525, -0.41608036382817126 
3.7900000000035736, -0.40987215796971216 
3.8000000000035947, -0.40419971198142945 
3.810000000003616, -0.3998345123824609 
3.820000000003637, -0.39681586518510975 
3.830000000003658, -0.3948600340321399 
3.840000000003679, -0.39364453658810283 
3.8500000000037002, -0.39291318761151783 
3.8600000000037213, -0.39248875761528756 
3.8700000000037424, -0.3922566013794632 
3.8800000000037635, -0.39214545629939546 
3.8900000000037847, -0.39211270979106394 
3.9000000000038058, -0.3921347693732641 
3.910000000003827, -0.3922015225272664 
3.920000000003848, -0.3923137379219405 
3.930000000003869, -0.39248229393358275 
3.94000000000389, -0.39272791046146516 
3.9500000000039113, -0.39307967224679563 
3.9600000000039324, -0.39357045514027705 
3.9700000000039535, -0.3942278625690736 
3.9800000000039746, -0.39506083305120165 
3.9900000000039957, -0.39604519624555923 
4.000000000004016, -0.3971159234683956 
4.010000000003993, -0.39817566030167806 
4.02000000000397, -0.3991213711224114 
4.030000000003946, -0.39987558135417517 
4.040000000003923, -0.4004027547870021 
4.0500000000039, -0.40070409114733135 
4.0600000000038765, -0.4008000704041798 
4.070000000003853, -0.4007130200481443 
4.08000000000383, -0.40045506626432265 
4.090000000003807, -0.4000204147607135 
4.100000000003783, -0.3993786508251479 
4.11000000000376, -0.3984662150264934 
4.120000000003737, -0.3971753169570242 
4.130000000003713, -0.39534472253526454 
4.14000000000369, -0.39276806581061463 
4.150000000003667, -0.3892496024598585 
4.1600000000036434, -0.38472809308334344 
4.17000000000362, -0.37941466490791786 
4.180000000003597, -0.37379880349147987 
4.1900000000035735, -0.3684525002515818 
4.20000000000355, -0.36378812998297905 
4.210000000003527, -0.35996461163556215 
4.220000000003504, -0.35694708559728544 
4.23000000000348, -0.35461016632766496 
4.240000000003457, -0.35281227039431257 
4.250000000003434, -0.35143092762824646 
4.26000000000341, -0.35037333207070914 
4.270000000003387, -0.3495758862631554 
4.280000000003364, -0.3490006173560661 
4.2900000000033405, -0.3486320838514786 
4.300000000003317, -0.3484762796655258 
4.310000000003294, -0.3485622627533862 
4.320000000003271, -0.34894712406451067 
4.330000000003247, -0.3497250297684035 
4.340000000003224, -0.35104092797064373 
4.350000000003201, -0.3531080767875731 
4.360000000003177, -0.35622335265698235 
4.370000000003154, -0.36076053755799237 
4.380000000003131, -0.3670954761577483 
4.390000000003107, -0.375395986999865 
4.400000000003084, -0.38527953153617517 
4.410000000003061, -0.3956061418653162 
4.4200000000030375, -0.4048577214016248 
4.430000000003014, -0.41198813394021017 
4.440000000002991, -0.41686823669846734 
4.450000000002968, -0.41997517157729514 
4.460000000002944, -0.42189334390038863 
4.470000000002921, -0.4230685058762167 
4.480000000002898, -0.4237822804081356 
4.490000000002874, -0.42419910651276255 
4.500000000002851, -0.4244120180007391 
4.510000000002828, -0.42447210448404665 
4.520000000002804, -0.4244051909469758 
4.530000000002781, -0.4242213371671325 
4.540000000002758, -0.4239213416345759 
4.5500000000027345, -0.42350305767124885 
4.560000000002711, -0.4229689389902779 
4.570000000002688, -0.4223340317587997 
4.580000000002665, -0.42163085728143174 
4.590000000002641, -0.42090673480862284 
4.600000000002618, -0.420212681578108 
4.610000000002595, -0.41958902299538614 
4.620000000002571, -0.41905518614762877 
4.630000000002548, -0.4186077627517526 
4.640000000002525, -0.4182259955091524 
4.6500000000025015, -0.417881092801003 
4.660000000002478, -0.4175453034177107 
4.670000000002455, -0.41719774853735647 
4.6800000000024315, -0.416826165144458 
4.690000000002408, -0.41642579628211873 
4.700000000002385, -0.4159974592576979 
4.710000000002362, -0.4155463733677208 
4.720000000002338, -0.4150825095462071 
4.730000000002315, -0.41462258851195627 
4.740000000002292, -0.4141931679001454 
4.750000000002268, -0.4138324429818005 
4.760000000002245, -0.4135831431177097 
4.770000000002222, -0.41345676435587597 
4.7800000000021985, -0.4133319223262443 
4.790000000002175, -0.41276196354429456 
4.800000000002152, -0.41081816408303135 
4.810000000002129, -0.406400090618041 
4.820000000002105, -0.39924432008497734 
4.830000000002082, -0.39058545001633116 
4.840000000002059, -0.3823075811128757 
4.850000000002035, -0.37563546618145305 
4.860000000002012, -0.370819948116576 
4.870000000001989, -0.36756386449144945 
