t, s[1].omega / s[0].omega 
0, -1.1599978565738163 
0.009999999999999995, -1.1596478908306538 
0.019999999999999934, -1.1590320328132886 
0.029999999999999874, -1.1581674594939566 
0.04000000000000012, -1.157104401012039 
0.050000000000000405, -1.1559369541292883 
0.06000000000000069, -1.1547954810579604 
0.07000000000000098, -1.1538277276058944 
0.08000000000000126, -1.1531728466734974 
0.09000000000000155, -1.152889560909797 
0.10000000000000184, -1.1528756082308667 
0.11000000000000212, -1.1529116714258612 
0.12000000000000241, -1.1527761658403426 
0.130000000000002, -1.1522824388408788 
0.1400000000000009, -1.151262032131925 
0.1499999999999998, -1.1495820696391201 
0.1599999999999987, -1.1471952377499615 
0.1699999999999976, -1.144149795486613 
0.1799999999999965, -1.1405464508495924 
0.1899999999999954, -1.1365202526368157 
0.1999999999999943, -1.132305414711398 
0.2099999999999932, -1.1283519023164523 
0.2199999999999921, -1.1253080462113554 
0.229999999999991, -1.1236185702309738 
0.2399999999999899, -1.1230763269280402 
0.2499999999999888, -1.1230515537767922 
0.2599999999999877, -1.1230198963367732 
0.2699999999999866, -1.1226699904461515 
0.2799999999999855, -1.1217088668140631 
0.2899999999999844, -1.1196445470239564 
0.2999999999999833, -1.1156551963292507 
0.3099999999999822, -1.1087253370366883 
0.3199999999999811, -1.0981938687195962 
0.32999999999998, -1.0843236902045947 
0.3399999999999789, -1.0683836085990648 
0.3499999999999778, -1.052509345651403 
0.35999999999997667, -1.0394318168005112 
0.36999999999997557, -1.0312550704196088 
0.37999999999997447, -1.0278222334817 
0.38999999999997337, -1.0271392093247953 
0.39999999999997227, -1.0273485499698294 
0.40999999999997117, -1.027548389253208 
0.41999999999997006, -1.0274219119594192 
0.42999999999996896, -1.0267682048816071 
0.43999999999996786, -1.0252029003692504 
0.44999999999996676, -1.0218976940422413 
0.45999999999996566, -1.0153779529633933 
0.46999999999996456, -1.0038494720477953 
0.47999999999996346, -0.986556833416102 
0.48999999999996235, -0.9650741935866951 
0.49999999999996125, -0.942733786010592 
0.5099999999999602, -0.9230135770580946 
0.519999999999959, -0.908386575564206 
0.529999999999958, -0.8995981352641599 
0.5399999999999568, -0.8955639781511631 
0.5499999999999557, -0.8943204754496469 
0.5599999999999546, -0.8942222249896409 
0.5699999999999535, -0.8943663985977575 
0.5799999999999524, -0.8943710118195469 
0.5899999999999513, -0.8940555814447436 
0.5999999999999502, -0.8932389348676897 
0.6099999999999491, -0.8916477749376609 
0.619999999999948, -0.8889490039799178 
0.6299999999999469, -0.8849559390720424 
0.6399999999999458, -0.8798728945383273 
0.6499999999999447, -0.8742429808962194 
0.6599999999999436, -0.8686248239808265 
0.6699999999999425, -0.8633936170283332 
0.6799999999999414, -0.8587750775053314 
0.6899999999999403, -0.8549385732246209 
0.6999999999999392, -0.8520235704960571 
0.7099999999999381, -0.8500863420631977 
0.719999999999937, -0.8490311299980722 
0.7299999999999359, -0.8486159579466706 
0.7399999999999348, -0.8485469634631511 
0.7499999999999337, -0.8485752047772637 
0.7599999999999326, -0.8485281659043515 
0.7699999999999315, -0.8482944255868013 
0.7799999999999304, -0.8478118375091798 
0.7899999999999293, -0.8470780890237 
0.7999999999999282, -0.8461546889389181 
0.8099999999999271, -0.8451313990355563 
0.819999999999926, -0.8440748417916806 
0.8299999999999249, -0.8430114058789319 
0.8399999999999238, -0.841950797961484 
0.8499999999999227, -0.8409189463767129 
0.8599999999999216, -0.8399744826874229 
0.8699999999999205, -0.8392027568925088 
0.8799999999999194, -0.838692184030648 
0.8899999999999183, -0.8385042371142153 
0.8999999999999172, -0.8386522908373488 
0.9099999999999161, -0.8390988664928035 
0.919999999999915, -0.8397711762442028 
0.9299999999999139, -0.8405879433813426 
0.9399999999999128, -0.841485099032988 
0.9499999999999117, -0.8424268741903049 
0.9599999999999106, -0.8433935164062908 
0.9699999999999095, -0.8443483293601755 
0.9799999999999084, -0.8452085014659528 
0.9899999999999073, -0.845858236176347 
0.9999999999999062, -0.8462086042703393 
1.0099999999999052, -0.8462463625335978 
1.019999999999904, -0.8460286800930584 
1.029999999999903, -0.8456587643499944 
1.039999999999902, -0.8452920324001845 
1.0499999999999008, -0.8451729724802315 
1.0599999999998997, -0.84565182168339 
1.0699999999998986, -0.8471158826342908 
1.0799999999998975, -0.8498446305081523 
1.0899999999998964, -0.8539081386679341 
1.0999999999998953, -0.859193172616089 
1.1099999999998942, -0.8654842803093776 
1.119999999999893, -0.8724698744153978 
1.129999999999892, -0.8796366478542903 
1.1399999999998909, -0.8861996428706705 
1.1499999999998898, -0.8913457305966729 
1.1599999999998887, -0.8947195146361917 
1.1699999999998876, -0.8965579857071432 
1.1799999999998865, -0.8973417805888231 
1.1899999999998854, -0.8974672104911531 
1.1999999999998843, -0.8971701796854996 
1.2099999999998832, -0.8966030666927076 
1.219999999999882, -0.8960122772518618 
1.229999999999881, -0.8960880808745626 
1.2399999999998799, -0.8984891504064793 
1.2499999999998788, -0.9060307119705678 
1.2599999999998777, -0.921547575791408 
1.2699999999998766, -0.9456207700921104 
1.2799999999998755, -0.9752668675650634 
1.2899999999998744, -1.0048673898958946 
1.2999999999998733, -1.0287824134707424 
1.3099999999998722, -1.044371327247578 
1.319999999999871, -1.0527767304850455 
1.32999999999987, -1.0567053615689594 
1.3399999999998689, -1.058311547231771 
1.3499999999998678, -1.0587667224944912 
1.3599999999998666, -1.0585966077980598 
1.3699999999998655, -1.0580372414896837 
1.3799999999998644, -1.0573550074283686 
1.3899999999998633, -1.0573117161990118 
1.3999999999998622, -1.0596235896830297 
1.4099999999998611, -1.066315252705733 
1.41999999999986, -1.0776859751860004 
1.429999999999859, -1.0917187584706842 
1.4399999999998578, -1.105809432855826 
1.4499999999998567, -1.1180579827791834 
1.4599999999998556, -1.127396707927545 
1.4699999999998545, -1.133559055036866 
1.4799999999998534, -1.137033508776414 
1.4899999999998523, -1.13867325965458 
1.4999999999998512, -1.139226712936769 
1.5099999999998501, -1.1391700548865742 
1.519999999999849, -1.1387992572058652 
1.529999999999848, -1.1384212145762649 
1.5399999999998468, -1.1385093037290719 
1.5499999999998457, -1.139569093553186 
1.5599999999998446, -1.1417012258318147 
1.5699999999998435, -1.1445013214094375 
1.5799999999998424, -1.1474587424607037 
1.5899999999998413, -1.1502390778958496 
1.5999999999998402, -1.1526742611982106 
1.6099999999998391, -1.1546717585787336 
1.619999999999838, -1.1561608381249557 
1.629999999999837, -1.1570967846093683 
1.6399999999998358, -1.1574958614090003 
1.6499999999998347, -1.1574449443426609 
1.6599999999998336, -1.1570769572895965 
1.6699999999998325, -1.1565575177060952 
1.6799999999998314, -1.1560853966338898 
1.6899999999998303, -1.1558444806820267 
1.6999999999998292, -1.1559141783960645 
1.709999999999828, -1.1562530982306163 
1.719999999999827, -1.156755489435341 
1.729999999999826, -1.1572883656102642 
1.7399999999998248, -1.1577175727449769 
1.7499999999998237, -1.1579399135540602 
1.7599999999998226, -1.1578978751093172 
1.7699999999998215, -1.157573639202261 
1.7799999999998204, -1.1569718198277772 
1.7899999999998193, -1.1561039721799173 
1.7999999999998182, -1.1549902121217308 
1.809999999999817, -1.1536766760651707 
1.819999999999816, -1.152251833262877 
1.8299999999998149, -1.150850055803067 
1.8399999999998138, -1.1496461635874131 
1.8499999999998127, -1.148820594459206 
1.8599999999998116, -1.1484455060879364 
1.8699999999998105, -1.1483869882056925 
1.8799999999998094, -1.148386256098022 
1.8899999999998083, -1.1481988557862148 
1.8999999999998072, -1.147616829400578 
1.909999999999806, -1.1464304810554382 
1.919999999999805, -1.1444435060718432 
1.9299999999998039, -1.1415520093607372 
1.9399999999998028, -1.1377911877590845 
1.9499999999998017, -1.1332942530399153 
1.9599999999998006, -1.1282554710846278 
1.9699999999997995, -1.1230017442347289 
1.9799999999997984, -1.1181358645594779 
1.9899999999997973, -1.1144805075326938 
1.9999999999997962, -1.1125287454907653 
2.0099999999998173, -1.11194316415745 
2.0199999999998384, -1.1119436144764168 
2.0299999999998595, -1.1119417082972973 
2.0399999999998806, -1.111618831220113 
2.0499999999999017, -1.1106871683034072 
2.059999999999923, -1.1086408097225389 
2.069999999999944, -1.1045697902396254 
2.079999999999965, -1.0972231791388514 
2.089999999999986, -1.0856143408125474 
2.100000000000007, -1.0698759575870789 
2.1100000000000283, -1.0515306051901594 
2.1200000000000494, -1.0331950150019802 
2.1300000000000705, -1.0180417314500818 
2.1400000000000916, -1.0084196224196023 
2.1500000000001127, -1.0041920280844787 
2.160000000000134, -1.0031989861691684 
2.170000000000155, -1.0033538108497337 
2.180000000000176, -1.003599012279612 
2.190000000000197, -1.0035627102032498 
2.2000000000002182, -1.0030601202389449 
2.2100000000002393, -1.0017885877634813 
2.2200000000002604, -0.9991011532105273 
2.2300000000002815, -0.993835583198486 
2.2400000000003026, -0.9845339378147595 
2.2500000000003237, -0.9704760392108448 
2.260000000000345, -0.9527557476595432 
2.270000000000366, -0.9338915815223413 
2.280000000000387, -0.916545897295915 
2.290000000000408, -0.902750674580737 
2.3000000000004293, -0.8935211240080576 
2.3100000000004504, -0.8885760339872888 
2.3200000000004715, -0.8866153188209981 
2.3300000000004926, -0.8861674199821032 
2.3400000000005137, -0.8862221969142247 
2.3500000000005348, -0.886275985991201 
2.360000000000556, -0.886099115233531 
2.370000000000577, -0.8855285961594682 
2.380000000000598, -0.8843588313257826 
2.390000000000619, -0.8823403140883553 
2.4000000000006403, -0.8793132497931043 
2.4100000000006614, -0.8753939438443049 
2.4200000000006825, -0.8709715598178769 
2.4300000000007036, -0.8664789794595367 
2.4400000000007247, -0.8622163726884662 
2.450000000000746, -0.8583575765216443 
2.460000000000767, -0.8550282334411777 
2.470000000000788, -0.852348275933691 
2.480000000000809, -0.8504111363516451 
2.49000000000083, -0.8492234250772093 
2.5000000000008513, -0.8486649117989897 
2.5100000000008724, -0.8485203969791975 
2.5200000000008935, -0.8485609184345506 
2.5300000000009146, -0.8486041328212921 
2.5400000000009357, -0.8485267502221763 
2.550000000000957, -0.8482577601665086 
2.560000000000978, -0.8477806424616775 
2.570000000000999, -0.8471346109117371 
2.58000000000102, -0.8463879559175685 
2.5900000000010412, -0.8455935170199994 
2.6000000000010624, -0.8447681875473783 
2.6100000000010835, -0.8439111565645105 
2.6200000000011046, -0.8430367269595554 
2.6300000000011257, -0.8421948729898532 
2.6400000000011468, -0.8414712224783067 
2.650000000001168, -0.8409681982081901 
2.660000000001189, -0.8407732056815834 
2.67000000000121, -0.8409289909427599 
2.680000000001231, -0.841422686333597 
2.6900000000012523, -0.8421969225656126 
2.7000000000012734, -0.8431748227418119 
2.7100000000012945, -0.8442869993823449 
2.7200000000013156, -0.8454872675667637 
2.7300000000013367, -0.8467455031289016 
2.740000000001358, -0.8480159413414229 
2.750000000001379, -0.8492021773000296 
2.7600000000014, -0.8501631458342052 
2.770000000001421, -0.8507790534899804 
2.780000000001442, -0.8510174931217496 
2.7900000000014633, -0.8509326261839001 
2.8000000000014844, -0.8506262629225632 
2.8100000000015055, -0.8502392349957446 
2.8200000000015266, -0.8499927748845497 
2.8300000000015477, -0.8502418087374017 
2.840000000001569, -0.8514579878753514 
2.85000000000159, -0.854084644449972 
2.860000000001611, -0.8583497265120219 
2.870000000001632, -0.8642058893126546 
2.8800000000016532, -0.87140960000751 
2.8900000000016743, -0.8795763822499195 
2.9000000000016954, -0.8881000770201398 
2.9100000000017165, -0.8960564487571099 
2.9200000000017377, -0.9024313178309022 
2.9300000000017588, -0.906703319738373 
2.94000000000178, -0.9090954448231565 
2.950000000001801, -0.9101887305917231 
2.960000000001822, -0.9104870533847091 
2.970000000001843, -0.9102911979836954 
2.9800000000018643, -0.9097673325397324 
2.9900000000018854, -0.9091080843615276 
3.0000000000019065, -0.9088474444571368 
3.0100000000019276, -0.9104044084178864 
3.0200000000019487, -0.9164904411136244 
3.03000000000197, -0.9302823351951732 
3.040000000001991, -0.953028453412003 
3.050000000002012, -0.982232187649423 
3.060000000002033, -1.012377783092112 
3.070000000002054, -1.0375679203149837 
3.0800000000020753, -1.0545734804671136 
3.0900000000020964, -1.064024403121937 
3.1000000000021175, -1.068542138599923 
3.1100000000021386, -1.0704391508686029 
3.1200000000021597, -1.0710394362475197 
3.130000000002181, -1.070955200901754 
3.140000000002202, -1.0704583590039625 
3.150000000002223, -1.0698013068322128 
3.160000000002244, -1.069641217339196 
3.1700000000022652, -1.0714602421873964 
3.1800000000022863, -1.0770356676705068 
3.1900000000023074, -1.0866710865517117 
3.2000000000023285, -1.0986617364102726 
3.2100000000023496, -1.110812179704344 
3.2200000000023707, -1.121552414583033 
3.230000000002392, -1.1299787123036165 
3.240000000002413, -1.1357606459673275 
3.250000000002434, -1.1391621426257965 
3.260000000002455, -1.1408337652218261 
3.2700000000024763, -1.1414305157741627 
3.2800000000024974, -1.1414074826800615 
3.2900000000025185, -1.1410589338112678 
3.3000000000025396, -1.140676382761038 
3.3100000000025607, -1.1406854446260901 
3.3200000000025818, -1.1415333685178106 
3.330000000002603, -1.1433181562225765 
3.340000000002624, -1.1457005346141735 
3.350000000002645, -1.148240149994406 
3.360000000002666, -1.1506407646156238 
3.3700000000026873, -1.1527499593343054 
3.3800000000027084, -1.1544862201771384 
3.3900000000027295, -1.155788995773351 
3.4000000000027506, -1.1566126982035068 
3.4100000000027717, -1.1569548186078096 
3.420000000002793, -1.156875281894279 
3.430000000002814, -1.156485112040224 
3.440000000002835, -1.1559340910193734 
3.450000000002856, -1.1554064473269416 
3.460000000002877, -1.1550770862449786 
3.4700000000028983, -1.1550327423094555 
3.4800000000029194, -1.1552531870878031 
3.4900000000029405, -1.1556516755004547 
3.5000000000029616, -1.1561010226625839 
3.5100000000029827, -1.1564610818161691 
3.520000000003004, -1.1566176807135171 
3.530000000003025, -1.156502343019157 
3.540000000003046, -1.1560905006259012 
3.550000000003067, -1.155387145405269 
3.5600000000030882, -1.1544083589833898 
3.5700000000031094, -1.1531761893102892 
3.5800000000031305, -1.1517331085571691 
3.5900000000031516, -1.1501617393068175 
3.6000000000031727, -1.148596273531158 
3.6100000000031938, -1.1472251501407962 
3.620000000003215, -1.1462564847703176 
3.630000000003236, -1.1457881648244614 
3.640000000003257, -1.1456887705277778 
3.650000000003278, -1.1456820075115473 
3.6600000000032993, -1.1455063173451487 
3.6700000000033204, -1.1449421942554283 
3.6800000000033415, -1.1437607623382486 
3.6900000000033626, -1.141724801951492 
3.7000000000033837, -1.1386768185745226 
3.710000000003405, -1.1346199467417177 
3.720000000003426, -1.1296943776049422 
3.730000000003447, -1.1241233418140584 
3.740000000003468, -1.1182692142395014 
3.750000000003489, -1.1127885668352253 
3.7600000000035103, -1.1085979651959488 
3.7700000000035314, -1.106294418737648 
3.7800000000035525, -1.1055608580983103 
3.7900000000035736, -1.1055429849069713 
3.8000000000035947, -1.1055777866241945 
3.810000000003616, -1.1053211233646372 
3.820000000003637, -1.1044999594286862 
3.830000000003658, -1.1026470128156254 
3.840000000003679, -1.098882495266234 
3.8500000000037002, -1.0918919118418857 
3.8600000000037213, -1.080459368926915 
3.8700000000037424, -1.0644545971609476 
3.8800000000037635, -1.0453240635775958 
3.8900000000037847, -1.0257771997549932 
3.9000000000038058, -1.0091513274815866 
3.910000000003827, -0.99809902920323 
3.920000000003848, -0.9928607854310003 
3.930000000003869, -0.9913914998043616 
3.94000000000389, -0.9914220625113112 
3.9500000000039113, -0.991692084770534 
3.9600000000039324, -0.9917366531309335 
3.9700000000039535, -0.9913653591259132 
3.9800000000039746, -0.9903312058093081 
3.9900000000039957, -0.9881125789074574 
4.000000000004016, -0.9837465257888086 
4.010000000003993, -0.975948335671472 
4.02000000000397, -0.963920609412604 
4.030000000003946, -0.9483744670709318 
4.040000000003923, -0.9313779258173202 
4.0500000000039, -0.9152407047599341 
4.0600000000038765, -0.9018014335857727 
4.070000000003853, -0.8921762511559629 
4.08000000000383, -0.8865007489166017 
4.090000000003807, -0.8839166071214348 
4.100000000003783, -0.883127423720382 
4.11000000000376, -0.883068793880525 
4.120000000003737, -0.883136098668347 
4.130000000003713, -0.8830440558310191 
4.14000000000369, -0.8826248962941983 
4.150000000003667, -0.8817012867901531 
4.1600000000036434, -0.8800579125373542 
4.17000000000362, -0.8775327310907213 
4.180000000003597, -0.8741797493111215 
4.1900000000035735, -0.870306185991357 
4.20000000000355, -0.8662964000184015 
4.210000000003527, -0.8624343375101956 
4.220000000003504, -0.8588835032431799 
4.23000000000348, -0.8557540395126305 
4.240000000003457, -0.8531528796777155 
4.250000000003434, -0.8511805897487886 
4.26000000000341, -0.8498841880567612 
4.270000000003387, -0.8492061298591541 
4.280000000003364, -0.8489832134444568 
4.2900000000033405, -0.849006181878274 
4.300000000003317, -0.849087805615728 
4.310000000003294, -0.8490931266143111 
4.320000000003271, -0.8489400898769953 
4.330000000003247, -0.8485993615776602 
4.340000000003224, -0.848095265912569 
4.350000000003201, -0.8474853071806726 
4.360000000003177, -0.8468189389528109 
4.370000000003154, -0.8461119795031944 
4.380000000003131, -0.845358780930257 
4.390000000003107, -0.8445646022294861 
4.400000000003084, -0.8437698090887917 
4.410000000003061, -0.8430547074159935 
4.4200000000030375, -0.842525874059568 
4.430000000003014, -0.8422863518541859 
4.440000000002991, -0.8424010178307599 
4.450000000002968, -0.8428771581048878 
4.460000000002944, -0.8436700836740371 
4.470000000002921, -0.8447066873566051 
4.480000000002898, -0.8459137186483013 
4.490000000002874, -0.847237361477391 
4.500000000002851, -0.848641526920163 
4.510000000002828, -0.8500795354364865 
4.520000000002804, -0.8514551489374159 
4.530000000002781, -0.8526174955519088 
4.540000000002758, -0.8534231359768658 
4.5500000000027345, -0.8538162032503579 
4.560000000002711, -0.8538410321246155 
4.570000000002688, -0.8535975436355356 
4.580000000002665, -0.8532172628286081 
4.590000000002641, -0.8528967192459262 
4.600000000002618, -0.8529642325467012 
4.610000000002595, -0.8539035654357944 
4.620000000002571, -0.8562427113148485 
4.630000000002548, -0.8603357440698269 
4.640000000002525, -0.8662256051740731 
4.6500000000025015, -0.8736889462532607 
4.660000000002478, -0.8823234122366906 
4.670000000002455, -0.8915060525962117 
4.6800000000024315, -0.9002803698262658 
4.690000000002408, -0.9075181494622867 
4.700000000002385, -0.9125200360136214 
4.710000000002362, -0.9154086839187159 
4.720000000002338, -0.916794308130204 
4.730000000002315, -0.9172591569804341 
4.740000000002292, -0.9171649012777121 
4.750000000002268, -0.9167021723884816 
4.760000000002245, -0.9160369412369852 
4.770000000002222, -0.9155861024572356 
4.7800000000021985, -0.9165277254523042 
4.790000000002175, -0.9213229417873829 
4.800000000002152, -0.9332242132036865 
4.810000000002129, -0.9540435060887952 
4.820000000002105, -0.9819875798774801 
4.830000000002082, -1.011975559422778 
4.840000000002059, -1.0380680785186174 
4.850000000002035, -1.0564496118015838 
4.860000000002012, -1.0670624924625807 
4.870000000001989, -1.072285107436041 
4.880000000001965, -1.0745435023924943 
4.890000000001942, -1.0753252678152796 
4.900000000001919, -1.0753443014525768 
4.9100000000018955, -1.074915003138236 
4.920000000001872, -1.0742728534795152 
4.930000000001849, -1.0739650198556103 
