t, s[1].omega / s[0].omega 
0, -1.2999951515266792 
0.009999999999999995, -1.2993714863427699 
0.019999999999999934, -1.2984765193087733 
0.029999999999999874, -1.2973253498686073 
0.04000000000000012, -1.2959508383844411 
0.050000000000000405, -1.2944122938458231 
0.06000000000000069, -1.2928055316836307 
0.07000000000000098, -1.2912683078231175 
0.08000000000000126, -1.2899664014348111 
0.09000000000000155, -1.2890409537551677 
0.10000000000000184, -1.288530523590035 
0.11000000000000212, -1.2883388930837723 
0.12000000000000241, -1.2882920487607654 
0.130000000000002, -1.2882216611020785 
0.1400000000000009, -1.287997020720075 
0.1499999999999998, -1.2875019806429078 
0.1599999999999987, -1.2865897134783182 
0.1699999999999976, -1.2850353849677412 
0.1799999999999965, -1.282496976877127 
0.1899999999999954, -1.278506599919659 
0.1999999999999943, -1.272540496019319 
0.2099999999999932, -1.26423172984148 
0.2199999999999921, -1.253751534716352 
0.229999999999991, -1.2422222205455993 
0.2399999999999899, -1.2317116030654127 
0.2499999999999888, -1.2242996592845559 
0.2599999999999877, -1.2206900471701307 
0.2699999999999866, -1.219916216083368 
0.2799999999999855, -1.2204491044754582 
0.2899999999999844, -1.2212219648087248 
0.2999999999999833, -1.2217827207486578 
0.3099999999999822, -1.2220228720652038 
0.3199999999999811, -1.2219408310826678 
0.32999999999998, -1.2215245507916097 
0.3399999999999789, -1.2206977380824862 
0.3499999999999778, -1.2192811140660145 
0.35999999999997667, -1.2169565187337958 
0.36999999999997557, -1.2132807919943176 
0.37999999999997447, -1.2079186127943538 
0.38999999999997337, -1.2013827513341382 
0.39999999999997227, -1.1961407676387343 
0.40999999999997117, -1.196360385090337 
0.41999999999997006, -1.2044566200283064 
0.42999999999996896, -1.217874181307149 
0.43999999999996786, -1.2313967184769115 
0.44999999999996676, -1.2416718960024167 
0.45999999999996566, -1.2482394890772657 
0.46999999999996456, -1.2520115672159053 
0.47999999999996346, -1.2540079651245588 
0.48999999999996235, -1.2549459274757935 
0.49999999999996125, -1.2552472647999624 
0.5099999999999602, -1.2551365097215912 
0.519999999999959, -1.2547269889363644 
0.529999999999958, -1.2540921355592474 
0.5399999999999568, -1.2533495551264064 
0.5499999999999557, -1.2527758649068272 
0.5599999999999546, -1.2528916422725958 
0.5699999999999535, -1.2543325441444397 
0.5799999999999524, -1.2574319057270382 
0.5899999999999513, -1.2618941252590599 
0.5999999999999502, -1.2669690765233457 
0.6099999999999491, -1.271895984606512 
0.619999999999948, -1.2761701879582652 
0.6299999999999469, -1.2795623727937173 
0.6399999999999458, -1.282039455306763 
0.6499999999999447, -1.2836852769233198 
0.6599999999999436, -1.2846405554822937 
0.6699999999999425, -1.2850587112903624 
0.6799999999999414, -1.2850781065727812 
0.6899999999999403, -1.2848131137599508 
0.6999999999999392, -1.2843621591284837 
0.7099999999999381, -1.2838249153193035 
0.719999999999937, -1.283313820774817 
0.7299999999999359, -1.282942419568561 
0.7399999999999348, -1.2827903124052664 
0.7499999999999337, -1.2828741055117299 
0.7599999999999326, -1.2831499770246506 
0.7699999999999315, -1.2835373440051856 
0.7799999999999304, -1.2839425296805127 
0.7899999999999293, -1.2842763632969605 
0.7999999999999282, -1.2844646063999292 
0.8099999999999271, -1.284449921210523 
0.819999999999926, -1.2841888290043468 
0.8299999999999249, -1.2836489926726817 
0.8399999999999238, -1.2828088948035465 
0.8499999999999227, -1.281659184259262 
0.8599999999999216, -1.2802054393490714 
0.8699999999999205, -1.2784739304143389 
0.8799999999999194, -1.27652239566873 
0.8899999999999183, -1.2744555606277195 
0.8999999999999172, -1.272438291613566 
0.9099999999999161, -1.270684996758295 
0.919999999999915, -1.2693953608965596 
0.9299999999999139, -1.2686481774182945 
0.9399999999999128, -1.2683461581054591 
0.9499999999999117, -1.268281241061766 
0.9599999999999106, -1.2682479050398139 
0.9699999999999095, -1.2680959875193258 
0.9799999999999084, -1.2677107895279356 
0.9899999999999073, -1.2669627518390134 
0.9999999999999062, -1.2656521311754458 
1.0099999999999052, -1.263453903078597 
1.019999999999904, -1.2598752412911947 
1.029999999999903, -1.2542723882277333 
1.039999999999902, -1.2460201131509194 
1.0499999999999008, -1.2349279358913416 
1.0599999999998997, -1.2218335299222702 
1.0699999999998986, -1.208894534576032 
1.0799999999998975, -1.1988217498677043 
1.0899999999998964, -1.1931631506074645 
1.0999999999998953, -1.1913612727103204 
1.1099999999998942, -1.191677749903552 
1.119999999999893, -1.1926214016158805 
1.129999999999892, -1.1934497602642373 
1.1399999999998909, -1.1939424755577386 
1.1499999999998898, -1.1940876051084381 
1.1599999999998887, -1.1939059583236467 
1.1699999999998876, -1.1933777811731747 
1.1799999999998865, -1.192406501979423 
1.1899999999998854, -1.1907859571833073 
1.1999999999998843, -1.188174457939836 
1.2099999999998832, -1.1841432558721994 
1.219999999999882, -1.1784878208328804 
1.229999999999881, -1.1720340878948359 
1.2399999999998799, -1.1675536192955946 
1.2499999999998788, -1.1689630605540784 
1.2599999999998777, -1.1778108731832417 
1.2699999999998766, -1.1910422165470163 
1.2799999999998755, -1.2038126790834447 
1.2899999999998744, -1.2133376627018653 
1.2999999999998733, -1.2193943114117345 
1.3099999999998722, -1.2228775033872983 
1.319999999999871, -1.2247254961886327 
1.32999999999987, -1.225590442103894 
1.3399999999998689, -1.2258552415506614 
1.3499999999998678, -1.2257224630857269 
1.3599999999998666, -1.2252907016420953 
1.3699999999998655, -1.2246181705093275 
1.3799999999998644, -1.2238016870683768 
1.3899999999998633, -1.2230983352148976 
1.3999999999998622, -1.223052357937446 
1.4099999999998611, -1.2244399673244535 
1.41999999999986, -1.2278443909901797 
1.429999999999859, -1.2331408522976095 
1.4399999999998578, -1.2394961012793748 
1.4499999999998567, -1.2458795426182059 
1.4599999999998556, -1.251518342939138 
1.4699999999998545, -1.2560251258119999 
1.4799999999998534, -1.2593241810652582 
1.4899999999998523, -1.2615327991641636 
1.4999999999998512, -1.2628573522628208 
1.5099999999998501, -1.2635170840908516 
1.519999999999849, -1.263700298326301 
1.529999999999848, -1.2635518061435689 
1.5399999999998468, -1.2631837953644396 
1.5499999999998457, -1.2626995939386145 
1.5599999999998446, -1.2622166493202989 
1.5699999999998435, -1.2618682821919411 
1.5799999999998424, -1.2617694941953703 
1.5899999999998413, -1.2619675912212087 
1.5999999999998402, -1.2624249803731322 
1.6099999999998391, -1.263047179519689 
1.619999999999838, -1.263723265985313 
1.629999999999837, -1.2643523622752295 
1.6399999999998358, -1.2648548639949126 
1.6499999999998347, -1.2651740677526746 
1.6599999999998336, -1.2652726666086953 
1.6699999999998325, -1.2651281249911905 
1.6799999999998314, -1.264729388951533 
1.6899999999998303, -1.2640754644079215 
1.6999999999998292, -1.2631758567057247 
1.709999999999828, -1.2620532074349815 
1.719999999999827, -1.2607484098106823 
1.729999999999826, -1.2593273425058498 
1.7399999999998248, -1.2578863106429703 
1.7499999999998237, -1.256550500862987 
1.7599999999998226, -1.2554552682246605 
1.7699999999998215, -1.2547009396167859 
1.7799999999998204, -1.254297992517994 
1.7899999999998193, -1.254152912846252 
1.7999999999998182, -1.2541161335265034 
1.809999999999817, -1.2540433393699162 
1.819999999999816, -1.2538176046215512 
1.8299999999998149, -1.2533316577561766 
1.8399999999998138, -1.2524551546452718 
1.8499999999998127, -1.2510053666579783 
1.8599999999998116, -1.248733569775735 
1.8699999999998105, -1.2453427136855342 
1.8799999999998094, -1.2405540041077099 
1.8899999999998083, -1.2342304366085726 
1.8999999999998072, -1.2265447805696688 
1.909999999999806, -1.218141651609524 
1.919999999999805, -1.2101565011867383 
1.9299999999998039, -1.20387704403069 
1.9399999999998028, -1.2000634082816497 
1.9499999999998017, -1.198503553762699 
1.9599999999998006, -1.1983270160044694 
1.9699999999997995, -1.198674709740978 
1.9799999999997984, -1.1990385165239386 
1.9899999999997973, -1.1992105988662058 
1.9999999999997962, -1.1991229008919881 
2.0099999999998173, -1.1987295924710755 
2.0199999999998384, -1.1979373590420535 
2.0299999999998595, -1.1965486564715717 
2.0399999999998806, -1.1941917299745468 
2.0499999999999017, -1.1902400855017823 
2.059999999999923, -1.1838019616911162 
2.069999999999944, -1.1740276274333812 
2.079999999999965, -1.1610812194531979 
2.089999999999986, -1.1474482196151528 
2.100000000000007, -1.1375925956970065 
2.1100000000000283, -1.1346400705658997 
2.1200000000000494, -1.137616254824811 
2.1300000000000705, -1.143023809709233 
2.1400000000000916, -1.1480548816954328 
2.1500000000001127, -1.151666797528058 
2.160000000000134, -1.1539090047204577 
2.170000000000155, -1.1551480250867736 
2.180000000000176, -1.1557139939609322 
2.190000000000197, -1.15581950589483 
2.2000000000002182, -1.1555705969735504 
2.2100000000002393, -1.1549913170345918 
2.2200000000002604, -1.1540459741563853 
2.2300000000002815, -1.1526764863378531 
2.2400000000003026, -1.1509063862531848 
2.2500000000003237, -1.1490943909071816 
2.260000000000345, -1.1483419607650867 
2.270000000000366, -1.1506640150587446 
2.280000000000387, -1.1580967115439065 
2.290000000000408, -1.1708022816612689 
2.3000000000004293, -1.186254181228727 
2.3100000000004504, -1.2008981873858897 
2.3200000000004715, -1.2123941948805512 
2.3300000000004926, -1.2202497339438731 
2.3400000000005137, -1.2251017984790573 
2.3500000000005348, -1.2278675938724788 
2.360000000000556, -1.2293091945778687 
2.370000000000577, -1.2299377092838832 
2.380000000000598, -1.2300594018895992 
2.390000000000619, -1.2298490163456666 
2.4000000000006403, -1.2294161702680975 
2.4100000000006614, -1.2288681248019924 
2.4200000000006825, -1.2283750148854968 
2.4300000000007036, -1.2282124045835103 
2.4400000000007247, -1.228711522972392 
2.450000000000746, -1.230087948418982 
2.460000000000767, -1.232283727720898 
2.470000000000788, -1.2349970348961405 
2.480000000000809, -1.237855112336486 
2.49000000000083, -1.2405549845994344 
2.5000000000008513, -1.242903872573701 
2.5100000000008724, -1.2448014453917764 
2.5200000000008935, -1.2462123576366793 
2.5300000000009146, -1.2471467372860552 
2.5400000000009357, -1.2476469224565894 
2.550000000000957, -1.2477752371232316 
2.560000000000978, -1.247602414952929 
2.570000000000999, -1.2472008395512872 
2.58000000000102, -1.2466458182316782 
2.5900000000010412, -1.2460220320161783 
2.6000000000010624, -1.2454252099705672 
2.6100000000010835, -1.2449489535962672 
2.6200000000011046, -1.2446601297965498 
2.6300000000011257, -1.244580336489607 
2.6400000000011468, -1.2446839078357839 
2.650000000001168, -1.2449075833098726 
2.660000000001189, -1.2451664986163182 
2.67000000000121, -1.2453729518600558 
2.680000000001231, -1.2454499228057068 
2.6900000000012523, -1.2453344824209058 
2.7000000000012734, -1.2449753422844538 
2.7100000000012945, -1.2443312721198556 
2.7200000000013156, -1.24337274251204 
2.7300000000013367, -1.2420851316339898 
2.740000000001358, -1.2404719914430746 
2.750000000001379, -1.2385596618062815 
2.7600000000014, -1.2364061158552089 
2.770000000001421, -1.2341149511156424 
2.780000000001442, -1.231848808059095 
2.7900000000014633, -1.229823842684298 
2.8000000000014844, -1.2282572151594422 
2.8100000000015055, -1.2272675249683542 
2.8200000000015266, -1.226801064729027 
2.8300000000015477, -1.2266668502413465 
2.840000000001569, -1.226646463978502 
2.85000000000159, -1.2265702878403 
2.860000000001611, -1.2263194063577203 
2.870000000001632, -1.225785732544904 
2.8800000000016532, -1.2248235614675025 
2.8900000000016743, -1.2232031928162508 
2.9000000000016954, -1.2205728136770793 
2.9100000000017165, -1.2164523760352772 
2.9200000000017377, -1.2103110485925228 
2.9300000000017588, -1.201788125846839 
2.94000000000178, -1.1910576397669566 
2.950000000001801, -1.1791754836687733 
2.960000000001822, -1.1680388385330778 
2.970000000001843, -1.1596231878928691 
2.9800000000018643, -1.1548425233084223 
2.9900000000018854, -1.1531256350545995 
3.0000000000019065, -1.1531415397858031 
3.0100000000019276, -1.1537480826319995 
3.0200000000019487, -1.1543340314259742 
3.03000000000197, -1.1546803375567025 
3.040000000001991, -1.1547406113416565 
3.050000000002012, -1.1545028258479564 
3.060000000002033, -1.1539204393856801 
3.070000000002054, -1.1528683643567268 
3.0800000000020753, -1.1510933792624254 
3.0900000000020964, -1.148149629102185 
3.1000000000021175, -1.1433517479492321 
3.1100000000021386, -1.1358794790566937 
3.1200000000021597, -1.1253080713177372 
3.130000000002181, -1.1126843043734955 
3.140000000002202, -1.101229156747862 
3.150000000002223, -1.0948295966668735 
3.160000000002244, -1.0948576040579294 
3.1700000000022652, -1.0992155509760786 
3.1800000000022863, -1.1047053746577489 
3.1900000000023074, -1.109317548157383 
3.2000000000023285, -1.1125011877520776 
3.2100000000023496, -1.1144461676262232 
3.2200000000023707, -1.1155062635976722 
3.230000000002392, -1.1159683732357188 
3.240000000002413, -1.1160095637882907 
3.250000000002434, -1.1157113045995684 
3.260000000002455, -1.1150780595155514 
3.2700000000024763, -1.1140504716902233 
3.2800000000024974, -1.1125276124136911 
3.2900000000025185, -1.1104430264805873 
3.3000000000025396, -1.107981009592198 
3.3100000000025607, -1.1060005280782088 
3.3200000000025818, -1.1064370485329857 
3.330000000002603, -1.1118524893897352 
3.340000000002624, -1.123521237446284 
3.350000000002645, -1.1396099236427881 
3.360000000002666, -1.1560793263727613 
3.3700000000026873, -1.1695674215329275 
3.3800000000027084, -1.178956667118295 
3.3900000000027295, -1.1847952757508424 
3.4000000000027506, -1.1881465782388376 
3.4100000000027717, -1.189932021455831 
3.420000000002793, -1.1907703065174322 
3.430000000002814, -1.191027162826476 
3.440000000002835, -1.190902657199295 
3.450000000002856, -1.190503851158455 
3.460000000002877, -1.1899060940453523 
3.4700000000028983, -1.189223521282849 
3.4800000000029194, -1.188700118803046 
3.4900000000029405, -1.188777986350352 
3.5000000000029616, -1.1900164079196414 
3.5100000000029827, -1.1927902930599348 
3.520000000003004, -1.1969891758778817 
3.530000000003025, -1.202046238602242 
3.540000000003046, -1.2072508919874578 
3.550000000003067, -1.2120262459720084 
3.5600000000030882, -1.2160250751457058 
3.5700000000031094, -1.2191083038491934 
3.5800000000031305, -1.22129029944285 
3.5900000000031516, -1.2226821784894901 
3.6000000000031727, -1.2234385499128995 
3.6100000000031938, -1.2237147440921112 
3.620000000003215, -1.2236431475408966 
3.630000000003236, -1.2233307363606092 
3.640000000003257, -1.2228727812888 
3.650000000003278, -1.222372866594297 
3.6600000000032993, -1.2219532610400283 
3.6700000000033204, -1.221737671142399 
3.6800000000033415, -1.2218079790705856 
3.6900000000033626, -1.2221695009716198 
3.7000000000033837, -1.222756348523949 
3.710000000003405, -1.2234659543037967 
3.720000000003426, -1.2241923623088005 
3.730000000003447, -1.224845164933015 
3.740000000003468, -1.2253563086955315 
3.750000000003489, -1.2256793902899035 
3.7600000000035103, -1.2257855837972391 
3.7700000000035314, -1.225659481016368 
3.7800000000035525, -1.2252964179852555 
3.7900000000035736, -1.2247015923247224 
3.8000000000035947, -1.2238909255791603 
3.810000000003616, -1.2228936393729772 
3.820000000003637, -1.2217562210529596 
3.830000000003658, -1.220546213340924 
3.840000000003679, -1.219352557590764 
3.8500000000037002, -1.2182785660612008 
3.8600000000037213, -1.2174235979395474 
3.8700000000037424, -1.2168517195222093 
3.8800000000037635, -1.2165590997248474 
3.8900000000037847, -1.2164680672031662 
3.9000000000038058, -1.2164591410102934 
3.910000000003827, -1.2164126220582485 
3.920000000003848, -1.2162265657021538 
3.930000000003869, -1.215808329190698 
3.94000000000389, -1.2150565586999802 
3.9500000000039113, -1.2138492938636645 
3.9600000000039324, -1.2120475199594676 
3.9700000000039535, -1.209517743619792 
3.9800000000039746, -1.20616972360336 
3.9900000000039957, -1.2019999777034358 
4.000000000004016, -1.1971349426097064 
4.010000000003993, -1.191872059831393 
4.02000000000397, -1.1866991513382472 
4.030000000003946, -1.18222888934308 
4.040000000003923, -1.1789865411839198 
4.0500000000039, -1.1771381117813529 
4.0600000000038765, -1.1764142918567182 
4.070000000003853, -1.1763288586748666 
4.08000000000383, -1.1764558398248584 
4.090000000003807, -1.1765383718442601 
4.100000000003783, -1.1764480329185727 
4.11000000000376, -1.1761042951979521 
4.120000000003737, -1.1754064251061958 
4.130000000003713, -1.174175546359805 
4.14000000000369, -1.1720904985445388 
4.150000000003667, -1.1686137616002836 
4.1600000000036434, -1.1629462215570046 
4.17000000000362, -1.1541363814036285 
4.180000000003597, -1.1415501335215728 
4.1900000000035735, -1.1257422111827622 
4.20000000000355, -1.1091053686274148 
4.210000000003527, -1.0951392537705789 
4.220000000003504, -1.0863245899830303 
4.23000000000348, -1.0826548619443341 
4.240000000003457, -1.0823213893283345 
4.250000000003434, -1.0833697456836853 
4.26000000000341, -1.0846028172196243 
4.270000000003387, -1.0855444972923713 
4.280000000003364, -1.0860998640959485 
4.2900000000033405, -1.0863010784807878 
4.300000000003317, -1.086186302979221 
4.310000000003294, -1.0857516711999726 
4.320000000003271, -1.0849255651961491 
4.330000000003247, -1.0835383618046959 
4.340000000003224, -1.0812772155323338 
4.350000000003201, -1.0776362021126347 
4.360000000003177, -1.0719226978548428 
4.370000000003154, -1.063477033381587 
4.380000000003131, -1.0523039015062448 
4.390000000003107, -1.0399428719296453 
4.400000000003084, -1.029511269744646 
4.410000000003061, -1.0239264941791029 
4.4200000000030375, -1.0236996571221082 
4.430000000003014, -1.0269069971324787 
4.440000000002991, -1.0310949670097724 
4.450000000002968, -1.0347373944730787 
4.460000000002944, -1.0373511405477138 
4.470000000002921, -1.0390113631197964 
4.480000000002898, -1.0399495403093062 
4.490000000002874, -1.040372333494957 
4.500000000002851, -1.0404129606888017 
4.510000000002828, -1.0401295883706285 
4.520000000002804, -1.0395092695750352 
4.530000000002781, -1.0384628444566564 
4.540000000002758, -1.036809010727237 
4.5500000000027345, -1.0342587875583718 
4.560000000002711, -1.0304405253842532 
4.570000000002688, -1.0250579024427724 
4.580000000002665, -1.0182957123158467 
4.590000000002641, -1.011384670841583 
4.600000000002618, -1.0066785906397404 
4.610000000002595, -1.0064388728399327 
4.620000000002571, -1.0109806360675673 
4.630000000002548, -1.0183239090902212 
4.640000000002525, -1.0258460765745994 
4.6500000000025015, -1.031913472948924 
4.660000000002478, -1.0361349063133471 
4.670000000002455, -1.0387975591354346 
4.6800000000024315, -1.0403461138416448 
4.690000000002408, -1.0411488441531631 
4.700000000002385, -1.0414485750113764 
4.710000000002362, -1.0413791243662682 
4.720000000002338, -1.0409891870502477 
4.730000000002315, -1.040255875628491 
4.740000000002292, -1.039087467910448 
4.750000000002268, -1.0373260548077474 
4.760000000002245, -1.0347807254151038 
4.770000000002222, -1.0313587630029935 
4.7800000000021985, -1.0273857894302607 
4.790000000002175, -1.0240776441449149 
4.800000000002152, -1.0236777949049436 
4.810000000002129, -1.0284271776307443 
4.820000000002105, -1.0385787300664437 
4.830000000002082, -1.0516262272322525 
4.840000000002059, -1.0640825627301265 
4.850000000002035, -1.0737619293330611 
4.860000000002012, -1.080295676783863 
4.870000000001989, -1.0843106660960757 
4.880000000001965, -1.0866114473777295 
4.890000000001942, -1.0878271129883568 
4.900000000001919, -1.0883619873259198 
4.9100000000018955, -1.0884460999351773 
4.920000000001872, -1.088191577381273 
4.930000000001849, -1.0876324082876396 
