t, s[1].omega / s[0].omega 
0, -0.6499977110765637 
0.009999999999999995, -0.649773197502667 
0.019999999999999934, -0.6495494521317358 
0.029999999999999874, -0.6493067668702502 
0.04000000000000012, -0.6490228907627869 
0.050000000000000405, -0.6486823302732028 
0.06000000000000069, -0.6482815400345674 
0.07000000000000098, -0.64782977849566 
0.08000000000000126, -0.6473484891837478 
0.09000000000000155, -0.6468723928424945 
0.10000000000000184, -0.6464541173528844 
0.11000000000000212, -0.6461728145872117 
0.12000000000000241, -0.646146316842313 
0.130000000000002, -0.6465456326260911 
0.1400000000000009, -0.6476095525177595 
0.1499999999999998, -0.6496554355149735 
0.1599999999999987, -0.6530790057208609 
0.1699999999999976, -0.6583294315964521 
0.1799999999999965, -0.6658348696528333 
0.1899999999999954, -0.6758447573686499 
0.1999999999999943, -0.6881788300676791 
0.2099999999999932, -0.7019823061329623 
0.2199999999999921, -0.7157547082591593 
0.229999999999991, -0.7278676543330844 
0.2399999999999899, -0.7372908580829047 
0.2499999999999888, -0.7438965708154881 
0.2599999999999877, -0.7481772598579413 
0.2699999999999866, -0.750794415537954 
0.2799999999999855, -0.7523073765649355 
0.2899999999999844, -0.7531027015229376 
0.2999999999999833, -0.7534173086786742 
0.3099999999999822, -0.7533792209830401 
0.3199999999999811, -0.7530372333669334 
0.32999999999998, -0.7523735206331181 
0.3399999999999789, -0.7512985995305524 
0.3499999999999778, -0.749626741978579 
0.35999999999997667, -0.7470281306537098 
0.36999999999997557, -0.7429592614044406 
0.37999999999997447, -0.7366029215002281 
0.38999999999997337, -0.7269300778780406 
0.39999999999997227, -0.713095505276707 
0.40999999999997117, -0.6952386863044815 
0.41999999999997006, -0.6751021418202344 
0.42999999999996896, -0.6554997142978822 
0.43999999999996786, -0.6388495185827566 
0.44999999999996676, -0.6262062529003882 
0.45999999999996566, -0.6174003093320215 
0.46999999999996456, -0.6116659038391877 
0.47999999999996346, -0.6081392729103902 
0.48999999999996235, -0.6060895970777966 
0.49999999999996125, -0.6049749120766914 
0.5099999999999602, -0.604422492421339 
0.519999999999959, -0.6041883190880747 
0.529999999999958, -0.6041179079738499 
0.5399999999999568, -0.6041152662764221 
0.5499999999999557, -0.6041206989212492 
0.5599999999999546, -0.6040963546339552 
0.5699999999999535, -0.6040182031145355 
0.5799999999999524, -0.6038732543287786 
0.5899999999999513, -0.6036604043689222 
0.5999999999999502, -0.6033920497963298 
0.6099999999999491, -0.6030926250256411 
0.619999999999948, -0.6027915763388833 
0.6299999999999469, -0.6025123917277231 
0.6399999999999458, -0.6022630377698561 
0.6499999999999447, -0.6020330636487964 
0.6599999999999436, -0.6017988704187462 
0.6699999999999425, -0.6015340303536492 
0.6799999999999414, -0.6012190925793612 
0.6899999999999403, -0.6008467718789793 
0.6999999999999392, -0.6004224620214219 
0.7099999999999381, -0.5999631076232764 
0.719999999999937, -0.59949783063807 
0.7299999999999359, -0.5990725409651378 
0.7399999999999348, -0.5987598029979275 
0.7499999999999337, -0.598674996792102 
0.7599999999999326, -0.5989998422703321 
0.7699999999999315, -0.6000137853724586 
0.7799999999999304, -0.6021311325400015 
0.7899999999999293, -0.605934101376486 
0.7999999999999282, -0.6121732006985354 
0.8099999999999271, -0.6216704579547974 
0.819999999999926, -0.635022928541549 
0.8299999999999249, -0.6520560419082351 
0.8399999999999238, -0.6712888808072726 
0.8499999999999227, -0.6901064028024498 
0.8599999999999216, -0.7059765770839387 
0.8699999999999205, -0.7177127786132023 
0.8799999999999194, -0.7255802818187418 
0.8899999999999183, -0.7305322736528421 
0.8999999999999172, -0.7335308653048719 
0.9099999999999161, -0.7352870765747339 
0.919999999999915, -0.7362572694639817 
0.9299999999999139, -0.7367119788939759 
0.9399999999999128, -0.7367984335004085 
0.9499999999999117, -0.7365797178271263 
0.9599999999999106, -0.7360523743836211 
0.9699999999999095, -0.7351460226686 
0.9799999999999084, -0.7337066912746601 
0.9899999999999073, -0.7314663481614772 
0.9999999999999062, -0.7280117242530553 
1.0099999999999052, -0.7227954869685916 
1.019999999999904, -0.7152742086778894 
1.029999999999903, -0.7052330609084871 
1.039999999999902, -0.6931497719503298 
1.0499999999999008, -0.6802147336356208 
1.0599999999998997, -0.6678485789316755 
1.0699999999998986, -0.657116408140068 
1.0799999999998975, -0.6484894764659539 
1.0899999999998964, -0.6419570808092045 
1.0999999999998953, -0.6372478814874544 
1.1099999999998942, -0.6340025527128532 
1.119999999999893, -0.6318687309996338 
1.129999999999892, -0.6305416124792929 
1.1399999999998909, -0.6297756741162384 
1.1499999999998898, -0.6293828985517859 
1.1599999999998887, -0.6292251236492621 
1.1699999999998876, -0.629204283494412 
1.1799999999998865, -0.6292527115956583 
1.1899999999998854, -0.6293249519467122 
1.1999999999998843, -0.6293920033788194 
1.2099999999998832, -0.6294382863919197 
1.219999999999882, -0.6294606270877753 
1.229999999999881, -0.6294672761965457 
1.2399999999998799, -0.6294743159128522 
1.2499999999998788, -0.6294980843372897 
1.2599999999998777, -0.6295454585186382 
1.2699999999998766, -0.6296067053657075 
1.2799999999998755, -0.629655514237902 
1.2899999999998744, -0.6296571643393294 
1.2999999999998733, -0.6295806279212892 
1.3099999999998722, -0.6294079048135262 
1.319999999999871, -0.6291366947995475 
1.32999999999987, -0.6287779283111595 
1.3399999999998689, -0.6283526653101097 
1.3499999999998678, -0.6278922469557249 
1.3599999999998666, -0.6274438110973974 
1.3699999999998655, -0.6270823935208578 
1.3799999999998644, -0.6269309236812244 
1.3899999999998633, -0.6271895557632179 
1.3999999999998622, -0.628174680714271 
1.4099999999998611, -0.6303636362713689 
1.41999999999986, -0.6344296310591757 
1.429999999999859, -0.6412260951677611 
1.4399999999998578, -0.651637475552308 
1.4499999999998567, -0.6661867146019589 
1.4599999999998556, -0.6844067074594272 
1.4699999999998545, -0.704391893289 
1.4799999999998534, -0.7232817383335942 
1.4899999999998523, -0.7386923549742923 
1.4999999999998512, -0.7497915484169453 
1.5099999999998501, -0.7570984862506618 
1.519999999999849, -0.7616425228811325 
1.529999999999848, -0.7643659061160264 
1.5399999999998468, -0.7659380489221934 
1.5499999999998457, -0.766780279132484 
1.5599999999998446, -0.7671383702051102 
1.5699999999998435, -0.7671417026093352 
1.5799999999998424, -0.7668381898275505 
1.5899999999998413, -0.7662076192818812 
1.5999999999998402, -0.7651560964127317 
1.6099999999998391, -0.7634917364800043 
1.619999999999838, -0.7608824001111267 
1.629999999999837, -0.7568088710607992 
1.6399999999998358, -0.7505658986961146 
1.6499999999998347, -0.7414257796265666 
1.6599999999998336, -0.7290668735554762 
1.6699999999998325, -0.7140957084844713 
1.6799999999998314, -0.6981159359424693 
1.6899999999998303, -0.6830590439130051 
1.6999999999998292, -0.6703335833909072 
1.709999999999828, -0.6604846803968767 
1.719999999999827, -0.6533794635586394 
1.729999999999826, -0.648547979713171 
1.7399999999998248, -0.6454390028902247 
1.7499999999998237, -0.6435519553076762 
1.7599999999998226, -0.6424846262213278 
1.7699999999998215, -0.6419375029028862 
1.7799999999998204, -0.6416995391044062 
1.7899999999998193, -0.6416281431522152 
1.7999999999998182, -0.6416296224583743 
1.809999999999817, -0.6416429812487988 
1.819999999999816, -0.6416282505561524 
1.8299999999998149, -0.6415596527530797 
1.8399999999998138, -0.6414232526390025 
1.8499999999998127, -0.6412176901490854 
1.8599999999998116, -0.6409550480467769 
1.8699999999998105, -0.6406581798691309 
1.8799999999998094, -0.6403528132342229 
1.8899999999998083, -0.6400570383659707 
1.8999999999998072, -0.6397737610382914 
1.909999999999806, -0.6394904478551722 
1.919999999999805, -0.6391860800814484 
1.9299999999998039, -0.6388410772012174 
1.9399999999998028, -0.6384450311523707 
1.9499999999998017, -0.6379998810990982 
1.9599999999998006, -0.6375199590041181 
1.9699999999997995, -0.63703208474462 
1.9799999999997984, -0.636578257623641 
1.9899999999997973, -0.6362220787702159 
1.9999999999997962, -0.6360589776340262 
2.0099999999998173, -0.6362296272224021 
2.0199999999998384, -0.6369351936391683 
2.0299999999998595, -0.6384518448281059 
2.0399999999998806, -0.6411395644378235 
2.0499999999999017, -0.645435272423603 
2.059999999999923, -0.6518103505367516 
2.069999999999944, -0.6606588804643121 
2.079999999999965, -0.672082180779501 
2.089999999999986, -0.6855973954003056 
2.100000000000007, -0.6999662722813643 
2.1100000000000283, -0.7134655713677511 
2.1200000000000494, -0.7246207909030364 
2.1300000000000705, -0.7328279798787286 
2.1400000000000916, -0.7383371224809138 
2.1500000000001127, -0.7417985331873036 
2.160000000000134, -0.7438632809357913 
2.170000000000155, -0.7450190570396473 
2.180000000000176, -0.7455810202047424 
2.190000000000197, -0.7457321249886673 
2.2000000000002182, -0.745561597151864 
2.2100000000002393, -0.7450872666636148 
2.2200000000002604, -0.7442601669979548 
2.2300000000002815, -0.7429508603086297 
2.2400000000003026, -0.7409148741634357 
2.2500000000003237, -0.7377356377844122 
2.260000000000345, -0.7327591194648269 
2.270000000000366, -0.7250876857439217 
2.280000000000387, -0.7137957924665901 
2.290000000000408, -0.6985287634745382 
2.3000000000004293, -0.6802352224532332 
2.3100000000004504, -0.6611874978442833 
2.3200000000004715, -0.6439058815222518 
2.3300000000004926, -0.629967566407454 
2.3400000000005137, -0.6197140143429334 
2.3500000000005348, -0.6126825551443366 
2.360000000000556, -0.6081252804444032 
2.370000000000577, -0.6053190476270667 
2.380000000000598, -0.6036826639346338 
2.390000000000619, -0.6027914373605505 
2.4000000000006403, -0.6023526588807565 
2.4100000000006614, -0.6021725426965961 
2.4200000000006825, -0.6021263111544222 
2.4300000000007036, -0.6021347913383439 
2.4400000000007247, -0.6021477607903363 
2.450000000000746, -0.6021333560621633 
2.460000000000767, -0.6020726975454451 
2.470000000000788, -0.6019586210582052 
2.480000000000809, -0.6017965118798341 
2.49000000000083, -0.6016040308372315 
2.5000000000008513, -0.60140656411867 
2.5100000000008724, -0.6012279121266341 
2.5200000000008935, -0.6010797746758881 
2.5300000000009146, -0.6009555699811723 
2.5400000000009357, -0.6008322544191967 
2.550000000000957, -0.6006793629383067 
2.560000000000978, -0.600470322629316 
2.570000000000999, -0.6001902957513781 
2.58000000000102, -0.599838204513157 
2.5900000000010412, -0.599425020705534 
2.6000000000010624, -0.598972260052335 
2.6100000000010835, -0.5985138147987483 
2.6200000000011046, -0.5981029411582675 
2.6300000000011257, -0.5978257526126244 
2.6400000000011468, -0.5978228562927769 
2.650000000001168, -0.5983209925057997 
2.660000000001189, -0.5996753903877481 
2.67000000000121, -0.6024183822320848 
2.680000000001231, -0.6072948392032808 
2.6900000000012523, -0.6152306660102522 
2.7000000000012734, -0.6271254568698494 
2.7100000000012945, -0.6433433253712721 
2.7200000000013156, -0.6629896629386001 
2.7300000000013367, -0.6836171804349467 
2.740000000001358, -0.7021570702167711 
2.750000000001379, -0.7165707683691543 
2.7600000000014, -0.7265713022203643 
2.770000000001421, -0.7330075406505803 
2.780000000001442, -0.736972087416029 
2.7900000000014633, -0.7393450782718405 
2.8000000000014844, -0.7407157846395559 
2.8100000000015055, -0.7414446523726154 
2.8200000000015266, -0.7417383435905976 
2.8300000000015477, -0.7417023491793271 
2.840000000001569, -0.7413695836705481 
2.85000000000159, -0.740709576369996 
2.860000000001611, -0.7396213883504716 
2.870000000001632, -0.7379122345735581 
2.8800000000016532, -0.7352683812246066 
2.8900000000016743, -0.731242911741253 
2.9000000000016954, -0.7253194483228174 
2.9100000000017165, -0.7171262576410076 
2.9200000000017377, -0.7067715268944856 
2.9300000000017588, -0.6950395579708858 
2.94000000000178, -0.6831630162552567 
2.950000000001801, -0.6723008955850379 
2.960000000001822, -0.6631595427112277 
2.970000000001843, -0.6559533216000877 
2.9800000000018643, -0.6505642555486675 
2.9900000000018854, -0.6467167657211589 
3.0000000000019065, -0.6440934892508288 
3.0100000000019276, -0.6423948438114386 
3.0200000000019487, -0.6413640596921465 
3.03000000000197, -0.6407943207526647 
3.040000000001991, -0.6405269836828882 
3.050000000002012, -0.6404453318789807 
3.060000000002033, -0.6404664519224876 
3.070000000002054, -0.6405331178195602 
3.0800000000020753, -0.6406071274694771 
3.0900000000020964, -0.6406649950635638 
3.1000000000021175, -0.6406960585200248 
3.1100000000021386, -0.640701805728086 
3.1200000000021597, -0.6406940034412576 
3.130000000002181, -0.6406893000806455 
3.140000000002202, -0.6407003286169541 
3.150000000002223, -0.6407267689078437 
3.160000000002244, -0.6407514502666884 
3.1700000000022652, -0.6407445482146685 
3.1800000000022863, -0.6406741270474222 
3.1900000000023074, -0.64051712306172 
3.2000000000023285, -0.6402651789825061 
3.2100000000023496, -0.6399243919096519 
3.2200000000023707, -0.6395124347631196 
3.230000000002392, -0.6390573715168093 
3.240000000002413, -0.6386009429087415 
3.250000000002434, -0.6382076365561864 
3.260000000002455, -0.637980346622892 
3.2700000000024763, -0.6380832762233287 
3.2800000000024974, -0.6387719101072148 
3.2900000000025185, -0.6404271691495106 
3.3000000000025396, -0.6435842646211164 
3.3100000000025607, -0.6489326846048927 
3.3200000000025818, -0.6572383306651111 
3.330000000002603, -0.6691106185402812 
3.340000000002624, -0.6845633801607397 
3.350000000002645, -0.7025210943510011 
3.360000000002666, -0.7207795243632973 
3.3700000000026873, -0.7368626839496984 
3.3800000000027084, -0.7492454576707598 
3.3900000000027295, -0.757799017299622 
3.4000000000027506, -0.7632757561270604 
3.4100000000027717, -0.7666124872173714 
3.420000000002793, -0.7685656203227226 
3.430000000002814, -0.7696429240374669 
3.440000000002835, -0.770152628627234 
3.450000000002856, -0.7702658599291745 
3.460000000002877, -0.7700602570571247 
3.4700000000028983, -0.769541448752766 
3.4800000000029194, -0.7686446582231699 
3.4900000000029405, -0.7672168052116971 
3.5000000000029616, -0.7649773350740506 
3.5100000000029827, -0.7614603213424251 
3.520000000003004, -0.7559651300500321 
3.530000000003025, -0.7476069121912956 
3.540000000003046, -0.7356318828924039 
3.550000000003067, -0.7200537465512037 
3.5600000000030882, -0.7021813604351935 
3.5700000000031094, -0.6842997749929205 
3.5800000000031305, -0.6685649400186086 
3.5900000000031516, -0.6561346690568255 
3.6000000000031727, -0.6471206646097276 
3.6100000000031938, -0.6410180944220887 
3.620000000003215, -0.6371258922966969 
3.630000000003236, -0.6347852219062329 
3.640000000003257, -0.6334689669875591 
3.650000000003278, -0.6327920262961841 
3.6600000000032993, -0.632489699990704 
3.6700000000033204, -0.632387934327815 
3.6800000000033415, -0.632375592359121 
3.6900000000033626, -0.6323823667285324 
3.7000000000033837, -0.632363088209702 
3.710000000003405, -0.6322881348865709 
3.720000000003426, -0.6321393134475837 
3.730000000003447, -0.6319100532620199 
3.740000000003468, -0.6316074486488742 
3.750000000003489, -0.6312522496062705 
3.7600000000035103, -0.6308734637059675 
3.7700000000035314, -0.6304980234431327 
3.7800000000035525, -0.6301404248032657 
3.7900000000035736, -0.6297981190053416 
3.8000000000035947, -0.6294549658312321 
3.810000000003616, -0.6290902634247394 
3.820000000003637, -0.6286881945759037 
3.830000000003658, -0.6282436150534519 
3.840000000003679, -0.6277637047003705 
3.8500000000037002, -0.6272679403808684 
3.8600000000037213, -0.6267893442283321 
3.8700000000037424, -0.62637884364688 
3.8800000000037635, -0.6261133566178292 
3.8900000000037847, -0.6261074432569964 
3.9000000000038058, -0.6265277932194321 
3.910000000003827, -0.6276090051008578 
3.920000000003848, -0.6296674956442303 
3.930000000003869, -0.6331067933124009 
3.94000000000389, -0.6383997126011662 
3.9500000000039113, -0.6460191011771297 
3.9600000000039324, -0.6562754041169386 
3.9700000000039535, -0.6690400078811386 
3.9800000000039746, -0.6834542320019279 
3.9900000000039957, -0.6979276136110482 
4.000000000004016, -0.7106937861256567 
4.010000000003993, -0.7206239298101136 
4.02000000000397, -0.7275742603730306 
4.030000000003946, -0.7320738892769577 
4.040000000003923, -0.7348292505577164 
4.0500000000039, -0.7364329557585418 
4.0600000000038765, -0.7372921653719888 
4.070000000003853, -0.7376561005765732 
4.08000000000383, -0.737660635160592 
4.090000000003807, -0.7373604495583288 
4.100000000003783, -0.7367432988236907 
4.11000000000376, -0.7357264636267801 
4.120000000003737, -0.7341342802468753 
4.130000000003713, -0.7316546326378578 
4.14000000000369, -0.7277795341204137 
4.150000000003667, -0.7217670522738013 
4.1600000000036434, -0.712735536314039 
4.17000000000362, -0.7000592942156003 
4.180000000003597, -0.6840398561477491 
4.1900000000035735, -0.6662796516889856 
4.20000000000355, -0.6490998342735754 
4.210000000003527, -0.6343931748566692 
4.220000000003504, -0.6229800698165873 
4.23000000000348, -0.6147601320539067 
4.240000000003457, -0.6091727528820747 
4.250000000003434, -0.6055568827338115 
4.26000000000341, -0.6033267915659133 
4.270000000003387, -0.6020252290401895 
4.280000000003364, -0.6013197760605858 
4.2900000000033405, -0.6009798359654395 
4.300000000003317, -0.6008507846748103 
4.310000000003294, -0.6008313909816698 
4.320000000003271, -0.6008562718914205 
4.330000000003247, -0.6008835406284325 
4.340000000003224, -0.6008872866957777 
4.350000000003201, -0.6008542376597495 
4.360000000003177, -0.6007833070785287 
4.370000000003154, -0.6006856044944137 
4.380000000003131, -0.6005817598731226 
4.390000000003107, -0.6004946618866961 
4.400000000003084, -0.600439137631073 
4.410000000003061, -0.6004133206637582 
4.4200000000030375, -0.6003966901251255 
4.430000000003014, -0.6003565284471187 
4.440000000002991, -0.6002596345567353 
4.450000000002968, -0.600082934442106 
4.460000000002944, -0.5998181482785032 
4.470000000002921, -0.5994706403404463 
4.480000000002898, -0.5990563150533194 
4.490000000002874, -0.5986006415796701 
4.500000000002851, -0.5981423455285988 
4.510000000002828, -0.5977433176184748 
4.520000000002804, -0.5975064765789104 
4.530000000002781, -0.597604073472567 
4.540000000002758, -0.5983190958182644 
4.5500000000027345, -0.6000999050567446 
4.560000000002711, -0.6036181630126365 
4.570000000002688, -0.609792503827443 
4.580000000002665, -0.6196837646624587 
4.590000000002641, -0.634104137961705 
4.600000000002618, -0.6528653126676834 
4.610000000002595, -0.6740856415151171 
4.620000000002571, -0.6945629614250233 
4.630000000002548, -0.7114599801334305 
4.640000000002525, -0.7237053031480866 
4.6500000000025015, -0.7318183169287781 
4.660000000002478, -0.7369178946060362 
4.670000000002455, -0.7400296156889652 
4.6800000000024315, -0.741881013796511 
4.690000000002408, -0.742932816923391 
4.700000000002385, -0.7434591884655128 
4.710000000002362, -0.7436123109424065 
4.720000000002338, -0.7434617751612864 
4.730000000002315, -0.7430129625320107 
4.740000000002292, -0.7422087903993985 
4.750000000002268, -0.7409173476052208 
4.760000000002245, -0.7389091430107297 
4.770000000002222, -0.7358374822265944 
4.7800000000021985, -0.7312594779256837 
4.790000000002175, -0.724761107455093 
4.800000000002152, -0.7162143883608783 
4.810000000002129, -0.7060326230389744 
4.820000000002105, -0.6951518183929275 
4.830000000002082, -0.6846658367289414 
4.840000000002059, -0.6754112884832658 
4.850000000002035, -0.6677970006459805 
4.860000000002012, -0.6618724062913827 
4.870000000001989, -0.6574758741499742 
4.880000000001965, -0.6543566788646051 
4.890000000001942, -0.6522475957614418 
4.900000000001919, -0.650901097118966 
4.9100000000018955, -0.650105050956568 
4.920000000001872, -0.649687644247946 
