t, s[1].omega / s[0].omega 
0, -1.2599979265328627 
0.009999999999999995, -1.259620320374695 
0.019999999999999934, -1.2589122208709669 
0.029999999999999874, -1.2579068182739934 
0.04000000000000012, -1.256689270395664 
0.050000000000000405, -1.2554148636144902 
0.06000000000000069, -1.254333972274053 
0.07000000000000098, -1.2537225102404679 
0.08000000000000126, -1.2535647412351982 
0.09000000000000155, -1.25350629393549 
0.10000000000000184, -1.2531750292953008 
0.11000000000000212, -1.2521974124081245 
0.12000000000000241, -1.2499874649172857 
0.130000000000002, -1.2457005360733615 
0.1400000000000009, -1.2385363473621414 
0.1499999999999998, -1.2281860283554382 
0.1599999999999987, -1.215477369014896 
0.1699999999999976, -1.2036845188726353 
0.1799999999999965, -1.1972820065625829 
0.1899999999999954, -1.1960706015731435 
0.1999999999999943, -1.1964892831451739 
0.2099999999999932, -1.1967450220239735 
0.2199999999999921, -1.1964665751410624 
0.229999999999991, -1.1952931672821767 
0.2399999999999899, -1.1918506394459056 
0.2499999999999888, -1.1813062652284243 
0.2599999999999877, -1.148822047981026 
0.2699999999999866, -1.067739790010702 
0.2799999999999855, -0.9490954681484522 
0.2899999999999844, -0.8652761302581392 
0.2999999999999833, -0.8354122390927559 
0.3099999999999822, -0.8304232538029107 
0.3199999999999811, -0.8313368711602462 
0.32999999999998, -0.8325749399100043 
0.3399999999999789, -0.8332517686152742 
0.3499999999999778, -0.8334070707247506 
0.35999999999997667, -0.8330668656965622 
0.36999999999997557, -0.8320167777099284 
0.37999999999997447, -0.8296221923366677 
0.38999999999997337, -0.8247236944804063 
0.39999999999997227, -0.8163049849470426 
0.40999999999997117, -0.8050834649757417 
0.41999999999997006, -0.7934500931518266 
0.42999999999996896, -0.7833763889570252 
0.43999999999996786, -0.7756168283023875 
0.44999999999996676, -0.7702266845427634 
0.45999999999996566, -0.7669461770165731 
0.46999999999996456, -0.7652925235584599 
0.47999999999996346, -0.7646665863739248 
0.48999999999996235, -0.7645351857318772 
0.49999999999996125, -0.7645402164060834 
0.5099999999999602, -0.7644790474747193 
0.519999999999959, -0.7642415804457992 
0.529999999999958, -0.763786615805061 
0.5399999999999568, -0.7631560770606921 
0.5499999999999557, -0.7624524930488404 
0.5599999999999546, -0.7617593325005532 
0.5699999999999535, -0.7610935777295402 
0.5799999999999524, -0.7604364318741264 
0.5899999999999513, -0.759790736501311 
0.5999999999999502, -0.7592121937915204 
0.6099999999999491, -0.7588083615373303 
0.619999999999948, -0.7587132319746821 
0.6299999999999469, -0.7590430974220003 
0.6399999999999458, -0.75985839563015 
0.6499999999999447, -0.7611617048948522 
0.6599999999999436, -0.7629302968630144 
0.6699999999999425, -0.765149074483068 
0.6799999999999414, -0.7677962922814541 
0.6899999999999403, -0.7707424612180138 
0.6999999999999392, -0.7736182945791498 
0.7099999999999381, -0.775902733539819 
0.719999999999937, -0.77730320818402 
0.7299999999999359, -0.7779146926866568 
0.7399999999999348, -0.7779803149068119 
0.7499999999999337, -0.777684051110372 
0.7599999999999326, -0.7771526921316246 
0.7699999999999315, -0.7766510942656284 
0.7799999999999304, -0.7771529048542999 
0.7899999999999293, -0.7816858043992416 
0.7999999999999282, -0.7972655553156641 
0.8099999999999271, -0.8342206767101065 
0.819999999999926, -0.8955455750447169 
0.8299999999999249, -0.9612645858111702 
0.8399999999999238, -1.004800592530132 
0.8499999999999227, -1.0243653366367547 
0.8599999999999216, -1.031522588833215 
0.8699999999999205, -1.0339278823616254 
0.8799999999999194, -1.03457951228653 
0.8899999999999183, -1.034443272089475 
0.8999999999999172, -1.0337410855968925 
0.9099999999999161, -1.0325061890304894 
0.919999999999915, -1.0316046202599738 
0.9299999999999139, -1.0358630511524862 
0.9399999999999128, -1.05605731371859 
0.9499999999999117, -1.0961354350158852 
0.9599999999999106, -1.1405523854121384 
0.9699999999999095, -1.1722505347826302 
0.9799999999999084, -1.18855463746639 
0.9899999999999073, -1.1952338387672317 
0.9999999999999062, -1.1975741229718426 
1.0099999999999052, -1.1981849183845825 
1.019999999999904, -1.1980584310165843 
1.029999999999903, -1.1976079199244463 
1.039999999999902, -1.1973760518206384 
1.0499999999999008, -1.198416404200179 
1.0599999999998997, -1.201362633098142 
1.0699999999998986, -1.2053904622800298 
1.0799999999998975, -1.2093409091764902 
1.0899999999998964, -1.2126558945214225 
1.0999999999998953, -1.215167781944002 
1.1099999999998942, -1.216830006188878 
1.119999999999893, -1.217686493948386 
1.129999999999892, -1.2178940940091658 
1.1399999999998909, -1.2176672442473768 
1.1499999999998898, -1.217234705066198 
1.1599999999998887, -1.216854268828731 
1.1699999999998876, -1.2167354567257151 
1.1799999999998865, -1.2169055693445072 
1.1899999999998854, -1.2172569932982857 
1.1999999999998843, -1.2176352517561317 
1.2099999999998832, -1.2178737240499788 
1.219999999999882, -1.2178436824915035 
1.229999999999881, -1.2174765725792696 
1.2399999999998799, -1.2167547650499038 
1.2499999999998788, -1.215688044531315 
1.2599999999998777, -1.2143003980982139 
1.2699999999998766, -1.2126513875653964 
1.2799999999998755, -1.210885549149166 
1.2899999999998744, -1.2093003653580214 
1.2999999999998733, -1.208290479574698 
1.3099999999998722, -1.2079494041398324 
1.319999999999871, -1.207902528713503 
1.32999999999987, -1.207714331519628 
1.3399999999998689, -1.2070332350928479 
1.3499999999998678, -1.2053617094882045 
1.3599999999998666, -1.2018754070495732 
1.3699999999998655, -1.1956156963831208 
1.3799999999998644, -1.1860567837633513 
1.3899999999998633, -1.1736164452355498 
1.3999999999998622, -1.160353388665697 
1.4099999999998611, -1.150354809424776 
1.41999999999986, -1.1462463012186774 
1.429999999999859, -1.1458540507989874 
1.4399999999998578, -1.1462409663296764 
1.4499999999998567, -1.1463388051598646 
1.4599999999998556, -1.1458818129594506 
1.4699999999998545, -1.144383318490272 
1.4799999999998534, -1.1401712293111954 
1.4899999999998523, -1.1280838444517944 
1.4999999999998512, -1.0955979237602407 
1.5099999999998501, -1.0287396595135114 
1.519999999999849, -0.943988980149405 
1.529999999999848, -0.8839682155917833 
1.5399999999998468, -0.859268049842372 
1.5499999999998457, -0.8534197204784445 
1.5599999999998446, -0.8532817455627646 
1.5699999999998435, -0.8539818827243004 
1.5799999999998424, -0.854410788332208 
1.5899999999998413, -0.8544278203467947 
1.5999999999998402, -0.8539557992611425 
1.6099999999998391, -0.8526979896354394 
1.619999999999838, -0.8499645804117508 
1.629999999999837, -0.8447545947274656 
1.6399999999998358, -0.8366468324312555 
1.6499999999998347, -0.8267936918512752 
1.6599999999998336, -0.8171018773720907 
1.6699999999998325, -0.8088305916029586 
1.6799999999998314, -0.8024663705761955 
1.6899999999998303, -0.7980996960671964 
1.6999999999998292, -0.7955509923922349 
1.709999999999828, -0.7943764282431925 
1.719999999999827, -0.794008042752721 
1.729999999999826, -0.7939667674651575 
1.7399999999998248, -0.7939511058405417 
1.7499999999998237, -0.793792348368216 
1.7599999999998226, -0.7933958539245828 
1.7699999999998215, -0.792740324046943 
1.7799999999998204, -0.791898612767862 
1.7899999999998193, -0.7909917386388867 
1.7999999999998182, -0.7901004038581412 
1.809999999999817, -0.7892412377586384 
1.819999999999816, -0.7884143303239459 
1.8299999999998149, -0.7876530584748376 
1.8399999999998138, -0.787037548344231 
1.8499999999998127, -0.78667338099571 
1.8599999999998116, -0.7866496849123715 
1.8699999999998105, -0.7870020221495843 
1.8799999999998094, -0.7877057723155884 
1.8899999999998083, -0.788701982846905 
1.8999999999998072, -0.7899351942496238 
1.909999999999806, -0.7913735355665389 
1.919999999999805, -0.792981519071635 
1.9299999999998039, -0.7946429648074103 
1.9399999999998028, -0.7961152822408643 
1.9499999999998017, -0.7971428933229823 
1.9599999999998006, -0.7976413087008811 
1.9699999999997995, -0.7977007257135093 
1.9799999999997984, -0.7974633889319581 
1.9899999999997973, -0.7970877415533613 
1.9999999999997962, -0.7968696393852981 
2.0099999999998173, -0.7975211643807468 
2.0199999999998384, -0.8004847638594982 
2.0299999999998595, -0.8078566805573995 
2.0399999999998806, -0.8215514706420495 
2.0499999999999017, -0.8419987984017061 
2.059999999999923, -0.8667347661590654 
2.069999999999944, -0.8898467019585786 
2.079999999999965, -0.9056062325512104 
2.089999999999986, -0.9136005793804447 
2.100000000000007, -0.9169165448046962 
2.1100000000000283, -0.9180794052332569 
2.1200000000000494, -0.9182688787099161 
2.1300000000000705, -0.917884887878796 
2.1400000000000916, -0.9169639819045704 
2.1500000000001127, -0.9155007346352778 
2.160000000000134, -0.9145265171310251 
2.170000000000155, -0.9200482320980715 
2.180000000000176, -0.9493837890227108 
2.190000000000197, -1.0198523428637136 
2.2000000000002182, -1.1069808956835427 
2.2100000000002393, -1.1646743432902658 
2.2200000000002604, -1.1891330300276615 
2.2300000000002815, -1.1974741251521177 
2.2400000000003026, -1.2000806998960205 
2.2500000000003237, -1.2007236333493176 
2.260000000000345, -1.20056686701961 
2.270000000000366, -1.1999934421882912 
2.280000000000387, -1.1995482923316891 
2.290000000000408, -1.2008370892042848 
2.3000000000004293, -1.2055830972432364 
2.3100000000004504, -1.2127689588335124 
2.3200000000004715, -1.2199471280216567 
2.3300000000004926, -1.225803809872258 
2.3400000000005137, -1.2300024183420004 
2.3500000000005348, -1.2325876118973973 
2.360000000000556, -1.233850194105164 
2.370000000000577, -1.234214041123323 
2.380000000000598, -1.2340557594622978 
2.390000000000619, -1.2336772669382303 
2.4000000000006403, -1.2333992375748444 
2.4100000000006614, -1.2334884209199388 
2.4200000000006825, -1.2339412541423982 
2.4300000000007036, -1.2345629514616066 
2.4400000000007247, -1.2351590464616808 
2.450000000000746, -1.2355767155305313 
2.460000000000767, -1.235717649592517 
2.470000000000788, -1.2355394302779197 
2.480000000000809, -1.235034133747842 
2.49000000000083, -1.2342082779477244 
2.5000000000008513, -1.2330883034081725 
2.5100000000008724, -1.2317478662224517 
2.5200000000008935, -1.2303365844796774 
2.5300000000009146, -1.2291138132786261 
2.5400000000009357, -1.2283835960797096 
2.550000000000957, -1.2281688915182543 
2.560000000000978, -1.2281228617065008 
2.570000000000999, -1.2278633192548716 
2.58000000000102, -1.2270415756926 
2.5900000000010412, -1.2251453344343792 
2.6000000000010624, -1.2214281741770623 
2.6100000000010835, -1.215177545137598 
2.6200000000011046, -1.20612314638135 
2.6300000000011257, -1.1948109090185597 
2.6400000000011468, -1.183460501083436 
2.650000000001168, -1.1759378184629978 
2.660000000001189, -1.1735785081479784 
2.67000000000121, -1.1736780815579042 
2.680000000001231, -1.173995998130257 
2.6900000000012523, -1.1738961312801126 
2.7000000000012734, -1.1730998155401038 
2.7100000000012945, -1.170749591761544 
2.7200000000013156, -1.16391581500131 
2.7300000000013367, -1.1436967700117802 
2.740000000001358, -1.0912485795244407 
2.750000000001379, -0.9987932114388748 
2.7600000000014, -0.9098379161498259 
2.770000000001421, -0.8645399327358365 
2.780000000001442, -0.8515625946892541 
2.7900000000014633, -0.8501562269127108 
2.8000000000014844, -0.8509996986989301 
2.8100000000015055, -0.8517161708332118 
2.8200000000015266, -0.8519822147601842 
2.8300000000015477, -0.8517892685253357 
2.840000000001569, -0.8509901476015718 
2.85000000000159, -0.8490948007461672 
2.860000000001611, -0.845115974796943 
2.870000000001632, -0.8379428952335508 
2.8800000000016532, -0.8277188351308747 
2.8900000000016743, -0.8163954672911946 
2.9000000000016954, -0.8060611069017038 
2.9100000000017165, -0.7977653941868958 
2.9200000000017377, -0.7917902831840948 
2.9300000000017588, -0.7880288202219266 
2.94000000000178, -0.7860721050206803 
2.950000000001801, -0.7853047883808887 
2.960000000001822, -0.785127932177305 
2.970000000001843, -0.7851248537585224 
2.9800000000018643, -0.785059893715562 
2.9900000000018854, -0.7848018350637331 
3.0000000000019065, -0.7842847005634828 
3.0100000000019276, -0.7835279209453909 
3.0200000000019487, -0.7826379039363373 
3.03000000000197, -0.7817307007337351 
3.040000000001991, -0.7808586080357535 
3.050000000002012, -0.7800221013218398 
3.060000000002033, -0.7792273826009074 
3.070000000002054, -0.7785242662157703 
3.0800000000020753, -0.7780058591612354 
3.0900000000020964, -0.777778632269673 
3.1000000000021175, -0.7779193657186539 
3.1100000000021386, -0.7784464713399856 
3.1200000000021597, -0.779325483976695 
3.130000000002181, -0.7805017010670103 
3.140000000002202, -0.7819343027672205 
3.150000000002223, -0.7835995605348649 
3.160000000002244, -0.7854362895436323 
3.1700000000022652, -0.787256900182589 
3.1800000000022863, -0.7887549411867455 
3.1900000000023074, -0.7896995915660873 
3.2000000000023285, -0.7900874088535301 
3.2100000000023496, -0.7900556288317135 
3.2200000000023707, -0.7897530618267633 
3.230000000002392, -0.7893516635507288 
3.240000000002413, -0.7892340975089156 
3.250000000002434, -0.7903848989194722 
3.260000000002455, -0.7948439139687684 
3.2700000000024763, -0.805614235512542 
3.2800000000024974, -0.8253508447724809 
3.2900000000025185, -0.8539153394343597 
3.3000000000025396, -0.8858142353165168 
3.3100000000025607, -0.9116511674674116 
3.3200000000025818, -0.9265093278476924 
3.330000000002603, -0.9330817569266087 
3.340000000002624, -0.9355769782924339 
3.350000000002645, -0.9363508735626158 
3.360000000002666, -0.9363239345263138 
3.3700000000026873, -0.9357450780171436 
3.3800000000027084, -0.93457112138235 
3.3900000000027295, -0.9329199225811834 
3.4000000000027506, -0.932986730400775 
3.4100000000027717, -0.944840372518794 
3.420000000002793, -0.9897188496615225 
3.430000000002814, -1.0718515945089973 
3.440000000002835, -1.1486039660218323 
3.450000000002856, -1.1894425800453878 
3.460000000002877, -1.2048724103225186 
3.4700000000028983, -1.2099180131089118 
3.4800000000029194, -1.2114117540145872 
3.4900000000029405, -1.2116276048294994 
3.5000000000029616, -1.211257132038 
3.5100000000029827, -1.2106607621657393 
3.520000000003004, -1.2107820082140135 
3.530000000003025, -1.2134270871906956 
3.540000000003046, -1.21899639285282 
3.550000000003067, -1.2255199492807485 
3.5600000000030882, -1.231282265173943 
3.5700000000031094, -1.2356962019662106 
3.5800000000031305, -1.2386795830946973 
3.5900000000031516, -1.2403597407347262 
3.6000000000031727, -1.2410355092889305 
3.6100000000031938, -1.2410597067350118 
3.620000000003215, -1.2407331993215076 
3.630000000003236, -1.2403443193871868 
3.640000000003257, -1.2401880476208065 
3.650000000003278, -1.2403875765855077 
3.6600000000032993, -1.2408318668052676 
3.6700000000033204, -1.2413425126152315 
3.6800000000033415, -1.241750095734343 
3.6900000000033626, -1.241918147718143 
3.7000000000033837, -1.2417672514491078 
3.710000000003405, -1.2412688881960094 
3.720000000003426, -1.2404228701854498 
3.730000000003447, -1.2392427883083057 
3.740000000003468, -1.2377711416506885 
3.750000000003489, -1.2361185896792777 
3.7600000000035103, -1.2345263803692113 
3.7700000000035314, -1.233384352819372 
3.7800000000035525, -1.2329166683336383 
3.7900000000035736, -1.232845043510234 
3.8000000000035947, -1.2327098577597388 
3.810000000003616, -1.232141144067038 
3.820000000003637, -1.2306570298666848 
3.830000000003658, -1.2273917217271955 
3.840000000003679, -1.2211368607398763 
3.8500000000037002, -1.210913611600077 
3.8600000000037213, -1.196777007231144 
3.8700000000037424, -1.18095748421863 
3.8800000000037635, -1.1687079817998314 
3.8900000000037847, -1.1637573528549512 
3.9000000000038058, -1.1633910801708773 
3.910000000003827, -1.1639052822017977 
3.920000000003848, -1.1640727265696873 
3.930000000003869, -1.1636622075428706 
3.94000000000389, -1.162228558202784 
3.9500000000039113, -1.158097086850697 
3.9600000000039324, -1.1456375076302305 
3.9700000000039535, -1.1090253589365615 
3.9800000000039746, -1.025410885599165 
3.9900000000039957, -0.9143131246935234 
4.000000000004016, -0.8391436147204978 
4.010000000003993, -0.8109513757226429 
4.02000000000397, -0.8048945860227056 
4.030000000003946, -0.8049105015195788 
4.040000000003923, -0.8057357338366369 
4.0500000000039, -0.8062596171825998 
4.0600000000038765, -0.8063695249773285 
4.070000000003853, -0.8060340453084339 
4.08000000000383, -0.8050538278935986 
4.090000000003807, -0.8029444733842618 
4.100000000003783, -0.7990148090610367 
4.11000000000376, -0.7929990816753884 
4.120000000003737, -0.7857475669112802 
4.130000000003713, -0.7786344671100944 
4.14000000000369, -0.7725203205081839 
4.150000000003667, -0.7676677459853406 
4.1600000000036434, -0.7640879033539819 
4.17000000000362, -0.7617075785819151 
4.180000000003597, -0.7603615968004142 
4.1900000000035735, -0.7597777214944084 
4.20000000000355, -0.7596399855679445 
4.210000000003527, -0.7596805060900366 
4.220000000003504, -0.7597202499651718 
4.23000000000348, -0.7596609206385263 
4.240000000003457, -0.7594752777193559 
4.250000000003434, -0.7592016555140683 
4.26000000000341, -0.7589047544326182 
4.270000000003387, -0.758612251229327 
4.280000000003364, -0.7582952173130668 
4.2900000000033405, -0.7579124956764842 
4.300000000003317, -0.7574653123109942 
4.310000000003294, -0.7570197298138552 
4.320000000003271, -0.7567097859991353 
4.330000000003247, -0.7567303547354322 
4.340000000003224, -0.7572989015951592 
4.350000000003201, -0.7585903113670368 
4.360000000003177, -0.7606984838869881 
4.370000000003154, -0.7636580496069625 
4.380000000003131, -0.7674806357733198 
4.390000000003107, -0.772107432822805 
4.400000000003084, -0.7772029640432399 
4.410000000003061, -0.781964202183296 
4.4200000000030375, -0.7854846239511734 
4.430000000003014, -0.7874953665101453 
4.440000000002991, -0.788361165727148 
4.450000000002968, -0.7885243056203104 
4.460000000002944, -0.7882358197510948 
4.470000000002921, -0.787584712496032 
4.480000000002898, -0.7866713859677543 
4.490000000002874, -0.7861687703365582 
4.500000000002851, -0.7892048749484346 
4.510000000002828, -0.8059362240301232 
4.520000000002804, -0.8569852238901664 
4.530000000002781, -0.9521753039261293 
4.540000000002758, -1.0486975711531026 
4.5500000000027345, -1.1022148277550174 
4.560000000002711, -1.1223189135548308 
4.570000000002688, -1.1288401405818067 
4.580000000002665, -1.1308462572061222 
4.590000000002641, -1.1312816593418733 
4.600000000002618, -1.1309942124676429 
4.610000000002595, -1.1301872801547572 
4.620000000002571, -1.129242293987705 
4.630000000002548, -1.130418611356353 
4.640000000002525, -1.1389535397195119 
4.6500000000025015, -1.1566637542198746 
4.660000000002478, -1.177227209838503 
4.670000000002455, -1.1941452668652848 
4.6800000000024315, -1.2051786345624123 
4.690000000002408, -1.2110308228899844 
4.700000000002385, -1.2135631911189004 
4.710000000002362, -1.214388786366926 
4.720000000002338, -1.2144095716998118 
4.730000000002315, -1.2140751007446777 
4.740000000002292, -1.213799445109338 
4.750000000002268, -1.2141611791197546 
4.760000000002245, -1.215446418041239 
4.770000000002222, -1.2172679276610578 
4.7800000000021985, -1.219097596694279 
4.790000000002175, -1.2206565273949088 
4.800000000002152, -1.2218437346450808 
4.810000000002129, -1.2226228738866525 
4.820000000002105, -1.222977311031921 
4.830000000002082, -1.2229205697991403 
4.840000000002059, -1.2225202713654908 
4.850000000002035, -1.2219033616729764 
4.860000000002012, -1.2212459980544212 
4.870000000001989, -1.2207190948757365 
4.880000000001965, -1.2204274614532191 
4.890000000001942, -1.220389857999947 
4.900000000001919, -1.2204856266174715 
4.9100000000018955, -1.220490889217205 
4.920000000001872, -1.2201918623577304 
4.930000000001849, -1.2194126798764 
4.940000000001826, -1.2180277325365299 
