t, s[1].omega / s[0].omega 
0, -0.739997676523054 
0.009999999999999995, -0.7397482709585763 
0.019999999999999934, -0.7394606158894566 
0.029999999999999874, -0.7391242568513479 
0.04000000000000012, -0.7387295382275137 
0.050000000000000405, -0.7382740977379045 
0.06000000000000069, -0.7377663593113604 
0.07000000000000098, -0.7372264323593531 
0.08000000000000126, -0.7366865628978877 
0.09000000000000155, -0.7361927018745649 
0.10000000000000184, -0.735807058510648 
0.11000000000000212, -0.7356100501762881 
0.12000000000000241, -0.7356995196763643 
0.130000000000002, -0.736185718072331 
0.1400000000000009, -0.7371821619263718 
0.1499999999999998, -0.7387941075322768 
0.1599999999999987, -0.7411065898612459 
0.1699999999999976, -0.7441719921442856 
0.1799999999999965, -0.7479939935231715 
0.1899999999999954, -0.7525035912155549 
0.1999999999999943, -0.7575283668466937 
0.2099999999999932, -0.7627716039006487 
0.2199999999999921, -0.7678354098290014 
0.229999999999991, -0.7723128386908031 
0.2399999999999899, -0.7759167915252492 
0.2499999999999888, -0.7785591699413954 
0.2599999999999877, -0.780327430476074 
0.2699999999999866, -0.7813960594165061 
0.2799999999999855, -0.7819440925542743 
0.2899999999999844, -0.7821121757643243 
0.2999999999999833, -0.7819923393859397 
0.3099999999999822, -0.7816328733168261 
0.3199999999999811, -0.7810468300407665 
0.32999999999998, -0.7802207397416903 
0.3399999999999789, -0.7791260470134742 
0.3499999999999778, -0.7777408065073343 
0.35999999999997667, -0.7760939314235971 
0.36999999999997557, -0.774344071622417 
0.37999999999997447, -0.7728844715432548 
0.38999999999997337, -0.7724018453537125 
0.39999999999997227, -0.7737330307280247 
0.40999999999997117, -0.7774189579448201 
0.41999999999997006, -0.7832252185568374 
0.42999999999996896, -0.790177344154144 
0.43999999999996786, -0.7971300187449949 
0.44999999999996676, -0.8032570401514842 
0.45999999999996566, -0.8081683226488228 
0.46999999999996456, -0.811820802970759 
0.47999999999996346, -0.8143759750322943 
0.48999999999996235, -0.8160688082773631 
0.49999999999996125, -0.8171222938403714 
0.5099999999999602, -0.8177099054916919 
0.519999999999959, -0.8179480119502882 
0.529999999999958, -0.8178997189965942 
0.5399999999999568, -0.8175785650095966 
0.5499999999999557, -0.8169461644419377 
0.5599999999999546, -0.8159009305178102 
0.5699999999999535, -0.814257778929759 
0.5799999999999524, -0.8117258400064099 
0.5899999999999513, -0.8079085416726702 
0.5999999999999502, -0.8023755226831586 
0.6099999999999491, -0.7948530350291744 
0.619999999999948, -0.7854833451658718 
0.6299999999999469, -0.7749497191467951 
0.6399999999999458, -0.7642893586773707 
0.6499999999999447, -0.7545044364502076 
0.6599999999999436, -0.7462621152485958 
0.6699999999999425, -0.739823481420184 
0.6799999999999414, -0.7351310092948251 
0.6899999999999403, -0.7319385484940288 
0.6999999999999392, -0.7299217428192691 
0.7099999999999381, -0.728754084492111 
0.719999999999937, -0.7281513655371094 
0.7299999999999359, -0.7278906278043484 
0.7399999999999348, -0.7278106163318866 
0.7499999999999337, -0.7278013449186468 
0.7599999999999326, -0.7277896872373344 
0.7699999999999315, -0.7277259622734357 
0.7799999999999304, -0.7275743779150874 
0.7899999999999293, -0.7273086501114864 
0.7999999999999282, -0.7269127933117485 
0.8099999999999271, -0.7263851296040338 
0.819999999999926, -0.7257412159379096 
0.8299999999999249, -0.7250110615562251 
0.8399999999999238, -0.7242298903739416 
0.8499999999999227, -0.7234272720167856 
0.8599999999999216, -0.7226210229070984 
0.8699999999999205, -0.7218184332689618 
0.8799999999999194, -0.7210224409800429 
0.8899999999999183, -0.7202385243463258 
0.8999999999999172, -0.7194795443034028 
0.9099999999999161, -0.7187681342307531 
0.919999999999915, -0.718137421291549 
0.9299999999999139, -0.7176306147498998 
0.9399999999999128, -0.7172993137869674 
0.9499999999999117, -0.7172002018571118 
0.9599999999999106, -0.7173903243843857 
0.9699999999999095, -0.7179219585414501 
0.9799999999999084, -0.7188384679164692 
0.9899999999999073, -0.7201719955679573 
0.9999999999999062, -0.7219424453241757 
1.0099999999999052, -0.7241554893446095 
1.019999999999904, -0.7267961468816444 
1.029999999999903, -0.7298150225300676 
1.039999999999902, -0.7331085056692606 
1.0499999999999008, -0.7365035035900178 
1.0599999999998997, -0.7397670446304824 
1.0699999999998986, -0.742655897869408 
1.0799999999998975, -0.744990011252778 
1.0899999999998964, -0.7467023512732961 
1.0999999999998953, -0.74783224097492 
1.1099999999998942, -0.7484777889740595 
1.119999999999893, -0.7487462655867263 
1.129999999999892, -0.7487248020039833 
1.1399999999998909, -0.7484709604836857 
1.1499999999998898, -0.748014439778112 
1.1599999999998887, -0.7473636844322737 
1.1699999999998876, -0.7465164049094846 
1.1799999999998865, -0.7454779599653569 
1.1899999999998854, -0.7442959894644232 
1.1999999999998843, -0.743121830860151 
1.2099999999998832, -0.7423010042540208 
1.219999999999882, -0.7424587404804723 
1.229999999999881, -0.7444694448327763 
1.2399999999998799, -0.7491410538592167 
1.2499999999998788, -0.7566151731521855 
1.2599999999998777, -0.765969409616159 
1.2699999999998766, -0.7756198661103697 
1.2799999999998755, -0.7842127579707557 
1.2899999999998744, -0.7910997859439235 
1.2999999999998733, -0.796222595819803 
1.3099999999998722, -0.799826021173507 
1.319999999999871, -0.8022471589221686 
1.32999999999987, -0.8038021163041182 
1.3399999999998689, -0.8047402862730422 
1.3499999999998678, -0.8052368368495095 
1.3599999999998666, -0.8054009652720564 
1.3699999999998655, -0.8052860662480589 
1.3799999999998644, -0.8048948741728277 
1.3899999999998633, -0.8041763834407906 
1.3999999999998622, -0.8030131934364995 
1.4099999999998611, -0.8012008589122314 
1.41999999999986, -0.7984297050245984 
1.429999999999859, -0.7942991662620095 
1.4399999999998578, -0.7884163728466598 
1.4499999999998567, -0.7806082676486448 
1.4599999999998556, -0.7711564663722414 
1.4699999999998545, -0.7608389710087631 
1.4799999999998534, -0.7506720324411444 
1.4899999999998523, -0.7415377469851824 
1.4999999999998512, -0.7339609047769841 
1.5099999999998501, -0.7280991841428409 
1.519999999999849, -0.7238475916654964 
1.529999999999848, -0.7209571068042779 
1.5399999999998468, -0.7191261263864112 
1.5499999999998457, -0.7180602342999125 
1.5599999999998446, -0.7175059598596449 
1.5699999999998435, -0.7172644700867877 
1.5799999999998424, -0.7171908721475656 
1.5899999999998413, -0.7171850274838273 
1.5999999999998402, -0.7171793074845354 
1.6099999999998391, -0.7171273448337421 
1.619999999999838, -0.7169962476463663 
1.629999999999837, -0.7167633931117797 
1.6399999999998358, -0.7164174776870638 
1.6499999999998347, -0.7159614854966341 
1.6599999999998336, -0.7154134282623204 
1.6699999999998325, -0.7148014705302481 
1.6799999999998314, -0.7141543403745967 
1.6899999999998303, -0.713492296032036 
1.6999999999998292, -0.712823845256375 
1.709999999999828, -0.7121491603784379 
1.719999999999827, -0.7114670147876664 
1.729999999999826, -0.7107812243475555 
1.7399999999998248, -0.7101045897298164 
1.7499999999998237, -0.7094606966890903 
1.7599999999998226, -0.7088847635605481 
1.7699999999998215, -0.7084240878855353 
1.7799999999998204, -0.7081376749605106 
1.7899999999998193, -0.708094241967639 
1.7999999999998182, -0.7083682239192826 
1.809999999999817, -0.7090343293105231 
1.819999999999816, -0.7101618933186038 
1.8299999999998149, -0.7118100313274007 
1.8399999999998138, -0.7140231511854493 
1.8499999999998127, -0.7168242145570918 
1.8599999999998116, -0.7202014821738765 
1.8699999999998105, -0.7240855872951074 
1.8799999999998094, -0.728321045591327 
1.8899999999998083, -0.7326510833979494 
1.8999999999998072, -0.7367463828176133 
1.909999999999806, -0.7402907437939755 
1.919999999999805, -0.7430833373098895 
1.9299999999998039, -0.7450858255941035 
1.9399999999998028, -0.7463879438525557 
1.9499999999998017, -0.7471337422001506 
1.9599999999998006, -0.7474613365764942 
1.9699999999997995, -0.7474743390087153 
1.9799999999997984, -0.7472361846375133 
1.9899999999997973, -0.746774052468995 
1.9999999999997962, -0.7460846601690412 
2.0099999999998173, -0.7451401265783699 
2.0199999999998384, -0.7438963907268188 
2.0299999999998595, -0.7423101985099587 
2.0399999999998806, -0.7403727406189071 
2.0499999999999017, -0.7381627475943713 
2.059999999999923, -0.7358966982367053 
2.069999999999944, -0.733907539906111 
2.079999999999965, -0.7324846891866412 
2.089999999999986, -0.731685943200053 
2.100000000000007, -0.7314146212585211 
2.1100000000000283, -0.7316919009794527 
2.1200000000000494, -0.7326230397121145 
2.1300000000000705, -0.7341192277868923 
2.1400000000000916, -0.7358698991357138 
2.1500000000001127, -0.7375470734296915 
2.160000000000134, -0.7389490573807714 
2.170000000000155, -0.7400078414962867 
2.180000000000176, -0.7407360517952198 
2.190000000000197, -0.7411761029110296 
2.2000000000002182, -0.7413691077454186 
2.2100000000002393, -0.7413393643356142 
2.2200000000002604, -0.7410865258984187 
2.2300000000002815, -0.7405799885502261 
2.2400000000003026, -0.7397536277940161 
2.2500000000003237, -0.7385034459566719 
2.260000000000345, -0.7366965228232492 
2.270000000000366, -0.734203903176042 
2.280000000000387, -0.7309621613154742 
2.290000000000408, -0.7270393312183867 
2.3000000000004293, -0.7226528917571108 
2.3100000000004504, -0.7181104864808643 
2.3200000000004715, -0.7137114823923824 
2.3300000000004926, -0.7096761693608924 
2.3400000000005137, -0.7061297503375068 
2.3500000000005348, -0.7031222665018828 
2.360000000000556, -0.7006562425160048 
2.370000000000577, -0.6987070734109637 
2.380000000000598, -0.6972340296609956 
2.390000000000619, -0.6961853239736377 
2.4000000000006403, -0.69550117957796 
2.4100000000006614, -0.6951172786063049 
2.4200000000006825, -0.6949691116468498 
2.4300000000007036, -0.6949964924829538 
2.4400000000007247, -0.6951471938443876 
2.450000000000746, -0.6953791277524014 
2.460000000000767, -0.6956611834399016 
2.470000000000788, -0.6959731487909989 
2.480000000000809, -0.6963047802326389 
2.49000000000083, -0.6966533157916366 
2.5000000000008513, -0.6970184462537141 
2.5100000000008724, -0.6973949502004462 
2.5200000000008935, -0.6977656853466059 
2.5300000000009146, -0.698099431489673 
2.5400000000009357, -0.6983566494906679 
2.550000000000957, -0.6985011947184069 
2.560000000000978, -0.6985112608261196 
2.570000000000999, -0.6983835193381396 
2.58000000000102, -0.6981302308566416 
2.5900000000010412, -0.6977739963382728 
2.6000000000010624, -0.6973451229159656 
2.6100000000010835, -0.6968842780081967 
2.6200000000011046, -0.6964512546497925 
2.6300000000011257, -0.6961399540685009 
2.6400000000011468, -0.6960990816992572 
2.650000000001168, -0.6965563454971411 
2.660000000001189, -0.6978404077869317 
2.67000000000121, -0.7003892084032984 
2.680000000001231, -0.7047254700247395 
2.6900000000012523, -0.7113710522432957 
2.7000000000012734, -0.7206688888222332 
2.7100000000012945, -0.7325120838352224 
2.7200000000013156, -0.746088350641761 
2.7300000000013367, -0.7599006832313838 
2.740000000001358, -0.7722692930910859 
2.750000000001379, -0.7820590939794336 
2.7600000000014, -0.7890303945206512 
2.770000000001421, -0.7936079152264458 
2.780000000001442, -0.7964379309127072 
2.7900000000014633, -0.7980945208655631 
2.8000000000014844, -0.7989871020351502 
2.8100000000015055, -0.799373530621967 
2.8200000000015266, -0.7993992776989339 
2.8300000000015477, -0.799129379447827 
2.840000000001569, -0.7985652191703926 
2.85000000000159, -0.7976458290263203 
2.860000000001611, -0.7962335080765595 
2.870000000001632, -0.7940821385774469 
2.8800000000016532, -0.7907882525984297 
2.8900000000016743, -0.7857384799683671 
2.9000000000016954, -0.7781098889939901 
2.9100000000017165, -0.7670599398676813 
2.9200000000017377, -0.7522652102057775 
2.9300000000017588, -0.7346511627997006 
2.94000000000178, -0.7165320973317775 
2.950000000001801, -0.700575589129517 
2.960000000001822, -0.6884299777352604 
2.970000000001843, -0.6802914259408215 
2.9800000000018643, -0.6754168634946157 
2.9900000000018854, -0.6728011176404357 
3.0000000000019065, -0.6715722886023219 
3.0100000000019276, -0.6711099226546845 
3.0200000000019487, -0.671022008754808 
3.03000000000197, -0.671080335867878 
3.040000000001991, -0.6711591960708163 
3.050000000002012, -0.6711902853500853 
3.060000000002033, -0.6711333853236052 
3.070000000002054, -0.6709589711331396 
3.0800000000020753, -0.6706395167294595 
3.0900000000020964, -0.670148027345264 
3.1000000000021175, -0.6694633971568158 
3.1100000000021386, -0.6685809147000746 
3.1200000000021597, -0.6675223191367818 
3.130000000002181, -0.6663369826775114 
3.140000000002202, -0.6650900036215178 
3.150000000002223, -0.663843136841476 
3.160000000002244, -0.6626401240398756 
3.1700000000022652, -0.6615032505958487 
3.1800000000022863, -0.6604393767657444 
3.1900000000023074, -0.6594494550682819 
3.2000000000023285, -0.658536633272526 
3.2100000000023496, -0.6577111129856887 
3.2200000000023707, -0.6569921853882958 
3.230000000002392, -0.656408507189622 
3.240000000002413, -0.6559973292723231 
3.250000000002434, -0.6558029464909639 
3.260000000002455, -0.6558745519463902 
3.2700000000024763, -0.6562638872778277 
3.2800000000024974, -0.6570232484842168 
3.2900000000025185, -0.658204190019333 
3.3000000000025396, -0.6598564720737504 
3.3100000000025607, -0.6620254196921904 
3.3200000000025818, -0.6647441736405736 
3.330000000002603, -0.6680162269238005 
3.340000000002624, -0.671785616411338 
3.350000000002645, -0.6759014169878238 
3.360000000002666, -0.6801008899067554 
3.3700000000026873, -0.6840465998575069 
3.3800000000027084, -0.6874253414956287 
3.3900000000027295, -0.6900538629467038 
3.4000000000027506, -0.6919147497746009 
3.4100000000027717, -0.6931092508856252 
3.420000000002793, -0.6937807600986824 
3.430000000002814, -0.6940592408119478 
3.440000000002835, -0.6940375140865587 
3.450000000002856, -0.6937672915522891 
3.460000000002877, -0.6932615015626992 
3.4700000000028983, -0.6924950947914983 
3.4800000000029194, -0.6914006627889152 
3.4900000000029405, -0.6898565849752678 
3.5000000000029616, -0.6876648753334959 
3.5100000000029827, -0.6845146503576267 
3.520000000003004, -0.6799300093994125 
3.530000000003025, -0.6732280924797912 
3.540000000003046, -0.6636059257151323 
3.550000000003067, -0.6505940348269623 
3.5600000000030882, -0.6348729210539905 
3.5700000000031094, -0.6185895868661644 
3.5800000000031305, -0.604304699249995 
3.5900000000031516, -0.593520516973404 
3.6000000000031727, -0.5863122926774427 
3.6100000000031938, -0.5819368078032283 
3.620000000003215, -0.579492394071523 
3.630000000003236, -0.578240458085699 
3.640000000003257, -0.577670644445674 
3.650000000003278, -0.5774616241474565 
3.6600000000032993, -0.5774221283268836 
3.6700000000033204, -0.5774418919231222 
3.6800000000033415, -0.577457619638909 
3.6900000000033626, -0.5774314966009171 
3.7000000000033837, -0.5773388118279912 
3.710000000003405, -0.5771622352010086 
3.720000000003426, -0.5768912680694659 
3.730000000003447, -0.5765253919667144 
3.740000000003468, -0.5760781268284199 
3.750000000003489, -0.5755777185620707 
3.7600000000035103, -0.575061141573664 
3.7700000000035314, -0.5745625937292523 
3.7800000000035525, -0.5741022538678651 
3.7900000000035736, -0.573681285341006 
3.8000000000035947, -0.5732850448947601 
3.810000000003616, -0.5728918787553039 
3.820000000003637, -0.5724826242130472 
3.830000000003658, -0.5720468665950983 
3.840000000003679, -0.5715850967703535 
3.8500000000037002, -0.5711087056338647 
3.8600000000037213, -0.570640578847468 
3.8700000000037424, -0.5702183983359979 
3.8800000000037635, -0.5699019487896017 
3.8900000000037847, -0.5697854331768 
3.9000000000038058, -0.5700158615146135 
3.910000000003827, -0.5708183792049153 
3.920000000003848, -0.572527792744916 
3.930000000003869, -0.5756200184962675 
3.94000000000389, -0.580722642582386 
3.9500000000039113, -0.5885538456480535 
3.9600000000039324, -0.5997009097783003 
3.9700000000039535, -0.6141709832213513 
3.9800000000039746, -0.6308803325042366 
3.9900000000039957, -0.6476566418318669 
4.000000000004016, -0.6621855848902098 
4.010000000003993, -0.6732003012908228 
4.02000000000397, -0.6807531945170597 
4.030000000003946, -0.6856117312681539 
4.040000000003923, -0.6886233555405821 
4.0500000000039, -0.6904394730892094 
4.0600000000038765, -0.6914895027332866 
4.070000000003853, -0.6920351633308656 
4.08000000000383, -0.6922256511184959 
4.090000000003807, -0.6921344501937227 
4.100000000003783, -0.6917785380204805 
4.11000000000376, -0.6911239302917924 
4.120000000003737, -0.6900809568448041 
4.130000000003713, -0.6884938903931099 
4.14000000000369, -0.6861362105525167 
4.150000000003667, -0.6827362347949021 
4.1600000000036434, -0.678066438808386 
4.17000000000362, -0.6720973931130205 
4.180000000003597, -0.665125402682859 
4.1900000000035735, -0.6577332180990058 
4.20000000000355, -0.6505731090274401 
4.210000000003527, -0.6441416490328795 
4.220000000003504, -0.6386926365092347 
4.23000000000348, -0.6342773302637388 
4.240000000003457, -0.6308266707283954 
4.250000000003434, -0.6282185321946585 
4.26000000000341, -0.6263170437181386 
4.270000000003387, -0.6249912129712961 
4.280000000003364, -0.6241224956953338 
4.2900000000033405, -0.6236075891194873 
4.300000000003317, -0.623359359801593 
4.310000000003294, -0.623306860013254 
4.320000000003271, -0.6233946633599542 
4.330000000003247, -0.623581716572575 
4.340000000003224, -0.6238400461969833 
4.350000000003201, -0.6241535971859878 
4.360000000003177, -0.624517012533923 
4.370000000003154, -0.6249333866201092 
4.380000000003131, -0.6254095234281035 
4.390000000003107, -0.6259479226253819 
4.400000000003084, -0.6265370353087902 
4.410000000003061, -0.6271443105537207 
4.4200000000030375, -0.6277177086569747 
4.430000000003014, -0.6281979098481336 
4.440000000002991, -0.628535897483481 
4.450000000002968, -0.6287055685206312 
4.460000000002944, -0.6287049079158662 
4.470000000002921, -0.6285482330473451 
4.480000000002898, -0.6282567426890814 
4.490000000002874, -0.627852839715322 
4.500000000002851, -0.6273601911552884 
4.510000000002828, -0.6268100036950291 
4.520000000002804, -0.6262547569938367 
4.530000000002781, -0.6257924325662148 
4.540000000002758, -0.6256056595251884 
4.5500000000027345, -0.6260185378996119 
4.560000000002711, -0.627562838510204 
4.570000000002688, -0.6310124512263835 
4.580000000002665, -0.6372806262657911 
4.590000000002641, -0.6470237177440842 
4.600000000002618, -0.6599540425933509 
4.610000000002595, -0.6744125083853924 
4.620000000002571, -0.68802057525064 
4.630000000002548, -0.6990692203494796 
4.640000000002525, -0.7071629531118738 
4.6500000000025015, -0.7127580164966755 
4.660000000002478, -0.716513237018327 
4.670000000002455, -0.718985470210378 
4.6800000000024315, -0.7205767276336594 
4.690000000002408, -0.7215604860594517 
4.700000000002385, -0.7221156120325019 
4.710000000002362, -0.7223522423127323 
4.720000000002338, -0.7223285970880101 
4.730000000002315, -0.722059782720995 
4.740000000002292, -0.7215196303340841 
4.750000000002268, -0.7206370609672185 
4.760000000002245, -0.7192908188312365 
4.770000000002222, -0.7173122572511372 
4.7800000000021985, -0.7145140329030149 
4.790000000002175, -0.7107618014192832 
4.800000000002152, -0.7060753338735225 
4.810000000002129, -0.7006912437357873 
4.820000000002105, -0.6950146926607628 
4.830000000002082, -0.6894793991972406 
4.840000000002059, -0.684419293991492 
4.850000000002035, -0.6800222774125702 
4.860000000002012, -0.6763527239904266 
4.870000000001989, -0.6733963161805429 
4.880000000001965, -0.6710971978079718 
4.890000000001942, -0.6693803078515052 
4.900000000001919, -0.6681627654894993 
4.9100000000018955, -0.6673598438711905 
4.920000000001872, -0.6668891477746491 
