t, s[1].omega / s[0].omega 
0, -0.6599977078984349 
0.009999999999999995, -0.6597749358456256 
0.019999999999999934, -0.6595557989404336 
0.029999999999999874, -0.6593175686175258 
0.04000000000000012, -0.6590346030362275 
0.050000000000000405, -0.6586891380384757 
0.06000000000000069, -0.6582773369072658 
0.07000000000000098, -0.6578103333137308 
0.08000000000000126, -0.6573136406906784 
0.09000000000000155, -0.6568286317594358 
0.10000000000000184, -0.6564180817031013 
0.11000000000000212, -0.6561760117937362 
0.12000000000000241, -0.6562408713553983 
0.130000000000002, -0.656810140609517 
0.1400000000000009, -0.6581534429537819 
0.1499999999999998, -0.6606200244672321 
0.1599999999999987, -0.6646341229939269 
0.1699999999999976, -0.6706660944116958 
0.1799999999999965, -0.6791560010947073 
0.1899999999999954, -0.6903548922606014 
0.1999999999999943, -0.7040666585288445 
0.2099999999999932, -0.7193796496355003 
0.2199999999999921, -0.7346658645455626 
0.229999999999991, -0.7481152928024541 
0.2399999999999899, -0.7585519396693822 
0.2499999999999888, -0.7658174994322581 
0.2599999999999877, -0.7704725028459488 
0.2699999999999866, -0.7732752214296762 
0.2799999999999855, -0.7748628714617869 
0.2899999999999844, -0.7756700335874992 
0.2999999999999833, -0.775957833442447 
0.3099999999999822, -0.7758625108430551 
0.3199999999999811, -0.7754296083624317 
0.32999999999998, -0.7746271339747881 
0.3399999999999789, -0.7733368747774355 
0.3499999999999778, -0.7713203364212377 
0.35999999999997667, -0.7681510280681642 
0.36999999999997557, -0.7631048655221643 
0.37999999999997447, -0.7550267441948384 
0.38999999999997337, -0.7422998916767447 
0.39999999999997227, -0.7232807147593887 
0.40999999999997117, -0.6976153531162369 
0.41999999999997006, -0.6677887943052543 
0.42999999999996896, -0.6386776113577882 
0.43999999999996786, -0.6146368545028877 
0.44999999999996676, -0.5973119739451803 
0.45999999999996566, -0.5860205970926486 
0.46999999999996456, -0.5791817640222063 
0.47999999999996346, -0.5752780779195099 
0.48999999999996235, -0.573177013698313 
0.49999999999996125, -0.5721268001530678 
0.5099999999999602, -0.5716593584587955 
0.519999999999959, -0.5714942875561577 
0.529999999999958, -0.5714674107447764 
0.5399999999999568, -0.571483203056208 
0.5499999999999557, -0.5714851065115929 
0.5599999999999546, -0.5714383283177582 
0.5699999999999535, -0.5713214912882014 
0.5799999999999524, -0.5711247700936689 
0.5899999999999513, -0.5708520780262202 
0.5999999999999502, -0.5705234798275984 
0.6099999999999491, -0.5701730521287851 
0.619999999999948, -0.5698396200857055 
0.6299999999999469, -0.5695530790240989 
0.6399999999999458, -0.5693229829245247 
0.6499999999999447, -0.5691352568974518 
0.6599999999999436, -0.5689585388528868 
0.6699999999999425, -0.5687567503134978 
0.6799999999999414, -0.5685014669794739 
0.6899999999999403, -0.5681787348136261 
0.6999999999999392, -0.5677896512025085 
0.7099999999999381, -0.567348216104418 
0.719999999999937, -0.5668808295807022 
0.7299999999999359, -0.5664305636587519 
0.7399999999999348, -0.5660683986971815 
0.7499999999999337, -0.5659139961225248 
0.7599999999999326, -0.5661699677051502 
0.7699999999999315, -0.5671750524801997 
0.7799999999999304, -0.5694809219466068 
0.7899999999999293, -0.573948109297085 
0.7999999999999282, -0.5818221722077287 
0.8099999999999271, -0.5946617803975551 
0.819999999999926, -0.6138463173454899 
0.8299999999999249, -0.6394150288999014 
0.8399999999999238, -0.6687743838922724 
0.8499999999999227, -0.6970884770089023 
0.8599999999999216, -0.7200618442107984 
0.8699999999999205, -0.7362624955432644 
0.8799999999999194, -0.7466790473411199 
0.8899999999999183, -0.7530509829957317 
0.8999999999999172, -0.7568549437296059 
0.9099999999999161, -0.7590836218816737 
0.919999999999915, -0.7603411355850406 
0.9299999999999139, -0.7609766018406073 
0.9399999999999128, -0.7611798876345707 
0.9499999999999117, -0.7610368118840635 
0.9599999999999106, -0.7605540615516698 
0.9699999999999095, -0.7596610859167681 
0.9799999999999084, -0.7581918846348172 
0.9899999999999073, -0.7558495596301313 
0.9999999999999062, -0.7521686031953869 
1.0099999999999052, -0.7465257172293178 
1.019999999999904, -0.7382997033890754 
1.029999999999903, -0.7272488441925776 
1.039999999999902, -0.7139220954534056 
1.0499999999999008, -0.6996566017593575 
1.0599999999998997, -0.6860142659021842 
1.0699999999998986, -0.6741437723395087 
1.0799999999998975, -0.6645488460788617 
1.0899999999998964, -0.6572251710487417 
1.0999999999998953, -0.6518960376220307 
1.1099999999998942, -0.6481888972406735 
1.119999999999893, -0.6457313347662325 
1.129999999999892, -0.644193584551932 
1.1399999999998909, -0.6433033455318126 
1.1499999999998898, -0.642847226511358 
1.1599999999998887, -0.6426654194503658 
1.1699999999998876, -0.6426429323201377 
1.1799999999998865, -0.64269972545526 
1.1899999999998854, -0.642781712654892 
1.1999999999998843, -0.6428541151528597 
1.2099999999998832, -0.6428978664271466 
1.219999999999882, -0.6429084802534197 
1.229999999999881, -0.6428951358989476 
1.2399999999998799, -0.6428767989094615 
1.2499999999998788, -0.6428736437288127 
1.2599999999998777, -0.6428958510460936 
1.2699999999998766, -0.6429351927956313 
1.2799999999998755, -0.6429646653987479 
1.2899999999998744, -0.6429473245726608 
1.2999999999998733, -0.6428497459719934 
1.3099999999998722, -0.6426526470134768 
1.319999999999871, -0.6423542455387705 
1.32999999999987, -0.6419680291138611 
1.3399999999998689, -0.6415200375433483 
1.3499999999998678, -0.6410500622079611 
1.3599999999998666, -0.6406191027592704 
1.3699999999998655, -0.6403242491676362 
1.3799999999998644, -0.6403218911586973 
1.3899999999998633, -0.640859733986576 
1.3999999999998622, -0.6423163158331752 
1.4099999999998611, -0.6452419861987437 
1.41999999999986, -0.6503844087514954 
1.429999999999859, -0.6586586253084672 
1.4399999999998578, -0.6709827411613942 
1.4499999999998567, -0.6878724323079213 
1.4599999999998556, -0.7087903195918044 
1.4699999999998545, -0.7316458769751184 
1.4799999999998534, -0.7532452259512551 
1.4899999999998523, -0.7708388667149169 
1.4999999999998512, -0.7834167895950519 
1.5099999999998501, -0.7915728828312508 
1.519999999999849, -0.7965331929905657 
1.529999999999848, -0.7994223308116618 
1.5399999999998468, -0.8010291929429091 
1.5499999999998457, -0.8018389582325872 
1.5599999999998446, -0.8021251347678687 
1.5699999999998435, -0.8020228809587113 
1.5799999999998424, -0.8015701409640293 
1.5899999999998413, -0.8007200526961276 
1.5999999999998402, -0.7993267136703002 
1.6099999999998391, -0.7971004247694201 
1.619999999999838, -0.793524069091832 
1.629999999999837, -0.7877308947811443 
1.6399999999998358, -0.7783994646863409 
1.6499999999998347, -0.7638790948986791 
1.6599999999998336, -0.742948348816943 
1.6699999999998325, -0.7162689029599938 
1.6799999999998314, -0.6872268231638692 
1.6899999999998303, -0.6604628572426294 
1.6999999999998292, -0.639205880963049 
1.709999999999828, -0.6241945029011022 
1.719999999999827, -0.6144877250370728 
1.729999999999826, -0.6086279530569846 
1.7399999999998248, -0.6053013307143897 
1.7499999999998237, -0.6035351886205901 
1.7599999999998226, -0.6026784191165614 
1.7699999999998215, -0.6023207870388972 
1.7799999999998204, -0.6022139856273988 
1.7899999999998193, -0.602211358233729 
1.7999999999998182, -0.6022265846696868 
1.809999999999817, -0.6022073705178225 
1.819999999999816, -0.6021202516804404 
1.8299999999998149, -0.6019437991168003 
1.8399999999998138, -0.6016682376747339 
1.8499999999998127, -0.6012988203342571 
1.8599999999998116, -0.6008584297963537 
1.8699999999998105, -0.6003842286646971 
1.8799999999998094, -0.5999166365907763 
1.8899999999998083, -0.5994850829332481 
1.8999999999998072, -0.599098151212408 
1.909999999999806, -0.5987430707777223 
1.919999999999805, -0.5983939960169706 
1.9299999999998039, -0.5980241273450994 
1.9399999999998028, -0.5976157048203878 
1.9499999999998017, -0.5971646981617105 
1.9599999999998006, -0.59668133059774 
1.9699999999997995, -0.5961900212761098 
1.9799999999997984, -0.5957320618622874 
1.9899999999997973, -0.5953730225619264 
1.9999999999997962, -0.5952160140908633 
2.0099999999998173, -0.5954217119227071 
2.0199999999998384, -0.5962359208908954 
2.0299999999998595, -0.5980245485719211 
2.0399999999998806, -0.6013124700300558 
2.0499999999999017, -0.6068128956695993 
2.059999999999923, -0.6154096424336262 
2.069999999999944, -0.628009126469572 
2.079999999999965, -0.6451375738218226 
2.089999999999986, -0.6662569160042389 
2.100000000000007, -0.6892184351835624 
2.1100000000000283, -0.7107467410539722 
2.1200000000000494, -0.7281005903500924 
2.1300000000000705, -0.7403827214155909 
2.1400000000000916, -0.7482948423698754 
2.1500000000001127, -0.7531001311033744 
2.160000000000134, -0.7559101335105245 
2.170000000000155, -0.7574875814770365 
2.180000000000176, -0.758296437716158 
2.190000000000197, -0.7585971998209622 
2.2000000000002182, -0.7585184113467023 
2.2100000000002393, -0.7580955872677206 
2.2200000000002604, -0.7572823084914568 
2.2300000000002815, -0.7559360362252711 
2.2400000000003026, -0.7537764263679769 
2.2500000000003237, -0.7503142080365824 
2.260000000000345, -0.7447694378735789 
2.270000000000366, -0.7360691423374922 
2.280000000000387, -0.7231350075681399 
2.290000000000408, -0.7056389036856314 
2.3000000000004293, -0.6848324598575735 
2.3100000000004504, -0.6634031411364881 
2.3200000000004715, -0.6441192030501087 
2.3300000000004926, -0.6285795655031077 
2.3400000000005137, -0.6170524723363855 
2.3500000000005348, -0.6090092799973902 
2.360000000000556, -0.6036620690734147 
2.370000000000577, -0.6002598991276888 
2.380000000000598, -0.5981946614164183 
2.390000000000619, -0.5970127354608067 
2.4000000000006403, -0.5963922831207592 
2.4100000000006614, -0.5961129960120017 
2.4200000000006825, -0.596028171244908 
2.4300000000007036, -0.5960420850064474 
2.4400000000007247, -0.5960931810351038 
2.450000000000746, -0.59614282229367 
2.460000000000767, -0.5961690718280158 
2.470000000000788, -0.5961644917911405 
2.480000000000809, -0.5961358872802104 
2.49000000000083, -0.5961027028782195 
2.5000000000008513, -0.5960909636101792 
2.5100000000008724, -0.5961224625168993 
2.5200000000008935, -0.5962029768431316 
2.5300000000009146, -0.5963154956004708 
2.5400000000009357, -0.596422968072136 
2.550000000000957, -0.5964802718262836 
2.560000000000978, -0.5964492972195934 
2.570000000000999, -0.5963090295794993 
2.58000000000102, -0.5960569774526926 
2.5900000000010412, -0.5957049337057635 
2.6000000000010624, -0.5952748321300526 
2.6100000000010835, -0.5947990835137866 
2.6200000000011046, -0.5943278282879771 
2.6300000000011257, -0.5939452920900783 
2.6400000000011468, -0.5937988236345855 
2.650000000001168, -0.5941462157998012 
2.660000000001189, -0.5954278175192134 
2.67000000000121, -0.5983652730569742 
2.680000000001231, -0.604066344182858 
2.6900000000012523, -0.6140491266413093 
2.7000000000012734, -0.6299648485513103 
2.7100000000012945, -0.652697575857307 
2.7200000000013156, -0.6809274406802855 
2.7300000000013367, -0.7105358232034404 
2.740000000001358, -0.7365245732591073 
2.750000000001379, -0.7560217857502405 
2.7600000000014, -0.7690743219571277 
2.770000000001421, -0.7772344969702145 
2.780000000001442, -0.7821564777187747 
2.7900000000014633, -0.7850621531724109 
2.8000000000014844, -0.7867302435346843 
2.8100000000015055, -0.7876233897302909 
2.8200000000015266, -0.7880022441851529 
2.8300000000015477, -0.7879985953592799 
2.840000000001569, -0.787653427589474 
2.85000000000159, -0.7869281769870067 
2.860000000001611, -0.7856928181266005 
2.870000000001632, -0.7836907004296387 
2.8800000000016532, -0.78048346964868 
2.8900000000016743, -0.775403208962386 
2.9000000000016954, -0.7675996666573973 
2.9100000000017165, -0.7563350073217279 
2.9200000000017377, -0.741566374741983 
2.9300000000017588, -0.7244179682102528 
2.94000000000178, -0.7069100452492335 
2.950000000001801, -0.6910216362464933 
2.960000000001822, -0.6779376747098276 
2.970000000001843, -0.6679556601433336 
2.9800000000018643, -0.6607943175069766 
2.9900000000018854, -0.655926550103404 
3.0000000000019065, -0.6527899405947382 
3.0100000000019276, -0.650886138981177 
3.0200000000019487, -0.6498147509332265 
3.03000000000197, -0.6492747988366311 
3.040000000001991, -0.6490516194762768 
3.050000000002012, -0.6489984442409804 
3.060000000002033, -0.6490178145180627 
3.070000000002054, -0.6490458141181578 
3.0800000000020753, -0.6490407210538407 
3.0900000000020964, -0.6489766996946027 
3.1000000000021175, -0.6488421109515407 
3.1100000000021386, -0.6486404044658354 
3.1200000000021597, -0.6483897745225957 
3.130000000002181, -0.6481177901717164 
3.140000000002202, -0.6478506769870037 
3.150000000002223, -0.6476018096699978 
3.160000000002244, -0.6473657870268708 
3.1700000000022652, -0.6471214964359129 
3.1800000000022863, -0.6468422525911414 
3.1900000000023074, -0.6465071992129028 
3.2000000000023285, -0.6461085480973208 
3.2100000000023496, -0.6456534458237815 
3.2200000000023707, -0.6451633671007644 
3.230000000002392, -0.6446749314739316 
3.240000000002413, -0.6442446361002763 
3.250000000002434, -0.6439582855419277 
3.260000000002455, -0.6439447642070106 
3.2700000000024763, -0.6443929570088891 
3.2800000000024974, -0.6455696133824775 
3.2900000000025185, -0.6478343826650865 
3.3000000000025396, -0.6516452012659124 
3.3100000000025607, -0.6575403455395177 
3.3200000000025818, -0.6660697032494458 
3.330000000002603, -0.6776303471839435 
3.340000000002624, -0.6921701627972591 
3.350000000002645, -0.7088330956459135 
3.360000000002666, -0.7258595888432209 
3.3700000000026873, -0.7411255920615677 
3.3800000000027084, -0.7531277580621468 
3.3900000000027295, -0.7615468049894869 
3.4000000000027506, -0.7669644003324085 
3.4100000000027717, -0.7702431125798576 
3.420000000002793, -0.7721244758370107 
3.430000000002814, -0.7731185081665496 
3.440000000002835, -0.7735345695918182 
3.450000000002856, -0.7735393059319814 
3.460000000002877, -0.7731991741399171 
3.4700000000028983, -0.7724996415691125 
3.4800000000029194, -0.7713410660591858 
3.4900000000029405, -0.7695086691616692 
3.5000000000029616, -0.7666088229476653 
3.5100000000029827, -0.761963127615678 
3.520000000003004, -0.7544760167549327 
3.530000000003025, -0.7425933268951321 
3.540000000003046, -0.7246890031486887 
3.550000000003067, -0.7002745345555323 
3.5600000000030882, -0.6714819015452027 
3.5700000000031094, -0.6428066194905715 
3.5800000000031305, -0.618517094732442 
3.5900000000031516, -0.6004907630240013 
3.6000000000031727, -0.5883533893667952 
3.6100000000031938, -0.5807339789817524 
3.620000000003215, -0.5762053570351098 
3.630000000003236, -0.5736478402872467 
3.640000000003257, -0.5722869513067287 
3.650000000003278, -0.5716218242818071 
3.6600000000032993, -0.571341351958082 
3.6700000000033204, -0.5712571395576984 
3.6800000000033415, -0.5712565281879367 
3.6900000000033626, -0.5712719185217339 
3.7000000000033837, -0.5712620512354388 
3.710000000003405, -0.5712020042017455 
3.720000000003426, -0.5710796615380942 
3.730000000003447, -0.5708964306887966 
3.740000000003468, -0.570668861852067 
3.750000000003489, -0.5704268270095693 
3.7600000000035103, -0.5702054086116408 
3.7700000000035314, -0.570032120972541 
3.7800000000035525, -0.5699152257431475 
3.7900000000035736, -0.5698391907611432 
3.8000000000035947, -0.5697699148821426 
3.810000000003616, -0.5696673220193884 
3.820000000003637, -0.5694988309364147 
3.830000000003658, -0.5692472671750817 
3.840000000003679, -0.5689115436035228 
3.8500000000037002, -0.5685035267749211 
3.8600000000037213, -0.5680459707405918 
3.8700000000037424, -0.5675750589670245 
3.8800000000037635, -0.5671498492312043 
3.8900000000037847, -0.566871211069726 
3.9000000000038058, -0.5669144932997974 
3.910000000003827, -0.567582268073387 
3.920000000003848, -0.5693840333386807 
3.930000000003869, -0.5731425591733281 
3.94000000000389, -0.5800945594719364 
3.9500000000039113, -0.5918624664886923 
3.9600000000039324, -0.6100103142366644 
3.9700000000039535, -0.6348680445555326 
3.9800000000039746, -0.6640727749247672 
3.9900000000039957, -0.6927459449179892 
4.000000000004016, -0.7163226959747592 
4.010000000003993, -0.7331314198523498 
4.02000000000397, -0.7440592945389353 
4.030000000003946, -0.7508285053885673 
4.040000000003923, -0.7549280580626351 
4.0500000000039, -0.7573718652120078 
4.0600000000038765, -0.7587864179605346 
4.070000000003853, -0.7595409348054663 
4.08000000000383, -0.7598424671886592 
4.090000000003807, -0.759792395107905 
4.100000000003783, -0.7594139830538384 
4.11000000000376, -0.7586582952253266 
4.120000000003737, -0.7573919424476636 
4.130000000003713, -0.7553698136832567 
4.14000000000369, -0.7522052430432169 
4.150000000003667, -0.747377666609235 
4.1600000000036434, -0.7403564379102751 
4.17000000000362, -0.7308982359868642 
4.180000000003597, -0.7193878833558421 
4.1900000000035735, -0.7068771994974359 
4.20000000000355, -0.6946703877125145 
4.210000000003527, -0.6837989202393441 
4.220000000003504, -0.6747865617099731 
4.23000000000348, -0.6677216537217887 
4.240000000003457, -0.6624358253069978 
4.250000000003434, -0.6586509132539712 
4.26000000000341, -0.6560648295346552 
4.270000000003387, -0.6543936679387221 
4.280000000003364, -0.6533903517792246 
4.2900000000033405, -0.6528515776568092 
4.300000000003317, -0.6526181377148166 
4.310000000003294, -0.6525708953364214 
4.320000000003271, -0.6526241906040456 
4.330000000003247, -0.6527185817930745 
4.340000000003224, -0.6528147173373178 
4.350000000003201, -0.6528895203004765 
4.360000000003177, -0.652934662247857 
4.370000000003154, -0.6529556216074213 
4.380000000003131, -0.6529683852442283 
4.390000000003107, -0.6529917095504383 
4.400000000003084, -0.653036266017285 
4.410000000003061, -0.6530956192216182 
4.4200000000030375, -0.6531445699775242 
4.430000000003014, -0.6531468396419501 
4.440000000002991, -0.6530682711883309 
4.450000000002968, -0.6528881134043353 
4.460000000002944, -0.6526032557366146 
4.470000000002921, -0.6522263899119436 
4.480000000002898, -0.6517830772205351 
4.490000000002874, -0.6513123699099028 
4.500000000002851, -0.6508734867710801 
4.510000000002828, -0.6505595862887666 
4.520000000002804, -0.6505191363506235 
4.530000000002781, -0.6509847319084441 
4.540000000002758, -0.6523073777584967 
4.5500000000027345, -0.654990108550342 
4.560000000002711, -0.6597062572269455 
4.570000000002688, -0.6672705363131302 
4.580000000002665, -0.6785021523953221 
4.590000000002641, -0.6938959016351671 
4.600000000002618, -0.7130835532059222 
4.610000000002595, -0.7343609081232684 
4.620000000002571, -0.7549270059471779 
4.630000000002548, -0.7721260669508551 
4.640000000002525, -0.7847291022057628 
4.6500000000025015, -0.7930582418296126 
4.660000000002478, -0.7981866008937316 
4.670000000002455, -0.801195091950385 
4.6800000000024315, -0.8028768911869808 
4.690000000002408, -0.8037320813196731 
4.700000000002385, -0.8040472566787583 
4.710000000002362, -0.8039673543178155 
4.720000000002338, -0.8035385070820416 
4.730000000002315, -0.8027230413284551 
4.740000000002292, -0.8013887011947058 
4.750000000002268, -0.7992689648558471 
4.760000000002245, -0.7958862256120999 
4.770000000002222, -0.7904336189493072 
4.7800000000021985, -0.7816519849051863 
4.790000000002175, -0.7678733397333978 
4.800000000002152, -0.747625142274797 
4.810000000002129, -0.7210576589941422 
4.820000000002105, -0.691190920248354 
4.830000000002082, -0.6629184614468518 
4.840000000002059, -0.640111674889195 
4.850000000002035, -0.623953365828413 
4.860000000002012, -0.6135753091901687 
4.870000000001989, -0.6073967889780045 
4.880000000001965, -0.603956102032235 
4.890000000001942, -0.6021740383106275 
4.900000000001919, -0.6013382794341298 
4.9100000000018955, -0.6010086563924849 
4.920000000001872, -0.6009245577316362 
