t, s[1].omega / s[0].omega 
0, -1.3799973465548696 
0.009999999999999995, -1.3795195224253745 
0.019999999999999934, -1.378621924953893 
0.029999999999999874, -1.3773099528241186 
0.04000000000000012, -1.3756004982782977 
0.050000000000000405, -1.3735319361702223 
0.06000000000000069, -1.371181083698234 
0.07000000000000098, -1.368706234774512 
0.08000000000000126, -1.366412258466268 
0.09000000000000155, -1.3647105348670665 
0.10000000000000184, -1.3638402910280765 
0.11000000000000212, -1.3636238826316247 
0.12000000000000241, -1.3636304410682378 
0.130000000000002, -1.3634725978597453 
0.1400000000000009, -1.3628497720436132 
0.1499999999999998, -1.3613839759353568 
0.1599999999999987, -1.3583575294326191 
0.1699999999999976, -1.3523154571492413 
0.1799999999999965, -1.3404763803852973 
0.1899999999999954, -1.31816860801424 
0.1999999999999943, -1.279296918328515 
0.2099999999999932, -1.2198945667201369 
0.2199999999999921, -1.145359651534824 
0.229999999999991, -1.0734860766828165 
0.2399999999999899, -1.022450281768499 
0.2499999999999888, -0.9963036662498338 
0.2599999999999877, -0.9872596632490546 
0.2699999999999866, -0.986133687474471 
0.2799999999999855, -0.9874077786508118 
0.2899999999999844, -0.9888392875236591 
0.2999999999999833, -0.989804192258073 
0.3099999999999822, -0.9902253252171113 
0.3199999999999811, -0.9901153872675567 
0.32999999999998, -0.9894046751904582 
0.3399999999999789, -0.98783548827784 
0.3499999999999778, -0.984805113607539 
0.35999999999997667, -0.9790736519595298 
0.36999999999997557, -0.9683132302673874 
0.37999999999997447, -0.9487926665870922 
0.38999999999997337, -0.9162892402915265 
0.39999999999997227, -0.8694909084896588 
0.40999999999997117, -0.8136879893836884 
0.41999999999997006, -0.7589020561293778 
0.42999999999996896, -0.7132758840078312 
0.43999999999996786, -0.679601491497522 
0.44999999999996676, -0.6567500856254526 
0.45999999999996566, -0.6421767931624398 
0.46999999999996456, -0.6333700644549876 
0.47999999999996346, -0.6283385192669632 
0.48999999999996235, -0.6256540649978289 
0.49999999999996125, -0.624354144000089 
0.5099999999999602, -0.6238206383601363 
0.519999999999959, -0.6236724784720089 
0.529999999999958, -0.6236815970713953 
0.5399999999999568, -0.6237128483631957 
0.5499999999999557, -0.623685406585295 
0.5599999999999546, -0.6235524511426169 
0.5699999999999535, -0.6232954951447046 
0.5799999999999524, -0.6229271992657464 
0.5899999999999513, -0.6224923100902257 
0.5999999999999502, -0.6220565310489289 
0.6099999999999491, -0.6216828263799818 
0.619999999999948, -0.6214064263642137 
0.6299999999999469, -0.6212214275864438 
0.6399999999999458, -0.6210846742677998 
0.6499999999999447, -0.6209347076969258 
0.6599999999999436, -0.6207166463753274 
0.6699999999999425, -0.6204006714242524 
0.6799999999999414, -0.6199880177973656 
0.6899999999999403, -0.619509441725313 
0.6999999999999392, -0.6190262346100452 
0.7099999999999381, -0.6186415054744117 
0.719999999999937, -0.6185256788565238 
0.7299999999999359, -0.618958305961712 
0.7399999999999348, -0.620387552834587 
0.7499999999999337, -0.6235075149345777 
0.7599999999999326, -0.6293504275980452 
0.7699999999999315, -0.6393812316952452 
0.7799999999999304, -0.6555491073929207 
0.7899999999999293, -0.6801556375280421 
0.7999999999999282, -0.7152062974751133 
0.8099999999999271, -0.7607896652442037 
0.819999999999926, -0.8128049116341507 
0.8299999999999249, -0.8627121956707781 
0.8399999999999238, -0.9020923387009667 
0.8499999999999227, -0.9280563153436047 
0.8599999999999216, -0.943050216341671 
0.8699999999999205, -0.9510419174604634 
0.8799999999999194, -0.9550992753238862 
0.8899999999999183, -0.9570345957055277 
0.8999999999999172, -0.9577889770659997 
0.9099999999999161, -0.9578066646305606 
0.919999999999915, -0.9572564886337525 
0.9299999999999139, -0.9561453343669102 
0.9399999999999128, -0.9543985207816905 
0.9499999999999117, -0.9520231639937529 
0.9599999999999106, -0.9496058828080072 
0.9699999999999095, -0.9496224296862127 
0.9799999999999084, -0.9589230325055886 
0.9899999999999073, -0.990821911534472 
0.9999999999999062, -1.0601418539058376 
1.0099999999999052, -1.1643643635457763 
1.019999999999904, -1.2716776386329156 
1.029999999999903, -1.3501130479650658 
1.039999999999902, -1.3951059776540407 
1.0499999999999008, -1.417612225598613 
1.0599999999998997, -1.4281289708054667 
1.0699999999998986, -1.4328395052489722 
1.0799999999998975, -1.434793626201794 
1.0899999999998964, -1.4353905140242706 
1.0999999999998953, -1.4352705897817486 
1.1099999999998942, -1.4347914637524208 
1.119999999999893, -1.434307125240055 
1.129999999999892, -1.434262033216603 
1.1399999999998909, -1.4349718510492209 
1.1499999999998898, -1.4363326895153739 
1.1599999999998887, -1.4379555501632 
1.1699999999998876, -1.4395083878252741 
1.1799999999998865, -1.440814786608373 
1.1899999999998854, -1.4417838074882334 
1.1999999999998843, -1.4423580709848431 
1.2099999999998832, -1.44249889595249 
1.219999999999882, -1.4421788614716566 
1.229999999999881, -1.4413745350737683 
1.2399999999998799, -1.440060692979613 
1.2499999999998788, -1.438207514682595 
1.2599999999998777, -1.4357834872144413 
1.2699999999998766, -1.4327705915659479 
1.2799999999998755, -1.4292158949855112 
1.2899999999998744, -1.4253664345562254 
1.2999999999998733, -1.4218355399454532 
1.3099999999998722, -1.419431854271347 
1.319999999999871, -1.4184564412117804 
1.32999999999987, -1.4183941292404048 
1.3399999999998689, -1.4185152760795363 
1.3499999999998678, -1.4183480133261515 
1.3599999999998666, -1.417573518930809 
1.3699999999998655, -1.4156957845871971 
1.3799999999998644, -1.4115450337397246 
1.3899999999998633, -1.4022212807227012 
1.3999999999998622, -1.3806632942154278 
1.4099999999998611, -1.3313858249434707 
1.41999999999986, -1.2304240147028027 
1.429999999999859, -1.0706450936842868 
1.4399999999998578, -0.896662280622999 
1.4499999999998567, -0.7649052154411443 
1.4599999999998556, -0.6883582399203653 
1.4699999999998545, -0.6508312035069697 
1.4799999999998534, -0.634460975476263 
1.4899999999998523, -0.6281065124688173 
1.4999999999998512, -0.6260965170953402 
1.5099999999998501, -0.6258039499123931 
1.519999999999849, -0.6260795113759214 
1.529999999999848, -0.6264437494401682 
1.5399999999998468, -0.6267038131319259 
1.5499999999998457, -0.6267782590530582 
1.5599999999998446, -0.6266186353360457 
1.5699999999998435, -0.6261767461380126 
1.5799999999998424, -0.6253981913822132 
1.5899999999998413, -0.6242381055200926 
1.5999999999998402, -0.6226952220302666 
1.6099999999998391, -0.6208443795782064 
1.619999999999838, -0.6188337743222925 
1.629999999999837, -0.6168353591658858 
1.6399999999998358, -0.6149826774638631 
1.6499999999998347, -0.6133393647646889 
1.6599999999998336, -0.6119065442314705 
1.6699999999998325, -0.610650154585936 
1.6799999999998314, -0.609529347242882 
1.6899999999998303, -0.608516765656262 
1.6999999999998292, -0.6076090290873828 
1.709999999999828, -0.6068302117145349 
1.719999999999827, -0.6062324148573905 
1.729999999999826, -0.6058960566811065 
1.7399999999998248, -0.6059303560585713 
1.7499999999998237, -0.6064735263409181 
1.7599999999998226, -0.6076927809948502 
1.7699999999998215, -0.6097856455698979 
1.7799999999998204, -0.6129850529162221 
1.7899999999998193, -0.617569909004641 
1.7999999999998182, -0.623878616555279 
1.809999999999817, -0.6323125440357861 
1.819999999999816, -0.6432945717501908 
1.8299999999998149, -0.6571136391168436 
1.8399999999998138, -0.6735773517035101 
1.8499999999998127, -0.691550187562497 
1.8599999999998116, -0.7088746131713414 
1.8699999999998105, -0.723257699497104 
1.8799999999998094, -0.7335621707788583 
1.8899999999998083, -0.7401050103307931 
1.8999999999998072, -0.743904772255142 
1.909999999999806, -0.7459388506121235 
1.919999999999805, -0.7468753389392406 
1.9299999999998039, -0.7470909028999553 
1.9399999999998028, -0.7467496478476323 
1.9499999999998017, -0.7458526054641019 
1.9599999999998006, -0.7442354609099726 
1.9699999999997995, -0.7414973858014129 
1.9799999999997984, -0.7368109666427067 
1.9899999999997973, -0.7284753277630683 
1.9999999999997962, -0.7128574968108239 
2.0099999999998173, -0.6819905990108008 
2.0199999999998384, -0.6199189843907773 
2.0299999999998595, -0.5075272042139382 
2.0399999999998806, -0.3586300352027751 
2.0499999999999017, -0.23310066162332121 
2.059999999999923, -0.15946285362369575 
2.069999999999944, -0.12224309446544458 
2.079999999999965, -0.10346676907914609 
2.089999999999986, -0.09348561621649261 
2.100000000000007, -0.08785180467447566 
2.1100000000000283, -0.08451252734905906 
2.1200000000000494, -0.08248268171283224 
2.1300000000000705, -0.08127609563726951 
2.1400000000000916, -0.0806618731682171 
2.1500000000001127, -0.08056245123130976 
2.160000000000134, -0.08102298888263543 
2.170000000000155, -0.08223289477701515 
2.180000000000176, -0.08461492038818438 
2.190000000000197, -0.0890468686716618 
2.2000000000002182, -0.09739368078175464 
2.2100000000002393, -0.11380466349519978 
2.2200000000002604, -0.14774458715944666 
2.2300000000002815, -0.2189911006289935 
2.2400000000003026, -0.35253774072337013 
2.2500000000003237, -0.5316333454392085 
2.260000000000345, -0.6831584212569033 
2.270000000000366, -0.7755099146254332 
2.280000000000387, -0.8262673283158235 
2.290000000000408, -0.8540842297801171 
2.3000000000004293, -0.8693249431028407 
2.3100000000004504, -0.8776162981620277 
2.3200000000004715, -0.8820856383805156 
2.3300000000004926, -0.8844360556372531 
2.3400000000005137, -0.8855622492156431 
2.3500000000005348, -0.885903589525949 
2.360000000000556, -0.8856238888602217 
2.370000000000577, -0.884673795070853 
2.380000000000598, -0.8827536715175277 
2.390000000000619, -0.8791488559665216 
2.4000000000006403, -0.8723560051537445 
2.4100000000006614, -0.8594143386943229 
2.4200000000006825, -0.8352040804945131 
2.4300000000007036, -0.7933622819810053 
2.4400000000007247, -0.7318266694894521 
2.450000000000746, -0.6599630883464701 
2.460000000000767, -0.5941290709995373 
2.470000000000788, -0.5442961511334393 
2.480000000000809, -0.5106529402182973 
2.49000000000083, -0.4891268260320654 
2.5000000000008513, -0.47562378647956677 
2.5100000000008724, -0.4672075499082728 
2.5200000000008935, -0.4619902460517254 
2.5300000000009146, -0.45879687486420795 
2.5400000000009357, -0.4568980312042244 
2.550000000000957, -0.4558376926737358 
2.560000000000978, -0.4553290065224906 
2.570000000000999, -0.4551922280021146 
2.58000000000102, -0.4553180525248659 
2.5900000000010412, -0.45564667676532666 
2.6000000000010624, -0.4561571641168433 
2.6100000000010835, -0.45686362381609985 
2.6200000000011046, -0.457814872874689 
2.6300000000011257, -0.45909332521485063 
2.6400000000011468, -0.46080755253087763 
2.650000000001168, -0.4630709803736182 
2.660000000001189, -0.4659565621103505 
2.67000000000121, -0.46942262628026404 
2.680000000001231, -0.4732388020220481 
2.6900000000012523, -0.47699448709489933 
2.7000000000012734, -0.4802488397806681 
2.7100000000012945, -0.482726333051039 
2.7200000000013156, -0.4843846642323958 
2.7300000000013367, -0.4853323568646722 
2.740000000001358, -0.4857109927546637 
2.750000000001379, -0.4856205906860065 
2.7600000000014, -0.4850856790544257 
2.770000000001421, -0.48402946566613647 
2.780000000001442, -0.4822224821837127 
2.7900000000014633, -0.4791656931293423 
2.8000000000014844, -0.4738505963533936 
2.8100000000015055, -0.4643682747569657 
2.8200000000015266, -0.44768093701789996 
2.8300000000015477, -0.42090777871900176 
2.840000000001569, -0.38538534496683535 
2.85000000000159, -0.3487435820009457 
2.860000000001611, -0.31880845754249953 
2.870000000001632, -0.297834123527949 
2.8800000000016532, -0.28412593316577617 
2.8900000000016743, -0.2752899252123947 
2.9000000000016954, -0.26951677689511694 
2.9100000000017165, -0.2656582059457613 
2.9200000000017377, -0.2630255785035132 
2.9300000000017588, -0.26121419339947854 
2.94000000000178, -0.2599927723811988 
2.950000000001801, -0.25924145664588405 
2.960000000001822, -0.25892113802732636 
2.970000000001843, -0.25906484140277014 
2.9800000000018643, -0.2597893356246835 
2.9900000000018854, -0.26133309123619286 
3.0000000000019065, -0.264138927946819 
3.0100000000019276, -0.2690234433800067 
3.0200000000019487, -0.27752415995466 
3.03000000000197, -0.29260519502603133 
3.040000000001991, -0.31997745552942386 
3.050000000002012, -0.36976644793139657 
3.060000000002033, -0.45474699647934297 
3.070000000002054, -0.5750099773467848 
3.0800000000020753, -0.6991624924481636 
3.0900000000020964, -0.7904410362484106 
3.1000000000021175, -0.8430729941655476 
3.1100000000021386, -0.8700118515774236 
3.1200000000021597, -0.8833187841598085 
3.130000000002181, -0.8899001834889806 
3.140000000002202, -0.893155835415993 
3.150000000002223, -0.8946869175063209 
3.160000000002244, -0.8952297998719224 
3.1700000000022652, -0.895086336440643 
3.1800000000022863, -0.8942944604254073 
3.1900000000023074, -0.8926506396482797 
3.2000000000023285, -0.8896001714457988 
3.2100000000023496, -0.8839240618952897 
3.2200000000023707, -0.8730281766618234 
3.230000000002392, -0.851489264830307 
3.240000000002413, -0.8087593199328704 
3.250000000002434, -0.7288037476392363 
3.260000000002455, -0.6030701888488861 
3.2700000000024763, -0.4590414536282994 
3.2800000000024974, -0.3455890470043554 
3.2900000000025185, -0.2775879798690359 
3.3000000000025396, -0.24114160110992072 
3.3100000000025607, -0.2217148713915681 
3.3200000000025818, -0.21097550625629263 
3.330000000002603, -0.20477192067681468 
3.340000000002624, -0.20105819439819297 
3.350000000002645, -0.1987984761869107 
3.360000000002666, -0.19745395049752848 
3.3700000000026873, -0.19674540673678673 
3.3800000000027084, -0.1965431653570737 
3.3900000000027295, -0.1968195834547483 
3.4000000000027506, -0.1976379587310224 
3.4100000000027717, -0.1991713409685083 
3.420000000002793, -0.20175938214420525 
3.430000000002814, -0.2060301112467128 
3.440000000002835, -0.213145296394594 
3.450000000002856, -0.2252734471467205 
3.460000000002877, -0.2463720325595725 
3.4700000000028983, -0.2827697354313821 
3.4800000000029194, -0.3405195633218377 
3.4900000000029405, -0.4147776952807655 
3.5000000000029616, -0.4838073628472462 
3.5100000000029827, -0.5302036799097078 
3.520000000003004, -0.5555597897944208 
3.530000000003025, -0.5684505885703984 
3.540000000003046, -0.5750572201668761 
3.550000000003067, -0.5785477627025687 
3.5600000000030882, -0.5804114087689433 
3.5700000000031094, -0.5813466198995609 
3.5800000000031305, -0.5816778743543638 
3.5900000000031516, -0.5815339237613042 
3.6000000000031727, -0.58091887732861 
3.6100000000031938, -0.5797360927565024 
3.620000000003215, -0.5778004767693355 
3.630000000003236, -0.574879162011477 
3.640000000003257, -0.5708057178148037 
3.650000000003278, -0.5656581710711259 
3.6600000000032993, -0.55985751468994 
3.6700000000033204, -0.5540251602414751 
3.6800000000033415, -0.5486925864312604 
3.6900000000033626, -0.5441284112124781 
3.7000000000033837, -0.5403648703597655 
3.710000000003405, -0.537308552775926 
3.720000000003426, -0.5348322271491416 
3.730000000003447, -0.5328235648850728 
3.740000000003468, -0.5312030847352353 
3.750000000003489, -0.5299263037844664 
3.7600000000035103, -0.5289796392787035 
3.7700000000035314, -0.528375102256714 
3.7800000000035525, -0.5281461125840804 
3.7900000000035736, -0.5283454535756911 
3.8000000000035947, -0.5290460541127249 
3.810000000003616, -0.5303454671790807 
3.820000000003637, -0.532375174733855 
3.830000000003658, -0.5353157743420945 
3.840000000003679, -0.5394179493127265 
3.8500000000037002, -0.5450249635729355 
3.8600000000037213, -0.5525805064965176 
3.8700000000037424, -0.5625775038398946 
3.8800000000037635, -0.5753582645162708 
3.8900000000037847, -0.5906792863066077 
3.9000000000038058, -0.6072107063613797 
3.910000000003827, -0.6226596471619128 
3.920000000003848, -0.6349600900211616 
3.930000000003869, -0.6434352523447302 
3.94000000000389, -0.6486727987904658 
3.9500000000039113, -0.6516642068494978 
3.9600000000039324, -0.6532316128109509 
3.9700000000039535, -0.6538956600023424 
3.9800000000039746, -0.6539276147748662 
3.9900000000039957, -0.6534139508513525 
4.000000000004016, -0.6522771735640458 
4.010000000003993, -0.6502319334122609 
4.02000000000397, -0.6466405318643227 
4.030000000003946, -0.6401932417129783 
4.040000000003923, -0.6283401874262244 
4.0500000000039, -0.6067607405837764 
4.0600000000038765, -0.5705770991491542 
4.070000000003853, -0.519937702985141 
4.08000000000383, -0.46502146500555114 
4.090000000003807, -0.41867206371672816 
4.100000000003783, -0.3858143148050982 
4.11000000000376, -0.3644169895945897 
4.120000000003737, -0.3508028844871272 
4.130000000003713, -0.34207822180701697 
4.14000000000369, -0.3363899690888453 
4.150000000003667, -0.33262436917049726 
4.1600000000036434, -0.3301208386200431 
4.17000000000362, -0.32848770537668426 
4.180000000003597, -0.3274955114448839 
4.1900000000035735, -0.3270179376001628 
4.20000000000355, -0.3270011350363118 
4.210000000003527, -0.3274512621215999 
4.220000000003504, -0.3284360367318826 
4.23000000000348, -0.3301005154213771 
4.240000000003457, -0.33270145855011757 
4.250000000003434, -0.3366693565024069 
4.26000000000341, -0.3427111237537163 
4.270000000003387, -0.3519585013692201 
4.280000000003364, -0.366101769443207 
4.2900000000033405, -0.3872057559894288 
4.300000000003317, -0.41644205605765794 
4.310000000003294, -0.4513702718298854 
4.320000000003271, -0.48493649866988797 
4.330000000003247, -0.510415312588347 
4.340000000003224, -0.5264691020025932 
4.350000000003201, -0.535573607708839 
4.360000000003177, -0.5405299993043887 
4.370000000003154, -0.5431846285005553 
4.380000000003131, -0.5445456568617154 
4.390000000003107, -0.545119847252901 
4.400000000003084, -0.5451358610360656 
4.410000000003061, -0.544653940294652 
4.4200000000030375, -0.5436065406837209 
4.430000000003014, -0.5418041664966053 
4.440000000002991, -0.5389431109713924 
4.450000000002968, -0.5346772117940248 
4.460000000002944, -0.5288225277400891 
4.470000000002921, -0.5216369596592549 
4.480000000002898, -0.5138824893594878 
4.490000000002874, -0.5064762179171765 
4.500000000002851, -0.5000459905874062 
4.510000000002828, -0.49479399624877113 
4.520000000002804, -0.4906345769067294 
4.530000000002781, -0.48737248805164446 
4.540000000002758, -0.4848105612824712 
4.5500000000027345, -0.48279238972464805 
4.560000000002711, -0.481211048333651 
4.570000000002688, -0.48000474397560694 
4.580000000002665, -0.47914951098747505 
4.590000000002641, -0.47865328243637206 
4.600000000002618, -0.47855303414015726 
4.610000000002595, -0.47891575202996595 
4.620000000002571, -0.4798440274858796 
4.630000000002548, -0.4814877313499831 
4.640000000002525, -0.48406414127106057 
4.6500000000025015, -0.4878896323574952 
4.660000000002478, -0.4934251559718419 
4.670000000002455, -0.5013304644644988 
4.6800000000024315, -0.5124947207866454 
4.690000000002408, -0.5279357647250982 
4.700000000002385, -0.5483303897099834 
4.710000000002362, -0.5729736001625728 
4.720000000002338, -0.5988102881378794 
4.730000000002315, -0.6214032840026942 
4.740000000002292, -0.6378713806382128 
4.750000000002268, -0.6482800583951494 
4.760000000002245, -0.6542954527524946 
4.770000000002222, -0.6575889144783709 
4.7800000000021985, -0.6592839412248945 
4.790000000002175, -0.6600127763180085 
4.800000000002152, -0.6600836582119465 
4.810000000002129, -0.65959226495128 
4.820000000002105, -0.658457993063845 
4.830000000002082, -0.6563853235689562 
4.840000000002059, -0.6527315359827701 
4.850000000002035, -0.6462506423109091 
4.860000000002012, -0.6347767206360242 
4.870000000001989, -0.6153560786866471 
4.880000000001965, -0.5860543953324384 
4.890000000001942, -0.5493502378352011 
4.900000000001919, -0.512345534852272 
4.9100000000018955, -0.4814321643400748 
