t, s[1].omega / s[0].omega 
0, -1.039998254759512 
0.009999999999999995, -1.0397292307845325 
0.019999999999999934, -1.0392712088668803 
0.029999999999999874, -1.0386496434990509 
0.04000000000000012, -1.0379606201678144 
0.050000000000000405, -1.0373615429114666 
0.06000000000000069, -1.0369975181450686 
0.07000000000000098, -1.036923443403275 
0.08000000000000126, -1.0370632885159465 
0.09000000000000155, -1.0372404800942905 
0.10000000000000184, -1.03728700136124 
0.11000000000000212, -1.0371138368505033 
0.12000000000000241, -1.0367143281538236 
0.130000000000002, -1.0361207742081393 
0.1400000000000009, -1.035361474996943 
0.1499999999999998, -1.034481973411671 
0.1599999999999987, -1.033587905073339 
0.1699999999999976, -1.0328364601396929 
0.1799999999999965, -1.0323736085978494 
0.1899999999999954, -1.0322421199467495 
0.1999999999999943, -1.0323121551175554 
0.2099999999999932, -1.0323627831092312 
0.2199999999999921, -1.0322162051170884 
0.229999999999991, -1.031783628212308 
0.2399999999999899, -1.0310726411914604 
0.2499999999999888, -1.0301470332925917 
0.2599999999999877, -1.0290670853939718 
0.2699999999999866, -1.0279016488211132 
0.2799999999999855, -1.0267743740567614 
0.2899999999999844, -1.0258641042349514 
0.2999999999999833, -1.0253340183452184 
0.3099999999999822, -1.0251871351135133 
0.3199999999999811, -1.0252159865579895 
0.32999999999998, -1.0251651898430494 
0.3399999999999789, -1.024851032662362 
0.3499999999999778, -1.0241794972323617 
0.35999999999997667, -1.0231707914563555 
0.36999999999997557, -1.0219220280243884 
0.37999999999997447, -1.0205266107270377 
0.38999999999997337, -1.0190791102299963 
0.39999999999997227, -1.0177302950715403 
0.40999999999997117, -1.0166938846338134 
0.41999999999997006, -1.0161391311070829 
0.42999999999996896, -1.0160017651308357 
0.43999999999996786, -1.016004815638109 
0.44999999999996676, -1.0158771607650117 
0.45999999999996566, -1.015431748555998 
0.46999999999996456, -1.0145686395195654 
0.47999999999996346, -1.013321125737168 
0.48999999999996235, -1.0118170836849432 
0.49999999999996125, -1.010178133071521 
0.5099999999999602, -1.0085211447569908 
0.519999999999959, -1.0070222849165924 
0.529999999999958, -1.0059206423316993 
0.5399999999999568, -1.0053715240916266 
0.5499999999999557, -1.0052492218671465 
0.5599999999999546, -1.005238431205349 
0.5699999999999535, -1.0050669520133677 
0.5799999999999524, -1.0045489849749794 
0.5899999999999513, -1.003586086424884 
0.5999999999999502, -1.0022252701178964 
0.6099999999999491, -1.0006132345703795 
0.619999999999948, -0.9988844443365167 
0.6299999999999469, -0.9971641460608173 
0.6399999999999458, -0.9956354185154425 
0.6499999999999447, -0.9945368094647223 
0.6599999999999436, -0.9940051070401438 
0.6699999999999425, -0.9938929124512689 
0.6799999999999414, -0.9938824354337494 
0.6899999999999403, -0.9937088963487168 
0.6999999999999392, -0.9931951859991324 
0.7099999999999381, -0.9922556759528687 
0.719999999999937, -0.9909479495615798 
0.7299999999999359, -0.9894169740081921 
0.7399999999999348, -0.9877879530625661 
0.7499999999999337, -0.9861755164714392 
0.7599999999999326, -0.9847462414096374 
0.7699999999999315, -0.9837138533580303 
0.7799999999999304, -0.9832052684573601 
0.7899999999999293, -0.9830984286359309 
0.7999999999999282, -0.9831046600267466 
0.8099999999999271, -0.9829723771028678 
0.819999999999926, -0.982538858771584 
0.8299999999999249, -0.981737525051523 
0.8399999999999238, -0.980628044399062 
0.8499999999999227, -0.9793331476733413 
0.8599999999999216, -0.9779508414724543 
0.8699999999999205, -0.9765728829486169 
0.8799999999999194, -0.9753382978055636 
0.8899999999999183, -0.9744256541544944 
0.8999999999999172, -0.9739558510516861 
0.9099999999999161, -0.9738588224765916 
0.919999999999915, -0.9738994648431673 
0.9299999999999139, -0.9738460495592024 
0.9399999999999128, -0.9735505378963992 
0.9499999999999117, -0.9729622773755016 
0.9599999999999106, -0.9721325863056378 
0.9699999999999095, -0.9711497978110557 
0.9799999999999084, -0.9700771855555959 
0.9899999999999073, -0.9689818452495574 
0.9999999999999062, -0.9679800972923331 
1.0099999999999052, -0.967222530543281 
1.019999999999904, -0.966821223433929 
1.029999999999903, -0.966754451520532 
1.039999999999902, -0.9668514850368626 
1.0499999999999008, -0.966908787611032 
1.0599999999998997, -0.966789824094762 
1.0699999999998986, -0.9664508122896777 
1.0799999999998975, -0.9659263548278895 
1.0899999999998964, -0.9652668893223835 
1.0999999999998953, -0.9645009303290463 
1.1099999999998942, -0.9636742646846863 
1.119999999999893, -0.9628917185527897 
1.129999999999892, -0.9622957759201116 
1.1399999999998909, -0.9619951059251715 
1.1499999999998898, -0.9619961844833246 
1.1599999999998887, -0.9621830704027007 
1.1699999999998876, -0.9623854559286288 
1.1799999999998865, -0.9624755454315891 
1.1899999999998854, -0.962406970631782 
1.1999999999998843, -0.9621919759681871 
1.2099999999998832, -0.9618430888871184 
1.219999999999882, -0.9613559769550009 
1.229999999999881, -0.9607589842204356 
1.2399999999998799, -0.9601538579728892 
1.2499999999998788, -0.9596957646462552 
1.2599999999998777, -0.9595121805829473 
1.2699999999998766, -0.9596274573536699 
1.2799999999998755, -0.959955559596264 
1.2899999999998744, -0.9603523781538582 
1.2999999999998733, -0.9606959112442993 
1.3099999999998722, -0.9609299118503378 
1.319999999999871, -0.9610394272921766 
1.32999999999987, -0.9609973310044357 
1.3399999999998689, -0.960766919242466 
1.3499999999998678, -0.9603636208282861 
1.3599999999998666, -0.959890828871592 
1.3699999999998655, -0.9595271412709406 
1.3799999999998644, -0.9594490879560502 
1.3899999999998633, -0.9597168054117922 
1.3999999999998622, -0.9602536025964318 
1.4099999999998611, -0.9609188160926052 
1.41999999999986, -0.9615865001693092 
1.429999999999859, -0.9621833926190362 
1.4399999999998578, -0.962660708011879 
1.4499999999998567, -0.9629451610450317 
1.4599999999998556, -0.9629659999071961 
1.4699999999998545, -0.9627335767493405 
1.4799999999998534, -0.9623593714593612 
1.4899999999998523, -0.9620442438808947 
1.4999999999998512, -0.9620330302725082 
1.5099999999998501, -0.962464368064523 
1.519999999999849, -0.9632773050106751 
1.529999999999848, -0.9643051594607371 
1.5399999999998468, -0.9653947334481748 
1.5499999999998457, -0.9664432561975415 
1.5599999999998446, -0.9673573253876384 
1.5699999999998435, -0.9680061548448776 
1.5799999999998424, -0.9682832221155091 
1.5899999999998413, -0.9682073162471283 
1.5999999999998402, -0.9679106502322035 
1.6099999999998391, -0.9676110299653284 
1.619999999999838, -0.9676174094646912 
1.629999999999837, -0.9681867164670901 
1.6399999999998358, -0.969311971695336 
1.6499999999998347, -0.9707831894734019 
1.6599999999998336, -0.972386217007954 
1.6699999999998325, -0.9739678926692844 
1.6799999999998314, -0.975376069292291 
1.6899999999998303, -0.9764119387237223 
1.6999999999998292, -0.9769372303712377 
1.709999999999828, -0.9769976261525984 
1.719999999999827, -0.9767616225959385 
1.729999999999826, -0.9764622381358888 
1.7399999999998248, -0.9764521688414707 
1.7499999999998237, -0.9771102518479415 
1.7599999999998226, -0.978519930649821 
1.7699999999998215, -0.9804324949963903 
1.7799999999998204, -0.9825486213657978 
1.7899999999998193, -0.9846469700460615 
1.7999999999998182, -0.9865105757430271 
1.809999999999817, -0.9878776769845871 
1.819999999999816, -0.9885946335019856 
1.8299999999998149, -0.9887486156242898 
1.8399999999998138, -0.9885502158000458 
1.8499999999998127, -0.9882480259405343 
1.8599999999998116, -0.9882196419183482 
1.8699999999998105, -0.9889255649191047 
1.8799999999998094, -0.9905196404608635 
1.8899999999998083, -0.9927222566375402 
1.8999999999998072, -0.9951613472098674 
1.909999999999806, -0.9975612647169844 
1.919999999999805, -0.9996634940657744 
1.9299999999998039, -1.0011785560939166 
1.9399999999998028, -1.0019630421710466 
1.9499999999998017, -1.0021404066960442 
1.9599999999998006, -1.0019473690557323 
1.9699999999997995, -1.001644596590738 
1.9799999999997984, -1.0016238349260713 
1.9899999999997973, -1.0023590053011198 
1.9999999999997962, -1.0039876183510812 
2.0099999999998173, -1.0061968538278965 
2.0199999999998384, -1.0085995455083911 
2.0299999999998595, -1.0109215634991777 
2.0399999999998806, -1.012915690021182 
2.0499999999999017, -1.0143178612904273 
2.059999999999923, -1.0150135819726107 
2.069999999999944, -1.0151348126990742 
2.079999999999965, -1.0149136531218101 
2.089999999999986, -1.014616137939116 
2.100000000000007, -1.014635278786295 
2.1100000000000283, -1.0153773858909179 
2.1200000000000494, -1.0168747901789756 
2.1300000000000705, -1.0188011370273495 
2.1400000000000916, -1.0208267610144768 
2.1500000000001127, -1.0227345600162527 
2.160000000000134, -1.0243322759847624 
2.170000000000155, -1.0254166542429377 
2.180000000000176, -1.0259048202846717 
2.190000000000197, -1.025909676202583 
2.2000000000002182, -1.0256371120256877 
2.2100000000002393, -1.0253530249226228 
2.2200000000002604, -1.0254226069337298 
2.2300000000002815, -1.0261158438249072 
2.2400000000003026, -1.0273476221805535 
2.2500000000003237, -1.0288295617591858 
2.260000000000345, -1.0303237336271904 
2.270000000000366, -1.0316823044953964 
2.280000000000387, -1.0327764674262687 
2.290000000000408, -1.0334679816872414 
2.3000000000004293, -1.0337002379598415 
2.3100000000004504, -1.0335597080615435 
2.3200000000004715, -1.0332256127246688 
2.3300000000004926, -1.0329560025144886 
2.3400000000005137, -1.033046682465688 
2.3500000000005348, -1.03361742966068 
2.360000000000556, -1.0345279288656621 
2.370000000000577, -1.03555811847901 
2.380000000000598, -1.0365428183692427 
2.390000000000619, -1.0373846270726848 
2.4000000000006403, -1.038006216955633 
2.4100000000006614, -1.0383227083972675 
2.4200000000006825, -1.0382992379969178 
2.4300000000007036, -1.038005150041662 
2.4400000000007247, -1.0376033642041587 
2.450000000000746, -1.037328698276393 
2.460000000000767, -1.0373832349575154 
2.470000000000788, -1.037786079957268 
2.480000000000809, -1.0384010493271025 
2.49000000000083, -1.0390574555247047 
2.5000000000008513, -1.0396259525472369 
2.5100000000008724, -1.040040106424352 
2.5200000000008935, -1.0402612296457532 
2.5300000000009146, -1.0402455496240837 
2.5400000000009357, -1.0399783784402068 
2.550000000000957, -1.0395251578543434 
2.560000000000978, -1.0390395709599998 
2.570000000000999, -1.038718840139607 
2.58000000000102, -1.0386879020820874 
2.5900000000010412, -1.038928218086822 
2.6000000000010624, -1.0393143649733112 
2.6100000000010835, -1.039685962869915 
2.6200000000011046, -1.0399254460286385 
2.6300000000011257, -1.0399869582703243 
2.6400000000011468, -1.039862622790287 
2.650000000001168, -1.0395423150929903 
2.660000000001189, -1.0390320622801537 
2.67000000000121, -1.0384028769276301 
2.680000000001231, -1.037801154281755 
2.6900000000012523, -1.0373903786091432 
2.7000000000012734, -1.037260293635452 
2.7100000000012945, -1.037379633202219 
2.7200000000013156, -1.0376030800820595 
2.7300000000013367, -1.037755272928743 
2.740000000001358, -1.0377217952002848 
2.750000000001379, -1.0374717453301698 
2.7600000000014, -1.0370246364235767 
2.770000000001421, -1.036401561732213 
2.780000000001442, -1.0356309209907715 
2.7900000000014633, -1.0347947483206978 
2.8000000000014844, -1.0340379242052518 
2.8100000000015055, -1.0335147415011952 
2.8200000000015266, -1.0333090516868677 
2.8300000000015477, -1.0333568169085465 
2.840000000001569, -1.033463942063341 
2.85000000000159, -1.033436524822034 
2.860000000001611, -1.0331598831297688 
2.870000000001632, -1.0326132573744717 
2.8800000000016532, -1.0318432953104044 
2.8900000000016743, -1.0309033944551018 
2.9000000000016954, -1.0298465859285812 
2.9100000000017165, -1.028771308357773 
2.9200000000017377, -1.0278360823029946 
2.9300000000017588, -1.0272124112499463 
2.94000000000178, -1.0269727318709199 
2.950000000001801, -1.0269856942449838 
2.960000000001822, -1.027004604634853 
2.970000000001843, -1.0268243392323047 
2.9800000000018643, -1.0263258001559126 
2.9900000000018854, -1.0254945567438538 
3.0000000000019065, -1.0244056683454976 
3.0100000000019276, -1.0231465616943616 
3.0200000000019487, -1.0217967821998568 
3.03000000000197, -1.0204778110339354 
3.040000000001991, -1.0193778543396663 
3.050000000002012, -1.01869193417562 
3.060000000002033, -1.0184536318535617 
3.070000000002054, -1.0184512772005583 
3.0800000000020753, -1.0184029530192271 
3.0900000000020964, -1.0180995243876854 
3.1000000000021175, -1.0174151094974102 
3.1100000000021386, -1.016340939259149 
3.1200000000021597, -1.0149801239755931 
3.130000000002181, -1.0134515923645024 
3.140000000002202, -1.0118592812057052 
3.150000000002223, -1.0103490534794548 
3.160000000002244, -1.0091394152230404 
3.1700000000022652, -1.0084335719199415 
3.1800000000022863, -1.0082121606417698 
3.1900000000023074, -1.0082034987965474 
3.2000000000023285, -1.008112213887763 
3.2100000000023496, -1.007730386119816 
3.2200000000023707, -1.0069297746481458 
3.230000000002392, -1.0057103236421534 
3.240000000002413, -1.0041967474073668 
3.250000000002434, -1.0025274433156288 
3.260000000002455, -1.0008197621817894 
3.2700000000024763, -0.9992320707613396 
3.2800000000024974, -0.9979933017823447 
3.2900000000025185, -0.9972971938784432 
3.3000000000025396, -0.9970910190051595 
3.3100000000025607, -0.997082811153155 
3.3200000000025818, -0.9969798170253285 
3.330000000002603, -0.9965806582797143 
3.340000000002624, -0.9957653145049522 
3.350000000002645, -0.9945457040463621 
3.360000000002666, -0.9930535077894362 
3.3700000000026873, -0.9914255861117431 
3.3800000000027084, -0.9897745680974122 
3.3900000000027295, -0.9882507917838594 
3.4000000000027506, -0.9870669283020201 
3.4100000000027717, -0.9863998943804353 
3.420000000002793, -0.986202157261213 
3.430000000002814, -0.9862028039561713 
3.440000000002835, -0.9861228433541882 
3.450000000002856, -0.9857720935929284 
3.460000000002877, -0.9850478696594838 
3.4700000000028983, -0.9839724669721653 
3.4800000000029194, -0.9826661044088435 
3.4900000000029405, -0.9812432255838096 
3.5000000000029616, -0.9797963208572787 
3.5100000000029827, -0.9784534735551033 
3.520000000003004, -0.977395360222028 
3.530000000003025, -0.9767795380997751 
3.540000000003046, -0.9765910621927917 
3.550000000003067, -0.9766118962211287 
3.5600000000030882, -0.9765875135175435 
3.5700000000031094, -0.9763407800976251 
3.5800000000031305, -0.9757872964056744 
3.5900000000031516, -0.9749525141488146 
3.6000000000031727, -0.9739308349434663 
3.6100000000031938, -0.9728023640668902 
3.620000000003215, -0.9716334233078852 
3.630000000003236, -0.9705293058158924 
3.640000000003257, -0.9696413909833461 
3.650000000003278, -0.9691071122941848 
3.6600000000032993, -0.9689450234765867 
3.6700000000033204, -0.9690034356500925 
3.6800000000033415, -0.9690636349081765 
3.6900000000033626, -0.9689614445917542 
3.7000000000033837, -0.9686242284669894 
3.710000000003405, -0.9680714593273659 
3.720000000003426, -0.9673649268290934 
3.730000000003447, -0.9665476647084844 
3.740000000003468, -0.9656607116868555 
3.750000000003489, -0.9647938863255198 
3.7600000000035103, -0.9640853906136679 
3.7700000000035314, -0.963661411298752 
3.7800000000035525, -0.963559629389597 
3.7900000000035736, -0.9636850304912223 
3.8000000000035947, -0.963861026443504 
3.810000000003616, -0.9639367536609189 
3.820000000003637, -0.9638426847819769 
3.830000000003658, -0.9635844673321259 
3.840000000003679, -0.9631893842089368 
3.8500000000037002, -0.962664567404994 
3.8600000000037213, -0.9620286667433484 
3.8700000000037424, -0.9613629982602921 
3.8800000000037635, -0.9608102820890188 
3.8900000000037847, -0.9605077613942957 
3.9000000000038058, -0.9605069833262249 
3.910000000003827, -0.960745297142174 
3.920000000003848, -0.9610808956843775 
3.930000000003869, -0.9613755158883769 
3.94000000000389, -0.9615557838146533 
3.9500000000039113, -0.9616073415351782 
3.9600000000039324, -0.9615212674415102 
3.9700000000039535, -0.9612690839405845 
3.9800000000039746, -0.9608502570915821 
3.9900000000039957, -0.9603424872496228 
4.000000000004016, -0.9599027596768209 
4.010000000003993, -0.9597058479199058 
4.02000000000397, -0.9598364679757162 
4.030000000003946, -0.9602468199782935 
4.040000000003923, -0.9608072621729042 
4.0500000000039, -0.9613835700137364 
4.0600000000038765, -0.9618921503265471 
4.070000000003853, -0.9622924832863788 
4.08000000000383, -0.9625343485671897 
4.090000000003807, -0.9625508003018439 
4.100000000003783, -0.9623267551176493 
4.11000000000376, -0.9619431030048592 
4.120000000003737, -0.9615721608977955 
4.130000000003713, -0.9614413484959167 
4.14000000000369, -0.9617070308679804 
4.150000000003667, -0.962346743403051 
4.1600000000036434, -0.9632166859344315 
4.17000000000362, -0.9641641784560792 
4.180000000003597, -0.9650839439801789 
4.1900000000035735, -0.9659003894410206 
4.20000000000355, -0.9665120047286868 
4.210000000003527, -0.9668079255942714 
4.220000000003504, -0.9667667861980263 
4.23000000000348, -0.966485516625259 
4.240000000003457, -0.9661510514991369 
4.250000000003434, -0.966039095627117 
4.26000000000341, -0.9664107945154315 
4.270000000003387, -0.9673102816573329 
4.280000000003364, -0.968569098433928 
4.2900000000033405, -0.9699832343845742 
4.300000000003317, -0.971404436736752 
4.310000000003294, -0.9727085383762009 
4.320000000003271, -0.9737303149517251 
4.330000000003247, -0.9743117302514368 
4.340000000003224, -0.9744389313868236 
4.350000000003201, -0.9742424285002329 
4.360000000003177, -0.9739269523945071 
4.370000000003154, -0.9738002556579799 
4.380000000003131, -0.9742307627929713 
4.390000000003107, -0.9753705283771201 
4.400000000003084, -0.9770393451846455 
4.410000000003061, -0.9789557638716677 
4.4200000000030375, -0.9809048097943073 
4.430000000003014, -0.9827016918479505 
4.440000000002991, -0.9841134471123772 
4.450000000002968, -0.9849432989052622 
4.460000000002944, -0.9852018422708757 
4.470000000002921, -0.9850652398594917 
4.480000000002898, -0.984759713366602 
4.490000000002874, -0.9846114084882046 
4.500000000002851, -0.9850661646003395 
4.510000000002828, -0.9863760759519424 
4.520000000002804, -0.9883598050937682 
4.530000000002781, -0.9906600275027315 
4.540000000002758, -0.9929949511667394 
4.5500000000027345, -0.9951281535501666 
4.560000000002711, -0.9967809896771643 
4.570000000002688, -0.9977443991727482 
4.580000000002665, -0.99806197542031 
4.590000000002641, -0.997947358107092 
4.600000000002618, -0.9976441723093629 
4.610000000002595, -0.9974914674808366 
4.620000000002571, -0.9979665055392939 
4.630000000002548, -0.99934616464033 
4.640000000002525, -1.001426843961523 
4.6500000000025015, -1.0038130154788465 
4.660000000002478, -1.0062011023418116 
4.670000000002455, -1.008346032978591 
4.6800000000024315, -1.0099732710664362 
4.690000000002408, -1.0108951571380744 
4.700000000002385, -1.01117699258043 
4.710000000002362, -1.0110397720363502 
4.720000000002338, -1.0107324356447347 
4.730000000002315, -1.0106036696743268 
4.740000000002292, -1.0111067732482806 
4.750000000002268, -1.0124396203707962 
4.760000000002245, -1.0143535799112005 
4.770000000002222, -1.0164789950903377 
4.7800000000021985, -1.018555058647489 
4.790000000002175, -1.0203780791553478 
4.800000000002152, -1.021723912748996 
4.810000000002129, -1.0224463996815178 
4.820000000002105, -1.0226103060795326 
4.830000000002082, -1.0224135943744999 
4.840000000002059, -1.0221004758913628 
4.850000000002035, -1.02201721971561 
4.860000000002012, -1.022529823054077 
4.870000000001989, -1.023696339922113 
4.880000000001965, -1.025250033943935 
4.890000000001942, -1.026900978474376 
4.900000000001919, -1.0284619544723776 
4.9100000000018955, -1.0297902042166658 
4.920000000001872, -1.0307275858746192 
4.930000000001849, -1.031170887928863 
