t, s[1].omega / s[0].omega 
0, -1.1199974352784194 
0.009999999999999995, -1.1196191889666063 
0.019999999999999934, -1.1190000876506268 
0.029999999999999874, -1.1181444923671362 
0.04000000000000012, -1.1170693629637403 
0.050000000000000405, -1.1158127445510697 
0.06000000000000069, -1.1144381555582952 
0.07000000000000098, -1.1130321883904246 
0.08000000000000126, -1.111694744814062 
0.09000000000000155, -1.1105261941874507 
0.10000000000000184, -1.1096160026174484 
0.11000000000000212, -1.109027342850004 
0.12000000000000241, -1.1087709400764747 
0.130000000000002, -1.1087838568270274 
0.1400000000000009, -1.1089402784548195 
0.1499999999999998, -1.109090865920031 
0.1599999999999987, -1.1090978180376831 
0.1699999999999976, -1.1088468859071672 
0.1799999999999965, -1.108246333211278 
0.1899999999999954, -1.1072294504377094 
0.1999999999999943, -1.1057640388340795 
0.2099999999999932, -1.1038582991167694 
0.2199999999999921, -1.1015529343919424 
0.229999999999991, -1.098903439012363 
0.2399999999999899, -1.0959667722720854 
0.2499999999999888, -1.0928017194965585 
0.2599999999999877, -1.0894813364673293 
0.2699999999999866, -1.086110862775347 
0.2799999999999855, -1.0828445865346539 
0.2899999999999844, -1.0798906034528633 
0.2999999999999833, -1.0774808201416093 
0.3099999999999822, -1.0757895322193671 
0.3199999999999811, -1.0748367972537152 
0.32999999999998, -1.0744629600092803 
0.3399999999999789, -1.0744069236438887 
0.3499999999999778, -1.074412211780288 
0.35999999999997667, -1.0742764694908862 
0.36999999999997557, -1.073838055131014 
0.37999999999997447, -1.072940036865213 
0.38999999999997337, -1.0714076572715616 
0.39999999999997227, -1.0690597986014783 
0.40999999999997117, -1.06575749155379 
0.41999999999997006, -1.0614632844957437 
0.42999999999996896, -1.056264479058294 
0.43999999999996786, -1.0503398979181544 
0.44999999999996676, -1.0439040745855332 
0.45999999999996566, -1.0371776361551794 
0.46999999999996456, -1.0303999564437534 
0.47999999999996346, -1.0238648560344705 
0.48999999999996235, -1.0179407523398918 
0.49999999999996125, -1.0130284606201423 
0.5099999999999602, -1.0094338666879012 
0.519999999999959, -1.0072156651277793 
0.529999999999958, -1.0061399498248482 
0.5399999999999568, -1.00579872868319 
0.5499999999999557, -1.0057869136007953 
0.5599999999999546, -1.0058023774588671 
0.5699999999999535, -1.0056434678163728 
0.5799999999999524, -1.0051567536530457 
0.5899999999999513, -1.004184115483087 
0.5999999999999502, -1.002533686956667 
0.6099999999999491, -0.9999902942806724 
0.619999999999948, -0.9963748027180611 
0.6299999999999469, -0.9916313348465627 
0.6399999999999458, -0.9858793141133373 
0.6499999999999447, -0.9793798303836877 
0.6599999999999436, -0.972445015641081 
0.6699999999999425, -0.965366085443328 
0.6799999999999414, -0.958398403751452 
0.6899999999999403, -0.9517861433794036 
0.6999999999999392, -0.9457886013238047 
0.7099999999999381, -0.9406753469876247 
0.719999999999937, -0.9366734955629067 
0.7299999999999359, -0.9338830438946824 
0.7399999999999348, -0.9322165183655517 
0.7499999999999337, -0.9314195382834811 
0.7599999999999326, -0.9311650760563276 
0.7699999999999315, -0.9311525950171511 
0.7799999999999304, -0.9311552582561535 
0.7899999999999293, -0.9310136218725055 
0.7999999999999282, -0.930606083093171 
0.8099999999999271, -0.9298241965104771 
0.819999999999926, -0.9285687304695835 
0.8299999999999249, -0.9267706284971308 
0.8399999999999238, -0.9244246477452361 
0.8499999999999227, -0.9216068446045992 
0.8599999999999216, -0.9184537768088109 
0.8699999999999205, -0.9151154987398004 
0.8799999999999194, -0.911716984478313 
0.8899999999999183, -0.9083482097110627 
0.8999999999999172, -0.9050768447971007 
0.9099999999999161, -0.9019671121653078 
0.919999999999915, -0.8990927507827379 
0.9299999999999139, -0.8965393331086782 
0.9399999999999128, -0.8943953879874872 
0.9499999999999117, -0.8927336164252687 
0.9599999999999106, -0.8915867158380119 
0.9699999999999095, -0.8909282190173753 
0.9799999999999084, -0.8906710779253575 
0.9899999999999073, -0.8906878142513995 
0.9999999999999062, -0.890841171526371 
1.0099999999999052, -0.8910088760291591 
1.019999999999904, -0.8910950067062189 
1.029999999999903, -0.8910321543613252 
1.039999999999902, -0.8907820352773396 
1.0499999999999008, -0.8903370275692263 
1.0599999999998997, -0.8897180193417494 
1.0699999999998986, -0.8889632958311541 
1.0799999999998975, -0.8881109596038681 
1.0899999999998964, -0.8871848798444599 
1.0999999999998953, -0.8861924385934858 
1.1099999999998942, -0.8851338164890253 
1.119999999999893, -0.8840158716547597 
1.129999999999892, -0.8828632683471207 
1.1399999999998909, -0.881723283916724 
1.1499999999998898, -0.8806638477967923 
1.1599999999998887, -0.8797650897822293 
1.1699999999998876, -0.8791054702226725 
1.1799999999998865, -0.878746100486994 
1.1899999999998854, -0.8787186559092155 
1.1999999999998843, -0.8790205527376594 
1.2099999999998832, -0.8796175293961116 
1.219999999999882, -0.8804519329710365 
1.229999999999881, -0.8814547780048142 
1.2399999999998799, -0.8825589445161085 
1.2499999999998788, -0.8837099486834737 
1.2599999999998777, -0.8848709701453833 
1.2699999999998766, -0.8860201546038562 
1.2799999999998755, -0.8871402599411436 
1.2899999999998744, -0.8882041722020719 
1.2999999999998733, -0.8891641489960918 
1.3099999999998722, -0.889953998706711 
1.319999999999871, -0.890507050164264 
1.32999999999987, -0.8907803928096562 
1.3399999999998689, -0.890769722857747 
1.3499999999998678, -0.8905085018641211 
1.3599999999998666, -0.8900598246564986 
1.3699999999998655, -0.8895130880692477 
1.3799999999998644, -0.8889892692432638 
1.3899999999998633, -0.8886474054091702 
1.3999999999998622, -0.8886779032279852 
1.4099999999998611, -0.8892719282168414 
1.41999999999986, -0.8905736186263314 
1.429999999999859, -0.8926411093345546 
1.4399999999998578, -0.8954406681442014 
1.4499999999998567, -0.8988737139544489 
1.4599999999998556, -0.9028150804259086 
1.4699999999998545, -0.9071405240816782 
1.4799999999998534, -0.9117334032798695 
1.4899999999998523, -0.9164707762923759 
1.4999999999998512, -0.9211967253886135 
1.5099999999998501, -0.9257009543807445 
1.519999999999849, -0.929730231602999 
1.529999999999848, -0.9330490086941722 
1.5399999999998468, -0.93552138095414 
1.5499999999998457, -0.9371517250555039 
1.5599999999998446, -0.9380540353885098 
1.5699999999998435, -0.9383854987931018 
1.5799999999998424, -0.9382965895541647 
1.5899999999998413, -0.9379196426914493 
1.5999999999998402, -0.9373922589036416 
1.6099999999998391, -0.9369055946472329 
1.619999999999838, -0.9367613879470955 
1.629999999999837, -0.9374004129436295 
1.6399999999998358, -0.9393462875315662 
1.6499999999998347, -0.9430447892718996 
1.6599999999998336, -0.9486807467908114 
1.6699999999998325, -0.9561080278867937 
1.6799999999998314, -0.9649334411186095 
1.6899999999998303, -0.9746608039641825 
1.6999999999998292, -0.9847843741711907 
1.709999999999828, -0.9948014971581163 
1.719999999999827, -1.004190647915842 
1.729999999999826, -1.0124301547960224 
1.7399999999998248, -1.0191017408352192 
1.7499999999998237, -1.0240277085198912 
1.7599999999998226, -1.0273188120509622 
1.7699999999998215, -1.0292814069870933 
1.7799999999998204, -1.0302679324260247 
1.7899999999998193, -1.0305755366953795 
1.7999999999998182, -1.0304214759989128 
1.809999999999817, -1.0299726968044365 
1.819999999999816, -1.029407079927136 
1.8299999999998149, -1.028991711462987 
1.8399999999998138, -1.029142711137602 
1.8499999999998127, -1.0303890954914097 
1.8599999999998116, -1.0331845410999094 
1.8699999999998105, -1.0376661349310878 
1.8799999999998094, -1.043577242556067 
1.8899999999998083, -1.0504202990852884 
1.8999999999998072, -1.0576746490875997 
1.909999999999806, -1.0649163574618166 
1.919999999999805, -1.07182351895734 
1.9299999999998039, -1.0781323783588341 
1.9399999999998028, -1.0836070758684486 
1.9499999999998017, -1.0880554678966865 
1.9599999999998006, -1.0913813154898941 
1.9699999999997995, -1.0936227964037282 
1.9799999999997984, -1.0949334836723665 
1.9899999999997973, -1.0955185015746753 
1.9999999999997962, -1.0955760804085797 
2.0099999999998173, -1.0952776769394479 
2.0199999999998384, -1.0947868275683779 
2.0299999999998595, -1.0942975077361483 
2.0399999999998806, -1.0940575526929133 
2.0499999999999017, -1.0943330030783291 
2.059999999999923, -1.0953061341007388 
2.069999999999944, -1.0969842226787456 
2.079999999999965, -1.0992097361178788 
2.089999999999986, -1.1017548884746837 
2.100000000000007, -1.1044097322269322 
2.1100000000000283, -1.1070175277410408 
2.1200000000000494, -1.1094723799167545 
2.1300000000000705, -1.1117039836909084 
2.1400000000000916, -1.1136607526697924 
2.1500000000001127, -1.1152962666552895 
2.160000000000134, -1.1165647669831829 
2.170000000000155, -1.1174291762767128 
2.180000000000176, -1.1178764265630012 
2.190000000000197, -1.117928016004704 
2.2000000000002182, -1.117639063514635 
2.2100000000002393, -1.117091683287762 
2.2200000000002604, -1.1163919572259131 
2.2300000000002815, -1.1156691300445118 
2.2400000000003026, -1.1150635046589732 
2.2500000000003237, -1.1146947927346547 
2.260000000000345, -1.114627616550894 
2.270000000000366, -1.1148619414753713 
2.280000000000387, -1.115349552459078 
2.290000000000408, -1.1160130591280075 
2.3000000000004293, -1.1167570178594062 
2.3100000000004504, -1.1174797565596168 
2.3200000000004715, -1.1180891897156067 
2.3300000000004926, -1.1185153402318242 
2.3400000000005137, -1.1187147444143186 
2.3500000000005348, -1.1186679253557164 
2.360000000000556, -1.1183721846770636 
2.370000000000577, -1.117832366218839 
2.380000000000598, -1.1170543252024598 
2.390000000000619, -1.1160453390932852 
2.4000000000006403, -1.114821135500478 
2.4100000000006614, -1.1134150671212564 
2.4200000000006825, -1.1118844418641314 
2.4300000000007036, -1.1103106245380552 
2.4400000000007247, -1.108792367200882 
2.450000000000746, -1.1074358671238376 
2.460000000000767, -1.1063437853195732 
2.470000000000788, -1.1055958502049132 
2.480000000000809, -1.1052154431597974 
2.49000000000083, -1.1051425724741228 
2.5000000000008513, -1.105244911242897 
2.5100000000008724, -1.105362401441757 
2.5200000000008935, -1.1053468566332512 
2.5300000000009146, -1.10507430232796 
2.5400000000009357, -1.104441311573908 
2.550000000000957, -1.1033656352797194 
2.560000000000978, -1.101797956527219 
2.570000000000999, -1.0997342081321841 
2.58000000000102, -1.0972132739174953 
2.5900000000010412, -1.0942987912078344 
2.6000000000010624, -1.091060023809927 
2.6100000000010835, -1.0875664308548332 
2.6200000000011046, -1.0838981721556435 
2.6300000000011257, -1.0801660728932048 
2.6400000000011468, -1.0765326235386452 
2.650000000001168, -1.0732207488876928 
2.660000000001189, -1.0704853205551434 
2.67000000000121, -1.068527579372509 
2.680000000001231, -1.0673874867211535 
2.6900000000012523, -1.0669074196383843 
2.7000000000012734, -1.0668110416368999 
2.7100000000012945, -1.06682111774489 
2.7200000000013156, -1.0667202020148878 
2.7300000000013367, -1.0663405064595926 
2.740000000001358, -1.0655243951846198 
2.750000000001379, -1.0640944210772356 
2.7600000000014, -1.0618559577945617 
2.770000000001421, -1.0586413010357107 
2.780000000001442, -1.0543770314214398 
2.7900000000014633, -1.0491257902725677 
2.8000000000014844, -1.0430656790620454 
2.8100000000015055, -1.0364292306774145 
2.8200000000015266, -1.029457874018169 
2.8300000000015477, -1.0224016148199835 
2.840000000001569, -1.0155510125563505 
2.85000000000159, -1.0092640385761702 
2.860000000001611, -1.003941079777545 
2.870000000001632, -0.9999172250089302 
2.8800000000016532, -0.9973103419437945 
2.8900000000016743, -0.9959449805673981 
2.9000000000016954, -0.9954362566630169 
2.9100000000017165, -0.9953638375289217 
2.9200000000017377, -0.9953958176557294 
2.9300000000017588, -0.9953087299037942 
2.94000000000178, -0.994943954944915 
2.950000000001801, -0.9941536228289533 
2.960000000001822, -0.9927652134462934 
2.970000000001843, -0.9905807541135859 
2.9800000000018643, -0.9874215836521751 
2.9900000000018854, -0.9832073793023606 
3.0000000000019065, -0.9780173554556544 
3.0100000000019276, -0.9720765903443459 
3.0200000000019487, -0.9656756640069474 
3.03000000000197, -0.95909191211 
3.040000000001991, -0.9525615275954978 
3.050000000002012, -0.9462966455525214 
3.060000000002033, -0.94051450879842 
3.070000000002054, -0.9354479630087559 
3.0800000000020753, -0.9313178325022051 
3.0900000000020964, -0.9282678302207498 
3.1000000000021175, -0.92629566551264 
3.1100000000021386, -0.9252346297474469 
3.1200000000021597, -0.9248095050918309 
3.130000000002181, -0.9247282762336567 
3.140000000002202, -0.9247486039623461 
3.150000000002223, -0.9246938580096818 
3.160000000002244, -0.9244350700761078 
3.1700000000022652, -0.9238667624789801 
3.1800000000022863, -0.922896430855333 
3.1900000000023074, -0.9214556531957757 
3.2000000000023285, -0.9195263746622018 
3.2100000000023496, -0.9171600327739332 
3.2200000000023707, -0.9144667411789342 
3.230000000002392, -0.9115772035128931 
3.240000000002413, -0.9086050596895091 
3.250000000002434, -0.9056323107066078 
3.260000000002455, -0.9027175377345412 
3.2700000000024763, -0.8999131799544435 
3.2800000000024974, -0.897279458315389 
3.2900000000025185, -0.8948892515557483 
3.3000000000025396, -0.8928232747390563 
3.3100000000025607, -0.8911569020794178 
3.3200000000025818, -0.8899410329939889 
3.330000000002603, -0.8891824467244029 
3.340000000002624, -0.8888332483491294 
3.350000000002645, -0.8887977489230409 
3.360000000002666, -0.888955012619108 
3.3700000000026873, -0.8891849380049794 
3.3800000000027084, -0.8893861969467247 
3.3900000000027295, -0.8894837491615268 
3.4000000000027506, -0.8894309461640444 
3.4100000000027717, -0.8892103978720044 
3.420000000002793, -0.8888320574091162 
3.430000000002814, -0.8883242199407951 
3.440000000002835, -0.8877178897467422 
3.450000000002856, -0.8870323117081573 
3.460000000002877, -0.8862703926145118 
3.4700000000028983, -0.8854260200307286 
3.4800000000029194, -0.8844977506929889 
3.4900000000029405, -0.8835011472207592 
3.5000000000029616, -0.882475358472059 
3.5100000000029827, -0.8814834767438171 
3.520000000003004, -0.8806069651517834 
3.530000000003025, -0.8799338232515288 
3.540000000003046, -0.879541975299947 
3.550000000003067, -0.8794831318098479 
3.5600000000030882, -0.8797733926125025 
3.5700000000031094, -0.8803931669543865 
3.5800000000031305, -0.881294559757759 
3.5900000000031516, -0.8824130010562959 
3.6000000000031727, -0.88368035265257 
3.6100000000031938, -0.8850366120792609 
3.620000000003215, -0.8864369546997455 
3.630000000003236, -0.8878514056701624 
3.640000000003257, -0.8892562314819665 
3.650000000003278, -0.8906195195164699 
3.6600000000032993, -0.8918881947126761 
3.6700000000033204, -0.8929868440870757 
3.6800000000033415, -0.8938344585440553 
3.6900000000033626, -0.8943719628458581 
3.7000000000033837, -0.8945825126094886 
3.710000000003405, -0.8944929280605363 
3.720000000003426, -0.8941626498910187 
3.730000000003447, -0.8936754832582997 
3.740000000003468, -0.8931428967084486 
3.750000000003489, -0.8927153142853851 
3.7600000000035103, -0.8925874859225459 
3.7700000000035314, -0.8929806738306292 
3.7800000000035525, -0.8940957659134099 
3.7900000000035736, -0.896056584022661 
3.8000000000035947, -0.8988783648917431 
3.810000000003616, -0.9024800953731081 
3.820000000003637, -0.9067261704229332 
3.830000000003658, -0.9114672941440373 
3.840000000003679, -0.9165598866711782 
3.8500000000037002, -0.9218593204830335 
3.8600000000037213, -0.9271939709454227 
3.8700000000037424, -0.9323381028453661 
3.8800000000037635, -0.937013477792625 
3.8900000000037847, -0.9409447947854941 
3.9000000000038058, -0.9439514233739251 
3.910000000003827, -0.9460082781167751 
3.920000000003848, -0.9472265483677419 
3.930000000003869, -0.9477805459404138 
3.94000000000389, -0.9478424496275426 
3.9500000000039113, -0.9475580202596193 
3.9600000000039324, -0.9470621962636913 
3.9700000000039535, -0.9465239898282232 
3.9800000000039746, -0.9462082054573057 
3.9900000000039957, -0.9465245051907681 
4.000000000004016, -0.9480061338597892 
4.010000000003993, -0.9511710262167239 
4.02000000000397, -0.9563136226299909 
4.030000000003946, -0.9633754970598719 
4.040000000003923, -0.971991343304488 
4.0500000000039, -0.9816445603319865 
4.0600000000038765, -0.991797448426418 
4.070000000003853, -1.0019318209238146 
4.08000000000383, -1.0115308265774863 
4.090000000003807, -1.020077737006178 
4.100000000003783, -1.0271316167352313 
4.11000000000376, -1.03245838525159 
4.120000000003737, -1.0361066749242298 
4.130000000003713, -1.0383479446260548 
4.14000000000369, -1.0395333778428464 
4.150000000003667, -1.039977168536705 
4.1600000000036434, -1.0399149310415876 
4.17000000000362, -1.039522776546753 
4.180000000003597, -1.038972167141004 
4.1900000000035735, -1.0385041363108352 
4.20000000000355, -1.0384923676221363 
4.210000000003527, -1.0394254445085824 
4.220000000003504, -1.041746136482765 
4.23000000000348, -1.0456210395379473 
4.240000000003457, -1.0508450265692946 
4.250000000003434, -1.056968753129635 
4.26000000000341, -1.063507552443456 
4.270000000003387, -1.0700667683963196 
4.280000000003364, -1.076355332411262 
4.2900000000033405, -1.082144960862164 
4.300000000003317, -1.087233267275663 
4.310000000003294, -1.091443961185328 
4.320000000003271, -1.0946658328674688 
4.330000000003247, -1.0968956694350591 
4.340000000003224, -1.0982401160606978 
4.350000000003201, -1.0988704544265318 
4.360000000003177, -1.0989680571276448 
4.370000000003154, -1.098697635086437 
4.380000000003131, -1.0982168677208588 
4.390000000003107, -1.0977077341319224 
4.400000000003084, -1.0973981574419627 
4.410000000003061, -1.0975333490433046 
4.4200000000030375, -1.0982874492954735 
4.430000000003014, -1.0996803690457722 
4.440000000002991, -1.101581599180089 
4.450000000002968, -1.1037910531158048 
4.460000000002944, -1.1061180818966843 
4.470000000002921, -1.1084156374783707 
4.480000000002898, -1.1105814394185032 
4.490000000002874, -1.1125474870732766 
4.500000000002851, -1.1142667721102093 
4.510000000002828, -1.1157003968019246 
4.520000000002804, -1.116810110677914 
4.530000000002781, -1.1175613106294067 
4.540000000002758, -1.117935230793345 
4.5500000000027345, -1.1179411786387352 
4.560000000002711, -1.11762036041867 
4.570000000002688, -1.1170426741029573 
4.580000000002665, -1.1163037943942222 
4.590000000002641, -1.1155231992099501 
4.600000000002618, -1.1148329255289635 
4.610000000002595, -1.1143496833390856 
4.620000000002571, -1.1141436572227112 
4.630000000002548, -1.1142277155262472 
4.640000000002525, -1.1145685789322226 
4.6500000000025015, -1.1151001918129582 
4.660000000002478, -1.1157317264900237 
4.670000000002455, -1.116359582532254 
4.6800000000024315, -1.1168855659667734 
4.690000000002408, -1.1172319617405493 
4.700000000002385, -1.1173478372194832 
4.710000000002362, -1.1172083201234788 
4.720000000002338, -1.1168091150886308 
4.730000000002315, -1.1161575750554507 
4.740000000002292, -1.115264130608532 
4.750000000002268, -1.1141394470443322 
4.760000000002245, -1.1127992025676905 
4.770000000002222, -1.1112731579878432 
4.7800000000021985, -1.1096130870317835 
4.790000000002175, -1.1078953928933184 
4.800000000002152, -1.106217355046471 
4.810000000002129, -1.1046896357527438 
4.820000000002105, -1.103426018876771 
4.830000000002082, -1.1025220499401196 
4.840000000002059, -1.1020165444696057 
4.850000000002035, -1.101858007887791 
4.860000000002012, -1.1019125159885523 
4.870000000001989, -1.1020114730795771 
4.880000000001965, -1.1019968105435547 
4.890000000001942, -1.1017357553332092 
4.900000000001919, -1.1011153158551543 
4.9100000000018955, -1.1000398086091019 
4.920000000001872, -1.0984425716355573 
4.930000000001849, -1.0963035270850952 
