t, s[1].omega / s[0].omega 
0, -1.2099970295659848 
0.009999999999999995, -1.2095469066493554 
0.019999999999999934, -1.2087949744961404 
0.029999999999999874, -1.2077465783139922 
0.04000000000000012, -1.206415162492545 
0.050000000000000405, -1.2048272553426864 
0.06000000000000069, -1.2030265296757428 
0.07000000000000098, -1.2010754564211064 
0.08000000000000126, -1.199054083507742 
0.09000000000000155, -1.1970578647307428 
0.10000000000000184, -1.195197141480804 
0.11000000000000212, -1.1935942625813263 
0.12000000000000241, -1.1923648892468723 
0.130000000000002, -1.1915766628497055 
0.1400000000000009, -1.191206995688872 
0.1499999999999998, -1.191137919407381 
0.1599999999999987, -1.1911961355736669 
0.1699999999999976, -1.1912035039825586 
0.1799999999999965, -1.1910019894243242 
0.1899999999999954, -1.1904484542443485 
0.1999999999999943, -1.1893963795861069 
0.2099999999999932, -1.187682813446835 
0.2199999999999921, -1.1851319331022567 
0.229999999999991, -1.1815779531963242 
0.2399999999999899, -1.176898889043482 
0.2499999999999888, -1.171043352003335 
0.2599999999999877, -1.164035901122431 
0.2699999999999866, -1.1559639405527615 
0.2799999999999855, -1.1469654739817103 
0.2899999999999844, -1.1372380850122314 
0.2999999999999833, -1.1270765145596167 
0.3099999999999822, -1.1169246986042718 
0.3199999999999811, -1.107398425246603 
0.32999999999998, -1.0992104596301087 
0.3399999999999789, -1.0929613775702776 
0.3499999999999778, -1.0888830598054646 
0.35999999999997667, -1.0867320836405203 
0.36999999999997557, -1.085937458796515 
0.37999999999997447, -1.0858734561499512 
0.38999999999997337, -1.086051282978801 
0.39999999999997227, -1.0861583858396413 
0.40999999999997117, -1.0860032531790307 
0.41999999999997006, -1.0854373123364112 
0.42999999999996896, -1.0842850034269098 
0.43999999999996786, -1.0822835812738627 
0.44999999999996676, -1.0790293425058723 
0.45999999999996566, -1.0739409959807764 
0.46999999999996456, -1.0662767767138313 
0.47999999999996346, -1.0552597817068046 
0.48999999999996235, -1.0403318129757515 
0.49999999999996125, -1.0214472612871721 
0.5099999999999602, -0.9992261361616638 
0.519999999999959, -0.9748551174963306 
0.529999999999958, -0.9498145398564624 
0.5399999999999568, -0.925598193452767 
0.5499999999999557, -0.9035152819246778 
0.5599999999999546, -0.8845618078209277 
0.5699999999999535, -0.8693283425102177 
0.5799999999999524, -0.8579491351741542 
0.5899999999999513, -0.8501258592646278 
0.5999999999999502, -0.8452420251297678 
0.6099999999999491, -0.8425366973428223 
0.619999999999948, -0.8412732093853559 
0.6299999999999469, -0.8408485116020316 
0.6399999999999458, -0.8408282902773686 
0.6499999999999447, -0.8409276391619589 
0.6599999999999436, -0.8409677640170821 
0.6699999999999425, -0.8408314763569243 
0.6799999999999414, -0.8404282478715277 
0.6899999999999403, -0.8396719758654797 
0.6999999999999392, -0.8384724937181708 
0.7099999999999381, -0.8367423077712585 
0.719999999999937, -0.8344185273226143 
0.7299999999999359, -0.8314929072430309 
0.7399999999999348, -0.8280331037075992 
0.7499999999999337, -0.8241772579750641 
0.7599999999999326, -0.8200999548370309 
0.7699999999999315, -0.8159683335949843 
0.7799999999999304, -0.8119115341296517 
0.7899999999999293, -0.8080129787907637 
0.7999999999999282, -0.8043199316870279 
0.8099999999999271, -0.800859547754747 
0.819999999999926, -0.7976532039042189 
0.8299999999999249, -0.7947253703115152 
0.8399999999999238, -0.7921065173232312 
0.8499999999999227, -0.7898311629392323 
0.8599999999999216, -0.7879327002150005 
0.8699999999999205, -0.7864366930191369 
0.8799999999999194, -0.785354271129087 
0.8899999999999183, -0.7846772111280069 
0.8999999999999172, -0.7843761116699233 
0.9099999999999161, -0.78440247704309 
0.919999999999915, -0.7846944369567266 
0.9299999999999139, -0.7851846682148098 
0.9399999999999128, -0.7858085268148834 
0.9499999999999117, -0.7865107607135101 
0.9599999999999106, -0.7872500441431501 
0.9699999999999095, -0.7880011769433743 
0.9799999999999084, -0.788754711744607 
0.9899999999999073, -0.7895133856849768 
0.9999999999999062, -0.7902849258648044 
1.0099999999999052, -0.7910720881222912 
1.019999999999904, -0.7918626935173537 
1.029999999999903, -0.7926237722414806 
1.039999999999902, -0.7933035463904875 
1.0499999999999008, -0.7938421386515635 
1.0599999999998997, -0.7941872387760205 
1.0699999999998986, -0.7943076513988143 
1.0799999999998975, -0.7941991789382655 
1.0899999999998964, -0.7938828710978891 
1.0999999999998953, -0.7934004015836645 
1.1099999999998942, -0.7928118995304148 
1.119999999999893, -0.7921989796136789 
1.129999999999892, -0.7916724699075264 
1.1399999999998909, -0.7913815982125674 
1.1499999999998898, -0.7915193389563508 
1.1599999999998887, -0.7923179342415508 
1.1699999999998876, -0.7940307576919917 
1.1799999999998865, -0.7969022812401894 
1.1899999999998854, -0.8011345655175324 
1.1999999999998843, -0.8068616367877587 
1.2099999999998832, -0.8141391702283847 
1.219999999999882, -0.8229479959867522 
1.229999999999881, -0.8332015825564123 
1.2399999999998799, -0.8447443196334651 
1.2499999999998788, -0.8573307163008179 
1.2599999999998777, -0.8705865437966674 
1.2699999999998766, -0.8839730142751195 
1.2799999999998755, -0.8967988303672957 
1.2899999999998744, -0.9083261466948259 
1.2999999999998733, -0.9179602243565796 
1.3099999999998722, -0.9254221677315616 
1.319999999999871, -0.9307872119271131 
1.32999999999987, -0.9343756230309473 
1.3399999999998689, -0.9365912577115936 
1.3499999999998678, -0.9378020733245375 
1.3599999999998666, -0.9382896134791293 
1.3699999999998655, -0.9382478774533013 
1.3799999999998644, -0.9378063705183799 
1.3899999999998633, -0.9370652747207422 
1.3999999999998622, -0.9361445618038517 
1.4099999999998611, -0.9352573934325061 
1.41999999999986, -0.9348167395630924 
1.429999999999859, -0.9355625507264731 
1.4399999999998578, -0.9386461387347413 
1.4499999999998567, -0.9455504516094039 
1.4599999999998556, -0.9577381686255305 
1.4699999999998545, -0.9760798352599073 
1.4799999999998534, -1.0003435407281038 
1.4899999999998523, -1.0290801223729678 
1.4999999999998512, -1.0599890971349268 
1.5099999999998501, -1.090529536760036 
1.519999999999849, -1.1184676627853052 
1.529999999999848, -1.1422230656189214 
1.5399999999998468, -1.1610257049322463 
1.5499999999998457, -1.1749011596333385 
1.5599999999998446, -1.1844802735763658 
1.5699999999998435, -1.1906924670111574 
1.5799999999998424, -1.1944741038715243 
1.5899999999998413, -1.196594162280561 
1.5999999999998402, -1.1976064214072222 
1.6099999999998391, -1.197879478031438 
1.619999999999838, -1.197656941784241 
1.629999999999837, -1.197124883559831 
1.6399999999998358, -1.1964803620328262 
1.6499999999998347, -1.195990078548212 
1.6599999999998336, -1.1960034020006194 
1.6699999999998325, -1.1968730292416436 
1.6799999999998314, -1.1987983990048197 
1.6899999999998303, -1.2017128914949413 
1.6999999999998292, -1.2053249343053554 
1.709999999999828, -1.2092686267626453 
1.719999999999827, -1.21323284924259 
1.729999999999826, -1.2170064202594277 
1.7399999999998248, -1.2204644278887444 
1.7499999999998237, -1.2235384032293153 
1.7599999999998226, -1.2261914773850922 
1.7699999999998215, -1.2284021827416514 
1.7799999999998204, -1.2301558470959684 
1.7899999999998193, -1.2314428406066598 
1.7999999999998182, -1.2322622770955962 
1.809999999999817, -1.2326277402037595 
1.819999999999816, -1.2325709448500166 
1.8299999999998149, -1.232141757192027 
1.8399999999998138, -1.231406625197424 
1.8499999999998127, -1.230448081915081 
1.8599999999998116, -1.2293641885880557 
1.8699999999998105, -1.228262532580993 
1.8799999999998094, -1.227245681588803 
1.8899999999998083, -1.226394997222084 
1.8999999999998072, -1.2257646686002952 
1.909999999999806, -1.2253857108856 
1.919999999999805, -1.2252650319418759 
1.9299999999998039, -1.2253724667191197 
1.9399999999998028, -1.225630668135682 
1.9499999999998017, -1.2259250034259208 
1.9599999999998006, -1.2261282686269046 
1.9699999999997995, -1.2261207769895823 
1.9799999999997984, -1.2257963078491747 
1.9899999999997973, -1.225059876693729 
1.9999999999997962, -1.223827290548191 
2.0099999999998173, -1.2220305791992088 
2.0199999999998384, -1.2196257773886292 
2.0299999999998595, -1.2165963377898181 
2.0399999999998806, -1.2129489638583857 
2.0499999999999017, -1.2087054846837377 
2.059999999999923, -1.2038983347724552 
2.069999999999944, -1.1985761385031783 
2.079999999999965, -1.192822985741525 
2.089999999999986, -1.1867921824786996 
2.100000000000007, -1.1807475981498674 
2.1100000000000283, -1.1750849939713184 
2.1200000000000494, -1.1702807234104011 
2.1300000000000705, -1.1667340741703605 
2.1400000000000916, -1.1645729130235762 
2.1500000000001127, -1.1635847567896387 
2.160000000000134, -1.1633449350691232 
2.170000000000155, -1.1634183788727335 
2.180000000000176, -1.163476813857642 
2.190000000000197, -1.1632993531381743 
2.2000000000002182, -1.1627121808890029 
2.2100000000002393, -1.161515888482571 
2.2200000000002604, -1.159415185764487 
2.2300000000002815, -1.1559511430001062 
2.2400000000003026, -1.150446291176245 
2.2500000000003237, -1.1420011034288853 
2.260000000000345, -1.1296065081483824 
2.270000000000366, -1.112414742649517 
2.280000000000387, -1.0901060286674644 
2.290000000000408, -1.0631732004252776 
2.3000000000004293, -1.0329663346877962 
2.3100000000004504, -1.0014907112472908 
2.3200000000004715, -0.9710538229989947 
2.3300000000004926, -0.9438413766893051 
2.3400000000005137, -0.921486743539075 
2.3500000000005348, -0.9047493491825281 
2.360000000000556, -0.8934417116052956 
2.370000000000577, -0.8866485127349811 
2.380000000000598, -0.8831215305525414 
2.390000000000619, -0.881654995548684 
2.4000000000006403, -0.8813051529288859 
2.4100000000006614, -0.8814393553772522 
2.4200000000006825, -0.8816798397890111 
2.4300000000007036, -0.8818148561582128 
2.4400000000007247, -0.8817193308381513 
2.450000000000746, -0.8812975241571374 
2.460000000000767, -0.8804455270797187 
2.470000000000788, -0.8790295320188029 
2.480000000000809, -0.8768806469804422 
2.49000000000083, -0.8738130824455743 
2.5000000000008513, -0.8696723254147494 
2.5100000000008724, -0.8644047477431197 
2.5200000000008935, -0.8581136280630445 
2.5300000000009146, -0.851057700258088 
2.5400000000009357, -0.8435831281002605 
2.550000000000957, -0.8360307034753802 
2.560000000000978, -0.8286711557862144 
2.570000000000999, -0.8216882960560655 
2.58000000000102, -0.8151958488266785 
2.5900000000010412, -0.8092648364908372 
2.6000000000010624, -0.8039460941686578 
2.6100000000010835, -0.7992822140568453 
2.6200000000011046, -0.7953090973870802 
2.6300000000011257, -0.7920498999954447 
2.6400000000011468, -0.7895053402875432 
2.650000000001168, -0.7876449585492066 
2.660000000001189, -0.7864036343541346 
2.67000000000121, -0.7856858006158952 
2.680000000001231, -0.7853765735841515 
2.6900000000012523, -0.7853560521970931 
2.7000000000012734, -0.785512158493746 
2.7100000000012945, -0.7857489875781024 
2.7200000000013156, -0.7859903747139901 
2.7300000000013367, -0.786180469061249 
2.740000000001358, -0.7862835270538461 
2.750000000001379, -0.7862839540432922 
2.7600000000014, -0.7861856779739242 
2.770000000001421, -0.7860086676121982 
2.780000000001442, -0.7857811587872141 
2.7900000000014633, -0.785528807640576 
2.8000000000014844, -0.7852645459307172 
2.8100000000015055, -0.7849833243699144 
2.8200000000015266, -0.7846639999229783 
2.8300000000015477, -0.7842775745244768 
2.840000000001569, -0.7837983026893403 
2.85000000000159, -0.7832133227327348 
2.860000000001611, -0.7825281439882072 
2.870000000001632, -0.7817682959866818 
2.8800000000016532, -0.7809793329812464 
2.8900000000016743, -0.780227026413922 
2.9000000000016954, -0.7795977612345119 
2.9100000000017165, -0.7791973929491696 
2.9200000000017377, -0.7791462591315156 
2.9300000000017588, -0.7795691650703722 
2.94000000000178, -0.7805816434462131 
2.950000000001801, -0.7822762840677456 
2.960000000001822, -0.7847136955562587 
2.970000000001843, -0.7879209248325969 
2.9800000000018643, -0.7918969078964484 
2.9900000000018854, -0.796621620561476 
3.0000000000019065, -0.8020641812103523 
3.0100000000019276, -0.8081850859923079 
3.0200000000019487, -0.8149284610115289 
3.03000000000197, -0.8222019572927433 
3.040000000001991, -0.8298464062630831 
3.050000000002012, -0.8376067305572737 
3.060000000002033, -0.8451279109896164 
3.070000000002054, -0.8520022251692314 
3.0800000000020753, -0.8578679351036226 
3.0900000000020964, -0.8625123559840867 
3.1000000000021175, -0.8659143812814769 
3.1100000000021386, -0.868205828574004 
3.1200000000021597, -0.8695906180435669 
3.130000000002181, -0.8702736774371209 
3.140000000002202, -0.8704234410344962 
3.150000000002223, -0.8701648628069006 
3.160000000002244, -0.8695923208617998 
3.1700000000022652, -0.8687969770905748 
3.1800000000022863, -0.8679112545294475 
3.1900000000023074, -0.8671787224990142 
3.2000000000023285, -0.8670561879042301 
3.2100000000023496, -0.8683386190555993 
3.2200000000023707, -0.8722600119963002 
3.230000000002392, -0.8804739432587327 
3.240000000002413, -0.8947981998173818 
3.250000000002434, -0.9166781142210906 
3.260000000002455, -0.9464988760424893 
3.2700000000024763, -0.9830679657535708 
3.2800000000024974, -1.023617559846621 
3.2900000000025185, -1.0644348058969626 
3.3000000000025396, -1.1018641696639129 
3.3100000000025607, -1.1332399827657689 
3.3200000000025818, -1.157390920418922 
3.330000000002603, -1.1745794491261057 
3.340000000002624, -1.1859996553564705 
3.350000000002645, -1.1931515419664558 
3.360000000002666, -1.1973870925203638 
3.3700000000026873, -1.1997217404369553 
3.3800000000027084, -1.2008356856036009 
3.3900000000027295, -1.2011547977340566 
3.4000000000027506, -1.20094420334392 
3.4100000000027717, -1.2003947617323778 
3.420000000002793, -1.1997055628672166 
3.430000000002814, -1.1991601300307944 
3.440000000002835, -1.1991607214149798 
3.450000000002856, -1.2001546005124137 
3.460000000002877, -1.202440083741452 
3.4700000000028983, -1.2059881721695442 
3.4800000000029194, -1.2104546236050164 
3.4900000000029405, -1.215367207972635 
3.5000000000029616, -1.2203124053515944 
3.5100000000029827, -1.225011304952502 
3.520000000003004, -1.2293057288333598 
3.530000000003025, -1.233115390941626 
3.540000000003046, -1.2364010623691672 
3.550000000003067, -1.2391419331038558 
3.5600000000030882, -1.2413256705189 
3.5700000000031094, -1.242948295819569 
3.5800000000031305, -1.244019790281233 
3.5900000000031516, -1.2445697331455494 
3.6000000000031727, -1.2446484076574484 
3.6100000000031938, -1.2443234285788713 
3.620000000003215, -1.243676114167524 
3.630000000003236, -1.2428010860600012 
3.640000000003257, -1.2418068955543293 
3.650000000003278, -1.240810153476064 
3.6600000000032993, -1.2399186990669457 
3.6700000000033204, -1.2392121388379187 
3.6800000000033415, -1.2387351229424772 
3.6900000000033626, -1.2385046607877435 
3.7000000000033837, -1.2385143814045882 
3.710000000003405, -1.2387255516014122 
3.720000000003426, -1.2390583216134194 
3.730000000003447, -1.2394005089986355 
3.740000000003468, -1.2396299251568381 
3.750000000003489, -1.2396324675757993 
3.7600000000035103, -1.2393075229032098 
3.7700000000035314, -1.2385664219965005 
3.7800000000035525, -1.2373327327978867 
3.7900000000035736, -1.235547186918275 
3.8000000000035947, -1.2331733348696094 
3.810000000003616, -1.2301983697791847 
3.820000000003637, -1.2266278269494577 
3.830000000003658, -1.2224787090932523 
3.840000000003679, -1.217777881221075 
3.8500000000037002, -1.2125710275422756 
3.8600000000037213, -1.2069453805709465 
3.8700000000037424, -1.2010670554550154 
3.8800000000037635, -1.195223899534788 
3.8900000000037847, -1.1898392361489545 
3.9000000000038058, -1.1853975925205653 
3.910000000003827, -1.1822608290489438 
3.920000000003848, -1.1804783146215174 
3.930000000003869, -1.1797639332265184 
3.94000000000389, -1.179666431369559 
3.9500000000039113, -1.1797684708603573 
3.9600000000039324, -1.17977250644008 
3.9700000000039535, -1.1794756931544241 
3.9800000000039746, -1.1786987051099769 
3.9900000000039957, -1.1772084606826272 
4.000000000004016, -1.1746412179871621 
4.010000000003993, -1.1704244805482467 
4.02000000000397, -1.163714171686062 
4.030000000003946, -1.1534009971053172 
4.040000000003923, -1.138270796180967 
4.0500000000039, -1.117367174834601 
4.0600000000038765, -1.090464121855593 
4.070000000003853, -1.0584139061789328 
4.08000000000383, -1.023165471267487 
4.090000000003807, -0.9874298011410061 
4.100000000003783, -0.9541072299318075 
4.11000000000376, -0.9256366464373755 
4.120000000003737, -0.9034632082575631 
4.130000000003713, -0.887824007386361 
4.14000000000369, -0.8779281035643893 
4.150000000003667, -0.8724081451937908 
4.1600000000036434, -0.8698061095780294 
4.17000000000362, -0.8689025653533363 
4.180000000003597, -0.8688365697848802 
4.1900000000035735, -0.8690741624850091 
4.20000000000355, -0.8693135418619418 
4.210000000003527, -0.869388547869562 
4.220000000003504, -0.8691950081176196 
4.23000000000348, -0.8686414480708169 
4.240000000003457, -0.867618399087167 
4.250000000003434, -0.8659828637918315 
4.26000000000341, -0.8635608265728253 
4.270000000003387, -0.8601756323845624 
4.280000000003364, -0.8557054199966571 
4.2900000000033405, -0.8501522096312987 
4.300000000003317, -0.8436808688547327 
4.310000000003294, -0.8365916525527137 
4.320000000003271, -0.8292365415622216 
4.330000000003247, -0.8219315068176442 
4.340000000003224, -0.8149090247390037 
4.350000000003201, -0.8083163429661067 
4.360000000003177, -0.8022390826506266 
4.370000000003154, -0.7967287022985026 
4.380000000003131, -0.7918222344417716 
4.390000000003107, -0.7875513217923629 
4.400000000003084, -0.7839419891573229 
4.410000000003061, -0.7810082654586251 
4.4200000000030375, -0.7787434098445088 
4.430000000003014, -0.7771127120017879 
4.440000000002991, -0.7760512978291882 
4.450000000002968, -0.7754685977830148 
4.460000000002944, -0.7752584501749769 
4.470000000002921, -0.7753115465186667 
4.480000000002898, -0.7755264379865641 
4.490000000002874, -0.775816771192013 
4.500000000002851, -0.7761146586139277 
4.510000000002828, -0.7763716644086021 
4.520000000002804, -0.7765590115956322 
4.530000000002781, -0.776667418349451 
4.540000000002758, -0.7767053665763498 
4.5500000000027345, -0.7766939854099233 
4.560000000002711, -0.776658036400057 
4.570000000002688, -0.7766150605531025 
4.580000000002665, -0.7765666292243576 
4.590000000002641, -0.7764954269313363 
4.600000000002618, -0.7763697222932636 
4.610000000002595, -0.7761536461571229 
4.620000000002571, -0.7758190526646058 
4.630000000002548, -0.7753543972671858 
4.640000000002525, -0.7747685904844437 
4.6500000000025015, -0.774091204252195 
4.660000000002478, -0.7733720201480064 
4.670000000002455, -0.772681981577012 
4.6800000000024315, -0.7721153820111566 
4.690000000002408, -0.7717910936442778 
4.700000000002385, -0.7718497706783249 
4.710000000002362, -0.7724448043900245 
4.720000000002338, -0.7737273911660439 
4.730000000002315, -0.7758293424952011 
4.740000000002292, -0.7788491828565378 
4.750000000002268, -0.7828460476124354 
4.760000000002245, -0.7878422511264168 
4.770000000002222, -0.7938312031148683 
4.7800000000021985, -0.8007845685342063 
4.790000000002175, -0.8086517662108744 
4.800000000002152, -0.8173458576553866 
4.810000000002129, -0.8267132908638083 
4.820000000002105, -0.8364934561787081 
4.830000000002082, -0.8462896513616049 
4.840000000002059, -0.8555885960425359 
4.850000000002035, -0.8638567199122268 
4.860000000002012, -0.8706880818911362 
4.870000000001989, -0.8759180414040919 
4.880000000001965, -0.8796287518291951 
4.890000000001942, -0.8820588706062787 
4.900000000001919, -0.8834914162911435 
4.9100000000018955, -0.8841775440713382 
4.920000000001872, -0.8843072203421398 
4.930000000001849, -0.8840120439302346 
