t, s[1].omega / s[0].omega 
0, -1.8999888348598883 
0.009999999999999995, -1.8985036250128335 
0.019999999999999934, -1.8961286245852396 
0.029999999999999874, -1.8926028690977617 
0.04000000000000012, -1.8879182677254427 
0.050000000000000405, -1.8830892781346305 
0.06000000000000069, -1.880208433603935 
0.07000000000000098, -1.8799183566660969 
0.08000000000000126, -1.8806484649881916 
0.09000000000000155, -1.8811685534521705 
0.10000000000000184, -1.8812114408516727 
0.11000000000000212, -1.8808055043577039 
0.12000000000000241, -1.8799795702454034 
0.130000000000002, -1.8788877323380215 
0.1400000000000009, -1.8782548116790334 
0.1499999999999998, -1.879300173682872 
0.1599999999999987, -1.8820967076813058 
0.1699999999999976, -1.885252626483759 
0.1799999999999965, -1.8877297021213526 
0.1899999999999954, -1.8893248021006248 
0.1999999999999943, -1.8901586204655203 
0.2099999999999932, -1.8903710837289918 
0.2199999999999921, -1.890045727637542 
0.229999999999991, -1.8892035063058503 
0.2399999999999899, -1.8878119950813392 
0.2499999999999888, -1.8858137129788541 
0.2599999999999877, -1.8832296270014137 
0.2699999999999866, -1.8804334382419134 
0.2799999999999855, -1.878335088412325 
0.2899999999999844, -1.8775951875814214 
0.2999999999999833, -1.8777358924195149 
0.3099999999999822, -1.8779448234210971 
0.3199999999999811, -1.8778464755255548 
0.32999999999998, -1.8773241230187203 
0.3399999999999789, -1.876259828533128 
0.3499999999999778, -1.8745740608402763 
0.35999999999997667, -1.8728820357649276 
0.36999999999997557, -1.873451167964778 
0.37999999999997447, -1.8780131589589892 
0.38999999999997337, -1.8843392151307097 
0.39999999999997227, -1.889557396445038 
0.40999999999997117, -1.8929393481356658 
0.41999999999997006, -1.8948396255670417 
0.42999999999996896, -1.8957104894909456 
0.43999999999996786, -1.8958648443603576 
0.44999999999996676, -1.8954845064413746 
0.45999999999996566, -1.8946647900478442 
0.46999999999996456, -1.8934596985030705 
0.47999999999996346, -1.891936237684939 
0.48999999999996235, -1.8902764859197947 
0.49999999999996125, -1.8888911433146038 
0.5099999999999602, -1.888192786001295 
0.519999999999959, -1.8880820234355205 
0.529999999999958, -1.8880912285116989 
0.5399999999999568, -1.8878752082537098 
0.5499999999999557, -1.887233949386538 
0.5599999999999546, -1.885905899356476 
0.5699999999999535, -1.883474048556275 
0.5799999999999524, -1.8799418144596864 
0.5899999999999513, -1.8780646089235806 
0.5999999999999502, -1.8832175884057492 
0.6099999999999491, -1.8940310744583868 
0.619999999999948, -1.9037447223625255 
0.6299999999999469, -1.9098655014359587 
0.6399999999999458, -1.913147132197555 
0.6499999999999447, -1.9146842362746923 
0.6599999999999436, -1.9151916428133522 
0.6699999999999425, -1.915062710744047 
0.6799999999999414, -1.9145074158763553 
0.6899999999999403, -1.913655418564772 
0.6999999999999392, -1.9126195196336528 
0.7099999999999381, -1.9115408395487286 
0.719999999999937, -1.9106442055358148 
0.7299999999999359, -1.9101522384425569 
0.7399999999999348, -1.9100107494416076 
0.7499999999999337, -1.9099150466842094 
0.7599999999999326, -1.9095830410243106 
0.7699999999999315, -1.9087723781790058 
0.7799999999999304, -1.9070805005494584 
0.7899999999999293, -1.9037244225910122 
0.7999999999999282, -1.8979111605089716 
0.8099999999999271, -1.8921544485535626 
0.819999999999926, -1.8956463194348623 
0.8299999999999249, -1.909764679853394 
0.8399999999999238, -1.9233215529682244 
0.8499999999999227, -1.931441854992008 
0.8599999999999216, -1.9354593406407443 
0.8699999999999205, -1.9372079260612591 
0.8799999999999194, -1.9377627748646113 
0.8899999999999183, -1.937657269974298 
0.8999999999999172, -1.9371593277426715 
0.9099999999999161, -1.9364393453501574 
0.919999999999915, -1.935641284036932 
0.9299999999999139, -1.9348931805596497 
0.9399999999999128, -1.9343323590581576 
0.9499999999999117, -1.9340525415200243 
0.9599999999999106, -1.933948938764166 
0.9699999999999095, -1.9337719581883337 
0.9799999999999084, -1.933277688589842 
0.9899999999999073, -1.9321672206962375 
0.9999999999999062, -1.9298384761558882 
1.0099999999999052, -1.925052875955593 
1.019999999999904, -1.9163663230265144 
1.029999999999903, -1.907012724558341 
1.039999999999902, -1.9096899979214286 
1.0499999999999008, -1.9251588879520676 
1.0599999999998997, -1.939005444263816 
1.0699999999998986, -1.9466065156630676 
1.0799999999998975, -1.950067653886362 
1.0899999999998964, -1.9514292187983053 
1.0999999999998953, -1.9517479774463962 
1.1099999999998942, -1.9515118557202122 
1.119999999999893, -1.9509725671276865 
1.129999999999892, -1.950315966509351 
1.1399999999998909, -1.9496942737370897 
1.1499999999998898, -1.9492018969746863 
1.1599999999998887, -1.948901406239138 
1.1699999999998876, -1.9487807354037336 
1.1799999999998865, -1.9486804264169888 
1.1899999999998854, -1.9483759624181574 
1.1999999999998843, -1.947621326369272 
1.2099999999998832, -1.9459975616697822 
1.219999999999882, -1.9425805289494615 
1.229999999999881, -1.9355397207287517 
1.2399999999998799, -1.9232817057328284 
1.2499999999998788, -1.9120151751651437 
1.2599999999998777, -1.9164513625310196 
1.2699999999998766, -1.9314517352119296 
1.2799999999998755, -1.9427284251893995 
1.2899999999998744, -1.9483441916878619 
1.2999999999998733, -1.95071060993141 
1.3099999999998722, -1.9515088784063983 
1.319999999999871, -1.9515321055237647 
1.32999999999987, -1.9511458049658466 
1.3399999999998689, -1.9505756686005302 
1.3499999999998678, -1.950018724838674 
1.3599999999998666, -1.9496014777593829 
1.3699999999998655, -1.949352148159047 
1.3799999999998644, -1.9492536732345378 
1.3899999999998633, -1.949214020913513 
1.3999999999998622, -1.9490542150389119 
1.4099999999998611, -1.948564950812458 
1.41999999999986, -1.9474532120892474 
1.429999999999859, -1.945120311185376 
1.4399999999998578, -1.9402552274890426 
1.4499999999998567, -1.9305250369322589 
1.4599999999998556, -1.9150227217049813 
1.4699999999998545, -1.903409753667864 
1.4799999999998534, -1.9086011349208483 
1.4899999999998523, -1.9208461925893274 
1.4999999999998512, -1.9290057434203778 
1.5099999999998501, -1.9328304362849074 
1.519999999999849, -1.9343295985124134 
1.529999999999848, -1.9347082430427025 
1.5399999999998468, -1.9345182804893313 
1.5499999999998457, -1.9340407971446658 
1.5599999999998446, -1.933505847314267 
1.5699999999998435, -1.9331202435102965 
1.5799999999998424, -1.9329535985899688 
1.5899999999998413, -1.9329456103616458 
1.5999999999998402, -1.9330053897233115 
1.6099999999998391, -1.933006071665042 
1.619999999999838, -1.932782845263091 
1.629999999999837, -1.9321368725223167 
1.6399999999998358, -1.9307382705074325 
1.6499999999998347, -1.9279016610891193 
1.6599999999998336, -1.9222228428792618 
1.6699999999998325, -1.9114530991979393 
1.6799999999998314, -1.895108148595239 
1.6899999999998303, -1.8820936066961653 
1.6999999999998292, -1.8832938064816873 
1.709999999999828, -1.8912800613007357 
1.719999999999827, -1.897027438794342 
1.729999999999826, -1.8997701439205361 
1.7399999999998248, -1.900797808239595 
1.7499999999998237, -1.9009576232224 
1.7599999999998226, -1.9006563259041236 
1.7699999999998215, -1.9001386926226975 
1.7799999999998204, -1.8996699454189172 
1.7899999999998193, -1.899499287773428 
1.7999999999998182, -1.8996517235557349 
1.809999999999817, -1.8999541919535805 
1.819999999999816, -1.9002359369815278 
1.8299999999998149, -1.9003654933919019 
1.8399999999998138, -1.900215647606147 
1.8499999999998127, -1.8996340075960405 
1.8599999999998116, -1.898371591957622 
1.8699999999998105, -1.8959560840973535 
1.8799999999998094, -1.8915179218276528 
1.8899999999998083, -1.8837307679861461 
1.8999999999998072, -1.8718077339406811 
1.909999999999806, -1.8591615901109422 
1.919999999999805, -1.8537085827145088 
1.9299999999998039, -1.8559233989992532 
1.9399999999998028, -1.8594331601159495 
1.9499999999998017, -1.8615185971436568 
1.9599999999998006, -1.8623548639079612 
1.9699999999997995, -1.8624483763489081 
1.9799999999997984, -1.8620980657451796 
1.9899999999997973, -1.8615067881652891 
1.9999999999997962, -1.8609802568793943 
2.0099999999998173, -1.8609441703287655 
2.0199999999998384, -1.8615492754042506 
2.0299999999998595, -1.862474023963344 
2.0399999999998806, -1.863331522373152 
2.0499999999999017, -1.8639227802037148 
2.059999999999923, -1.864164390869539 
2.069999999999944, -1.8639961424103002 
2.079999999999965, -1.863328921510097 
2.089999999999986, -1.8620018080964258 
2.100000000000007, -1.859740312294407 
2.1100000000000283, -1.8561361566202321 
2.1200000000000494, -1.8507817179817028 
2.1300000000000705, -1.8439594089768772 
2.1400000000000916, -1.8378532337689855 
2.1500000000001127, -1.8353190775328223 
2.160000000000134, -1.8358647871364737 
2.170000000000155, -1.83703284938152 
2.180000000000176, -1.8377000840556044 
2.190000000000197, -1.8377955812521876 
2.2000000000002182, -1.8374346549389724 
2.2100000000002393, -1.836698906810097 
2.2200000000002604, -1.835781971518792 
2.2300000000002815, -1.8353157773438487 
2.2400000000003026, -1.8361942258634485 
2.2500000000003237, -1.8384049959538722 
2.260000000000345, -1.840926760110594 
2.270000000000366, -1.842970598595728 
2.280000000000387, -1.8443301986994751 
2.290000000000408, -1.8450536671785236 
2.3000000000004293, -1.845222299647372 
2.3100000000004504, -1.8448832003649955 
2.3200000000004715, -1.8440357411396158 
2.3300000000004926, -1.8426332457408652 
2.3400000000005137, -1.8406023103067404 
2.3500000000005348, -1.8379252011839724 
2.360000000000556, -1.8348813796095407 
2.370000000000577, -1.8323182384463077 
2.380000000000598, -1.8311233677825274 
2.390000000000619, -1.8311030536523205 
2.4000000000006403, -1.8313837185782653 
2.4100000000006614, -1.8314375853935114 
2.4200000000006825, -1.8311069695234827 
2.4300000000007036, -1.8302986839067625 
2.4400000000007247, -1.8288827436063122 
2.450000000000746, -1.8269924764688326 
2.460000000000767, -1.8260092194984505 
2.470000000000788, -1.8285540265316391 
2.480000000000809, -1.8346766703269466 
2.49000000000083, -1.8411834832793346 
2.5000000000008513, -1.8460032025407667 
2.5100000000008724, -1.8489925874117952 
2.5200000000008935, -1.8506168500422142 
2.5300000000009146, -1.8513046109126088 
2.5400000000009357, -1.8513390281137645 
2.550000000000957, -1.8508867886091216 
2.560000000000978, -1.8500440423287157 
2.570000000000999, -1.8488812217582251 
2.58000000000102, -1.8474922654335924 
2.5900000000010412, -1.8460740758821015 
2.6000000000010624, -1.8449760335152576 
2.6100000000010835, -1.844461563856651 
2.6200000000011046, -1.8443727348416854 
2.6300000000011257, -1.844322236621562 
2.6400000000011468, -1.8440259052606365 
2.650000000001168, -1.8432747818545843 
2.660000000001189, -1.8417409041096462 
2.67000000000121, -1.8388351161039906 
2.680000000001231, -1.834139107095249 
2.6900000000012523, -1.8300194611438019 
2.7000000000012734, -1.8336779244377468 
2.7100000000012945, -1.8464182410291758 
2.7200000000013156, -1.8594425320377979 
2.7300000000013367, -1.8679033152981248 
2.740000000001358, -1.8724177738727903 
2.750000000001379, -1.8745551129694515 
2.7600000000014, -1.8753737490119242 
2.770000000001421, -1.8754448532578132 
2.780000000001442, -1.8750644627119009 
2.7900000000014633, -1.874408849545956 
2.8000000000014844, -1.8736206181586408 
2.8100000000015055, -1.872829747738002 
2.8200000000015266, -1.8721634844194646 
2.8300000000015477, -1.871746482673128 
2.840000000001569, -1.8715824754465502 
2.85000000000159, -1.8714860564188593 
2.860000000001611, -1.8712169829101561 
2.870000000001632, -1.870544339434317 
2.8800000000016532, -1.8691129678490512 
2.8900000000016743, -1.8661697502323886 
2.9000000000016954, -1.86024286125709 
2.9100000000017165, -1.8498622934632043 
2.9200000000017377, -1.8390359583643658 
2.9300000000017588, -1.8408646090214529 
2.94000000000178, -1.855672026712774 
2.950000000001801, -1.8693092921091314 
2.960000000001822, -1.8769454840159312 
2.970000000001843, -1.8804681929399085 
2.9800000000018643, -1.8818788946337395 
2.9900000000018854, -1.8822417338669388 
3.0000000000019065, -1.8820530881314128 
3.0100000000019276, -1.881571532818596 
3.0200000000019487, -1.8809972628388507 
3.03000000000197, -1.8805061719217857 
3.040000000001991, -1.88018436460073 
3.050000000002012, -1.8800308103665642 
3.060000000002033, -1.880000624644148 
3.070000000002054, -1.8799777113627236 
3.0800000000020753, -1.879789223483734 
3.0900000000020964, -1.8792396813928445 
3.1000000000021175, -1.8780386726705647 
3.1100000000021386, -1.875602549751863 
3.1200000000021597, -1.8707191874933884 
3.130000000002181, -1.8612798862014557 
3.140000000002202, -1.8458347773064556 
3.150000000002223, -1.830408182236992 
3.160000000002244, -1.8280130810243207 
3.1700000000022652, -1.8363223926142234 
3.1800000000022863, -1.8440148973712405 
3.1900000000023074, -1.8481388994416796 
3.2000000000023285, -1.8499050728403053 
3.2100000000023496, -1.8504570668186848 
3.2200000000023707, -1.8503792531057346 
3.230000000002392, -1.849961765293473 
3.240000000002413, -1.8494337072156373 
3.250000000002434, -1.8490639559911919 
3.260000000002455, -1.8490355918711916 
3.2700000000024763, -1.849287349248505 
3.2800000000024974, -1.8496328046235753 
3.2900000000025185, -1.849916358670206 
3.3000000000025396, -1.8500137346657595 
3.3100000000025607, -1.8498039879994266 
3.3200000000025818, -1.8491375934180223 
3.330000000002603, -1.8477685301315798 
3.340000000002624, -1.845252358531944 
3.350000000002645, -1.8408298027289558 
3.360000000002666, -1.8334571650343983 
3.3700000000026873, -1.8227078759661428 
3.3800000000027084, -1.811469816212562 
3.3900000000027295, -1.8059330616065317 
3.4000000000027506, -1.8069473107471592 
3.4100000000027717, -1.8096531681758283 
3.420000000002793, -1.81143993924798 
3.430000000002814, -1.8121908925220958 
3.440000000002835, -1.8122636796409464 
3.450000000002856, -1.8118985224959274 
3.460000000002877, -1.8112602132473534 
3.4700000000028983, -1.8106347962928742 
3.4800000000029194, -1.810537056414106 
3.4900000000029405, -1.811315004014681 
3.5000000000029616, -1.8126726160506188 
3.5100000000029827, -1.81404359000744 
3.520000000003004, -1.8150969137640747 
3.530000000003025, -1.8157318018571202 
3.540000000003046, -1.8159287177611099 
3.550000000003067, -1.8156697548012435 
3.5600000000030882, -1.8149043714152164 
3.5700000000031094, -1.8135308424936354 
3.5800000000031305, -1.811388964696524 
3.5900000000031516, -1.8082916837946619 
3.6000000000031727, -1.8042049542805156 
3.6100000000031938, -1.7997305202056264 
3.620000000003215, -1.79639682252188 
3.630000000003236, -1.7952939949047877 
3.640000000003257, -1.7956408089439688 
3.650000000003278, -1.79616810570556 
3.6600000000032993, -1.7963485344247918 
3.6700000000033204, -1.7961067886685698 
3.6800000000033415, -1.7954269363972908 
3.6900000000033626, -1.7942814736433736 
3.7000000000033837, -1.7929049900852447 
3.710000000003405, -1.792420286989677 
3.720000000003426, -1.7944998349185775 
3.730000000003447, -1.798965335241061 
3.740000000003468, -1.8037402054879599 
3.750000000003489, -1.8074341250758876 
3.7600000000035103, -1.809844917192199 
3.7700000000035314, -1.8112127557528754 
3.7800000000035525, -1.8118007932510658 
3.7900000000035736, -1.811797010718339 
3.8000000000035947, -1.8113161945868943 
3.810000000003616, -1.8104225174886106 
3.820000000003637, -1.8091595929062119 
3.830000000003658, -1.8075955063196893 
3.840000000003679, -1.8059087808058176 
3.8500000000037002, -1.804476359273346 
3.8600000000037213, -1.8036891146022698 
3.8700000000037424, -1.8035094877900495 
3.8800000000037635, -1.8035241031470417 
3.8900000000037847, -1.8033800421195658 
3.9000000000038058, -1.802874473236967 
3.910000000003827, -1.8017823754456217 
3.920000000003848, -1.799690805467145 
3.930000000003869, -1.796081903898579 
3.94000000000389, -1.7916356884079694 
3.9500000000039113, -1.7911843776079333 
3.9600000000039324, -1.800024224130673 
3.9700000000039535, -1.813507091078574 
3.9800000000039746, -1.8242612710125514 
3.9900000000039957, -1.8306910581480245 
4.000000000004016, -1.8340356844013972 
4.010000000003993, -1.8355680760043989 
4.02000000000397, -1.8360714243757574 
4.030000000003946, -1.835968409219906 
4.040000000003923, -1.8354893666479406 
4.0500000000039, -1.8347893235003003 
4.0600000000038765, -1.8340054267036205 
4.070000000003853, -1.833262110461683 
4.08000000000383, -1.8326790725071749 
4.090000000003807, -1.8323507106149157 
4.100000000003783, -1.8322317398149224 
4.11000000000376, -1.8321239274801235 
4.120000000003737, -1.831804266465113 
4.130000000003713, -1.8310440612798846 
4.14000000000369, -1.8294607519379866 
4.150000000003667, -1.8262426759762758 
4.1600000000036434, -1.8198180406700264 
4.17000000000362, -1.8084697675211412 
4.180000000003597, -1.7953997549932326 
4.1900000000035735, -1.7934573679313686 
4.20000000000355, -1.8058625756569107 
4.210000000003527, -1.8192806121320904 
4.220000000003504, -1.8272727801529633 
4.23000000000348, -1.8310655575403711 
4.240000000003457, -1.8326293078603921 
4.250000000003434, -1.8330836030699753 
4.26000000000341, -1.832958098384503 
4.270000000003387, -1.832523235918752 
4.280000000003364, -1.8319879867072726 
4.2900000000033405, -1.8315574365475356 
4.300000000003317, -1.8313465528606858 
4.310000000003294, -1.8313291004966932 
4.320000000003271, -1.8314184819054091 
4.330000000003247, -1.8315059791593011 
4.340000000003224, -1.8314527780146075 
4.350000000003201, -1.8311037123352878 
4.360000000003177, -1.8302582478372376 
4.370000000003154, -1.8285658502550401 
4.380000000003131, -1.8253518585672164 
4.390000000003107, -1.8194042124596013 
4.400000000003084, -1.8090881449127778 
4.410000000003061, -1.794321690376761 
4.4200000000030375, -1.7811418475265632 
4.430000000003014, -1.7779251259686302 
4.440000000002991, -1.7819860573019977 
4.450000000002968, -1.7862473076201588 
4.460000000002944, -1.7886389719920934 
4.470000000002921, -1.7896329021653412 
4.480000000002898, -1.7898265583425725 
4.490000000002874, -1.789552444514349 
4.500000000002851, -1.7890094374762533 
4.510000000002828, -1.7884495039152875 
4.520000000002804, -1.7882570206611952 
4.530000000002781, -1.7886871458993956 
4.540000000002758, -1.789563586285519 
4.5500000000027345, -1.7905056254725853 
4.560000000002711, -1.7912563308828873 
4.570000000002688, -1.7917002881568647 
4.580000000002665, -1.7917778384253595 
4.590000000002641, -1.7914305694733206 
4.600000000002618, -1.790566665420128 
4.610000000002595, -1.7890336475625896 
4.620000000002571, -1.7866006275920239 
4.630000000002548, -1.782981077566038 
4.640000000002525, -1.7780243907076418 
4.6500000000025015, -1.7723085430421215 
4.660000000002478, -1.7677073600134878 
4.670000000002455, -1.7659410608653232 
4.6800000000024315, -1.7663060262766987 
4.690000000002408, -1.767094674144292 
4.700000000002385, -1.7675194455107959 
4.710000000002362, -1.7674819072112435 
4.720000000002338, -1.767017680560412 
4.730000000002315, -1.7661348894033153 
4.740000000002292, -1.764951668082468 
4.750000000002268, -1.7641358905231914 
4.760000000002245, -1.765044282514649 
4.770000000002222, -1.768234620882549 
4.7800000000021985, -1.7723943448984891 
4.790000000002175, -1.776027692038505 
4.800000000002152, -1.7786097123169609 
4.810000000002129, -1.780207151742562 
4.820000000002105, -1.7810204578597753 
4.830000000002082, -1.7812205058355808 
4.840000000002059, -1.7809211832192975 
4.850000000002035, -1.780188173966105 
4.860000000002012, -1.7790585417854057 
4.870000000001989, -1.7775719925412983 
4.880000000001965, -1.7758309335112965 
4.890000000001942, -1.7741052743464292 
4.900000000001919, -1.7728413710231177 
4.9100000000018955, -1.7723049401921531 
4.920000000001872, -1.7722560285205116 
4.930000000001849, -1.7722570773252362 
4.940000000001826, -1.7720234068867036 
