t, s[1].omega / s[0].omega 
0, -0.3001548161789881 
0.009999999999999995, -0.31593124514602877 
0.019999999999999934, -0.33015950222386364 
0.029999999999999874, -0.3405703562016084 
0.04000000000000012, -0.3470017772882278 
0.050000000000000405, -0.35060870534225924 
0.06000000000000069, -0.35258682548336234 
0.07000000000000098, -0.3537021877371517 
0.08000000000000126, -0.3543580548875801 
0.09000000000000155, -0.35475218004432973 
0.10000000000000184, -0.35498122390004416 
0.11000000000000212, -0.355093634998473 
0.12000000000000241, -0.35511422112639696 
0.130000000000002, -0.3550558948237196 
0.1400000000000009, -0.35492644864931716 
0.1499999999999998, -0.35473402910706453 
0.1599999999999987, -0.35449256642421323 
0.1699999999999976, -0.35422641724940485 
0.1799999999999965, -0.3539718674269344 
0.1899999999999954, -0.35377314382203734 
0.1999999999999943, -0.35367291844208304 
0.2099999999999932, -0.35370025998932364 
0.2199999999999921, -0.3538601426635364 
0.229999999999991, -0.3541281917407857 
0.2399999999999899, -0.35445381090739086 
0.2499999999999888, -0.3547727720463984 
0.2599999999999877, -0.3550249129615358 
0.2699999999999866, -0.355167914733692 
0.2799999999999855, -0.3551805620873453 
0.2899999999999844, -0.35505641722874415 
0.2999999999999833, -0.35479338606895705 
0.3099999999999822, -0.35438334903252783 
0.3199999999999811, -0.3538022929173562 
0.32999999999998, -0.3529983674512637 
0.3399999999999789, -0.3518734047419897 
0.3499999999999778, -0.3502526576916142 
0.35999999999997667, -0.3478414473980905 
0.36999999999997557, -0.344189003530199 
0.37999999999997447, -0.3387383375026689 
0.38999999999997337, -0.3311003293320933 
0.39999999999997227, -0.3215386567334878 
0.40999999999997117, -0.3111832116101318 
0.41999999999997006, -0.3014886947295953 
0.42999999999996896, -0.2934265937097281 
0.43999999999996786, -0.28723136565883045 
0.44999999999996676, -0.28266968408095733 
0.45999999999996566, -0.2793659201663105 
0.46999999999996456, -0.27697581384772685 
0.47999999999996346, -0.2752377478784631 
0.48999999999996235, -0.2739702610664085 
0.49999999999996125, -0.27305541817852486 
0.5099999999999602, -0.27242319030177525 
0.519999999999959, -0.27204097593175036 
0.529999999999958, -0.271908871797122 
0.5399999999999568, -0.27206082958746447 
0.5499999999999557, -0.27257251578111935 
0.5599999999999546, -0.2735778760542963 
0.5699999999999535, -0.27529763598613555 
0.5799999999999524, -0.2780827193414576 
0.5899999999999513, -0.282468261117489 
0.5999999999999502, -0.2892034299465542 
0.6099999999999491, -0.2991389307813816 
0.619999999999948, -0.31273271862101504 
0.6299999999999469, -0.32907928177384005 
0.6399999999999458, -0.3453601831776114 
0.6499999999999447, -0.3583073536655931 
0.6599999999999436, -0.366628699377426 
0.6699999999999425, -0.3712303244193843 
0.6799999999999414, -0.37362537746693 
0.6899999999999403, -0.37490197732978403 
0.6999999999999392, -0.3756333275829767 
0.7099999999999381, -0.3760827907946512 
0.719999999999937, -0.3763669714910746 
0.7299999999999359, -0.3765388238445041 
0.7399999999999348, -0.37662363203595584 
0.7499999999999337, -0.3766338621578955 
0.7599999999999326, -0.37657583202846256 
0.7699999999999315, -0.37645390835003206 
0.7799999999999304, -0.37627464372882524 
0.7899999999999293, -0.3760513975344131 
0.7999999999999282, -0.3758082780354431 
0.8099999999999271, -0.3755808831189957 
0.819999999999926, -0.3754115934836785 
0.8299999999999249, -0.37533965969250194 
0.8399999999999238, -0.37538923699545995 
0.8499999999999227, -0.37555962376790003 
0.8599999999999216, -0.37582154745056356 
0.8699999999999205, -0.3761223836535164 
0.8799999999999194, -0.37640015644351876 
0.8899999999999183, -0.37660055056694003 
0.8999999999999172, -0.37668810711359574 
0.9099999999999161, -0.3766468926726752 
0.919999999999915, -0.37647308920669914 
0.9299999999999139, -0.37616490827265137 
0.9399999999999128, -0.3757130742572411 
0.9499999999999117, -0.3750915412917394 
0.9599999999999106, -0.37424539591873746 
0.9699999999999095, -0.3730708086720396 
0.9799999999999084, -0.37138009724980375 
0.9899999999999073, -0.36884709687989514 
0.9999999999999062, -0.3649495503075527 
1.0099999999999052, -0.35899640391373555 
1.019999999999904, -0.3504268089630384 
1.029999999999903, -0.339431006339901 
1.039999999999902, -0.32731883048082805 
1.0499999999999008, -0.3159030761462547 
1.0599999999998997, -0.3064327141563604 
1.0699999999998986, -0.2992188587394033 
1.0799999999998975, -0.2939728595227341 
1.0899999999998964, -0.29022844692477195 
1.0999999999998953, -0.2875629749946054 
1.1099999999998942, -0.2856589945307134 
1.119999999999893, -0.28429811810032785 
1.129999999999892, -0.2833383891964233 
1.1399999999998909, -0.282693742039684 
1.1499999999998898, -0.2823199946650344 
1.1599999999998887, -0.28220746877764735 
1.1699999999998876, -0.2823797177392845 
1.1799999999998865, -0.28289845634814614 
1.1899999999998854, -0.2838757678527977 
1.1999999999998843, -0.28549555316194886 
1.2099999999998832, -0.2880458571621777 
1.219999999999882, -0.2919584118030341 
1.229999999999881, -0.2978312447870763 
1.2399999999998799, -0.30635622028472287 
1.2499999999998788, -0.3179921825874016 
1.2599999999998777, -0.3322849521372548 
1.2699999999998766, -0.34731471339545117 
1.2799999999998755, -0.36039549081075495 
1.2899999999998744, -0.3698649029379631 
1.2999999999998733, -0.37583716386929134 
1.3099999999998722, -0.3793429393226308 
1.319999999999871, -0.38137158915359526 
1.32999999999987, -0.3825651450123421 
1.3399999999998689, -0.3832794568742211 
1.3499999999998678, -0.3837016149014888 
1.3599999999998666, -0.38392953796156176 
1.3699999999998655, -0.3840145184818894 
1.3799999999998644, -0.38398251264264827 
1.3899999999998633, -0.3838453811588812 
1.3999999999998622, -0.38360832209739376 
1.4099999999998611, -0.38327672448931455 
1.41999999999986, -0.3828633950165331 
1.429999999999859, -0.3823946067192034 
1.4399999999998578, -0.38191140698529064 
1.4499999999998567, -0.3814633697334291 
1.4599999999998556, -0.38109617229245074 
1.4699999999998545, -0.3808384777004844 
1.4799999999998534, -0.38069369105609285 
1.4899999999998523, -0.3806392829420127 
1.4999999999998512, -0.38063371120228073 
1.5099999999998501, -0.3806286478388142 
1.519999999999849, -0.38058160045637135 
1.529999999999848, -0.3804634508370147 
1.5399999999998468, -0.38025869733508066 
1.5499999999998457, -0.3799604396299561 
1.5599999999998446, -0.379563582415921 
1.5699999999998435, -0.37905821408537427 
1.5799999999998424, -0.37842271445657355 
1.5899999999998413, -0.3776138922196474 
1.5999999999998402, -0.376548625026247 
1.6099999999998391, -0.375066668423866 
1.619999999999838, -0.37285831786294676 
1.629999999999837, -0.36934738302565934 
1.6399999999998358, -0.36359259904870467 
1.6499999999998347, -0.354479940961919 
1.6599999999998336, -0.34158249171495925 
1.6699999999998325, -0.3262175234983189 
1.6799999999998314, -0.311069247147006 
1.6899999999998303, -0.29836063168484456 
1.6999999999998292, -0.2888127917983453 
1.709999999999828, -0.28206356767094254 
1.719999999999827, -0.2774127969268588 
1.729999999999826, -0.2742244911753277 
1.7399999999998248, -0.2720319331710495 
1.7499999999998237, -0.27052214929315654 
1.7599999999998226, -0.26949500651057834 
1.7699999999998215, -0.2688281573708887 
1.7799999999998204, -0.26845340579036736 
1.7899999999998193, -0.2683430851273051 
1.7999999999998182, -0.2685043514148487 
1.809999999999817, -0.2689802265348823 
1.819999999999816, -0.26985738454664904 
1.8299999999998149, -0.27128158181221157 
1.8399999999998138, -0.2734814978999994 
1.8499999999998127, -0.2767980269982532 
1.8599999999998116, -0.2817018530919321 
1.8699999999998105, -0.28874509684193655 
1.8799999999998094, -0.2983349389015307 
1.8899999999998083, -0.3102416160195138 
1.8999999999998072, -0.3231193362686479 
1.909999999999806, -0.334843514193297 
1.919999999999805, -0.3438103727847551 
1.9299999999998039, -0.3497778220369928 
1.9399999999998028, -0.3534303155839208 
1.9499999999998017, -0.3555933934869256 
1.9599999999998006, -0.3568697141986245 
1.9699999999997995, -0.35762146557341085 
1.9799999999997984, -0.35805002106355016 
1.9899999999997973, -0.358264416338131 
1.9999999999997962, -0.3583226341440408 
2.0099999999998173, -0.35825411080136155 
2.0199999999998384, -0.35807248342670717 
2.0299999999998595, -0.35778443251950287 
2.0399999999998806, -0.3573977972297548 
2.0499999999999017, -0.3569296196813788 
2.059999999999923, -0.35641197965150423 
2.069999999999944, -0.35589175749024493 
2.079999999999965, -0.35542224674064193 
2.089999999999986, -0.3550494592854089 
2.100000000000007, -0.35479936059998407 
2.1100000000000283, -0.3546710133419569 
2.1200000000000494, -0.35463733556581756 
2.1300000000000705, -0.3546530375855342 
2.1400000000000916, -0.35466735652364123 
2.1500000000001127, -0.3546366187461808 
2.160000000000134, -0.354531226466002 
2.170000000000155, -0.3543351504668728 
2.180000000000176, -0.3540402130151659 
2.190000000000197, -0.35363858642743207 
2.2000000000002182, -0.3531151370917612 
2.2100000000002393, -0.3524386440607032 
2.2200000000002604, -0.35154843631065485 
2.2300000000002815, -0.35033000841358003 
2.2400000000003026, -0.3485694170692371 
2.2500000000003237, -0.34587689688370765 
2.260000000000345, -0.3415992452509543 
2.270000000000366, -0.33484971155729376 
2.280000000000387, -0.32493871104799577 
2.290000000000408, -0.31224279557814866 
2.3000000000004293, -0.29857519722876724 
2.3100000000004504, -0.2861473029826357 
2.3200000000004715, -0.2762262610301768 
2.3300000000004926, -0.26892343096227306 
2.3400000000005137, -0.2637578873668411 
2.3500000000005348, -0.26015004600250674 
2.360000000000556, -0.25762587529883824 
2.370000000000577, -0.2558496962535706 
2.380000000000598, -0.25459973015207954 
2.390000000000619, -0.2537366180705437 
2.4000000000006403, -0.2531793333222584 
2.4100000000006614, -0.2528902505628473 
2.4200000000006825, -0.2528682436915398 
2.4300000000007036, -0.2531489568371689 
2.4400000000007247, -0.2538125552255479 
2.450000000000746, -0.25500065781712355 
2.460000000000767, -0.25694525484254205 
2.470000000000788, -0.26001129314280524 
2.480000000000809, -0.26474457342993424 
2.49000000000083, -0.27187992909208697 
2.5000000000008513, -0.2821759413324709 
2.5100000000008724, -0.29585241663251904 
2.5200000000008935, -0.3116833558290758 
2.5300000000009146, -0.32681894059929834 
2.5400000000009357, -0.3384940938828634 
2.550000000000957, -0.34595267433396043 
2.560000000000978, -0.3501736085724432 
2.570000000000999, -0.3524643078992805 
2.58000000000102, -0.35373245302342327 
2.5900000000010412, -0.3544680183434584 
2.6000000000010624, -0.35491032053551386 
2.6100000000010835, -0.3551741969098373 
2.6200000000011046, -0.3553160595019953 
2.6300000000011257, -0.3553644619864103 
2.6400000000011468, -0.35533415445033717 
2.650000000001168, -0.3552334856125375 
2.660000000001189, -0.355069775409427 
2.67000000000121, -0.3548545233203365 
2.680000000001231, -0.35460831592947895 
2.6900000000012523, -0.35436353029847056 
2.7000000000012734, -0.3541622750796064 
2.7100000000012945, -0.3540485826349931 
2.7200000000013156, -0.3540568381769175 
2.7300000000013367, -0.35420030086074716 
2.740000000001358, -0.35446358768608355 
2.750000000001379, -0.35480264393866273 
2.7600000000014, -0.3551545277454796 
2.770000000001421, -0.3554546977645716 
2.780000000001442, -0.3556534674586729 
2.7900000000014633, -0.3557230703683537 
2.8000000000014844, -0.35565375158219936 
2.8100000000015055, -0.3554437633556614 
2.8200000000015266, -0.3550885193654139 
2.8300000000015477, -0.354570616748508 
2.840000000001569, -0.3538489667221595 
2.85000000000159, -0.3528431086971734 
2.860000000001611, -0.351407654699578 
2.870000000001632, -0.349293633936945 
2.8800000000016532, -0.34610747639764894 
2.8900000000016743, -0.34132313950294163 
2.9000000000016954, -0.3344710632775398 
2.9100000000017165, -0.32557108532248397 
2.9200000000017377, -0.3154873179114711 
2.9300000000017588, -0.30562845639735403 
2.94000000000178, -0.2971460188316102 
2.950000000001801, -0.2904811675656387 
2.960000000001822, -0.2855136829098045 
2.970000000001843, -0.2818971530092026 
2.9800000000018643, -0.279277120317622 
2.9900000000018854, -0.2773713201749391 
3.0000000000019065, -0.27597878240827367 
3.0100000000019276, -0.2749659725330128 
3.0200000000019487, -0.27425071502238696 
3.03000000000197, -0.2737903526942843 
3.040000000001991, -0.2735754451261835 
3.050000000002012, -0.27362917438321777 
3.060000000002033, -0.2740130291151549 
3.070000000002054, -0.27484038647312964 
3.0800000000020753, -0.276300893814029 
3.0900000000020964, -0.27869907725295817 
3.1000000000021175, -0.2825065884430846 
3.1100000000021386, -0.2884070673869285 
3.1200000000021597, -0.2972492062177633 
3.130000000002181, -0.3097025135544652 
3.140000000002202, -0.32540742803539713 
3.150000000002223, -0.34210921114071396 
3.160000000002244, -0.35639610532094096 
3.1700000000022652, -0.3661774730720361 
3.1800000000022863, -0.3718018310460068 
3.1900000000023074, -0.37475786543450795 
3.2000000000023285, -0.37631151919076805 
3.2100000000023496, -0.37718080256643627 
3.2200000000023707, -0.3777056925455248 
3.230000000002392, -0.3780371943962092 
3.240000000002413, -0.3782430209999011 
3.250000000002434, -0.3783550081932592 
3.260000000002455, -0.378388745329458 
3.2700000000024763, -0.37835196082824474 
3.2800000000024974, -0.37824910864281974 
3.2900000000025185, -0.37808537020403415 
3.3000000000025396, -0.3778711727039997 
3.3100000000025607, -0.37762662013153736 
3.3200000000025818, -0.37738363763580385 
3.330000000002603, -0.37718320644664405 
3.340000000002624, -0.37706692066691205 
3.350000000002645, -0.37706521810446925 
3.360000000002666, -0.3771864696254551 
3.3700000000026873, -0.37741098559298264 
3.3800000000027084, -0.3776931741204585 
3.3900000000027295, -0.37797294859919534 
3.4000000000027506, -0.37819250906547314 
3.4100000000027717, -0.37831009144936345 
3.420000000002793, -0.3783040576346196 
3.430000000002814, -0.37816763619960797 
3.440000000002835, -0.37789933960739114 
3.450000000002856, -0.37749328136468313 
3.460000000002877, -0.3769301623385087 
3.4700000000028983, -0.37616667022892714 
3.4800000000029194, -0.3751188147033818 
3.4900000000029405, -0.3736325983192727 
3.5000000000029616, -0.3714349675398675 
3.5100000000029827, -0.36806951686884204 
3.520000000003004, -0.36287278639516307 
3.530000000003025, -0.35515439331172344 
3.540000000003046, -0.34474522504889527 
3.550000000003067, -0.3325884516314294 
3.5600000000030882, -0.3204960421520109 
3.5700000000031094, -0.3100565831483559 
3.5800000000031305, -0.30191435724727395 
3.5900000000031516, -0.29593079901071034 
3.6000000000031727, -0.29165170946783137 
3.6100000000031938, -0.2886134590078185 
3.620000000003215, -0.28645142488716113 
3.630000000003236, -0.284908995269302 
3.640000000003257, -0.28381637345090993 
3.650000000003278, -0.28306752505291055 
3.6600000000032993, -0.2826031933130494 
3.6700000000033204, -0.28240088051965195 
3.6800000000033415, -0.2824711813814412 
3.6900000000033626, -0.2828601964792448 
3.7000000000033837, -0.2836586578323881 
3.710000000003405, -0.2850193683698462 
3.720000000003426, -0.28718486039965463 
3.730000000003447, -0.29052439180127365 
3.740000000003468, -0.29556636565768685 
3.750000000003489, -0.3029734978181706 
3.7600000000035103, -0.3133330279700994 
3.7700000000035314, -0.32660864811729035 
3.7800000000035525, -0.341450462957837 
3.7900000000035736, -0.35533092491049084 
3.8000000000035947, -0.3660768327950038 
3.810000000003616, -0.3731891897960743 
3.820000000003637, -0.3774670102959289 
3.830000000003658, -0.3799543021165607 
3.840000000003679, -0.38141001984188005 
3.8500000000037002, -0.38227693320717165 
3.8600000000037213, -0.3827925362384391 
3.8700000000037424, -0.3830818335087119 
3.8800000000037635, -0.38321065623089023 
3.8900000000037847, -0.3832129494405538 
3.9000000000038058, -0.3831048346717314 
3.910000000003827, -0.38289308965969354 
3.920000000003848, -0.3825821805034746 
3.930000000003869, -0.3821816038451245 
3.94000000000389, -0.3817128386026698 
3.9500000000039113, -0.3812127572307213 
3.9600000000039324, -0.3807299270268788 
3.9700000000039535, -0.38031357777472274 
3.9800000000039746, -0.37999983383028835 
3.9900000000039957, -0.3798013727625407 
4.000000000004016, -0.37970423264215 
4.010000000003993, -0.37967243946953155 
4.02000000000397, -0.37965887046709523 
4.030000000003946, -0.3796182717267455 
4.040000000003923, -0.3795168429651973 
4.0500000000039, -0.37933485461002014 
4.0600000000038765, -0.3790630916024863 
4.070000000003853, -0.3786964555633812 
4.08000000000383, -0.3782273402381383 
4.090000000003807, -0.37763912612802775 
4.100000000003783, -0.37689787131004227 
4.11000000000376, -0.375937785498352 
4.120000000003737, -0.3746319863718671 
4.130000000003713, -0.3727337238707735 
4.14000000000369, -0.36977192428280353 
4.150000000003667, -0.36492562711271825 
4.1600000000036434, -0.3570663025107861 
4.17000000000362, -0.34537692347724025 
4.180000000003597, -0.33051566211953737 
4.1900000000035735, -0.31489728112207815 
4.20000000000355, -0.30113149761001196 
4.210000000003527, -0.2904693067220272 
4.220000000003504, -0.28282073336558716 
4.23000000000348, -0.27752671088088005 
4.240000000003457, -0.2739005467031424 
4.250000000003434, -0.27141283902650193 
4.26000000000341, -0.2697008359540885 
4.270000000003387, -0.26852962061387975 
4.280000000003364, -0.267753238574669 
4.2900000000033405, -0.26728694367206035 
4.300000000003317, -0.26709031393922844 
4.310000000003294, -0.26715900132450343 
4.320000000003271, -0.2675235441640316 
4.330000000003247, -0.26825484252212406 
4.340000000003224, -0.26947695185474074 
4.350000000003201, -0.2713882301448762 
4.360000000003177, -0.2742898272344266 
4.370000000003154, -0.27861089576882453 
4.380000000003131, -0.2848916812137138 
4.390000000003107, -0.29363058032419265 
4.400000000003084, -0.304874961643449 
4.410000000003061, -0.3176641638115825 
4.4200000000030375, -0.33000957324495006 
4.430000000003014, -0.33997966322834333 
4.440000000002991, -0.3468794493897962 
4.450000000002968, -0.3511884819971059 
4.460000000002944, -0.3537540642341911 
4.470000000002921, -0.3552661472599029 
4.480000000002898, -0.3561583297377037 
4.490000000002874, -0.3566755788913575 
4.500000000002851, -0.3569511648861522 
4.510000000002828, -0.35705644151346505 
4.520000000002804, -0.35702840519779466 
4.530000000002781, -0.35688484258308567 
4.540000000002758, -0.35663397044858713 
4.5500000000027345, -0.35628255464502734 
4.560000000002711, -0.3558440117525302 
4.570000000002688, -0.3553452670721837 
4.580000000002665, -0.3548288341867266 
4.590000000002641, -0.3543470450697866 
4.600000000002618, -0.3539495636789459 
4.610000000002595, -0.3536697138847714 
4.620000000002571, -0.35351536754421836 
4.630000000002548, -0.35346711811446496 
4.640000000002525, -0.3534839587170124 
4.6500000000025015, -0.3535149117301589 
4.660000000002478, -0.3535124289520254 
4.670000000002455, -0.35344175647027953 
4.6800000000024315, -0.35328280416881486 
4.690000000002408, -0.35302564784503465 
4.700000000002385, -0.3526631797203989 
4.710000000002362, -0.35218334944401125 
4.720000000002338, -0.3515608620832472 
4.730000000002315, -0.3507456699569353 
4.740000000002292, -0.34964290447890883 
4.750000000002268, -0.3480754136732441 
4.760000000002245, -0.34571846300921133 
4.770000000002222, -0.3420125784249768 
4.7800000000021985, -0.33613882164042197 
4.790000000002175, -0.3272968508305705 
4.800000000002152, -0.315468562056442 
4.810000000002129, -0.3020566992202229 
4.820000000002105, -0.28926632402599084 
4.830000000002082, -0.27869171842374263 
4.840000000002059, -0.2707411263555365 
4.850000000002035, -0.2650583803997294 
4.860000000002012, -0.2610742348457036 
