t, s[1].omega / s[0].omega 
0, -1.139972623955148 
0.009999999999999995, -1.1369777713739189 
0.019999999999999934, -1.1335425530628758 
0.029999999999999874, -1.1298229096107648 
0.04000000000000012, -1.1260491526620249 
0.050000000000000405, -1.1225193009192167 
0.06000000000000069, -1.1195533686730128 
0.07000000000000098, -1.117393486084327 
0.08000000000000126, -1.1160945018867978 
0.09000000000000155, -1.115499737142454 
0.10000000000000184, -1.115335656878903 
0.11000000000000212, -1.1153401920317347 
0.12000000000000241, -1.1153281846519723 
0.130000000000002, -1.1151835319853234 
0.1400000000000009, -1.1148189356115954 
0.1499999999999998, -1.114133763925286 
0.1599999999999987, -1.1129784274020125 
0.1699999999999976, -1.1111274161518319 
0.1799999999999965, -1.1082721762040564 
0.1899999999999954, -1.10405938576382 
0.1999999999999943, -1.0982006233422805 
0.2099999999999932, -1.090643867674148 
0.2199999999999921, -1.081736428663662 
0.229999999999991, -1.0722760193288443 
0.2399999999999899, -1.0633713945348768 
0.2499999999999888, -1.0561038922828003 
0.2599999999999877, -1.0511106062840396 
0.2699999999999866, -1.0483511364704392 
0.2799999999999855, -1.047249847989261 
0.2899999999999844, -1.04707998913909 
0.2999999999999833, -1.0472707064223399 
0.3099999999999822, -1.0474899980047438 
0.3199999999999811, -1.0475820707408707 
0.32999999999998, -1.0474762418032033 
0.3399999999999789, -1.0471184124660995 
0.3499999999999778, -1.0464251568320788 
0.35999999999997667, -1.0452460353572728 
0.36999999999997557, -1.0433242181116729 
0.37999999999997447, -1.0402603590262172 
0.38999999999997337, -1.0355128560648121 
0.39999999999997227, -1.0285030924077863 
0.40999999999997117, -1.0188887764740042 
0.41999999999997006, -1.0069440739560596 
0.42999999999996896, -0.9937804698810316 
0.43999999999996786, -0.9811156743921232 
0.44999999999996676, -0.970616227151711 
0.45999999999996566, -0.9632233592722772 
0.46999999999996456, -0.9589060172231859 
0.47999999999996346, -0.9569333395091082 
0.48999999999996235, -0.956374915617776 
0.49999999999996125, -0.9564729152197653 
0.5099999999999602, -0.9567578590575947 
0.519999999999959, -0.9569941748738311 
0.529999999999958, -0.9570807113415084 
0.5399999999999568, -0.9569708233784449 
0.5499999999999557, -0.9566218694132965 
0.5599999999999546, -0.955963083829996 
0.5699999999999535, -0.9548704055506245 
0.5799999999999524, -0.9531444527030779 
0.5899999999999513, -0.9505007018112519 
0.5999999999999502, -0.9465979829463963 
0.6099999999999491, -0.9411383045244867 
0.619999999999948, -0.9340354730367126 
0.6299999999999469, -0.9255678395949045 
0.6399999999999458, -0.9163894123783158 
0.6499999999999447, -0.9073625840526864 
0.6599999999999436, -0.8993092996999528 
0.6699999999999425, -0.8928054646492134 
0.6799999999999414, -0.8880807319922253 
0.6899999999999403, -0.885030839151862 
0.6999999999999392, -0.8833204766735339 
0.7099999999999381, -0.8825273588735134 
0.719999999999937, -0.8822651757971067 
0.7299999999999359, -0.882246164852148 
0.7399999999999348, -0.8822854177044347 
0.7499999999999337, -0.8822735464935596 
0.7599999999999326, -0.8821428328053452 
0.7699999999999315, -0.8818394797498913 
0.7799999999999304, -0.8813052119631786 
0.7899999999999293, -0.8804688770043014 
0.7999999999999282, -0.879250217064318 
0.8099999999999271, -0.8775784965528277 
0.819999999999926, -0.8754227146898023 
0.8299999999999249, -0.8728182790886985 
0.8399999999999238, -0.8698703985447771 
0.8499999999999227, -0.8667294238454172 
0.8599999999999216, -0.8635552457322883 
0.8699999999999205, -0.8604917956635127 
0.8799999999999194, -0.8576581127898603 
0.8899999999999183, -0.8551488300485343 
0.8999999999999172, -0.8530345778899615 
0.9099999999999161, -0.8513578758381429 
0.919999999999915, -0.8501262971613306 
0.9299999999999139, -0.8493085130680852 
0.9399999999999128, -0.8488384317528986 
0.9499999999999117, -0.8486280725354716 
0.9599999999999106, -0.8485842822144182 
0.9699999999999095, -0.8486224469595431 
0.9799999999999084, -0.8486732382814848 
0.9899999999999073, -0.8486830848223986 
0.9999999999999062, -0.8486119015796592 
1.0099999999999052, -0.8484315580507735 
1.019999999999904, -0.8481264447725879 
1.029999999999903, -0.8476946895816889 
1.039999999999902, -0.8471470285652544 
1.0499999999999008, -0.8465018515068505 
1.0599999999998997, -0.8457785914407696 
1.0699999999998986, -0.8449935788284222 
1.0799999999998975, -0.8441605647634891 
1.0899999999998964, -0.8432946407792482 
1.0999999999998953, -0.842416681301603 
1.1099999999998942, -0.841556249614513 
1.119999999999893, -0.840752232535593 
1.129999999999892, -0.8400509161986008 
1.1399999999998909, -0.8395012235783763 
1.1499999999998898, -0.8391474672872918 
1.1599999999998887, -0.8390213277061627 
1.1699999999998876, -0.8391357711207093 
1.1799999999998865, -0.8394832014543561 
1.1899999999998854, -0.8400383830790494 
1.1999999999998843, -0.8407646929306145 
1.2099999999998832, -0.8416211311549933 
1.219999999999882, -0.842567562938364 
1.229999999999881, -0.843566536236564 
1.2399999999998799, -0.8445812994017003 
1.2499999999998788, -0.8455713176823865 
1.2599999999998777, -0.8464886235701405 
1.2699999999998766, -0.8472794441600616 
1.2799999999998755, -0.8478932861584667 
1.2899999999998744, -0.8482957997475123 
1.2999999999998733, -0.8484773891108501 
1.3099999999998722, -0.8484524057601417 
1.319999999999871, -0.8482514433505113 
1.32999999999987, -0.8479137110121465 
1.3399999999998689, -0.8474848790187439 
1.3499999999998678, -0.8470218774996567 
1.3599999999998666, -0.8466030334566433 
1.3699999999998655, -0.8463394407891384 
1.3799999999998644, -0.8463807933221675 
1.3899999999998633, -0.8469076700552165 
1.3999999999998622, -0.8481059480183119 
1.4099999999998611, -0.8501282509212856 
1.41999999999986, -0.853055670907297 
1.429999999999859, -0.8568719474274461 
1.4399999999998578, -0.8614525764281 
1.4499999999998567, -0.8665642727233298 
1.4599999999998556, -0.8718754275744889 
1.4699999999998545, -0.8769912976474533 
1.4799999999998534, -0.8815283261538502 
1.4899999999998523, -0.8852119631733231 
1.4999999999998512, -0.88794342371745 
1.5099999999998501, -0.8897898672089006 
1.519999999999849, -0.8909131638504026 
1.529999999999848, -0.8914921868851853 
1.5399999999998468, -0.8916759490135961 
1.5499999999998457, -0.8915696728916428 
1.5599999999998446, -0.8912403963152553 
1.5699999999998435, -0.8907318540745252 
1.5799999999998424, -0.8900869119303086 
1.5899999999998413, -0.8893829170044928 
1.5999999999998402, -0.8887881407567226 
1.6099999999998391, -0.8886403394153495 
1.619999999999838, -0.8895218580945313 
1.629999999999837, -0.892259799496415 
1.6399999999998358, -0.897750788209043 
1.6499999999998347, -0.9065696705614407 
1.6599999999998336, -0.9185009237304925 
1.6699999999998325, -0.9323209548016592 
1.6799999999998314, -0.9461276469514963 
1.6899999999998303, -0.9581265754859125 
1.6999999999998292, -0.9673314114978844 
1.709999999999828, -0.97369508029973 
1.719999999999827, -0.9777470909339273 
1.729999999999826, -0.9801565044739551 
1.7399999999998248, -0.9814830903372316 
1.7499999999998237, -0.9821132544204974 
1.7599999999998226, -0.9822840208130736 
1.7699999999998215, -0.9821261589546278 
1.7799999999998204, -0.9817006742211282 
1.7899999999998193, -0.9810274370488328 
1.7999999999998182, -0.9801166686879176 
1.809999999999817, -0.9790231941586496 
1.819999999999816, -0.9779502618874281 
1.8299999999998149, -0.977415123908757 
1.8399999999998138, -0.9784100159967906 
1.8499999999998127, -0.982340980538757 
1.8599999999998116, -0.990473898084202 
1.8699999999998105, -1.002979585045654 
1.8799999999998094, -1.0183317154319131 
1.8899999999998083, -1.0338508859343627 
1.8999999999998072, -1.0471070761288246 
1.909999999999806, -1.0569556818792665 
1.919999999999805, -1.0635191020937151 
1.9299999999998039, -1.0675489644622425 
1.9399999999998028, -1.0698593923835182 
1.9499999999998017, -1.0710763521157205 
1.9599999999998006, -1.0716074113604102 
1.9699999999997995, -1.0716919631870192 
1.9799999999997984, -1.0714588001837086 
1.9899999999997973, -1.070972323595453 
1.9999999999997962, -1.0702744752999553 
2.0099999999998173, -1.0694412184016453 
2.0199999999998384, -1.0686748761480087 
2.0299999999998595, -1.068428205651792 
2.0399999999998806, -1.0694726530441236 
2.0499999999999017, -1.0727291509101649 
2.059999999999923, -1.078784740237397 
2.069999999999944, -1.0873977771917012 
2.079999999999965, -1.0974661858361838 
2.089999999999986, -1.107516479279853 
2.100000000000007, -1.1163069627626172 
2.1100000000000283, -1.1231720405188603 
2.1200000000000494, -1.128029766892196 
2.1300000000000705, -1.1311765190160654 
2.1400000000000916, -1.1330422151233226 
2.1500000000001127, -1.1340230341086515 
2.160000000000134, -1.1344149392342726 
2.170000000000155, -1.134413944167728 
2.180000000000176, -1.1341447124500925 
2.190000000000197, -1.1336982341616235 
2.2000000000002182, -1.133175257090276 
2.2100000000002393, -1.132733057297822 
2.2200000000002604, -1.1326141072947231 
2.2300000000002815, -1.1331110054531595 
2.2400000000003026, -1.1344467389974882 
2.2500000000003237, -1.136644764470258 
2.260000000000345, -1.1395074968694672 
2.270000000000366, -1.1427154062972926 
2.280000000000387, -1.1459478076606462 
2.290000000000408, -1.1489497698998528 
2.3000000000004293, -1.1515463060243174 
2.3100000000004504, -1.1536354551422414 
2.3200000000004715, -1.1551800049762897 
2.3300000000004926, -1.1561990528560249 
2.3400000000005137, -1.1567537181295229 
2.3500000000005348, -1.156926946326421 
2.360000000000556, -1.1568050861414174 
2.370000000000577, -1.1564693712667324 
2.380000000000598, -1.1559995549984374 
2.390000000000619, -1.1554848719432402 
2.4000000000006403, -1.1550310356411364 
2.4100000000006614, -1.1547495400297585 
2.4200000000006825, -1.154726522406 
2.4300000000007036, -1.1549907979318097 
2.4400000000007247, -1.1555067023599532 
2.450000000000746, -1.1561940496528322 
2.460000000000767, -1.1569565160347035 
2.470000000000788, -1.1577032903336186 
2.480000000000809, -1.1583604773134022 
2.49000000000083, -1.1588741540753749 
2.5000000000008513, -1.1592083467965384 
2.5100000000008724, -1.1593412856924175 
2.5200000000008935, -1.1592623124560624 
2.5300000000009146, -1.1589704949496185 
2.5400000000009357, -1.1584749257064542 
2.550000000000957, -1.1577960835041163 
2.560000000000978, -1.156967771723468 
2.570000000000999, -1.1560392931374612 
2.58000000000102, -1.155076370825079 
2.5900000000010412, -1.1541576406490677 
2.6000000000010624, -1.1533642762649428 
2.6100000000010835, -1.1527638042588704 
2.6200000000011046, -1.1523919271159806 
2.6300000000011257, -1.152238406676464 
2.6400000000011468, -1.152246188793042 
2.650000000001168, -1.1523282595667468 
2.660000000001189, -1.1523920516993893 
2.67000000000121, -1.1523553090248526 
2.680000000001231, -1.1521483846191862 
2.6900000000012523, -1.151710144163839 
2.7000000000012734, -1.1509864095309426 
2.7100000000012945, -1.1499344528678273 
2.7200000000013156, -1.1485308987968164 
2.7300000000013367, -1.146777921983373 
2.740000000001358, -1.1447055294451967 
2.750000000001379, -1.1423726989324203 
2.7600000000014, -1.139871482052358 
2.770000000001421, -1.1373339165796186 
2.780000000001442, -1.1349338129010835 
2.7900000000014633, -1.1328679115424627 
2.8000000000014844, -1.131303550987836 
2.8100000000015055, -1.1303077174821916 
2.8200000000015266, -1.12981014517351 
2.8300000000015477, -1.1296404905474209 
2.840000000001569, -1.1296085022156466 
2.85000000000159, -1.1295606842704855 
2.860000000001611, -1.1293871623432115 
2.870000000001632, -1.1289974542463102 
2.8800000000016532, -1.1282896028721319 
2.8900000000016743, -1.127125479669298 
2.9000000000016954, -1.125320069724978 
2.9100000000017165, -1.1226555729941066 
2.9200000000017377, -1.1189308509200246 
2.9300000000017588, -1.11404209711522 
2.94000000000178, -1.1080676841012072 
2.950000000001801, -1.1013224098221142 
2.960000000001822, -1.094357782387958 
2.970000000001843, -1.0878869679697047 
2.9800000000018643, -1.0826078280038767 
2.9900000000018854, -1.0789514729850915 
3.0000000000019065, -1.0769052657683624 
3.0100000000019276, -1.0760732357546712 
3.0200000000019487, -1.075929366713707 
3.03000000000197, -1.0760448435630987 
3.040000000001991, -1.0761600350228995 
3.050000000002012, -1.0761429440215713 
3.060000000002033, -1.0759194741013463 
3.070000000002054, -1.0754161954468138 
3.0800000000020753, -1.0745170278910972 
3.0900000000020964, -1.073024237864397 
3.1000000000021175, -1.0706213091883483 
3.1100000000021386, -1.0668556024605944 
3.1200000000021597, -1.0611894260907608 
3.130000000002181, -1.0531829306716352 
3.140000000002202, -1.0428105498293403 
3.150000000002223, -1.0307556229848196 
3.160000000002244, -1.01841469701186 
3.1700000000022652, -1.0074686526235197 
3.1800000000022863, -0.9992058466449579 
3.1900000000023074, -0.9940276145370728 
3.2000000000023285, -0.991463357852887 
3.2100000000023496, -0.9906116588720619 
3.2200000000023707, -0.9906188225547845 
3.230000000002392, -0.9909108542471541 
3.240000000002413, -0.9911868357245345 
3.250000000002434, -0.9913170878854372 
3.260000000002455, -0.9912474603250644 
3.2700000000024763, -0.990936640368688 
3.2800000000024974, -0.990317067277943 
3.2900000000025185, -0.9892644579210677 
3.3000000000025396, -0.9875674304850668 
3.3100000000025607, -0.9849015838677333 
3.3200000000025818, -0.9808340100590053 
3.330000000002603, -0.9749081348089149 
3.340000000002624, -0.9668477206298203 
3.350000000002645, -0.9568238428084769 
3.360000000002666, -0.94559900157162 
3.3700000000026873, -0.9343791293028163 
3.3800000000027084, -0.9244180241054034 
3.3900000000027295, -0.9166027577228892 
3.4000000000027506, -0.9112313523194733 
3.4100000000027717, -0.9080527628636149 
3.420000000002793, -0.9064961938235058 
3.430000000002814, -0.9059379765678115 
3.440000000002835, -0.9058776059232171 
3.450000000002856, -0.9059889680285694 
3.460000000002877, -0.9060896425824201 
3.4700000000028983, -0.906084849697798 
3.4800000000029194, -0.9059183342122132 
3.4900000000029405, -0.9055381026993992 
3.5000000000029616, -0.9048742359924404 
3.5100000000029827, -0.9038261086261501 
3.520000000003004, -0.9022618196791518 
3.530000000003025, -0.9000383516827297 
3.540000000003046, -0.8970485766470899 
3.550000000003067, -0.8932825949349784 
3.5600000000030882, -0.8888667819561448 
3.5700000000031094, -0.8840481312657295 
3.5800000000031305, -0.8791327365829134 
3.5900000000031516, -0.8744193827488843 
3.6000000000031727, -0.8701575274987569 
3.6100000000031938, -0.8665288054730855 
3.620000000003215, -0.8636381726760336 
3.630000000003236, -0.8615079043719156 
3.640000000003257, -0.8600790981327705 
3.650000000003278, -0.8592281545347307 
3.6600000000032993, -0.8587976007307401 
3.6700000000033204, -0.8586301254150202 
3.6800000000033415, -0.8585925708366033 
3.6900000000033626, -0.8585841214546568 
3.7000000000033837, -0.8585319935415674 
3.710000000003405, -0.8583819544273978 
3.720000000003426, -0.8580901750211112 
3.730000000003447, -0.8576203624184527 
3.740000000003468, -0.8569472475336269 
3.750000000003489, -0.8560639077884838 
3.7600000000035103, -0.8549869605809521 
3.7700000000035314, -0.8537539909068987 
3.7800000000035525, -0.85241343317139 
3.7900000000035736, -0.851013373407306 
3.8000000000035947, -0.8495957705654215 
3.810000000003616, -0.8481973371755247 
3.820000000003637, -0.8468538116908506 
3.830000000003658, -0.8456035924224319 
3.840000000003679, -0.8444882667535216 
3.8500000000037002, -0.8435493840246835 
3.8600000000037213, -0.8428222546763837 
3.8700000000037424, -0.8423287263417863 
3.8800000000037635, -0.842071583541147 
3.8900000000037847, -0.8420329255105404 
3.9000000000038058, -0.8421774127941106 
3.910000000003827, -0.8424592281612758 
3.920000000003848, -0.842830157392348 
3.930000000003869, -0.8432462449723046 
3.94000000000389, -0.8436717091081594 
3.9500000000039113, -0.8440800008516275 
3.9600000000039324, -0.8444522946664529 
3.9700000000039535, -0.8447738082054475 
3.9800000000039746, -0.8450291861888157 
3.9900000000039957, -0.8451995557822587 
4.000000000004016, -0.8452638985600883 
4.010000000003993, -0.8452047625488452 
4.02000000000397, -0.8450148965861699 
4.030000000003946, -0.8447008434541857 
4.040000000003923, -0.8442826793536996 
4.0500000000039, -0.8437924470558004 
4.0600000000038765, -0.8432741975642534 
4.070000000003853, -0.8427862963625463 
4.08000000000383, -0.842403865780754 
4.090000000003807, -0.8422175415205183 
4.100000000003783, -0.8423252892594875 
4.11000000000376, -0.8428174234522434 
4.120000000003737, -0.8437596096454232 
4.130000000003713, -0.8451807204927639 
4.14000000000369, -0.8470695210691901 
4.150000000003667, -0.8493784116621134 
4.1600000000036434, -0.8520285331529568 
4.17000000000362, -0.8549112657515859 
4.180000000003597, -0.8578862874731861 
4.1900000000035735, -0.8607835572274738 
4.20000000000355, -0.8634204999722475 
4.210000000003527, -0.8656383148447724 
4.220000000003504, -0.8673424830615819 
4.23000000000348, -0.8685210419277102 
4.240000000003457, -0.8692288033205863 
4.250000000003434, -0.8695521564974056 
4.26000000000341, -0.8695777200641783 
4.270000000003387, -0.8693767279795379 
4.280000000003364, -0.8690046248887304 
4.2900000000033405, -0.8685119333270686 
4.300000000003317, -0.8679649635602784 
4.310000000003294, -0.8674774136800829 
4.320000000003271, -0.8672516803907552 
4.330000000003247, -0.8676183463011193 
4.340000000003224, -0.8690453176806306 
4.350000000003201, -0.8720778588578508 
4.360000000003177, -0.8771888313033003 
4.370000000003154, -0.8845693505462651 
4.380000000003131, -0.8939443408156131 
4.390000000003107, -0.9045192253796772 
4.400000000003084, -0.9151379563585836 
4.410000000003061, -0.9246400919177331 
4.4200000000030375, -0.9322510103638774 
4.430000000003014, -0.9377636364109113 
4.440000000002991, -0.9414247388651468 
4.450000000002968, -0.9436764433247683 
4.460000000002944, -0.9449478185576636 
4.470000000002921, -0.9455641480467275 
4.480000000002898, -0.9457386525605905 
4.490000000002874, -0.9455959758739126 
4.500000000002851, -0.9451996566593946 
4.510000000002828, -0.9445770738060657 
4.520000000002804, -0.943747953434962 
4.530000000002781, -0.9427711474705751 
4.540000000002758, -0.9418299015838432 
4.5500000000027345, -0.9413659978269571 
4.560000000002711, -0.9422196685354095 
4.570000000002688, -0.9456229134942884 
4.580000000002665, -0.9528236399356033 
4.590000000002641, -0.9643098522246941 
4.600000000002618, -0.9791052019482404 
4.610000000002595, -0.9948922626737808 
4.620000000002571, -1.0091184841723089 
4.630000000002548, -1.0202023010729655 
4.640000000002525, -1.027883699586965 
4.6500000000025015, -1.0327546480417065 
4.660000000002478, -1.035637160035231 
4.670000000002455, -1.037227531373659 
4.6800000000024315, -1.0380044021495007 
4.690000000002408, -1.038259700780315 
4.700000000002385, -1.0381553361832474 
4.710000000002362, -1.0377706740320343 
4.720000000002338, -1.0371392996216686 
4.730000000002315, -1.0362884272968547 
4.740000000002292, -1.0353038010641273 
4.750000000002268, -1.03444514185506 
4.760000000002245, -1.0343044148905363 
4.770000000002222, -1.0358919479466189 
4.7800000000021985, -1.0404105742426335 
4.790000000002175, -1.0485997801856806 
4.800000000002152, -1.0600337927658656 
4.810000000002129, -1.0730648219751298 
4.820000000002105, -1.0855844699821477 
4.830000000002082, -1.0959878689575762 
4.840000000002059, -1.103644819268694 
4.850000000002035, -1.1087479950474315 
4.860000000002012, -1.1118794206773563 
4.870000000001989, -1.113650789488537 
4.880000000001965, -1.1145380011756596 
4.890000000001942, -1.1148572100408287 
4.900000000001919, -1.114799408758945 
4.9100000000018955, -1.114476200778676 
4.920000000001872, -1.1139647836110735 
4.930000000001849, -1.1133584819377995 
