t, s[1].omega / s[0].omega 
0, -0.6699977034493366 
0.009999999999999995, -0.6697646209328247 
0.019999999999999934, -0.6695187345720628 
0.029999999999999874, -0.6692452522413694 
0.04000000000000012, -0.6689281117480811 
0.050000000000000405, -0.6685573771737063 
0.06000000000000069, -0.6681332878644042 
0.07000000000000098, -0.6676669915609328 
0.08000000000000126, -0.667180326066845 
0.09000000000000155, -0.6667070754286153 
0.10000000000000184, -0.6662968879559165 
0.11000000000000212, -0.6660217836337237 
0.12000000000000241, -0.6659842807300429 
0.130000000000002, -0.6663254668538822 
0.1400000000000009, -0.6672306707811301 
0.1499999999999998, -0.6689296277065979 
0.1599999999999987, -0.6716866938207425 
0.1699999999999976, -0.6757738295614643 
0.1799999999999965, -0.6814146694502087 
0.1899999999999954, -0.6886869184838227 
0.1999999999999943, -0.6973881351033206 
0.2099999999999932, -0.7069263940407986 
0.2199999999999921, -0.7163670327048977 
0.229999999999991, -0.7247236228342534 
0.2399999999999899, -0.7313478692363418 
0.2499999999999888, -0.7361116029890424 
0.2599999999999877, -0.7392774570559186 
0.2699999999999866, -0.7412480278303006 
0.2799999999999855, -0.7423898661440012 
0.2899999999999844, -0.7429704906640258 
0.2999999999999833, -0.743160063859809 
0.3099999999999822, -0.7430517072759985 
0.3199999999999811, -0.7426786239424061 
0.32999999999998, -0.7420211871959772 
0.3399999999999789, -0.7410021014916189 
0.3499999999999778, -0.7394679311038294 
0.35999999999997667, -0.7371550139863062 
0.36999999999997557, -0.7336424699742535 
0.37999999999997447, -0.7283162209218224 
0.38999999999997337, -0.7204216769872575 
0.39999999999997227, -0.7093464562189615 
0.40999999999997117, -0.6951849807165564 
0.41999999999997006, -0.679205856718461 
0.42999999999996896, -0.6635402132860528 
0.43999999999996786, -0.6501302191852993 
0.44999999999996676, -0.6399168382282203 
0.45999999999996566, -0.6328414948999359 
0.46999999999996456, -0.6283059515597291 
0.47999999999996346, -0.6255924931802848 
0.48999999999996235, -0.6240804429514475 
0.49999999999996125, -0.6233082657428183 
0.5099999999999602, -0.6229618029155378 
0.519999999999959, -0.6228393111043521 
0.529999999999958, -0.6228160771683457 
0.5399999999999568, -0.6228161959392962 
0.5499999999999557, -0.6227926078283221 
0.5599999999999546, -0.6227143892997826 
0.5699999999999535, -0.6225600668426738 
0.5799999999999524, -0.622315962468958 
0.5899999999999513, -0.6219782810132034 
0.5999999999999502, -0.6215563602829446 
0.6099999999999491, -0.621073151232203 
0.619999999999948, -0.620559883278741 
0.6299999999999469, -0.6200459376180988 
0.6399999999999458, -0.6195491277732689 
0.6499999999999447, -0.619071747427836 
0.6599999999999436, -0.6186038949102269 
0.6699999999999425, -0.618131298325364 
0.6799999999999414, -0.6176431726433376 
0.6899999999999403, -0.617137098558499 
0.6999999999999392, -0.6166208298516574 
0.7099999999999381, -0.6161129482039267 
0.719999999999937, -0.6156444660592234 
0.7299999999999359, -0.6152626019533094 
0.7399999999999348, -0.6150370439297039 
0.7499999999999337, -0.6150684255573943 
0.7599999999999326, -0.6154982978712362 
0.7699999999999315, -0.6165192537324437 
0.7799999999999304, -0.6183825316055507 
0.7899999999999293, -0.6213974043525285 
0.7999999999999282, -0.6259104627693353 
0.8099999999999271, -0.6322432797091405 
0.819999999999926, -0.6405613953103273 
0.8299999999999249, -0.6506730579260745 
0.8399999999999238, -0.6618509891930014 
0.8499999999999227, -0.6728918223051646 
0.8599999999999216, -0.6825465091232255 
0.8699999999999205, -0.6900612810648149 
0.8799999999999194, -0.6953677557726559 
0.8899999999999183, -0.6988504787221577 
0.8999999999999172, -0.701013315070979 
0.9099999999999161, -0.7022836221360136 
0.919999999999915, -0.7029604824073483 
0.9299999999999139, -0.7032301675948057 
0.9399999999999128, -0.7031949318384587 
0.9499999999999117, -0.7028943435580881 
0.9599999999999106, -0.7023144704446457 
0.9699999999999095, -0.701384606653331 
0.9799999999999084, -0.6999615585477075 
0.9899999999999073, -0.697803207512924 
0.9999999999999062, -0.6945425626605637 
1.0099999999999052, -0.6896989869059501 
1.019999999999904, -0.6827985967724214 
1.029999999999903, -0.6736571778683508 
1.039999999999902, -0.6627041192833303 
1.0499999999999008, -0.651012468053086 
1.0599999999998997, -0.6398742446403323 
1.0699999999998986, -0.630260810541042 
1.0799999999998975, -0.6225915602066381 
1.0899999999998964, -0.6168349160263678 
1.0999999999998953, -0.6127199823841889 
1.1099999999998942, -0.6099029997920187 
1.119999999999893, -0.6080570674279616 
1.129999999999892, -0.6069075627049896 
1.1399999999998909, -0.6062392103718736 
1.1499999999998898, -0.6058909115993312 
1.1599999999998887, -0.6057463247721353 
1.1699999999998876, -0.6057238344197902 
1.1799999999998865, -0.605767593109376 
1.1899999999998854, -0.6058404815002468 
1.1999999999998843, -0.6059193829974583 
1.2099999999998832, -0.6059927069856176 
1.219999999999882, -0.6060593627464474 
1.229999999999881, -0.6061274640755826 
1.2399999999998799, -0.606210657787116 
1.2499999999998788, -0.6063211234339205 
1.2599999999998777, -0.6064609597467562 
1.2699999999998766, -0.6066161134463882 
1.2799999999998755, -0.6067570181610467 
1.2899999999998744, -0.6068468316942223 
1.2999999999998733, -0.6068532305050515 
1.3099999999998722, -0.6067572194433472 
1.319999999999871, -0.6065551295841414 
1.32999999999987, -0.6062552628352057 
1.3399999999998689, -0.6058735233682179 
1.3499999999998678, -0.6054316900027593 
1.3599999999998666, -0.604960200433272 
1.3699999999998655, -0.6045065200221033 
1.3799999999998644, -0.6041505673238513 
1.3899999999998633, -0.604029474666878 
1.3999999999998622, -0.604373922614696 
1.4099999999998611, -0.6055550177757871 
1.41999999999986, -0.6081290664352524 
1.429999999999859, -0.6128390060547269 
1.4399999999998578, -0.6204824824558951 
1.4499999999998567, -0.6315312574749071 
1.4599999999998556, -0.6455388001302308 
1.4699999999998545, -0.6608148967046514 
1.4799999999998534, -0.675034371720119 
1.4899999999998523, -0.6864987965316582 
1.4999999999998512, -0.694788897251562 
1.5099999999998501, -0.700387438494237 
1.519999999999849, -0.7040295614840291 
1.529999999999848, -0.7063464748519344 
1.5399999999998468, -0.7077852602593986 
1.5499999999998457, -0.7086374020299282 
1.5599999999998446, -0.7090838754231129 
1.5699999999998435, -0.7092298183590579 
1.5799999999998424, -0.7091259017697535 
1.5899999999998413, -0.7087787318345236 
1.5999999999998402, -0.7081527533925317 
1.6099999999998391, -0.7071662092471815 
1.619999999999838, -0.7056860881659994 
1.629999999999837, -0.7035333145733347 
1.6399999999998358, -0.7005176048934765 
1.6499999999998347, -0.6965178692022196 
1.6599999999998336, -0.6915871772277581 
1.6699999999998325, -0.6860055199827856 
1.6799999999998314, -0.6802113917656023 
1.6899999999998303, -0.6746484140903322 
1.6999999999998292, -0.6696393684809323 
1.709999999999828, -0.665350590172437 
1.719999999999827, -0.6618233323449138 
1.729999999999826, -0.6590228237407781 
1.7399999999998248, -0.6568767296386058 
1.7499999999998237, -0.6552978079525457 
1.7599999999998226, -0.6541954190895065 
1.7699999999998215, -0.6534814230176094 
1.7799999999998204, -0.6530738735044287 
1.7899999999998193, -0.652899803488743 
1.7999999999998182, -0.6528972030403164 
1.809999999999817, -0.6530160065216196 
1.819999999999816, -0.6532181448754821 
1.8299999999998149, -0.6534770157973733 
1.8399999999998138, -0.6537767054449521 
1.8499999999998127, -0.6541108030540573 
1.8599999999998116, -0.6544799058693652 
1.8699999999998105, -0.6548866405597609 
1.8799999999998094, -0.6553280996033083 
1.8899999999998083, -0.6557880234483149 
1.8999999999998072, -0.6562332736574192 
1.909999999999806, -0.6566185744692791 
1.919999999999805, -0.6568988334502481 
1.9299999999998039, -0.6570424460897895 
1.9399999999998028, -0.6570379084189009 
1.9499999999998017, -0.6568916148016788 
1.9599999999998006, -0.6566210417665335 
1.9699999999997995, -0.6562490319547449 
1.9799999999997984, -0.6558026284912201 
1.9899999999997973, -0.6553177132222501 
1.9999999999997962, -0.6548502612154973 
2.0099999999998173, -0.6544957395003369 
2.0199999999998384, -0.654418730543995 
2.0299999999998595, -0.6548935982303343 
2.0399999999998806, -0.6563512229233972 
2.0499999999999017, -0.6594118386911522 
2.059999999999923, -0.6648545016790648 
2.069999999999944, -0.6734358094832468 
2.079999999999965, -0.6854785502855132 
2.089999999999986, -0.700334324302915 
2.100000000000007, -0.716197925831015 
2.1100000000000283, -0.7307791470985769 
2.1200000000000494, -0.7424580702546332 
2.1300000000000705, -0.7508443004937836 
2.1400000000000916, -0.7564288790210775 
2.1500000000001127, -0.7599739171527736 
2.160000000000134, -0.7621485820706281 
2.170000000000155, -0.763430014206864 
2.180000000000176, -0.7641250414497163 
2.190000000000197, -0.7644172518747941 
2.2000000000002182, -0.7644050766235116 
2.2100000000002393, -0.7641244240000992 
2.2200000000002604, -0.7635570102047287 
2.2300000000002815, -0.7626259221692081 
2.2400000000003026, -0.7611794265623617 
2.2500000000003237, -0.758966761299362 
2.260000000000345, -0.7556212553436549 
2.270000000000366, -0.7506912542088393 
2.280000000000387, -0.7437818179929568 
2.290000000000408, -0.7348237775151032 
2.3000000000004293, -0.7243182134180479 
2.3100000000004504, -0.7132854244196475 
2.3200000000004715, -0.7028705477409308 
2.3300000000004926, -0.6939170719569303 
2.3400000000005137, -0.686799124982269 
2.3500000000005348, -0.6815013815532319 
2.360000000000556, -0.6777841251899054 
2.370000000000577, -0.6753223649754176 
2.380000000000598, -0.6737913722014431 
2.390000000000619, -0.6729091075348119 
2.4000000000006403, -0.6724513851877467 
2.4100000000006614, -0.6722514136087807 
2.4200000000006825, -0.6721912983123037 
2.4300000000007036, -0.6721905512446779 
2.4400000000007247, -0.6721949346276674 
2.450000000000746, -0.6721676659643631 
2.460000000000767, -0.6720840344999124 
2.470000000000788, -0.6719296081951326 
2.480000000000809, -0.671701029750787 
2.49000000000083, -0.6714069020913136 
2.5000000000008513, -0.6710656037641067 
2.5100000000008724, -0.6706986649173198 
2.5200000000008935, -0.6703220909860176 
2.5300000000009146, -0.6699404532869865 
2.5400000000009357, -0.6695471473553752 
2.550000000000957, -0.6691302053472434 
2.560000000000978, -0.6686798781947575 
2.570000000000999, -0.6681942021304998 
2.58000000000102, -0.6676813715004576 
2.5900000000010412, -0.6671603471692537 
2.6000000000010624, -0.6666618624607661 
2.6100000000010835, -0.6662311265727061 
2.6200000000011046, -0.6659322743806213 
2.6300000000011257, -0.6658536685691433 
2.6400000000011468, -0.6661126127362575 
2.650000000001168, -0.6668578038596497 
2.660000000001189, -0.6682677891119762 
2.67000000000121, -0.670543322369191 
2.680000000001231, -0.6738899636875109 
2.6900000000012523, -0.6784839965599041 
2.7000000000012734, -0.684411811322436 
2.7100000000012945, -0.6915787649319345 
2.7200000000013156, -0.6996132619188866 
2.7300000000013367, -0.7078458467918348 
2.740000000001358, -0.7154589915289683 
2.750000000001379, -0.7217828587369481 
2.7600000000014, -0.7265313016170105 
2.770000000001421, -0.7298010595317035 
2.780000000001442, -0.7318938090081308 
2.7900000000014633, -0.7331372984394836 
2.8000000000014844, -0.733793816128907 
2.8100000000015055, -0.734040629762831 
2.8200000000015266, -0.7339809597127266 
2.8300000000015477, -0.7336589246455539 
2.840000000001569, -0.7330677879140837 
2.85000000000159, -0.7321480746435084 
2.860000000001611, -0.7307735870832207 
2.870000000001632, -0.7287228977559036 
2.8800000000016532, -0.7256357134793255 
2.8900000000016743, -0.720966227918299 
2.9000000000016954, -0.7139862103610811 
2.9100000000017165, -0.7039642665826025 
2.9200000000017377, -0.6906536746830224 
2.9300000000017588, -0.6749052873023094 
2.94000000000178, -0.6587084777634507 
2.950000000001801, -0.6442729094036573 
2.960000000001822, -0.632951367593451 
2.970000000001843, -0.6249556391480804 
2.9800000000018643, -0.6197650451509431 
2.9900000000018854, -0.6166291391018731 
3.0000000000019065, -0.6148628209553348 
3.0100000000019276, -0.6139461818888371 
3.0200000000019487, -0.6135228173628475 
3.03000000000197, -0.6133636138758632 
3.040000000001991, -0.613327354440925 
3.050000000002012, -0.6133288049399279 
3.060000000002033, -0.6133160202630161 
3.070000000002054, -0.6132556914107833 
3.0800000000020753, -0.6131249778600576 
3.0900000000020964, -0.6129086433293031 
3.1000000000021175, -0.6126003409462708 
3.1100000000021386, -0.6122059243157923 
3.1200000000021597, -0.6117451487589358 
3.130000000002181, -0.6112481255835853 
3.140000000002202, -0.610746140240453 
3.150000000002223, -0.6102610709186995 
3.160000000002244, -0.6097992505009318 
3.1700000000022652, -0.6093527133139911 
3.1800000000022863, -0.6089062217793437 
3.1900000000023074, -0.6084457430162209 
3.2000000000023285, -0.6079645402281758 
3.2100000000023496, -0.6074657811594311 
3.2200000000023707, -0.6069631589219482 
3.230000000002392, -0.606481849180887 
3.240000000002413, -0.6060615032178925 
3.250000000002434, -0.6057620370896258 
3.260000000002455, -0.605672338714997 
3.2700000000024763, -0.6059216057714404 
3.2800000000024974, -0.6066924788456707 
3.2900000000025185, -0.6082339033002165 
3.3000000000025396, -0.6108687470031905 
3.3100000000025607, -0.6149848757113263 
3.3200000000025818, -0.6209870889035527 
3.330000000002603, -0.6291753060751113 
3.340000000002624, -0.6395260643251579 
3.350000000002645, -0.6514412387162937 
3.360000000002666, -0.6636917019568541 
3.3700000000026873, -0.6748000831020539 
3.3800000000027084, -0.6837025507435815 
3.3900000000027295, -0.6901226154148056 
3.4000000000027506, -0.6944001406262789 
3.4100000000027717, -0.6970950141377383 
3.420000000002793, -0.6987148944138979 
3.430000000002814, -0.6996263711926469 
3.440000000002835, -0.7000636571019828 
3.450000000002856, -0.7001620775492896 
3.460000000002877, -0.6999860242133711 
3.4700000000028983, -0.6995441925886634 
3.4800000000029194, -0.6987920565563155 
3.4900000000029405, -0.6976224103135208 
3.5000000000029616, -0.6958456371834599 
3.5100000000029827, -0.693167502389171 
3.520000000003004, -0.689190233170538 
3.530000000003025, -0.6834909924437259 
3.540000000003046, -0.6758305319667268 
3.550000000003067, -0.6664317955936261 
3.5600000000030882, -0.6560830537192437 
3.5700000000031094, -0.6458713756672548 
3.5800000000031305, -0.6367305134210042 
3.5900000000031516, -0.6291687252810602 
3.6000000000031727, -0.6232843603507872 
3.6100000000031938, -0.6189218612871812 
3.620000000003215, -0.6158201235205684 
3.630000000003236, -0.6137035565893623 
3.640000000003257, -0.6123246623974514 
3.650000000003278, -0.6114785760063535 
3.6600000000032993, -0.6110042041272064 
3.6700000000033204, -0.6107796953130786 
3.6800000000033415, -0.6107158727406767 
3.6900000000033626, -0.6107494037037714 
3.7000000000033837, -0.6108367404007885 
3.710000000003405, -0.6109495050040827 
3.720000000003426, -0.611071613083461 
3.730000000003447, -0.6111978000596306 
3.740000000003468, -0.6113323200060207 
3.750000000003489, -0.611485917725156 
3.7600000000035103, -0.6116696923925995 
3.7700000000035314, -0.6118866376716537 
3.7800000000035525, -0.6121243707714685 
3.7900000000035736, -0.6123536509515636 
3.8000000000035947, -0.6125350486693902 
3.810000000003616, -0.6126310800462702 
3.820000000003637, -0.6126170528887843 
3.830000000003658, -0.6124850838339352 
3.840000000003679, -0.6122412903305076 
3.8500000000037002, -0.6119004502937766 
3.8600000000037213, -0.6114825410643134 
3.8700000000037424, -0.611013567445702 
3.8800000000037635, -0.6105317679597201 
3.8900000000037847, -0.6101004176156961 
3.9000000000038058, -0.6098293610842892 
3.910000000003827, -0.6099079627538032 
3.920000000003848, -0.6106503966426671 
3.930000000003869, -0.612545902554013 
3.94000000000389, -0.6162838019373338 
3.9500000000039113, -0.6226782000257163 
3.9600000000039324, -0.6323729516552739 
3.9700000000039535, -0.6452842511568996 
3.9800000000039746, -0.6601109194910841 
3.9900000000039957, -0.6746218271052048 
4.000000000004016, -0.6868316243006128 
4.010000000003993, -0.6959426293890327 
4.02000000000397, -0.7022248326047879 
4.030000000003946, -0.7063688082770988 
4.040000000003923, -0.7090351643040783 
4.0500000000039, -0.7107138746167262 
4.0600000000038765, -0.7117327123543935 
4.070000000003853, -0.7122996735041733 
4.08000000000383, -0.7125397616781706 
4.090000000003807, -0.7125191862057523 
4.100000000003783, -0.7122583869915003 
4.11000000000376, -0.7117361850882129 
4.120000000003737, -0.7108872401611481 
4.130000000003713, -0.7095964596697215 
4.14000000000369, -0.707698940316029 
4.150000000003667, -0.7050022989963793 
4.1600000000036434, -0.7013510231958693 
4.17000000000362, -0.696728542712631 
4.180000000003597, -0.6913374913609263 
4.1900000000035735, -0.6855749946463546 
4.20000000000355, -0.6798982147146575 
4.210000000003527, -0.6746787124831981 
4.220000000003504, -0.6701355119669772 
4.23000000000348, -0.666348688231057 
4.240000000003457, -0.663306100060167 
4.250000000003434, -0.6609463094951378 
4.26000000000341, -0.6591860655126225 
4.270000000003387, -0.6579349303218879 
4.280000000003364, -0.657102757263074 
4.2900000000033405, -0.6566041530804102 
4.300000000003317, -0.656361771041055 
4.310000000003294, -0.6563087639590849 
4.320000000003271, -0.6563901994516306 
4.330000000003247, -0.656563394520721 
4.340000000003224, -0.6567974822771088 
4.350000000003201, -0.6570726504477661 
4.360000000003177, -0.6573791456827185 
4.370000000003154, -0.6577153996014714 
4.380000000003131, -0.6580840750759279 
4.390000000003107, -0.658485376349356 
4.400000000003084, -0.6589090314501378 
4.410000000003061, -0.6593288708428875 
4.4200000000030375, -0.6597044950809341 
4.430000000003014, -0.6599911898995403 
4.440000000002991, -0.660153342026898 
4.450000000002968, -0.6601735325419916 
4.460000000002944, -0.6600530878982135 
4.470000000002921, -0.6598065032606899 
4.480000000002898, -0.659455326888691 
4.490000000002874, -0.659025734496045 
4.500000000002851, -0.6585515932124552 
4.510000000002828, -0.6580838100702473 
4.520000000002804, -0.6577071267231172 
4.530000000002781, -0.657566067485759 
4.540000000002758, -0.6579009954414153 
4.5500000000027345, -0.6590910748082087 
4.560000000002711, -0.6616898614551301 
4.570000000002688, -0.6664165818051534 
4.580000000002665, -0.6740326230557276 
4.590000000002641, -0.6850193698572065 
4.600000000002618, -0.6990783746763403 
4.610000000002595, -0.7147839802110383 
4.620000000002571, -0.7299363357609445 
4.630000000002548, -0.7426176074519486 
4.640000000002525, -0.7520296802781609 
4.6500000000025015, -0.7584269867852665 
4.660000000002478, -0.762531094588806 
4.670000000002455, -0.765063497589204 
4.6800000000024315, -0.766567890540854 
4.690000000002408, -0.767403350512825 
4.700000000002385, -0.7677888562756546 
4.710000000002362, -0.7678462803748262 
4.720000000002338, -0.7676283733158906 
4.730000000002315, -0.7671314090743478 
4.740000000002292, -0.7662941064725667 
4.750000000002268, -0.7649836081363073 
4.760000000002245, -0.76297022192481 
4.770000000002222, -0.7599006731504103 
4.7800000000021985, -0.7553020790348884 
4.790000000002175, -0.7486821718236217 
4.800000000002152, -0.739784224148502 
4.810000000002129, -0.728913453102565 
4.820000000002105, -0.7170403684957174 
4.830000000002082, -0.7054691886208323 
4.840000000002059, -0.6953020490038612 
4.850000000002035, -0.6871202189946362 
4.860000000002012, -0.6810021105721289 
4.870000000001989, -0.676710181498121 
4.880000000001965, -0.6738756155733908 
4.890000000001942, -0.6721182838451761 
4.900000000001919, -0.6711067621451832 
4.9100000000018955, -0.670579415954021 
4.920000000001872, -0.6703438711504647 
