t, s[1].omega / s[0].omega 
0, -1.8599649002189746 
0.009999999999999995, -1.8554284693494556 
0.019999999999999934, -1.8484558252154595 
0.029999999999999874, -1.8394990133076958 
0.04000000000000012, -1.8319242778099292 
0.050000000000000405, -1.8295191498097654 
0.06000000000000069, -1.8308271555639215 
0.07000000000000098, -1.8325030427913844 
0.08000000000000126, -1.8334069822247279 
0.09000000000000155, -1.8336175116204962 
0.10000000000000184, -1.8333409269264316 
0.11000000000000212, -1.832711131147366 
0.12000000000000241, -1.8319354682877127 
0.130000000000002, -1.831536894095409 
0.1400000000000009, -1.832165262242307 
0.1499999999999998, -1.833774815244152 
0.1599999999999987, -1.8356279563103854 
0.1699999999999976, -1.8371494147681093 
0.1799999999999965, -1.8381586451994427 
0.1899999999999954, -1.8386534534005985 
0.1999999999999943, -1.838658351618426 
0.2099999999999932, -1.838170514742179 
0.2199999999999921, -1.837140930617173 
0.229999999999991, -1.8354678983144908 
0.2399999999999899, -1.8330124710831837 
0.2499999999999888, -1.8297017072259671 
0.2599999999999877, -1.825861171744726 
0.2699999999999866, -1.8226109740734806 
0.2799999999999855, -1.8211521358591074 
0.2899999999999844, -1.8212153887285687 
0.2999999999999833, -1.8216569101030864 
0.3099999999999822, -1.8218386938956155 
0.3199999999999811, -1.8216173776596398 
0.32999999999998, -1.820951538996831 
0.3399999999999789, -1.8197796364340264 
0.3499999999999778, -1.818259159491765 
0.35999999999997667, -1.81748377698514 
0.36999999999997557, -1.8194146340647723 
0.37999999999997447, -1.8241580577121617 
0.38999999999997337, -1.8293865396062383 
0.39999999999997227, -1.833423556015029 
0.40999999999997117, -1.836025992593651 
0.41999999999997006, -1.837485421329502 
0.42999999999996896, -1.838112266066965 
0.43999999999996786, -1.8381225982509737 
0.44999999999996676, -1.8376453453509072 
0.45999999999996566, -1.8367509449252963 
0.46999999999996456, -1.8354858166233672 
0.47999999999996346, -1.833921667437274 
0.48999999999996235, -1.8322496524173508 
0.49999999999996125, -1.830868197380444 
0.5099999999999602, -1.8301576703183304 
0.519999999999959, -1.8300264177316197 
0.529999999999958, -1.8300372578765742 
0.5399999999999568, -1.8298518622473054 
0.5499999999999557, -1.829272683609632 
0.5599999999999546, -1.82805383934698 
0.5699999999999535, -1.8257569983686692 
0.5799999999999524, -1.8220041317761069 
0.5899999999999513, -1.8182969120976284 
0.5999999999999502, -1.8203148858575868 
0.6099999999999491, -1.8308848051113196 
0.619999999999948, -1.843327961712517 
0.6299999999999469, -1.8521731255659002 
0.6399999999999458, -1.8571984832491761 
0.6499999999999447, -1.859723565765805 
0.6599999999999436, -1.860798568929462 
0.6699999999999425, -1.8610330471272618 
0.6799999999999414, -1.8607528221936362 
0.6899999999999403, -1.8601431528293713 
0.6999999999999392, -1.8593416209475913 
0.7099999999999381, -1.8584767276459278 
0.719999999999937, -1.8576818344512713 
0.7299999999999359, -1.8571105915089432 
0.7399999999999348, -1.8568429681225314 
0.7499999999999337, -1.8567488929485325 
0.7599999999999326, -1.8565796546472726 
0.7699999999999315, -1.8561057333620663 
0.7799999999999304, -1.8550537362990087 
0.7899999999999293, -1.8528880775088097 
0.7999999999999282, -1.8484988343801194 
0.8099999999999271, -1.8402715986912326 
0.819999999999926, -1.8291836774168384 
0.8299999999999249, -1.8255022697760719 
0.8399999999999238, -1.8372129732869962 
0.8499999999999227, -1.8528837738050856 
0.8599999999999216, -1.8630821120698198 
0.8699999999999205, -1.8681407066169533 
0.8799999999999194, -1.8703365390672133 
0.8899999999999183, -1.8711031667535085 
0.8999999999999172, -1.871135576211517 
0.9099999999999161, -1.8707680071502613 
0.919999999999915, -1.8702108669507809 
0.9299999999999139, -1.869652459849874 
0.9399999999999128, -1.869228630952924 
0.9499999999999117, -1.868978163847374 
0.9599999999999106, -1.868883693423004 
0.9699999999999095, -1.8688713662694252 
0.9799999999999084, -1.8687900807754594 
0.9899999999999073, -1.8684567060690735 
0.9999999999999062, -1.8676488756112015 
1.0099999999999052, -1.8659740709885582 
1.019999999999904, -1.8626129333866026 
1.029999999999903, -1.8559543230455546 
1.039999999999902, -1.8437613662224905 
1.0499999999999008, -1.8268316572998664 
1.0599999999998997, -1.8158777444085807 
1.0699999999998986, -1.8195033923212498 
1.0799999999998975, -1.8284418791246324 
1.0899999999998964, -1.8345564423998748 
1.0999999999998953, -1.8375136643908099 
1.1099999999998942, -1.8386769492278041 
1.119999999999893, -1.8389255360519918 
1.129999999999892, -1.8386843884920547 
1.1399999999998909, -1.8381932333095974 
1.1499999999998898, -1.8376952783835159 
1.1599999999998887, -1.8374559724834651 
1.1699999999998876, -1.8375739111510927 
1.1799999999998865, -1.8379110366466258 
1.1899999999998854, -1.838276855111608 
1.1999999999998843, -1.8385290366508638 
1.2099999999998832, -1.83854950396838 
1.219999999999882, -1.8382177370132287 
1.229999999999881, -1.8373695214670005 
1.2399999999998799, -1.8357235528634355 
1.2499999999998788, -1.8327838464746073 
1.2599999999998777, -1.8277553030367746 
1.2699999999998766, -1.8197197950022155 
1.2799999999998755, -1.8089058723623304 
1.2899999999998744, -1.7991788904659192 
1.2999999999998733, -1.7957332531614725 
1.3099999999998722, -1.7973611173860786 
1.319999999999871, -1.7996856812030697 
1.32999999999987, -1.801050926621254 
1.3399999999998689, -1.8015398962809275 
1.3499999999998678, -1.8014532114223467 
1.3599999999998666, -1.8009764945089866 
1.3699999999998655, -1.8002749621691685 
1.3799999999998644, -1.7997067275258634 
1.3899999999998633, -1.7998506996381731 
1.3999999999998622, -1.8009504797256621 
1.4099999999998611, -1.8025445513899534 
1.41999999999986, -1.8040347118865268 
1.429999999999859, -1.8051310496153075 
1.4399999999998578, -1.8057670809323512 
1.4499999999998567, -1.805943136210134 
1.4599999999998556, -1.8056541160259993 
1.4699999999998545, -1.8048614502630216 
1.4799999999998534, -1.8034805553724755 
1.4899999999998523, -1.8013810653285467 
1.4999999999998512, -1.7984299202880443 
1.5099999999998501, -1.7946785778096028 
1.519999999999849, -1.7907834854565614 
1.529999999999848, -1.7880883474645253 
1.5399999999998468, -1.7873088624734463 
1.5499999999998457, -1.7876323760457844 
1.5599999999998446, -1.78802684373419 
1.5699999999998435, -1.7880861986805319 
1.5799999999998424, -1.7877359211593653 
1.5899999999998413, -1.7869245404868654 
1.5999999999998402, -1.7855934638171789 
1.6099999999998391, -1.7840286774040248 
1.619999999999838, -1.783628563598948 
1.629999999999837, -1.7863634892927927 
1.6399999999998358, -1.7917953288301427 
1.6499999999998347, -1.797367263274514 
1.6599999999998336, -1.8015522761786105 
1.6699999999998325, -1.8042243698131895 
1.6799999999998314, -1.8057193898786466 
1.6899999999998303, -1.8063678111674417 
1.6999999999998292, -1.8064000078100961 
1.709999999999828, -1.8059582733400366 
1.719999999999827, -1.805128138034291 
1.729999999999826, -1.8039738980761808 
1.7399999999998248, -1.8025808267024543 
1.7499999999998237, -1.8011230221409857 
1.7599999999998226, -1.7999220002315535 
1.7699999999998215, -1.7992772014817082 
1.7799999999998204, -1.7991217875276007 
1.7899999999998193, -1.7990958507602055 
1.7999999999998182, -1.798891422258545 
1.809999999999817, -1.7983042825662678 
1.819999999999816, -1.7970677935295 
1.8299999999998149, -1.7946695505789685 
1.8399999999998138, -1.7903859634384083 
1.8499999999998127, -1.7846656989341707 
1.8599999999998116, -1.782855446330331 
1.8699999999998105, -1.7918648599871916 
1.8799999999998094, -1.8068870987765089 
1.8899999999998083, -1.8189342168573728 
1.8999999999998072, -1.8259858328683882 
1.909999999999806, -1.829553517028809 
1.919999999999805, -1.8311494214402182 
1.9299999999998039, -1.8316689789415783 
1.9399999999998028, -1.8315776895328242 
1.9499999999998017, -1.831123414598883 
1.9599999999998006, -1.8304745905764097 
1.9699999999997995, -1.829780380262531 
1.9799999999997984, -1.8291612880335866 
1.9899999999997973, -1.828704727425404 
1.9999999999997962, -1.8284628254875972 
2.0099999999998173, -1.8283771810375913 
2.0199999999998384, -1.8282686185944381 
2.0299999999998595, -1.8279317737229366 
2.0399999999998806, -1.8271394553051223 
2.0499999999999017, -1.8255002555555648 
2.059999999999923, -1.822188043184098 
2.069999999999944, -1.8155791824990337 
2.079999999999965, -1.8035891292880841 
2.089999999999986, -1.7879669089620271 
2.100000000000007, -1.7806650247744193 
2.1100000000000283, -1.7886851216719504 
2.1200000000000494, -1.8006272287954812 
2.1300000000000705, -1.8083557052577859 
2.1400000000000916, -1.8121155595912604 
2.1500000000001127, -1.8136766328009883 
2.160000000000134, -1.814134436356373 
2.170000000000155, -1.8140148895998487 
2.180000000000176, -1.8135864419687924 
2.190000000000197, -1.8130658903351276 
2.2000000000002182, -1.812687528502233 
2.2100000000002393, -1.8125935894751095 
2.2200000000002604, -1.8127353832716904 
2.2300000000002815, -1.8129748056656485 
2.2400000000003026, -1.8131816296525227 
2.2500000000003237, -1.8132299950920494 
2.260000000000345, -1.8129897793351613 
2.270000000000366, -1.8123022753961338 
2.280000000000387, -1.8109109395183958 
2.290000000000408, -1.8083553626291227 
2.3000000000004293, -1.8038493961173614 
2.3100000000004504, -1.7962978897130093 
2.3200000000004715, -1.785138539354022 
2.3300000000004926, -1.77299137325263 
2.3400000000005137, -1.7662451501562857 
2.3500000000005348, -1.7667239874989868 
2.360000000000556, -1.769616440545344 
2.370000000000577, -1.7717267913049795 
2.380000000000598, -1.772713187977088 
2.390000000000619, -1.772940428725755 
2.4000000000006403, -1.7726847197538382 
2.4100000000006614, -1.772108818723987 
2.4200000000006825, -1.7714283778967093 
2.4300000000007036, -1.7710884764938466 
2.4400000000007247, -1.7715820222087273 
2.450000000000746, -1.7728718667809282 
2.460000000000767, -1.7744102360791865 
2.470000000000788, -1.7757317042735015 
2.480000000000809, -1.7766503985400117 
2.49000000000083, -1.7771280520031638 
2.5000000000008513, -1.77716158479938 
2.5100000000008724, -1.7767351370220603 
2.5200000000008935, -1.7757999653241874 
2.5300000000009146, -1.7742662660668742 
2.5400000000009357, -1.7720108278633238 
2.550000000000957, -1.768938847361314 
2.560000000000978, -1.7652005400632924 
2.570000000000999, -1.7615705858586181 
2.58000000000102, -1.759295986416642 
2.5900000000010412, -1.7587700114767646 
2.6000000000010624, -1.759107389604314 
2.6100000000010835, -1.7594293230712137 
2.6200000000011046, -1.7594156034477468 
2.6300000000011257, -1.7589957585968132 
2.6400000000011468, -1.758095589545365 
2.650000000001168, -1.756629674084095 
2.660000000001189, -1.7548864190573386 
2.67000000000121, -1.7543980848706817 
2.680000000001231, -1.757443081084374 
2.6900000000012523, -1.7636697120287905 
2.7000000000012734, -1.7701595531633765 
2.7100000000012945, -1.7750693670249789 
2.7200000000013156, -1.7782189760796405 
2.7300000000013367, -1.7800081811967092 
2.740000000001358, -1.7808416215738163 
2.750000000001379, -1.7810058236343724 
2.7600000000014, -1.7806819738261495 
2.770000000001421, -1.779983383780765 
2.780000000001442, -1.7789952277059373 
2.7900000000014633, -1.7778109814511773 
2.8000000000014844, -1.7765738812107776 
2.8100000000015055, -1.7755200636966015 
2.8200000000015266, -1.7748922101775961 
2.8300000000015477, -1.7746868815988428 
2.840000000001569, -1.7746321393099922 
2.85000000000159, -1.7744415936821483 
2.860000000001611, -1.7739043561689385 
2.870000000001632, -1.7727572957882551 
2.8800000000016532, -1.770481041954793 
2.8900000000016743, -1.7661235205168815 
2.9000000000016954, -1.7588499664366986 
2.9100000000017165, -1.751415936480441 
2.9200000000017377, -1.7533309071573087 
2.9300000000017588, -1.7675292682696149 
2.94000000000178, -1.7830996449730172 
2.950000000001801, -1.7932235809280397 
2.960000000001822, -1.7984880316200524 
2.970000000001843, -1.8009182471150271 
2.9800000000018643, -1.801861407768668 
2.9900000000018854, -1.802014784680252 
3.0000000000019065, -1.8017254634895639 
3.0100000000019276, -1.8011998662045177 
3.0200000000019487, -1.800615063761151 
3.03000000000197, -1.8001227888884928 
3.040000000001991, -1.7997970374204015 
3.050000000002012, -1.7996428782001714 
3.060000000002033, -1.7996167952294435 
3.070000000002054, -1.7996022145516588 
3.0800000000020753, -1.799434375393485 
3.0900000000020964, -1.7989338111174298 
3.1000000000021175, -1.7978497586601208 
3.1100000000021386, -1.79570976769126 
3.1200000000021597, -1.7915776968621269 
3.130000000002181, -1.7838066372561738 
3.140000000002202, -1.7705977268852735 
3.150000000002223, -1.7537661539289595 
3.160000000002244, -1.7431229114690645 
3.1700000000022652, -1.7449234532413467 
3.1800000000022863, -1.7516418816635546 
3.1900000000023074, -1.7566145349453783 
3.2000000000023285, -1.75914843027908 
3.2100000000023496, -1.7601736749328356 
3.2200000000023707, -1.7603815898969462 
3.230000000002392, -1.7601260846635849 
3.240000000002413, -1.759614428515513 
3.250000000002434, -1.7590858097533242 
3.260000000002455, -1.7588704840382483 
3.2700000000024763, -1.759176118468216 
3.2800000000024974, -1.7598659513782207 
3.2900000000025185, -1.760637062521366 
3.3000000000025396, -1.76126882292535 
3.3100000000025607, -1.7616431115632256 
3.3200000000025818, -1.7616855007570495 
3.330000000002603, -1.7613234126993853 
3.340000000002624, -1.760453164424505 
3.350000000002645, -1.7589109792234638 
3.360000000002666, -1.7564528171020513 
3.3700000000026873, -1.752770243698197 
3.3800000000027084, -1.7476557892569446 
3.3900000000027295, -1.7415516692167006 
3.4000000000027506, -1.7362354241566436 
3.4100000000027717, -1.7337561651493352 
3.420000000002793, -1.7338478880062982 
3.430000000002814, -1.7347036044327304 
3.440000000002835, -1.7352800361546037 
3.450000000002856, -1.735385311742639 
3.460000000002877, -1.7350579068423386 
3.4700000000028983, -1.7343149149696444 
3.4800000000029194, -1.7331986116630749 
3.4900000000029405, -1.732106320583044 
3.5000000000029616, -1.7321981600328171 
3.5100000000029827, -1.7346217775600246 
3.520000000003004, -1.738774734300669 
3.530000000003025, -1.7429683374521077 
3.540000000003046, -1.7462186315090655 
3.550000000003067, -1.7483869012116635 
3.5600000000030882, -1.7496476390188431 
3.5700000000031094, -1.7502018367685845 
3.5800000000031305, -1.750201803229156 
3.5900000000031516, -1.7497472506809058 
3.6000000000031727, -1.7488999918667332 
3.6100000000031938, -1.74770734456301 
3.620000000003215, -1.7462370548030184 
3.630000000003236, -1.744638384619914 
3.640000000003257, -1.7432133357617325 
3.650000000003278, -1.7423190295133975 
3.6600000000032993, -1.742019551851815 
3.6700000000033204, -1.742002238911113 
3.6800000000033415, -1.741914675489402 
3.6900000000033626, -1.7415360196319516 
3.7000000000033837, -1.7406665628008433 
3.710000000003405, -1.738949470893817 
3.720000000003426, -1.7357350113888963 
3.730000000003447, -1.7304093662935025 
3.740000000003468, -1.724661928772115 
3.750000000003489, -1.725567312936046 
3.7600000000035103, -1.7376497356681209 
3.7700000000035314, -1.7532075755716723 
3.7800000000035525, -1.7645876459379508 
3.7900000000035736, -1.7710351430505238 
3.8000000000035947, -1.7742505446126249 
3.810000000003616, -1.7756634445612245 
3.820000000003637, -1.7760943804547682 
3.830000000003658, -1.775968769014474 
3.840000000003679, -1.7755196227515886 
3.8500000000037002, -1.7749172150998938 
3.8600000000037213, -1.774318488149031 
3.8700000000037424, -1.7738384977251687 
3.8800000000037635, -1.7735289027619257 
3.8900000000037847, -1.7733943711027682 
3.9000000000038058, -1.7733666732165585 
3.910000000003827, -1.7732963334941327 
3.920000000003848, -1.7730083307647309 
3.930000000003869, -1.7723060485953739 
3.94000000000389, -1.7708728173655501 
3.9500000000039113, -1.7680853259819407 
3.9600000000039324, -1.7627436554704736 
3.9700000000039535, -1.7529652404113167 
3.9800000000039746, -1.7376374518015367 
3.9900000000039957, -1.7215013651048943 
4.000000000004016, -1.7154104093791254 
4.010000000003993, -1.7203200449814886 
4.02000000000397, -1.7271281957236853 
4.030000000003946, -1.7314479309062385 
4.040000000003923, -1.73352812813168 
4.0500000000039, -1.7343148658071654 
4.0600000000038765, -1.7343975655723773 
4.070000000003853, -1.7340726975215017 
4.08000000000383, -1.7335351017519283 
4.090000000003807, -1.7330393272090272 
4.100000000003783, -1.7329170485584195 
4.11000000000376, -1.7333303561340347 
4.120000000003737, -1.7340981042561332 
4.130000000003713, -1.7349140327691253 
4.14000000000369, -1.735568933758141 
4.150000000003667, -1.7359532465307972 
4.1600000000036434, -1.7359994383379498 
4.17000000000362, -1.7356426658948287 
4.180000000003597, -1.7347917565173934 
4.1900000000035735, -1.7333065976025233 
4.20000000000355, -1.7309857216224542 
4.210000000003527, -1.7275866303704475 
4.220000000003504, -1.7229676263906346 
4.23000000000348, -1.717522034365223 
4.240000000003457, -1.7127074185771594 
4.250000000003434, -1.7102595987860834 
4.26000000000341, -1.7101162519990503 
4.270000000003387, -1.7107914427057942 
4.280000000003364, -1.7112930137786848 
4.2900000000033405, -1.7113772471467477 
4.300000000003317, -1.7110435537167121 
4.310000000003294, -1.7102788757838034 
4.320000000003271, -1.7090685624693154 
4.330000000003247, -1.7077022702705942 
4.340000000003224, -1.7073526308141858 
4.350000000003201, -1.709675069657715 
4.360000000003177, -1.714557229726654 
4.370000000003154, -1.7199555870792196 
4.380000000003131, -1.7243198603498868 
4.390000000003107, -1.7273051934645807 
4.400000000003084, -1.72911696693102 
4.410000000003061, -1.7300434457719238 
4.4200000000030375, -1.7303153268736895 
4.430000000003014, -1.730091214935268 
4.440000000002991, -1.7294752685171726 
4.450000000002968, -1.7285439689250168 
4.460000000002944, -1.7273762066264822 
4.470000000002921, -1.7260872656683415 
4.480000000002898, -1.7248732691757145 
4.490000000002874, -1.7239978669456657 
4.500000000002851, -1.7235960473188427 
4.510000000002828, -1.7235051044782452 
4.520000000002804, -1.7234253019306915 
4.530000000002781, -1.723120889992352 
4.540000000002758, -1.7223916107975785 
4.5500000000027345, -1.7209139620148144 
4.560000000002711, -1.7180344697325247 
4.570000000002688, -1.7126421168821104 
4.580000000002665, -1.7040618383248909 
4.590000000002641, -1.6960846407055878 
4.600000000002618, -1.6986986638633603 
4.610000000002595, -1.7132888924012684 
4.620000000002571, -1.7286421313567888 
4.630000000002548, -1.738523979061941 
4.640000000002525, -1.7436557165553943 
4.6500000000025015, -1.7460261397396366 
4.660000000002478, -1.7469494918565982 
4.670000000002455, -1.7471058089708216 
4.6800000000024315, -1.7468341206590767 
4.690000000002408, -1.746339714083818 
4.700000000002385, -1.7458090651075373 
4.710000000002362, -1.7454130747941257 
4.720000000002338, -1.7452276560265017 
4.730000000002315, -1.7452213417665816 
4.740000000002292, -1.7453161987463777 
4.750000000002268, -1.7454034596736467 
4.760000000002245, -1.7453478725135352 
4.770000000002222, -1.7450048572567476 
4.7800000000021985, -1.744194137059878 
4.790000000002175, -1.742619547286943 
4.800000000002152, -1.7397517820521329 
4.810000000002129, -1.734702710539582 
4.820000000002105, -1.726281474082646 
4.830000000002082, -1.7139639653247443 
4.840000000002059, -1.7006128386444452 
4.850000000002035, -1.6928992148536754 
4.860000000002012, -1.6930234837398186 
4.870000000001989, -1.6961724287229394 
4.880000000001965, -1.6986885121297894 
4.890000000001942, -1.6999876720497173 
4.900000000001919, -1.7004262001184056 
4.9100000000018955, -1.7003224670465122 
4.920000000001872, -1.6998518657367296 
4.930000000001849, -1.6991656672459725 
4.940000000001826, -1.6985798751919645 
