t, s[1].omega / s[0].omega 
0, -0.999997378167983 
0.009999999999999995, -0.9996766510120705 
0.019999999999999934, -0.9994690246551884 
0.029999999999999874, -0.9991744002682704 
0.04000000000000012, -0.9989291318835813 
0.050000000000000405, -0.9986787724291762 
0.06000000000000069, -0.9983861584394724 
0.07000000000000098, -0.9981759458372473 
0.08000000000000126, -0.9978585687169482 
0.09000000000000155, -0.9976632140639713 
0.10000000000000184, -0.997358081667695 
0.11000000000000212, -0.9971416623038717 
0.12000000000000241, -0.9968771426769077 
0.130000000000002, -0.9966150216242406 
0.1400000000000009, -0.9963981276664198 
0.1499999999999998, -0.9960979154124725 
0.1599999999999987, -0.9959119696889875 
0.1699999999999976, -0.9956081470180101 
0.1799999999999965, -0.9954193577186424 
0.1899999999999954, -0.995148530625739 
0.1999999999999943, -0.9949227411610773 
0.2099999999999932, -0.9947030599811563 
0.2199999999999921, -0.9944312819339917 
0.229999999999991, -0.9942555165174605 
0.2399999999999899, -0.9939635126324028 
0.2499999999999888, -0.9938024605017958 
0.2599999999999877, -0.993532373981425 
0.2699999999999866, -0.9933472190833299 
0.2799999999999855, -0.9931294374314982 
0.2899999999999844, -0.9928956530821559 
0.2999999999999833, -0.9927336013971759 
0.3099999999999822, -0.9924631301627063 
0.3199999999999811, -0.9923336077275438 
0.32999999999998, -0.9920695475829069 
0.3399999999999789, -0.9919314209502476 
0.3499999999999778, -0.9917186724231152 
0.35999999999997667, -0.9915333351856687 
0.36999999999997557, -0.9913890997217194 
0.37999999999997447, -0.9911510805240002 
0.38999999999997337, -0.9910606540956899 
0.39999999999997227, -0.9908074063310036 
0.40999999999997117, -0.9907282667589763 
0.41999999999997006, -0.9905206667944569 
0.42999999999996896, -0.9903993349392348 
0.43999999999996786, -0.9902752640859277 
0.44999999999996676, -0.9900850824274217 
0.45999999999996566, -0.9900432144318252 
0.46999999999996456, -0.9898084274489107 
0.47999999999996346, -0.9898080416387395 
0.48999999999996235, -0.9896028280616279 
0.49999999999996125, -0.9895718140199148 
0.5099999999999602, -0.9894661070981425 
0.519999999999959, -0.9893488493409375 
0.529999999999958, -0.9893638440409805 
0.5399999999999568, -0.9891630655289806 
0.5499999999999557, -0.989268573076739 
0.5599999999999546, -0.9890629028223148 
0.5699999999999535, -0.989165744459653 
0.5799999999999524, -0.9890695297013186 
0.5899999999999513, -0.9890685620216407 
0.5999999999999502, -0.9891429401192015 
0.6099999999999491, -0.98900676559648 
0.619999999999948, -0.9892470417548714 
0.6299999999999469, -0.98904484004173 
0.6399999999999458, -0.9893456063631743 
0.6499999999999447, -0.9892407998897786 
0.6599999999999436, -0.9894296100568089 
0.6699999999999425, -0.9895512237625893 
0.6799999999999414, -0.9895363865951551 
0.6899999999999403, -0.9899275151907205 
0.6999999999999392, -0.9897508809969583 
0.7099999999999381, -0.9903208774507797 
0.719999999999937, -0.9901850138967155 
0.7299999999999359, -0.9906728220183925 
0.7399999999999348, -0.9908011032678521 
0.7499999999999337, -0.9910039032045195 
0.7599999999999326, -0.9915207005290168 
0.7699999999999315, -0.9914253753125959 
0.7799999999999304, -0.9922921128230772 
0.7899999999999293, -0.9921176122069898 
0.7999999999999282, -0.993012681342561 
0.8099999999999271, -0.9930766876661622 
0.819999999999926, -0.9936264771458873 
0.8299999999999249, -0.9941655346754961 
0.8399999999999238, -0.9942542076610957 
0.8499999999999227, -0.9953170939503712 
0.8599999999999216, -0.9951394559180378 
0.8699999999999205, -0.99642546891467 
0.8799999999999194, -0.9963665876932848 
0.8899999999999183, -0.9973429606902872 
0.8999999999999172, -0.9977345463824632 
0.9099999999999161, -0.9981277677200943 
0.919999999999915, -0.9991256100433726 
0.9299999999999139, -0.9990427621926206 
0.9399999999999128, -1.0004550492133262 
0.9499999999999117, -1.0002889864020328 
0.9599999999999106, -1.0015680746198696 
0.9699999999999095, -1.0016982796206706 
0.9799999999999084, -1.0024141400915558 
0.9899999999999073, -1.0030738532241934 
0.9999999999999062, -1.003201950018263 
1.0099999999999052, -1.0043413634975045 
1.019999999999904, -1.0041672034423075 
1.029999999999903, -1.005407667418617 
1.039999999999902, -1.0053140304956014 
1.0499999999999008, -1.0061831049716008 
1.0599999999998997, -1.0064342454120232 
1.0699999999998986, -1.006772421598687 
1.0799999999998975, -1.0074247053124734 
1.0899999999998964, -1.0073601871492108 
1.0999999999998953, -1.0082420283178806 
1.1099999999998942, -1.0080532269847953 
1.119999999999893, -1.0088282077087376 
1.129999999999892, -1.0087859509373645 
1.1399999999998909, -1.0092047926642471 
1.1499999999998898, -1.0094309387414548 
1.1599999999998887, -1.0094920492184905 
1.1699999999998876, -1.009941828848814 
1.1799999999998865, -1.0097803432773624 
1.1899999999998854, -1.0102927484407151 
1.1999999999998843, -1.0101101771040277 
1.2099999999998832, -1.0104740431233232 
1.219999999999882, -1.0104297207033774 
1.229999999999881, -1.010546050642006 
1.2399999999998799, -1.0106703792712557 
1.2499999999998788, -1.010574323516486 
1.2599999999998777, -1.0108061423886368 
1.2699999999998766, -1.010599585584443 
1.2799999999998755, -1.010824007495428 
1.2899999999998744, -1.0106408570799335 
1.2999999999998733, -1.0107429372403545 
1.3099999999998722, -1.0106641306010324 
1.319999999999871, -1.0106078164475265 
1.32999999999987, -1.0106285384103775 
1.3399999999998689, -1.010447432373411 
1.3499999999998678, -1.0105161349996823 
1.3599999999998666, -1.0102854457058161 
1.3699999999998655, -1.0103260251773827 
1.3799999999998644, -1.0101319384060643 
1.3899999999998633, -1.010082091206937 
1.3999999999998622, -1.0099619597823226 
1.4099999999998611, -1.0098074290146972 
1.41999999999986, -1.0097476474068108 
1.429999999999859, -1.0095173439154412 
1.4399999999998578, -1.0094775818295298 
1.4499999999998567, -1.00922970336684 
1.4599999999998556, -1.009158849250925 
1.4699999999998545, -1.00894841303778 
1.4799999999998534, -1.0088084359739085 
1.4899999999998523, -1.0086522109522413 
1.4999999999998512, -1.0084372673033057 
1.5099999999998501, -1.0083207996737205 
1.519999999999849, -1.0080584401069825 
1.529999999999848, -1.0079492926083764 
1.5399999999998468, -1.0076866958798916 
1.5499999999998457, -1.0075467586668188 
1.5599999999998446, -1.0073201250418804 
1.5699999999998435, -1.0071219467733992 
1.5799999999998424, -1.0069390368311337 
1.5899999999998413, -1.0066827912553915 
1.5999999999998402, -1.0065291404931065 
1.6099999999998391, -1.006243984858997 
1.619999999999838, -1.006090694220471 
1.629999999999837, -1.005816468448324 
1.6399999999998358, -1.0056302997263828 
1.6499999999998347, -1.0053924416276891 
1.6599999999998336, -1.0051523532671616 
1.6699999999998325, -1.0049537373344484 
1.6799999999998314, -1.0046674568127532 
1.6899999999998303, -1.0044917021684991 
1.6999999999998292, -1.004191522843485 
1.709999999999828, -1.004008991668591 
1.719999999999827, -1.0037296047615702 
1.729999999999826, -1.003508724061114 
1.7399999999998248, -1.0032685903824992 
1.7499999999998237, -1.0029962503621002 
1.7599999999998226, -1.002793045797558 
1.7699999999998215, -1.002486706784856 
1.7799999999998204, -1.002299266099203 
1.7899999999998193, -1.0019941236795447 
1.7999999999998182, -1.0017896859732005 
1.809999999999817, -1.001515730140304 
1.819999999999816, -1.0012663599371483 
1.8299999999998149, -1.0010350562888837 
1.8399999999998138, -1.0007395108053514 
1.8499999999998127, -1.0005409353577488 
1.8599999999998116, -1.0002269354709972 
1.8699999999998105, -1.000033093498254 
1.8799999999998094, -0.9997366180984295 
1.8899999999998083, -0.9995130466668549 
1.8999999999998072, -0.9992577009063177 
1.909999999999806, -0.9989856978405207 
1.919999999999805, -0.9987735707636002 
1.9299999999998039, -0.9984668306914221 
1.9399999999998028, -0.998278159773028 
1.9499999999998017, -0.9979723116700365 
1.9599999999998006, -0.9977729513556964 
1.9699999999997995, -0.997501116142714 
1.9799999999997984, -0.9972602543943333 
1.9899999999997973, -0.9970363118037239 
1.9999999999997962, -0.9967505659993157 
2.0099999999998173, -0.9965645609065521 
2.0199999999998384, -0.9962623703642426 
2.0299999999998595, -0.9960845638292011 
2.0399999999998806, -0.9958050954732329 
2.0499999999999017, -0.9955989327869165 
2.059999999999923, -0.9953676720013229 
2.069999999999944, -0.9951135557695437 
2.079999999999965, -0.9949311433976509 
2.089999999999986, -0.9946445231319604 
2.100000000000007, -0.9944876801379783 
2.1100000000000283, -0.9942088818071785 
2.1200000000000494, -0.9940398143645466 
2.1300000000000705, -0.9938061907969793 
2.1400000000000916, -0.993592213906991 
2.1500000000001127, -0.9934163886622185 
2.160000000000134, -0.9931564791647 
2.170000000000155, -0.9930233164801193 
2.180000000000176, -0.9927526265159214 
2.190000000000197, -0.9926252238307728 
2.2000000000002182, -0.9923926654658534 
2.2100000000002393, -0.9922279714127176 
2.2200000000002604, -0.9920616253763502 
2.2300000000002815, -0.9918403968648846 
2.2400000000003026, -0.991735943322593 
2.2500000000003237, -0.9914815409757111 
2.260000000000345, -0.9914049332121477 
2.270000000000366, -0.9911747405995693 
2.280000000000387, -0.9910730271813613 
2.290000000000408, -0.990916819064677 
2.3000000000004293, -0.9907501403540206 
2.3100000000004504, -0.990679474791438 
2.3200000000004715, -0.9904533311245021 
2.3300000000004926, -0.9904415462422255 
2.3400000000005137, -0.9902145123922255 
2.3500000000005348, -0.9901983535367905 
2.360000000000556, -0.9900488504729674 
2.370000000000577, -0.9899615869711147 
2.380000000000598, -0.9899271376802105 
2.390000000000619, -0.989749281791756 
2.4000000000006403, -0.9898188764495665 
2.4100000000006614, -0.9895996094303364 
2.4200000000006825, -0.9897037823663184 
2.4300000000007036, -0.9895524551672954 
2.4400000000007247, -0.9895860152423438 
2.450000000000746, -0.9895837749479088 
2.460000000000767, -0.9894888242243673 
2.470000000000788, -0.9896533283716182 
2.480000000000809, -0.9894572741282966 
2.49000000000083, -0.9897270730007875 
2.5000000000008513, -0.9895624302694356 
2.5100000000008724, -0.9897830998563533 
2.5200000000008935, -0.9897964529035894 
2.5300000000009146, -0.9898438873895262 
2.5400000000009357, -0.9901035454414127 
2.550000000000957, -0.9899665998736612 
2.560000000000978, -0.9904428454508758 
2.570000000000999, -0.9902596597821293 
2.58000000000102, -0.9907572103536013 
2.5900000000010412, -0.9907513420937253 
2.6000000000010624, -0.9910359839773524 
2.6100000000010835, -0.9913593581926566 
2.6200000000011046, -0.9913502305260725 
2.6300000000011257, -0.9920331360659572 
2.6400000000011468, -0.9918495329030678 
2.650000000001168, -0.9926973772202723 
2.660000000001189, -0.9926284259510727 
2.67000000000121, -0.9932683493571518 
2.680000000001231, -0.9935725053916254 
2.6900000000012523, -0.9937987582721611 
2.7000000000012734, -0.9945972123675422 
2.7100000000012945, -0.9944743789447505 
2.7200000000013156, -0.9956303896122074 
2.7300000000013367, -0.9954808707770831 
2.740000000001358, -0.9965340071610526 
2.750000000001379, -0.9967047527760068 
2.7600000000014, -0.9972735388851744 
2.770000000001421, -0.9979900287267833 
2.780000000001442, -0.9980372557639294 
2.7900000000014633, -0.9992634132437556 
2.8000000000014844, -0.9990782571090703 
2.8100000000015055, -1.00040133602268 
2.8200000000015266, -1.000380530658679 
2.8300000000015477, -1.0012832202743482 
2.840000000001569, -1.0017194305383725 
2.85000000000159, -1.0020284323972783 
2.860000000001611, -1.0029935128755398 
2.870000000001632, -1.002881513977461 
2.8800000000016532, -1.004126112281424 
2.8900000000016743, -1.003965550610524 
2.9000000000016954, -1.0050023358662525 
2.9100000000017165, -1.0051136440690476 
2.9200000000017377, -1.0056411210527245 
2.9300000000017588, -1.0061705810283983 
2.94000000000178, -1.0062242668156989 
2.950000000001801, -1.0070835258427235 
2.960000000001822, -1.0069032046442148 
2.970000000001843, -1.0077915695483937 
2.9800000000018643, -1.0076797382956197 
2.9900000000018854, -1.008264383110648 
3.0000000000019065, -1.0084124551558444 
3.0100000000019276, -1.0086035958311756 
3.0200000000019487, -1.0090246463183994 
3.03000000000197, -1.0089232819993061 
3.040000000001991, -1.009487087469763 
3.050000000002012, -1.0092907764057735 
3.060000000002033, -1.0097713213621928 
3.070000000002054, -1.0096809399211626 
3.0800000000020753, -1.0099126084428056 
3.0900000000020964, -1.0100093070757126 
3.1000000000021175, -1.0099901383572514 
3.1100000000021386, -1.0102361440244207 
3.1200000000021597, -1.010056121962651 
3.130000000002181, -1.0103427660027906 
3.140000000002202, -1.0101432936194334 
3.150000000002223, -1.010331080739776 
3.160000000002244, -1.0102295210187981 
3.1700000000022652, -1.0102461848688251 
3.1800000000022863, -1.010264279165067 
3.1900000000023074, -1.0101275912903604 
3.2000000000023285, -1.0102222462878945 
3.2100000000023496, -1.0100020779856722 
3.2200000000023707, -1.0100942432586086 
3.230000000002392, -1.0098887065337976 
3.240000000002413, -1.0098974255074236 
3.250000000002434, -1.0097689940249388 
3.260000000002455, -1.0096616519492208 
3.2700000000024763, -1.0096090981532364 
3.2800000000024974, -1.0094054617715302 
3.2900000000025185, -1.0093914717185217 
3.3000000000025396, -1.0091477732021594 
3.3100000000025607, -1.0091162550865562 
3.3200000000025818, -1.0088999073260132 
3.330000000002603, -1.008801452031769 
3.340000000002624, -1.0086443024921137 
3.350000000002645, -1.0084621985411142 
3.360000000002666, -1.0083559428170923 
3.3700000000026873, -1.0081108179906675 
3.3800000000027084, -1.0080240310343869 
3.3900000000027295, -1.0077637708739526 
3.4000000000027506, -1.007654625168016 
3.4100000000027717, -1.0074258787244994 
3.420000000002793, -1.0072597880684782 
3.430000000002814, -1.0070790324365952 
3.440000000002835, -1.0068476126178703 
3.450000000002856, -1.0067042527964467 
3.460000000002877, -1.0064311117798193 
3.4700000000028983, -1.0062970701077592 
3.4800000000029194, -1.0060246313138896 
3.4900000000029405, -1.0058647008965211 
3.5000000000029616, -1.0056262939401812 
3.5100000000029827, -1.0054132831518339 
3.520000000003004, -1.0052174503583364 
3.530000000003025, -1.004950826969375 
3.540000000003046, -1.004784644422641 
3.550000000003067, -1.0044927940593937 
3.5600000000030882, -1.0043281665404544 
3.5700000000031094, -1.004049433158309 
3.5800000000031305, -1.0038530740896199 
3.5900000000031516, -1.003612016886061 
3.6000000000031727, -1.0033634468996602 
3.6100000000031938, -1.0031626483847798 
3.620000000003215, -1.002871260447335 
3.630000000003236, -1.0026934200972726 
3.640000000003257, -1.0023926758249928 
3.650000000003278, -1.0022068274361595 
3.6600000000032993, -1.001931110650157 
3.6700000000033204, -1.001705586605339 
3.6800000000033415, -1.0014720085197728 
3.6900000000033626, -1.001196375721621 
3.7000000000033837, -1.0010002976794024 
3.710000000003405, -1.000695540615033 
3.720000000003426, -1.0005130477966016 
3.730000000003447, -1.0002160211056437 
3.740000000003468, -1.0000128391817296 
3.750000000003489, -0.9997525562002791 
3.7600000000035103, -0.9995027278207285 
3.7700000000035314, -0.9992874609291275 
3.7800000000035525, -0.9989947645176738 
3.7900000000035736, -0.9988103879811864 
3.8000000000035947, -0.9985066441523616 
3.810000000003616, -0.9983219858258751 
3.820000000003637, -0.9980440459576717 
3.830000000003658, -0.9978247120640092 
3.840000000003679, -0.9975932322351346 
3.8500000000037002, -0.9973253984857678 
3.8600000000037213, -0.9971372503412441 
3.8700000000037424, -0.996840943572471 
3.8800000000037635, -0.9966712831377871 
3.8900000000037847, -0.9963858551864286 
3.9000000000038058, -0.9961981347320417 
3.910000000003827, -0.9959557994312829 
3.920000000003848, -0.9957219327649576 
3.930000000003869, -0.9955312786292881 
3.94000000000389, -0.9952552049809845 
3.9500000000039113, -0.9950996271699115 
3.9600000000039324, -0.9948166654638871 
3.9700000000039535, -0.994661182296875 
3.9800000000039746, -0.9944136235512415 
3.9900000000039957, -0.9942205142621584 
4.000000000004016, -0.9940302127745553 
4.010000000003993, -0.9937859567733959 
4.02000000000397, -0.9936463203687297 
4.030000000003946, -0.9933756069847426 
4.040000000003923, -0.9932553524392689 
4.0500000000039, -0.9930070748743183 
4.0600000000038765, -0.992862095747509 
4.070000000003853, -0.9926745201218029 
4.08000000000383, -0.9924739594822265 
4.090000000003807, -0.9923533407604712 
4.100000000003783, -0.9921059158307991 
4.11000000000376, -0.9920274261911224 
4.120000000003737, -0.9917821807153443 
4.130000000003713, -0.9916967090541139 
4.14000000000369, -0.9915119088477852 
4.150000000003667, -0.991370360459128 
4.1600000000036434, -0.9912708901322723 
4.17000000000362, -0.9910615089292998 
4.180000000003597, -0.9910337622030941 
4.1900000000035735, -0.9907971129571299 
4.20000000000355, -0.9907893298219832 
4.210000000003527, -0.9906041537285208 
4.220000000003504, -0.9905451606127745 
4.23000000000348, -0.9904656643112416 
4.240000000003457, -0.9903166100765836 
4.250000000003434, -0.9903480327762645 
4.26000000000341, -0.9901318130764312 
4.270000000003387, -0.9902272022022601 
4.280000000003364, -0.990036571523326 
4.2900000000033405, -0.9900977770229261 
4.300000000003317, -0.9900307391036973 
4.310000000003294, -0.989978141752211 
4.320000000003271, -0.9900720864153324 
4.330000000003247, -0.989900345769021 
4.340000000003224, -0.9901270395239827 
4.350000000003201, -0.9899291896823761 
4.360000000003177, -0.9901663649121089 
4.370000000003154, -0.9900946899867246 
4.380000000003131, -0.9901977042628207 
4.390000000003107, -0.9903449888824446 
4.400000000003084, -0.9902621068281952 
4.410000000003061, -0.9906377173720821 
4.4200000000030375, -0.9904443817641725 
4.430000000003014, -0.9909234422511446 
4.440000000002991, -0.9908218019596481 
4.450000000002968, -0.9911692011526054 
4.460000000002944, -0.9913361149210217 
4.470000000002921, -0.9914169943860248 
4.480000000002898, -0.9919249001268511 
4.490000000002874, -0.9917748239808541 
4.500000000002851, -0.9925333968001394 
4.510000000002828, -0.9923830158831756 
4.520000000002804, -0.9930744775418797 
4.530000000002781, -0.9931957318538578 
4.540000000002758, -0.9935464427527274 
4.5500000000027345, -0.994105597195905 
4.560000000002711, -0.9940772725417215 
4.570000000002688, -0.9950543838252444 
4.580000000002665, -0.9948699880989434 
4.590000000002641, -0.9959335675535169 
4.600000000002618, -0.9959390702944407 
4.610000000002595, -0.9966516883339073 
4.620000000002571, -0.9971137063105451 
4.630000000002548, -0.9973159472480911 
4.640000000002525, -0.9983091654079395 
4.6500000000025015, -0.9981606566333512 
4.660000000002478, -0.9994353841137288 
4.670000000002455, -0.9993108340952691 
4.6800000000024315, -1.0003517584480985 
4.690000000002408, -1.0005818922433363 
4.700000000002385, -1.0010781956438752 
4.710000000002362, -1.0018288267245563 
4.720000000002338, -1.0018275175851914 
4.730000000002315, -1.00298351353634 
4.740000000002292, -1.0027968917739378 
4.750000000002268, -1.0039379945888156 
4.760000000002245, -1.0039223942533395 
4.770000000002222, -1.0046342523960012 
4.7800000000021985, -1.0050106864611934 
4.790000000002175, -1.0052132335417736 
4.800000000002152, -1.0059845092544508 
4.810000000002129, -1.0058514357990818 
4.820000000002105, -1.0067886701510338 
4.830000000002082, -1.0066239162149981 
4.840000000002059, -1.0073594782311404 
4.850000000002035, -1.0074133080797527 
4.860000000002012, -1.0077512921449792 
4.870000000001989, -1.0081053473923616 
4.880000000001965, -1.0080924688483517 
4.890000000001942, -1.0086619596135376 
4.900000000001919, -1.0084738411282468 
4.9100000000018955, -1.0090470672240197 
4.920000000001872, -1.0089087973252855 
4.930000000001849, -1.0092621952581027 
