t, s[1].omega / s[0].omega 
0, -1.300022178849336 
0.009999999999999995, -1.301882852140975 
0.019999999999999934, -1.3030877689420381 
0.029999999999999874, -1.3037370746488202 
0.04000000000000012, -1.3039417391582995 
0.050000000000000405, -1.303806412419092 
0.06000000000000069, -1.3034243684294782 
0.07000000000000098, -1.3028844837306868 
0.08000000000000126, -1.302282958512446 
0.09000000000000155, -1.3017253575441556 
0.10000000000000184, -1.3013080481450519 
0.11000000000000212, -1.3010893731709336 
0.12000000000000241, -1.3010748546141517 
0.130000000000002, -1.3012223367452216 
0.1400000000000009, -1.3014556217503102 
0.1499999999999998, -1.3016822208980712 
0.1599999999999987, -1.3018120763207333 
0.1699999999999976, -1.3017677173482896 
0.1799999999999965, -1.3014831943198737 
0.1899999999999954, -1.300899400870582 
0.1999999999999943, -1.2999631689515672 
0.2099999999999932, -1.2986313929530762 
0.2199999999999921, -1.2968778541957078 
0.229999999999991, -1.2947020694015454 
0.2399999999999899, -1.292143703135854 
0.2499999999999888, -1.2893075301449395 
0.2599999999999877, -1.2863959345116311 
0.2699999999999866, -1.283720116603763 
0.2799999999999855, -1.2816292465475612 
0.2899999999999844, -1.2803364481925326 
0.2999999999999833, -1.2797758036119062 
0.3099999999999822, -1.2796634388351718 
0.3199999999999811, -1.2796920671304615 
0.32999999999998, -1.2796491594647903 
0.3399999999999789, -1.2794059650827685 
0.3499999999999778, -1.2788511443625097 
0.35999999999997667, -1.2778190945597807 
0.36999999999997557, -1.2760139546082612 
0.37999999999997447, -1.2729191587880844 
0.38999999999997337, -1.267715801907632 
0.39999999999997227, -1.2593321012767829 
0.40999999999997117, -1.246902149886513 
0.41999999999997006, -1.2308667534995628 
0.42999999999996896, -1.2140850151197953 
0.43999999999996786, -1.2010153037500575 
0.44999999999996676, -1.1944455125333184 
0.45999999999996566, -1.193451647464563 
0.46999999999996456, -1.1951505474994728 
0.47999999999996346, -1.1972868261397938 
0.48999999999996235, -1.1989240786182758 
0.49999999999996125, -1.1999170362680391 
0.5099999999999602, -1.2003765032931466 
0.519999999999959, -1.2004247721157468 
0.529999999999958, -1.2001240886157478 
0.5399999999999568, -1.1994635108463894 
0.5499999999999557, -1.1983587656207866 
0.5599999999999546, -1.1966701217820375 
0.5699999999999535, -1.194297961518316 
0.5799999999999524, -1.191487681662697 
0.5899999999999513, -1.1894307845968541 
0.5999999999999502, -1.1906868617369484 
0.6099999999999491, -1.1980643068093375 
0.619999999999948, -1.211795912486859 
0.6299999999999469, -1.228411814711966 
0.6399999999999458, -1.2434708217266914 
0.6499999999999447, -1.254596815062405 
0.6599999999999436, -1.2617440553942205 
0.6699999999999425, -1.2659163335535055 
0.6799999999999414, -1.2681686599496946 
0.6899999999999403, -1.269260504422758 
0.6999999999999392, -1.269656076680255 
0.7099999999999381, -1.2696164517883122 
0.719999999999937, -1.2692879099974763 
0.7299999999999359, -1.2687757329653673 
0.7399999999999348, -1.2682167891316793 
0.7499999999999337, -1.267846361488139 
0.7599999999999326, -1.2679997706706096 
0.7699999999999315, -1.2689725857835028 
0.7799999999999304, -1.2708121258592673 
0.7899999999999293, -1.2732677202061797 
0.7999999999999282, -1.275954585625635 
0.8099999999999271, -1.2785377343615802 
0.819999999999926, -1.2808022666877712 
0.8299999999999249, -1.2826388925337802 
0.8399999999999238, -1.2840091702261103 
0.8499999999999227, -1.284919473949419 
0.8599999999999216, -1.2854054546416038 
0.8699999999999205, -1.2855211642194946 
0.8799999999999194, -1.2853298620863096 
0.8899999999999183, -1.2848984142860327 
0.8999999999999172, -1.28429813842252 
0.9099999999999161, -1.2836102744502118 
0.919999999999915, -1.282927454146691 
0.9299999999999139, -1.282342232250676 
0.9399999999999128, -1.2819258210338997 
0.9499999999999117, -1.281710653553038 
0.9599999999999106, -1.281682908405658 
0.9699999999999095, -1.281783915958557 
0.9799999999999084, -1.2819241949894546 
0.9899999999999073, -1.282006857265308 
0.9999999999999062, -1.28194422216385 
1.0099999999999052, -1.281659117233103 
1.019999999999904, -1.2810783602984563 
1.029999999999903, -1.280129479638958 
1.039999999999902, -1.2787453367025503 
1.0499999999999008, -1.2768747022517004 
1.0599999999998997, -1.2744952230377464 
1.0699999999998986, -1.2716293399722047 
1.0799999999998975, -1.2683688464225056 
1.0899999999998964, -1.2649105304601296 
1.0999999999998953, -1.2615825628907442 
1.1099999999998942, -1.258801033208742 
1.119999999999893, -1.2569015611973975 
1.129999999999892, -1.2559342177478596 
1.1399999999998909, -1.2556423543619943 
1.1499999999998898, -1.2556603096282006 
1.1599999999998887, -1.2557029012696557 
1.1699999999998876, -1.2556039551561944 
1.1799999999998865, -1.2552587091415108 
1.1899999999998854, -1.2545499687919768 
1.1999999999998843, -1.253278186156967 
1.2099999999998832, -1.2510829468654323 
1.219999999999882, -1.2473509057641547 
1.229999999999881, -1.241158709660983 
1.2399999999998799, -1.2314237058488815 
1.2499999999998788, -1.2175670885989875 
1.2599999999998777, -1.2007352178252062 
1.2699999999998766, -1.1844766605800503 
1.2799999999998755, -1.1730354301026078 
1.2899999999998744, -1.1681044788843207 
1.2999999999998733, -1.1679833883466206 
1.3099999999998722, -1.1698662861020046 
1.319999999999871, -1.171889781012742 
1.32999999999987, -1.173369355131498 
1.3399999999998689, -1.174240664103453 
1.3499999999998678, -1.174618401021861 
1.3599999999998666, -1.1746094142354802 
1.3699999999998655, -1.1742595579702266 
1.3799999999998644, -1.17354207244848 
1.3899999999998633, -1.172352851573168 
1.3999999999998622, -1.1705186781873205 
1.4099999999998611, -1.1678738428430655 
1.41999999999986, -1.1645354205126475 
1.429999999999859, -1.1615015231003458 
1.4399999999998578, -1.1612257855859833 
1.4499999999998567, -1.1668470202502672 
1.4599999999998556, -1.179384621142222 
1.4699999999998545, -1.195856327363617 
1.4799999999998534, -1.211510612538442 
1.4899999999998523, -1.2233804964440842 
1.4999999999998512, -1.2311028548610208 
1.5099999999998501, -1.2356430906077744 
1.519999999999849, -1.2381166820727494 
1.529999999999848, -1.2393434942242307 
1.5399999999998468, -1.2398258645796085 
1.5499999999998457, -1.2398435008949993 
1.5599999999998446, -1.2395455381848692 
1.5699999999998435, -1.239023658276585 
1.5799999999998424, -1.2383845421875828 
1.5899999999998413, -1.2378366294817007 
1.5999999999998402, -1.237756881544813 
1.6099999999998391, -1.2386227929676716 
1.619999999999838, -1.2407436128299614 
1.629999999999837, -1.2440037689866452 
1.6399999999998358, -1.2479171959851196 
1.6499999999998347, -1.2519146929029588 
1.6599999999998336, -1.2555637247921188 
1.6699999999998325, -1.2586187432660902 
1.6799999999998314, -1.2609831829537055 
1.6899999999998303, -1.2626608166149904 
1.6999999999998292, -1.2637184770927765 
1.709999999999828, -1.2642563458377354 
1.719999999999827, -1.2643831306152373 
1.729999999999826, -1.2642000377817166 
1.7399999999998248, -1.2637977439955232 
1.7499999999998237, -1.2632651221079143 
1.7599999999998226, -1.2627008783219589 
1.7699999999998215, -1.2622130222843349 
1.7799999999998204, -1.261896446830947 
1.7899999999998193, -1.261801602411651 
1.7999999999998182, -1.2619209018889659 
1.809999999999817, -1.2621993618041372 
1.819999999999816, -1.262554627416837 
1.8299999999998149, -1.2628963504679844 
1.8399999999998138, -1.2631417869975263 
1.8499999999998127, -1.2632235770257363 
1.8599999999998116, -1.2630895620177949 
1.8699999999998105, -1.2626998965360468 
1.8799999999998094, -1.2620258390251207 
1.8899999999998083, -1.261050621454435 
1.8999999999998072, -1.259771259704604 
1.909999999999806, -1.258201663826624 
1.919999999999805, -1.2563790542590794 
1.9299999999998039, -1.2543751592037486 
1.9399999999998028, -1.2523102158686208 
1.9499999999998017, -1.250359764705429 
1.9599999999998006, -1.2487314437395272 
1.9699999999997995, -1.2475910382409836 
1.9799999999997984, -1.2469690872128714 
1.9899999999997973, -1.2467379851622478 
1.9999999999997962, -1.2466920941124005 
2.0099999999998173, -1.2466447829161968 
2.0199999999998384, -1.2464609637338655 
2.0299999999998595, -1.2460308533114974 
2.0399999999998806, -1.2452229059851878 
2.0499999999999017, -1.2438354071809028 
2.059999999999923, -1.2415531486929292 
2.069999999999944, -1.2379259598815928 
2.079999999999965, -1.2324129867734435 
2.089999999999986, -1.2245580401239209 
2.100000000000007, -1.2143322308896416 
2.1100000000000283, -1.2025461644943578 
2.1200000000000494, -1.1909888120037757 
2.1300000000000705, -1.1818262464807012 
2.1400000000000916, -1.1763560986950758 
2.1500000000001127, -1.174256365569182 
2.160000000000134, -1.1741721993887748 
2.170000000000155, -1.1748177000028615 
2.180000000000176, -1.1754748775125365 
2.190000000000197, -1.1758829995354667 
2.2000000000002182, -1.1759902822047679 
2.2100000000002393, -1.1757918672985386 
2.2200000000002604, -1.1752518890809065 
2.2300000000002815, -1.1742589190828137 
2.2400000000003026, -1.172580512956462 
2.2500000000003237, -1.1698084669561113 
2.260000000000345, -1.1653344703183752 
2.270000000000366, -1.158506161377061 
2.280000000000387, -1.1492476285548312 
2.290000000000408, -1.1391729399157082 
2.3000000000004293, -1.1319706800627878 
2.3100000000004504, -1.131151522274528 
2.3200000000004715, -1.1366718285684718 
2.3300000000004926, -1.1450680355138898 
2.3400000000005137, -1.152836462727508 
2.3500000000005348, -1.1584682896492693 
2.360000000000556, -1.1620100824809243 
2.370000000000577, -1.1640310606455035 
2.380000000000598, -1.1650652028486712 
2.390000000000619, -1.1654709553389948 
2.4000000000006403, -1.1654504035947932 
2.4100000000006614, -1.1650954895484094 
2.4200000000006825, -1.1644266389753937 
2.4300000000007036, -1.1634325991113417 
2.4400000000007247, -1.1621468163193853 
2.450000000000746, -1.160817403462312 
2.460000000000767, -1.1601882069506384 
2.470000000000788, -1.1616735327380185 
2.480000000000809, -1.16688429777401 
2.49000000000083, -1.176369244608302 
2.5000000000008513, -1.188761548916499 
2.5100000000008724, -1.2015184975950999 
2.5200000000008935, -1.2124661015768532 
2.5300000000009146, -1.2206349235670881 
2.5400000000009357, -1.2261033114431505 
2.550000000000957, -1.2294531927173258 
2.560000000000978, -1.2313340615994612 
2.570000000000999, -1.232262141247814 
2.58000000000102, -1.2325849611014674 
2.5900000000010412, -1.2325168342011215 
2.6000000000010624, -1.2321913482609352 
2.6100000000010835, -1.2317150128861332 
2.6200000000011046, -1.2312207915858253 
2.6300000000011257, -1.2309073729329996 
2.6400000000011468, -1.231021269226891 
2.650000000001168, -1.2317524962196318 
2.660000000001189, -1.2331143782053562 
2.67000000000121, -1.234932916671321 
2.680000000001231, -1.2369509190456194 
2.6900000000012523, -1.238935804754256 
2.7000000000012734, -1.240724179775788 
2.7100000000012945, -1.2422183363347379 
2.7200000000013156, -1.2433683109372649 
2.7300000000013367, -1.2441570020157546 
2.740000000001358, -1.2445916068047467 
2.750000000001379, -1.2446984903712812 
2.7600000000014, -1.2445183474259967 
2.770000000001421, -1.2441017383699515 
2.780000000001442, -1.2435076750018736 
2.7900000000014633, -1.2428062260343657 
2.8000000000014844, -1.242080604931224 
2.8100000000015055, -1.2414207490765157 
2.8200000000015266, -1.2409061724349755 
2.8300000000015477, -1.2405866622227044 
2.840000000001569, -1.240469900844723 
2.85000000000159, -1.240518006418457 
2.860000000001611, -1.2406555994143622 
2.870000000001632, -1.2407900094502373 
2.8800000000016532, -1.2408320725859316 
2.8900000000016743, -1.24070479812267 
2.9000000000016954, -1.240340822258435 
2.9100000000017165, -1.239678325837444 
2.9200000000017377, -1.2386622885433294 
2.9300000000017588, -1.237251144114696 
2.94000000000178, -1.2354250431882252 
2.950000000001801, -1.2331935125011146 
2.960000000001822, -1.2306049461981372 
2.970000000001843, -1.2277623528689445 
2.9800000000018643, -1.2248440589957483 
2.9900000000018854, -1.2221115653241514 
3.0000000000019065, -1.2198661077563844 
3.0100000000019276, -1.2183301914288704 
3.0200000000019487, -1.2175200463289872 
3.03000000000197, -1.2172399473752733 
3.040000000001991, -1.2172128772352937 
3.050000000002012, -1.2172096079610686 
3.060000000002033, -1.2170817999311947 
3.070000000002054, -1.2167247923470483 
3.0800000000020753, -1.2160219670252606 
3.0900000000020964, -1.2147900004908252 
3.1000000000021175, -1.2127239545543604 
3.1100000000021386, -1.2093491384907347 
3.1200000000021597, -1.2040208316332843 
3.130000000002181, -1.1960624837610265 
3.140000000002202, -1.1851428453679889 
3.150000000002223, -1.1718467625476725 
3.160000000002244, -1.1580368597340953 
3.1700000000022652, -1.146347954275945 
3.1800000000022863, -1.1387377750033567 
3.1900000000023074, -1.1353210122942836 
3.2000000000023285, -1.1347231258220083 
3.2100000000023496, -1.135352415401385 
3.2200000000023707, -1.136194519140734 
3.230000000002392, -1.1368269075891873 
3.240000000002413, -1.1371465692286493 
3.250000000002434, -1.137155641659783 
3.260000000002455, -1.1368545431433317 
3.2700000000024763, -1.1361927155670704 
3.2800000000024974, -1.1350326075342192 
3.2900000000025185, -1.133103918273052 
3.3000000000025396, -1.1299481338893942 
3.3100000000025607, -1.1249019776833769 
3.3200000000025818, -1.1172746716653696 
3.330000000002603, -1.1069729303597213 
3.340000000002624, -1.095522418904023 
3.350000000002645, -1.0863346556348386 
3.360000000002666, -1.082720486022532 
3.3700000000026873, -1.0850551033164835 
3.3800000000027084, -1.090721101443663 
3.3900000000027295, -1.096699016345215 
3.4000000000027506, -1.1013865009713062 
3.4100000000027717, -1.1045120665688801 
3.420000000002793, -1.1063830498656944 
3.430000000002814, -1.1073845687599102 
3.440000000002835, -1.1078045318759155 
3.450000000002856, -1.107814064621073 
3.460000000002877, -1.1074886999558342 
3.4700000000028983, -1.10682843489093 
3.4800000000029194, -1.1057716875055545 
3.4900000000029405, -1.104220066663458 
3.5000000000029616, -1.102120530939808 
3.5100000000029827, -1.099690381365272 
3.520000000003004, -1.097840318384733 
3.530000000003025, -1.098539920628534 
3.540000000003046, -1.1042998626889406 
3.550000000003067, -1.1162516574352033 
3.5600000000030882, -1.1324462589140265 
3.5700000000031094, -1.1488584859534712 
3.5800000000031305, -1.162221578458056 
3.5900000000031516, -1.171494987835001 
3.6000000000031727, -1.177253947565612 
3.6100000000031938, -1.1805586487278306 
3.620000000003215, -1.1823193942064667 
3.630000000003236, -1.1831453986237526 
3.640000000003257, -1.1833962280925634 
3.650000000003278, -1.1832681067534692 
3.6600000000032993, -1.1828651508102614 
3.6700000000033204, -1.1822593214153116 
3.6800000000033415, -1.1815601151041109 
3.6900000000033626, -1.1810075428538087 
3.7000000000033837, -1.181049462428511 
3.710000000003405, -1.1822755501026685 
3.720000000003426, -1.1851154711504843 
3.730000000003447, -1.1895027406094825 
3.740000000003468, -1.1948645664237236 
3.750000000003489, -1.2004376671428787 
3.7600000000035103, -1.2055807271488739 
3.7700000000035314, -1.2098988447911616 
3.7800000000035525, -1.2132309135464108 
3.7900000000035736, -1.215591045577394 
3.8000000000035947, -1.2171030733062675 
3.810000000003616, -1.2179383856727029 
3.820000000003637, -1.2182670657099846 
3.830000000003658, -1.2182316608854027 
3.840000000003679, -1.217944565363119 
3.8500000000037002, -1.2175027560295564 
3.8600000000037213, -1.217009938756874 
3.8700000000037424, -1.2165906399899709 
3.8800000000037635, -1.2163766498319173 
3.8900000000037847, -1.2164626130099687 
3.9000000000038058, -1.216863982301836 
3.910000000003827, -1.2175164190109968 
3.920000000003848, -1.2183118510843278 
3.930000000003869, -1.2191369869742075 
3.94000000000389, -1.21989549684363 
3.9500000000039113, -1.2205154737543542 
3.9600000000039324, -1.220948395657956 
3.9700000000039535, -1.221164516093217 
3.9800000000039746, -1.2211481722074864 
3.9900000000039957, -1.220894762170739 
4.000000000004016, -1.2204097089273949 
4.010000000003993, -1.2197091125116963 
4.02000000000397, -1.2188218280042902 
4.030000000003946, -1.217792733954735 
4.040000000003923, -1.216685914362 
4.0500000000039, -1.2155846151781782 
4.0600000000038765, -1.2145844210629648 
4.070000000003853, -1.2137774134642945 
4.08000000000383, -1.2132266212455731 
4.090000000003807, -1.2129376964012053 
4.100000000003783, -1.2128487201486822 
4.11000000000376, -1.2128527910394482 
4.120000000003737, -1.2128355595236333 
4.130000000003713, -1.2126968370095828 
4.14000000000369, -1.212347852886948 
4.150000000003667, -1.2116972498276855 
4.1600000000036434, -1.210641134643211 
4.17000000000362, -1.2090661892215404 
4.180000000003597, -1.206867894396158 
4.1900000000035735, -1.203978858443517 
4.20000000000355, -1.2003988627161417 
4.210000000003527, -1.196223193656596 
4.220000000003504, -1.1916719867203356 
4.23000000000348, -1.1871126684672038 
4.240000000003457, -1.1830334154087334 
4.250000000003434, -1.1799071249653823 
4.26000000000341, -1.1779686401429648 
4.270000000003387, -1.17708586463308 
4.280000000003364, -1.176874824580577 
4.2900000000033405, -1.1769383747912174 
4.300000000003317, -1.1770065758523054 
4.310000000003294, -1.1769324893636912 
4.320000000003271, -1.1766263565652382 
4.330000000003247, -1.1759897766042855 
4.340000000003224, -1.1748590371089735 
4.350000000003201, -1.17294621234143 
4.360000000003177, -1.1697746649295477 
4.370000000003154, -1.1646403008584443 
4.380000000003131, -1.1566973988745244 
4.390000000003107, -1.1453275000631975 
4.400000000003084, -1.1308365582614233 
4.410000000003061, -1.1150616839771716 
4.4200000000030375, -1.1010088445418533 
4.430000000003014, -1.0912415477657968 
4.440000000002991, -1.086349891224213 
4.450000000002968, -1.0850547573645453 
4.460000000002944, -1.085546542477386 
4.470000000002921, -1.0865249478399945 
4.480000000002898, -1.0873750566833689 
4.490000000002874, -1.0879116346440876 
4.500000000002851, -1.088123176506993 
4.510000000002828, -1.0880307548569295 
4.520000000002804, -1.0876258972166724 
4.530000000002781, -1.0868378921617285 
4.540000000002758, -1.085499920755748 
4.5500000000027345, -1.0832992512070756 
4.560000000002711, -1.0797151031213148 
4.570000000002688, -1.0739930156013826 
4.580000000002665, -1.0653013090501995 
4.590000000002641, -1.0532978360922058 
4.600000000002618, -1.0390750830218145 
4.610000000002595, -1.0255702896121974 
4.620000000002571, -1.016187575676982 
4.630000000002548, -1.0124032326863772 
4.640000000002525, -1.0130280479751774 
4.6500000000025015, -1.0157186375794347 
4.660000000002478, -1.0186486988756553 
4.670000000002455, -1.0209853225141354 
4.6800000000024315, -1.0225687986052376 
4.690000000002408, -1.0235101855348394 
4.700000000002385, -1.0239645180935606 
4.710000000002362, -1.0240465676456012 
4.720000000002338, -1.0238103348531173 
4.730000000002315, -1.0232442617488302 
4.740000000002292, -1.0222609243063059 
4.750000000002268, -1.02067293505413 
4.760000000002245, -1.0181556886610137 
4.770000000002222, -1.014216859982033 
4.7800000000021985, -1.0082394089932607 
4.790000000002175, -0.9997335305475513 
4.800000000002152, -0.9889073185571886 
4.810000000002129, -0.9772916695885765 
4.820000000002105, -0.9675567050809807 
4.830000000002082, -0.9620135091695076 
4.840000000002059, -0.961037372518895 
4.850000000002035, -0.9631394318508425 
4.860000000002012, -0.966364146372468 
4.870000000001989, -0.9693886273579887 
4.880000000001965, -0.9716893468773199 
4.890000000001942, -0.9732288456423941 
4.900000000001919, -0.9741471004550171 
4.9100000000018955, -0.9745978287106626 
4.920000000001872, -0.9746899450503443 
4.930000000001849, -0.9744742945299663 
4.940000000001826, -0.973940054041479 
