t, s[1].omega / s[0].omega 
0, -1.0599980254573114 
0.009999999999999995, -1.059699420400687 
0.019999999999999934, -1.0591990263654687 
0.029999999999999874, -1.0585071252437965 
0.04000000000000012, -1.0576725771848507 
0.050000000000000405, -1.0567948624920311 
0.06000000000000069, -1.0560071513336413 
0.07000000000000098, -1.0554338667648302 
0.08000000000000126, -1.055149846773152 
0.09000000000000155, -1.055148727079668 
0.10000000000000184, -1.055326059398563 
0.11000000000000212, -1.0555190228374913 
0.12000000000000241, -1.0555776294419765 
0.130000000000002, -1.055402915545787 
0.1400000000000009, -1.0549554113277968 
0.1499999999999998, -1.0542487229298598 
0.1599999999999987, -1.0533213970590969 
0.1699999999999976, -1.0522094987458597 
0.1799999999999965, -1.0509516610560683 
0.1899999999999954, -1.0496155810791468 
0.1999999999999943, -1.0483132856128434 
0.2099999999999932, -1.0471910453067022 
0.2199999999999921, -1.0463950110862859 
0.229999999999991, -1.0460001713229945 
0.2399999999999899, -1.0459333249740124 
0.2499999999999888, -1.0459980043110044 
0.2599999999999877, -1.0459843182454513 
0.2699999999999866, -1.0457300496209203 
0.2799999999999855, -1.0451246735288189 
0.2899999999999844, -1.0441232648742498 
0.2999999999999833, -1.0427610493520185 
0.3099999999999822, -1.0411215809450678 
0.3199999999999811, -1.0392880762845338 
0.32999999999998, -1.037337978955524 
0.3399999999999789, -1.0353751155632491 
0.3499999999999778, -1.0335588287862103 
0.35999999999997667, -1.0320984019937398 
0.36999999999997557, -1.0311723484331996 
0.37999999999997447, -1.0307848254753353 
0.38999999999997337, -1.030728127420408 
0.39999999999997227, -1.0307244778780198 
0.40999999999997117, -1.0305487788192549 
0.41999999999997006, -1.0300302095198743 
0.42999999999996896, -1.0290346669791155 
0.43999999999996786, -1.0275047409190854 
0.44999999999996676, -1.0255015808774914 
0.45999999999996566, -1.0231630741265618 
0.46999999999996456, -1.0206272271022652 
0.47999999999996346, -1.018018034451651 
0.48999999999996235, -1.0154893124166524 
0.49999999999996125, -1.0132647979054428 
0.5099999999999602, -1.0116075126175472 
0.519999999999959, -1.010669248505196 
0.529999999999958, -1.01033683411515 
0.5399999999999568, -1.0103001568575924 
0.5499999999999557, -1.0102548438485586 
0.5599999999999546, -1.009981582323803 
0.5699999999999535, -1.0093057860564134 
0.5799999999999524, -1.0080813413867047 
0.5899999999999513, -1.0062536141871654 
0.5999999999999502, -1.0039131775068877 
0.6099999999999491, -1.0012384175116522 
0.619999999999948, -0.9983998982919694 
0.6299999999999469, -0.9955442680057918 
0.6399999999999458, -0.9928438562261805 
0.6499999999999447, -0.9905347253062072 
0.6599999999999436, -0.9888699114118464 
0.6699999999999425, -0.9879604683632855 
0.6799999999999414, -0.9876515031962958 
0.6899999999999403, -0.9876217646101851 
0.6999999999999392, -0.9875762195689254 
0.7099999999999381, -0.9873068166519664 
0.719999999999937, -0.9866521319456432 
0.7299999999999359, -0.9854880567310949 
0.7399999999999348, -0.9837870394599746 
0.7499999999999337, -0.9816541979392975 
0.7599999999999326, -0.9792601778274956 
0.7699999999999315, -0.9767543207265993 
0.7799999999999304, -0.9742567149611212 
0.7899999999999293, -0.9719030976645121 
0.7999999999999282, -0.9698757040557708 
0.8099999999999271, -0.9683739186138641 
0.819999999999926, -0.9675058681451559 
0.8299999999999249, -0.9671812439965247 
0.8399999999999238, -0.9671504736183062 
0.8499999999999227, -0.9671510587469246 
0.8599999999999216, -0.9669874045546474 
0.8699999999999205, -0.9665216013463682 
0.8799999999999194, -0.9656681775722477 
0.8899999999999183, -0.9644264693749266 
0.8999999999999172, -0.962886723989441 
0.9099999999999161, -0.9611696061559273 
0.919999999999915, -0.9593691962211893 
0.9299999999999139, -0.9575580465664201 
0.9399999999999128, -0.9558235231197729 
0.9499999999999117, -0.9542871955364057 
0.9599999999999106, -0.9530890200286952 
0.9699999999999095, -0.9523335781457742 
0.9799999999999084, -0.9520164915771822 
0.9899999999999073, -0.9520011805411991 
0.9999999999999062, -0.9520881357534289 
1.0099999999999052, -0.9521010233841766 
1.019999999999904, -0.9519191132466022 
1.029999999999903, -0.951481779384393 
1.039999999999902, -0.9507951143818388 
1.0499999999999008, -0.9499165583193053 
1.0599999999998997, -0.9489089055877223 
1.0699999999998986, -0.9478117203905667 
1.0799999999998975, -0.9466576639206 
1.0899999999998964, -0.945504523304346 
1.0999999999998953, -0.9444469114358187 
1.1099999999998942, -0.9435975283889586 
1.119999999999893, -0.943049651236208 
1.129999999999892, -0.9428374816664659 
1.1399999999998909, -0.9429099682560557 
1.1499999999998898, -0.9431436870696357 
1.1599999999998887, -0.943396398657952 
1.1699999999998876, -0.9435580365760646 
1.1799999999998865, -0.9435722512126425 
1.1899999999998854, -0.9434338208227218 
1.1999999999998843, -0.9431635108753522 
1.2099999999998832, -0.9427732473667237 
1.219999999999882, -0.9422568466680566 
1.229999999999881, -0.9416162574260539 
1.2399999999998799, -0.9408931024053693 
1.2499999999998788, -0.9401796008394042 
1.2599999999998777, -0.9396023655369846 
1.2699999999998766, -0.9392790199687944 
1.2799999999998755, -0.9392698867687613 
1.2899999999998744, -0.9395583650674226 
1.2999999999998733, -0.9400637593395392 
1.3099999999998722, -0.940674259788503 
1.319999999999871, -0.9412879577064787 
1.32999999999987, -0.9418406169978951 
1.3399999999998689, -0.9423042484940864 
1.3499999999998678, -0.9426591885123311 
1.3599999999998666, -0.9428658654021648 
1.3699999999998655, -0.9428723988809338 
1.3799999999998644, -0.9426556794013609 
1.3899999999998633, -0.942251245685923 
1.3999999999998622, -0.9417558396815803 
1.4099999999998611, -0.9413217908385707 
1.41999999999986, -0.941131652648311 
1.429999999999859, -0.941328383945062 
1.4399999999998578, -0.94194584403062 
1.4499999999998567, -0.9429107457871391 
1.4599999999998556, -0.9441001313145868 
1.4699999999998545, -0.945395435611186 
1.4799999999998534, -0.9467086207223465 
1.4899999999998523, -0.9479751442278991 
1.4999999999998512, -0.9491200037028478 
1.5099999999998501, -0.9500341489302472 
1.519999999999849, -0.9506085871315408 
1.529999999999848, -0.9508041180002531 
1.5399999999998468, -0.9506735845130796 
1.5499999999998457, -0.9503323543671481 
1.5599999999998446, -0.9499482917535662 
1.5699999999998435, -0.9497604504476722 
1.5799999999998424, -0.9500450293758929 
1.5899999999998413, -0.9509827021603572 
1.5999999999998402, -0.9525530983941852 
1.6099999999998391, -0.95458585542804 
1.619999999999838, -0.9568838192840913 
1.629999999999837, -0.9592880107643439 
1.6399999999998358, -0.9616641249893106 
1.6499999999998347, -0.9638501589493603 
1.6599999999998336, -0.9656370819426725 
1.6699999999998325, -0.9668491189424692 
1.6799999999998314, -0.9674556237605819 
1.6899999999998303, -0.9675675064799262 
1.6999999999998292, -0.9673486843427807 
1.709999999999828, -0.9669833293195224 
1.719999999999827, -0.9667315067664043 
1.729999999999826, -0.9669735909360614 
1.7399999999998248, -0.9680871491280073 
1.7499999999998237, -0.970196070983839 
1.7599999999998226, -0.9731051304762889 
1.7699999999998215, -0.9764883202238883 
1.7799999999998204, -0.9800566194033226 
1.7899999999998193, -0.9835676796155601 
1.7999999999998182, -0.9867541221190761 
1.809999999999817, -0.9893105671227217 
1.819999999999816, -0.9910245159783899 
1.8299999999998149, -0.9919132237470404 
1.8399999999998138, -0.9921697814404505 
1.8499999999998127, -0.9920163851580818 
1.8599999999998116, -0.9916592017792307 
1.8699999999998105, -0.9913683564462875 
1.8799999999998094, -0.9915704631474276 
1.8899999999998083, -0.9927452231733042 
1.8999999999998072, -0.9950931905870876 
1.909999999999806, -0.9983867517671827 
1.919999999999805, -1.002202758789907 
1.9299999999998039, -1.006168160463302 
1.9399999999998028, -1.0099889100376775 
1.9499999999998017, -1.0133700844091593 
1.9599999999998006, -1.0160068239977282 
1.9699999999997995, -1.0177210815164581 
1.9799999999997984, -1.018576940759424 
1.9899999999997973, -1.0187975801415783 
1.9999999999997962, -1.0186171961235664 
2.0099999999998173, -1.018252386536769 
2.0199999999998384, -1.0179912888408729 
2.0299999999998595, -1.0182597415352799 
2.0399999999998806, -1.0194584507174602 
2.0499999999999017, -1.0216494482313723 
2.059999999999923, -1.0245310556371832 
2.069999999999944, -1.027713544189554 
2.079999999999965, -1.0309014774299563 
2.089999999999986, -1.0338809265502182 
2.100000000000007, -1.0364450912037262 
2.1100000000000283, -1.0383860375596368 
2.1200000000000494, -1.0395911171789092 
2.1300000000000705, -1.0401196912713484 
2.1400000000000916, -1.0401453615665257 
2.1500000000001127, -1.0398634959446098 
2.160000000000134, -1.03948985305489 
2.170000000000155, -1.039319447384423 
2.180000000000176, -1.0396893970272603 
2.190000000000197, -1.04077095936331 
2.2000000000002182, -1.0424421816785896 
2.2100000000002393, -1.0444286974099004 
2.2200000000002604, -1.0464870626821365 
2.2300000000002815, -1.048456463078533 
2.2400000000003026, -1.0502258750097633 
2.2500000000003237, -1.051687296418689 
2.260000000000345, -1.0527284615802 
2.270000000000366, -1.0532859054704844 
2.280000000000387, -1.0533934961885112 
2.290000000000408, -1.0531643559291384 
2.3000000000004293, -1.0527569707031648 
2.3100000000004504, -1.052380158253734 
2.3200000000004715, -1.0522778548910356 
2.3300000000004926, -1.0526169356622872 
2.3400000000005137, -1.0533822170024554 
2.3500000000005348, -1.0544235504064021 
2.360000000000556, -1.0555671365890418 
2.370000000000577, -1.056674433947757 
2.380000000000598, -1.0576555435946176 
2.390000000000619, -1.058456379810579 
2.4000000000006403, -1.0590307588265848 
2.4100000000006614, -1.0593280891705341 
2.4200000000006825, -1.059318004998807 
2.4300000000007036, -1.0590239754736344 
2.4400000000007247, -1.0585314556181282 
2.450000000000746, -1.057981838333873 
2.460000000000767, -1.0575523464106362 
2.470000000000788, -1.0573906230980323 
2.480000000000809, -1.0575431668068698 
2.49000000000083, -1.0579545582738483 
2.5000000000008513, -1.0585098959590196 
2.5100000000008724, -1.059075088996748 
2.5200000000008935, -1.059537386281882 
2.5300000000009146, -1.0598307168646193 
2.5400000000009357, -1.0599312547832596 
2.550000000000957, -1.0598324263934322 
2.560000000000978, -1.0595251911411907 
2.570000000000999, -1.059006877123845 
2.58000000000102, -1.0583084867354926 
2.5900000000010412, -1.0575128346147804 
2.6000000000010624, -1.0567483179049173 
2.6100000000010835, -1.0561513931427835 
2.6200000000011046, -1.055816997517634 
2.6300000000011257, -1.05576844614088 
2.6400000000011468, -1.0559415827612384 
2.650000000001168, -1.0561979152836758 
2.660000000001189, -1.0563836992464402 
2.67000000000121, -1.0563838862516333 
2.680000000001231, -1.0561405109929698 
2.6900000000012523, -1.055649373947151 
2.7000000000012734, -1.0549371424747165 
2.7100000000012945, -1.0540323047828957 
2.7200000000013156, -1.0529621233789659 
2.7300000000013367, -1.051776510090615 
2.740000000001358, -1.0505683888083257 
2.750000000001379, -1.049468795412379 
2.7600000000014, -1.0486192187598673 
2.770000000001421, -1.0481238809265796 
2.780000000001442, -1.0479783086518604 
2.7900000000014633, -1.048040976233794 
2.8000000000014844, -1.048109167389511 
2.8100000000015055, -1.0480073535268022 
2.8200000000015266, -1.0476124950653833 
2.8300000000015477, -1.0468608400165762 
2.840000000001569, -1.0457612905582152 
2.85000000000159, -1.0443778611522194 
2.860000000001611, -1.0427840581667798 
2.870000000001632, -1.0410452837924418 
2.8800000000016532, -1.0392425975101143 
2.8900000000016743, -1.03750254469275 
2.9000000000016954, -1.0360042355437205 
2.9100000000017165, -1.0349384746970078 
2.9200000000017377, -1.0343934021738608 
2.9300000000017588, -1.0342545322134151 
2.94000000000178, -1.034270496542019 
2.950000000001801, -1.0341991030532427 
2.960000000001822, -1.0338575071700422 
2.970000000001843, -1.0331049431773405 
2.9800000000018643, -1.0318593526935973 
2.9900000000018854, -1.030141795119806 
3.0000000000019065, -1.0280625367457075 
3.0100000000019276, -1.0257500126957921 
3.0200000000019487, -1.023316636461734 
3.03000000000197, -1.0208884415698292 
3.040000000001991, -1.018649959796681 
3.050000000002012, -1.0168477893595562 
3.060000000002033, -1.0156926576993217 
3.070000000002054, -1.0151862681223387 
3.0800000000020753, -1.015085334905019 
3.0900000000020964, -1.015075173134021 
3.1000000000021175, -1.0149101610923201 
3.1100000000021386, -1.0144069298048781 
3.1200000000021597, -1.0134095233223512 
3.130000000002181, -1.011826226719291 
3.140000000002202, -1.0096975315049728 
3.150000000002223, -1.0071769659372751 
3.160000000002244, -1.0044361040169207 
3.1700000000022652, -1.0016202452430265 
3.1800000000022863, -0.9988841802069005 
3.1900000000023074, -0.9964419431683743 
3.2000000000023285, -0.9945560639264024 
3.2100000000023496, -0.9934096713363685 
3.2200000000023707, -0.9929398082242652 
3.230000000002392, -0.9928570422577909 
3.240000000002413, -0.9928414769855551 
3.250000000002434, -0.9926578368828017 
3.260000000002455, -0.9921317435296636 
3.2700000000024763, -0.9911186939096265 
3.2800000000024974, -0.9895470785530108 
3.2900000000025185, -0.9874793416327029 
3.3000000000025396, -0.9850786601262798 
3.3100000000025607, -0.9825114485653413 
3.3200000000025818, -0.9799095193376077 
3.330000000002603, -0.977406360381241 
3.340000000002624, -0.9751802487230845 
3.350000000002645, -0.9734463127000973 
3.360000000002666, -0.9723612026651021 
3.3700000000026873, -0.9718901176838622 
3.3800000000027084, -0.9718003193951954 
3.3900000000027295, -0.9718078272094504 
3.4000000000027506, -0.9716909645118024 
3.4100000000027717, -0.9712925978297123 
3.420000000002793, -0.9705016013277934 
3.430000000002814, -0.969281038315691 
3.440000000002835, -0.9676981913003123 
3.450000000002856, -0.965882221976225 
3.460000000002877, -0.9639498825251617 
3.4700000000028983, -0.96198690458226 
3.4800000000029194, -0.9600811978530915 
3.4900000000029405, -0.9583533697877126 
3.5000000000029616, -0.9569531053430194 
3.5100000000029827, -0.9560106873958374 
3.520000000003004, -0.9555534487844471 
3.530000000003025, -0.9554597566181864 
3.540000000003046, -0.9555196926966388 
3.550000000003067, -0.955535616524193 
3.5600000000030882, -0.9553657415378634 
3.5700000000031094, -0.9549263738236639 
3.5800000000031305, -0.9542010432788521 
3.5900000000031516, -0.9532405142486874 
3.6000000000031727, -0.9521220605044937 
3.6100000000031938, -0.9509043215648157 
3.620000000003215, -0.9496273628444214 
3.630000000003236, -0.948344330777178 
3.640000000003257, -0.9471427376220173 
3.650000000003278, -0.9461355742855433 
3.6600000000032993, -0.94542826738223 
3.6700000000033204, -0.9450749864062343 
3.6800000000033415, -0.9450407845395487 
3.6900000000033626, -0.9452038488281119 
3.7000000000033837, -0.9454099535828762 
3.710000000003405, -0.9455314375453571 
3.720000000003426, -0.9454941203276949 
3.730000000003447, -0.9452808547409426 
3.740000000003468, -0.9449151807824754 
3.750000000003489, -0.9444253058279725 
3.7600000000035103, -0.9438199468177746 
3.7700000000035314, -0.9431024402840499 
3.7800000000035525, -0.9423038539480366 
3.7900000000035736, -0.9415020248199913 
3.8000000000035947, -0.9408126920945461 
3.810000000003616, -0.9403527404179883 
3.820000000003637, -0.9401940293854282 
3.830000000003658, -0.9403370222437821 
3.840000000003679, -0.9407126768738747 
3.8500000000037002, -0.9412091240625804 
3.8600000000037213, -0.9417148927258671 
3.8700000000037424, -0.9421542200208467 
3.8800000000037635, -0.9424949607493526 
3.8900000000037847, -0.9427277368223564 
3.9000000000038058, -0.9428331977082645 
3.910000000003827, -0.942772484693954 
3.920000000003848, -0.9425167143082913 
3.930000000003869, -0.9420834982424527 
3.94000000000389, -0.9415499107988637 
3.9500000000039113, -0.9410487052087622 
3.9600000000039324, -0.9407456227343485 
3.9700000000039535, -0.9407797643210208 
3.9800000000039746, -0.941198837327499 
3.9900000000039957, -0.9419506366594232 
4.000000000004016, -0.9429264909582624 
4.010000000003993, -0.9440108039123932 
4.02000000000397, -0.9451135741137111 
4.030000000003946, -0.9461756974950097 
4.040000000003923, -0.9471438561859385 
4.0500000000039, -0.9479384988852352 
4.0600000000038765, -0.9484616608937414 
4.070000000003853, -0.9486538970907802 
4.08000000000383, -0.9485362864830247 
4.090000000003807, -0.9481999629117708 
4.100000000003783, -0.947791156860535 
4.11000000000376, -0.9475196869331944 
4.120000000003737, -0.9476342010859332 
4.130000000003713, -0.9483144200605131 
4.14000000000369, -0.9495696559272526 
4.150000000003667, -0.9512648300039842 
4.1600000000036434, -0.9532246833590553 
4.17000000000362, -0.955302692018815 
4.180000000003597, -0.9573844359876508 
4.1900000000035735, -0.9593466552012927 
4.20000000000355, -0.9610205080487945 
4.210000000003527, -0.9622292390147862 
4.220000000003504, -0.9628924409505474 
4.23000000000348, -0.9630688559584523 
4.240000000003457, -0.962896198011234 
4.250000000003434, -0.9625416148040273 
4.26000000000341, -0.9622316818598654 
4.270000000003387, -0.9622988989533587 
4.280000000003364, -0.9631038453228058 
4.2900000000033405, -0.9648179020177475 
4.300000000003317, -0.9673178699483318 
4.310000000003294, -0.9703228765763152 
4.320000000003271, -0.9735643396675071 
4.330000000003247, -0.9768251196184068 
4.340000000003224, -0.9798812795644603 
4.350000000003201, -0.9824576330353144 
4.360000000003177, -0.9843060333726713 
4.370000000003154, -0.9853586533292006 
4.380000000003131, -0.9857484481588698 
4.390000000003107, -0.9856826465241951 
4.400000000003084, -0.9853603493863382 
4.410000000003061, -0.9850165369887375 
4.4200000000030375, -0.9850208076208179 
4.430000000003014, -0.9858491217407808 
4.440000000002991, -0.9878066895172785 
4.450000000002968, -0.990791161657153 
4.460000000002944, -0.9944258582409866 
4.470000000002921, -0.9983273833490095 
4.480000000002898, -1.0021939295264575 
4.490000000002874, -1.0057408597757145 
4.500000000002851, -1.008653561093541 
4.510000000002828, -1.0106852302997433 
4.520000000002804, -1.0118131179836416 
4.530000000002781, -1.0122236830727387 
4.540000000002758, -1.0121575417417392 
4.5500000000027345, -1.0118301399056044 
4.560000000002711, -1.0114910017025127 
4.570000000002688, -1.0115258029152137 
4.580000000002665, -1.0123975150436453 
4.590000000002641, -1.0143381885046774 
4.600000000002618, -1.0171611423611904 
4.610000000002595, -1.0204647789797074 
4.620000000002571, -1.0238941824073444 
4.630000000002548, -1.027194789745871 
4.640000000002525, -1.0301409401495112 
4.6500000000025015, -1.032494224084813 
4.660000000002478, -1.0340804895235416 
4.670000000002455, -1.0349034613826247 
4.6800000000024315, -1.0351250527025015 
4.690000000002408, -1.0349511989526081 
4.700000000002385, -1.0345882620645586 
4.710000000002362, -1.034301098651468 
4.720000000002338, -1.0344483562528912 
4.730000000002315, -1.0353302270775042 
4.740000000002292, -1.03695696403403 
4.750000000002268, -1.0390735601683654 
4.760000000002245, -1.0413818186210488 
4.770000000002222, -1.0436664511796503 
4.7800000000021985, -1.0457849835236654 
4.790000000002175, -1.0476124432148235 
4.800000000002152, -1.0490140250580322 
4.810000000002129, -1.0498893802873817 
4.820000000002105, -1.050241487362797 
4.830000000002082, -1.0501746300346124 
4.840000000002059, -1.0498432100238106 
4.850000000002035, -1.0494414850622937 
4.860000000002012, -1.0492213918999544 
4.870000000001989, -1.0494263837206064 
4.880000000001965, -1.0501398873903016 
4.890000000001942, -1.0512465542417708 
4.900000000001919, -1.0525504398382362 
4.9100000000018955, -1.053879887024435 
4.920000000001872, -1.0551177659357551 
4.930000000001849, -1.0561913100992932 
