t, s[1].omega / s[0].omega 
0, -0.6999976918487797 
0.009999999999999995, -0.6997540163311208 
0.019999999999999934, -0.6994812939897044 
0.029999999999999874, -0.6991710197367855 
0.04000000000000012, -0.6988149114843285 
0.050000000000000405, -0.6984098747837756 
0.06000000000000069, -0.6979606744371691 
0.07000000000000098, -0.6974805280014411 
0.08000000000000126, -0.6969912778430096 
0.09000000000000155, -0.6965246286351839 
0.10000000000000184, -0.6961249158282556 
0.11000000000000212, -0.6958528617756602 
0.12000000000000241, -0.6957890873869762 
0.130000000000002, -0.6960357970625697 
0.1400000000000009, -0.6967150527320024 
0.1499999999999998, -0.6979622948857296 
0.1599999999999987, -0.6999138272911352 
0.1699999999999976, -0.7026863162472619 
0.1799999999999965, -0.7063452903362334 
0.1899999999999954, -0.7108609063552874 
0.1999999999999943, -0.716058553988534 
0.2099999999999932, -0.721592482453026 
0.2199999999999921, -0.7269876744050988 
0.229999999999991, -0.7317693105022427 
0.2399999999999899, -0.7356197255673769 
0.2499999999999888, -0.7384551481797065 
0.2599999999999877, -0.7403812747213039 
0.2699999999999866, -0.7415890512566419 
0.2799999999999855, -0.7422685945551499 
0.2899999999999844, -0.7425683574396532 
0.2999999999999833, -0.7425870502931036 
0.3099999999999822, -0.7423789359808591 
0.3199999999999811, -0.7419604484325594 
0.32999999999998, -0.7413130462016393 
0.3399999999999789, -0.7403806109245599 
0.3499999999999778, -0.7390608904280397 
0.35999999999997667, -0.7371914141030305 
0.36999999999997557, -0.7345333330999853 
0.37999999999997447, -0.7307658497597221 
0.38999999999997337, -0.7255245181743886 
0.39999999999997227, -0.7185409458658637 
0.40999999999997117, -0.7099102047666761 
0.41999999999997006, -0.7003368528075493 
0.42999999999996896, -0.6910301056482009 
0.43999999999996786, -0.6831649357656447 
0.44999999999996676, -0.6773552004236953 
0.45999999999996566, -0.6735653773109062 
0.46999999999996456, -0.6713725482488224 
0.47999999999996346, -0.6702633562039242 
0.48999999999996235, -0.6698032428073646 
0.49999999999996125, -0.669685132358136 
0.5099999999999602, -0.6697154835629303 
0.519999999999959, -0.669781518312865 
0.529999999999958, -0.6698202937631531 
0.5399999999999568, -0.6697957643051109 
0.5499999999999557, -0.669683749427732 
0.5599999999999546, -0.6694631572437323 
0.5699999999999535, -0.669112267067674 
0.5799999999999524, -0.6686097912278737 
0.5899999999999513, -0.66794060683106 
0.5999999999999502, -0.66710443564566 
0.6099999999999491, -0.6661227359038959 
0.619999999999948, -0.6650378899723186 
0.6299999999999469, -0.6639029378018945 
0.6399999999999458, -0.6627672783628583 
0.6499999999999447, -0.6616665808028 
0.6599999999999436, -0.660620997868238 
0.6699999999999425, -0.6596398398451304 
0.6799999999999414, -0.658728345075301 
0.6899999999999403, -0.6578932643778368 
0.6999999999999392, -0.6571461669440638 
0.7099999999999381, -0.6565048060875238 
0.719999999999937, -0.6559932190059363 
0.7299999999999359, -0.6556410134145723 
0.7399999999999348, -0.6554820756204853 
0.7499999999999337, -0.6555529224079233 
0.7599999999999326, -0.655891009808266 
0.7699999999999315, -0.6565332840516086 
0.7799999999999304, -0.6575149290704929 
0.7899999999999293, -0.6588675679567515 
0.7999999999999282, -0.6606152225298765 
0.8099999999999271, -0.6627655433938258 
0.819999999999926, -0.6652942554318796 
0.8299999999999249, -0.6681243605562409 
0.8399999999999238, -0.6711098421737498 
0.8499999999999227, -0.6740423727462477 
0.8599999999999216, -0.6766950979026249 
0.8699999999999205, -0.6788900154069707 
0.8799999999999194, -0.6805471994396252 
0.8899999999999183, -0.6816847766938271 
0.8999999999999172, -0.6823802122477446 
0.9099999999999161, -0.6827260614092331 
0.919999999999915, -0.6828014224374157 
0.9299999999999139, -0.6826604187189347 
0.9399999999999128, -0.6823302673153889 
0.9499999999999117, -0.6818120604231843 
0.9599999999999106, -0.6810803416644834 
0.9699999999999095, -0.6800796136983039 
0.9799999999999084, -0.6787167656917136 
0.9899999999999073, -0.6768487721285594 
0.9999999999999062, -0.6742664730558112 
1.0099999999999052, -0.6706823205588867 
1.019999999999904, -0.6657521139048945 
1.029999999999903, -0.6591973794993652 
1.039999999999902, -0.6510773556386965 
1.0499999999999008, -0.642058723405681 
1.0599999999998997, -0.633308690463448 
1.0699999999998986, -0.6259338924454583 
1.0799999999998975, -0.6204744699496539 
1.0899999999998964, -0.6168643497296065 
1.0999999999998953, -0.6147055862897088 
1.1099999999998942, -0.6135388269922865 
1.119999999999893, -0.6129824649643879 
1.129999999999892, -0.6127665431575814 
1.1399999999998909, -0.6127176159855958 
1.1499999999998898, -0.612730855426334 
1.1599999999998887, -0.612744792266256 
1.1699999999998876, -0.6127227689973788 
1.1799999999998865, -0.6126408259423889 
1.1899999999998854, -0.6124807926214526 
1.1999999999998843, -0.6122276694295987 
1.2099999999998832, -0.6118707609141276 
1.219999999999882, -0.6114076358808086 
1.229999999999881, -0.6108485554682899 
1.2399999999998799, -0.6102176281580476 
1.2499999999998788, -0.6095479456054822 
1.2599999999998777, -0.6088720103802954 
1.2699999999998766, -0.6082126009097353 
1.2799999999998755, -0.6075789452213762 
1.2899999999998744, -0.6069692182445878 
1.2999999999998733, -0.6063767147403926 
1.3099999999998722, -0.6057960860420273 
1.319999999999871, -0.6052274898973259 
1.32999999999987, -0.6046786265973194 
1.3399999999998689, -0.6041658838973787 
1.3499999999998678, -0.6037158565562066 
1.3599999999998666, -0.6033679282427894 
1.3699999999998655, -0.6031780162419036 
1.3799999999998644, -0.6032231890116014 
1.3899999999998633, -0.6036065756386909 
1.3999999999998622, -0.6044615557526702 
1.4099999999998611, -0.605953262489174 
1.41999999999986, -0.6082733605051178 
1.429999999999859, -0.6116203670535014 
1.4399999999998578, -0.6161534892221503 
1.4499999999998567, -0.6219092575813839 
1.4599999999998556, -0.628691942412284 
1.4699999999998545, -0.6360017143190099 
1.4799999999998534, -0.643107925897143 
1.4899999999998523, -0.6493010511860398 
1.4999999999998512, -0.6541662780024071 
1.5099999999998501, -0.6576653549929761 
1.519999999999849, -0.6600114915337516 
1.529999999999848, -0.6614938066176773 
1.5399999999998468, -0.6623675065273373 
1.5499999999998457, -0.6628182417777726 
1.5599999999998446, -0.6629651595629263 
1.5699999999998435, -0.6628742392355373 
1.5799999999998424, -0.6625691347614675 
1.5899999999998413, -0.6620357039292263 
1.5999999999998402, -0.6612196840952308 
1.6099999999998391, -0.6600183469707439 
1.619999999999838, -0.6582697663388426 
1.629999999999837, -0.6557508200080807 
1.6399999999998358, -0.6522078879642559 
1.6499999999998347, -0.6474497599005656 
1.6599999999998336, -0.6414963258650623 
1.6699999999998325, -0.6346886447070503 
1.6799999999998314, -0.6276297011724515 
1.6899999999998303, -0.6209600822960367 
1.6999999999998292, -0.6151396174860762 
1.709999999999828, -0.6103722739576373 
1.719999999999827, -0.60665688062862 
1.729999999999826, -0.6038768282500565 
1.7399999999998248, -0.6018720763911709 
1.7499999999998237, -0.6004809618362935 
1.7599999999998226, -0.5995593662089586 
1.7699999999998215, -0.5989871317008201 
1.7799999999998204, -0.5986683661302911 
1.7899999999998193, -0.598529140046413 
1.7999999999998182, -0.5985142522086901 
1.809999999999817, -0.5985839111588803 
1.819999999999816, -0.5987108422747806 
1.8299999999998149, -0.5988781136896878 
1.8399999999998138, -0.599077651454073 
1.8499999999998127, -0.5993088925371096 
1.8599999999998116, -0.5995764743742222 
1.8699999999998105, -0.5998858194458586 
1.8799999999998094, -0.6002365448354914 
1.8899999999998083, -0.6006157134942416 
1.8999999999998072, -0.6009947504415831 
1.909999999999806, -0.6013333684582425 
1.919999999999805, -0.6015900531776655 
1.9299999999998039, -0.6017337575583611 
1.9399999999998028, -0.6017502653214943 
1.9499999999998017, -0.6016409183252046 
1.9599999999998006, -0.6014166739849118 
1.9699999999997995, -0.6010920666270717 
1.9799999999997984, -0.6006819378980878 
1.9899999999997973, -0.6002017744376762 
1.9999999999997962, -0.5996717710506921 
2.0099999999998173, -0.5991251122567387 
2.0199999999998384, -0.5986215708515503 
2.0299999999998595, -0.5982672316338016 
2.0399999999998806, -0.5982379396360503 
2.0499999999999017, -0.5987943065151348 
2.059999999999923, -0.6002567054106058 
2.069999999999944, -0.6028902923635576 
2.079999999999965, -0.6066843099013501 
2.089999999999986, -0.6111655724097207 
2.100000000000007, -0.615535073113658 
2.1100000000000283, -0.6191505461331513 
2.1200000000000494, -0.6218570614106695 
2.1300000000000705, -0.6238443624759437 
2.1400000000000916, -0.6253453419118495 
2.1500000000001127, -0.6265040266473672 
2.160000000000134, -0.6273911876828262 
2.170000000000155, -0.628046772001399 
2.180000000000176, -0.6285018226462165 
2.190000000000197, -0.6287831675174009 
2.2000000000002182, -0.6289116320524147 
2.2100000000002393, -0.6288993257452258 
2.2200000000002604, -0.6287475462967562 
2.2300000000002815, -0.6284455568245084 
2.2400000000003026, -0.6279708019721966 
2.2500000000003237, -0.6272921291721782 
2.260000000000345, -0.626378284164504 
2.270000000000366, -0.6252125803273645 
2.280000000000387, -0.6238096207236808 
2.290000000000408, -0.6222238309029422 
2.3000000000004293, -0.6205405454341087 
2.3100000000004504, -0.6188523224137972 
2.3200000000004715, -0.6172349277717808 
2.3300000000004926, -0.6157357629265834 
2.3400000000005137, -0.614376183517696 
2.3500000000005348, -0.6131611070253369 
2.360000000000556, -0.6120890303789168 
2.370000000000577, -0.6111590527270926 
2.380000000000598, -0.6103745285439285 
2.390000000000619, -0.6097443037616632 
2.4000000000006403, -0.6092826041134192 
2.4100000000006614, -0.6090083330809739 
2.4200000000006825, -0.6089442521213402 
2.4300000000007036, -0.6091163523479994 
2.4400000000007247, -0.6095535899591542 
2.450000000000746, -0.6102879128556566 
2.460000000000767, -0.611354042014065 
2.470000000000788, -0.6127877220904315 
2.480000000000809, -0.6146201849720764 
2.49000000000083, -0.6168658684564219 
2.5000000000008513, -0.619501476827304 
2.5100000000008724, -0.6224398875067636 
2.5200000000008935, -0.6255133628179006 
2.5300000000009146, -0.6284893140843562 
2.5400000000009357, -0.6311296310136039 
2.550000000000957, -0.6332666921463395 
2.560000000000978, -0.634845043000352 
2.570000000000999, -0.6359058809393272 
2.58000000000102, -0.6365390644244 
2.5900000000010412, -0.6368391131006362 
2.6000000000010624, -0.6368809093832735 
2.6100000000010835, -0.636711511144983 
2.6200000000011046, -0.6363491676081822 
2.6300000000011257, -0.6357828204165696 
2.6400000000011468, -0.6349682152636777 
2.650000000001168, -0.6338181530874858 
2.660000000001189, -0.6321850481155834 
2.67000000000121, -0.6298362950782085 
2.680000000001231, -0.6264326286946705 
2.6900000000012523, -0.621545357077392 
2.7000000000012734, -0.6147841531089013 
2.7100000000012945, -0.6060830962792839 
2.7200000000013156, -0.595999080393651 
2.7300000000013367, -0.5856661755894643 
2.740000000001358, -0.5762960849160568 
2.750000000001379, -0.5686538072757175 
2.7600000000014, -0.5629220855910266 
2.770000000001421, -0.5588886883150337 
2.780000000001442, -0.5561878390199673 
2.7900000000014633, -0.5544545899324385 
2.8000000000014844, -0.5533885299955588 
2.8100000000015055, -0.5527651967191664 
2.8200000000015266, -0.5524260423323206 
2.8300000000015477, -0.5522630100861441 
2.840000000001569, -0.5522042104584699 
2.85000000000159, -0.5522026556072736 
2.860000000001611, -0.5522282605404277 
2.870000000001632, -0.5522627816351421 
2.8800000000016532, -0.5522971881005188 
2.8900000000016743, -0.5523306919209214 
2.9000000000016954, -0.5523701470798638 
2.9100000000017165, -0.5524280863273956 
2.9200000000017377, -0.5525180424814263 
2.9300000000017588, -0.552647471666768 
2.94000000000178, -0.5528108740771138 
2.950000000001801, -0.5529869584798103 
2.960000000001822, -0.5531425017027989 
2.970000000001843, -0.5532418648995254 
2.9800000000018643, -0.553257241992014 
2.9900000000018854, -0.5531742598265799 
3.0000000000019065, -0.5529912611018956 
3.0100000000019276, -0.5527147620744551 
3.0200000000019487, -0.5523547442562705 
3.03000000000197, -0.5519220856652918 
3.040000000001991, -0.5514288636553297 
3.050000000002012, -0.5508916577524192 
3.060000000002033, -0.5503381347875764 
3.070000000002054, -0.5498173032212719 
3.0800000000020753, -0.5494126158410093 
3.0900000000020964, -0.5492522575315397 
3.1000000000021175, -0.5494991873390391 
3.1100000000021386, -0.5502864505834023 
3.1200000000021597, -0.5515686378778831 
3.130000000002181, -0.5529586015694272 
3.140000000002202, -0.5538005213210971 
3.150000000002223, -0.553637440593655 
3.160000000002244, -0.5526321265321819 
3.1700000000022652, -0.5513735811984859 
3.1800000000022863, -0.5503591432919552 
3.1900000000023074, -0.5497623217022333 
3.2000000000023285, -0.5495258978061957 
3.2100000000023496, -0.549518040816415 
3.2200000000023707, -0.5496199619131964 
3.230000000002392, -0.5497502034774442 
3.240000000002413, -0.5498602074349559 
3.250000000002434, -0.5499229038808707 
3.260000000002455, -0.5499226472648341 
3.2700000000024763, -0.5498483860554149 
3.2800000000024974, -0.5496899687374095 
3.2900000000025185, -0.5494373471460962 
3.3000000000025396, -0.5490826518836441 
3.3100000000025607, -0.5486247530509638 
3.3200000000025818, -0.5480745020552903 
3.330000000002603, -0.5474571136695217 
3.340000000002624, -0.5468083668248501 
3.350000000002645, -0.5461649339608803 
3.360000000002666, -0.5455536560457903 
3.3700000000026873, -0.5449854899021123 
3.3800000000027084, -0.5444564817971236 
3.3900000000027295, -0.5439539260557074 
3.4000000000027506, -0.5434638625726032 
3.4100000000027717, -0.5429767269660533 
3.420000000002793, -0.5424901225070153 
3.430000000002814, -0.5420096663736691 
3.440000000002835, -0.541549642125889 
3.450000000002856, -0.5411349390916418 
3.460000000002877, -0.5408052370818073 
3.4700000000028983, -0.5406220867332395 
3.4800000000029194, -0.5406794267763393 
3.4900000000029405, -0.5411177968439971 
3.5000000000029616, -0.5421412965969493 
3.5100000000029827, -0.5440327298162224 
3.520000000003004, -0.5471538263275151 
3.530000000003025, -0.5519019002902781 
3.540000000003046, -0.5585789241156817 
3.550000000003067, -0.567150579559874 
3.5600000000030882, -0.576996120820366 
3.5700000000031094, -0.586930810855906 
3.5800000000031305, -0.5956883046717687 
3.5900000000031516, -0.6025257071358359 
3.6000000000031727, -0.6073956197041515 
3.6100000000031938, -0.6106669844959495 
3.620000000003215, -0.6127914753222129 
3.630000000003236, -0.6141375882459025 
3.640000000003257, -0.6149606976966914 
3.650000000003278, -0.6154245143535189 
3.6600000000032993, -0.6156283883658389 
3.6700000000033204, -0.6156272559509894 
3.6800000000033415, -0.6154434843547613 
3.6900000000033626, -0.6150727413624153 
3.7000000000033837, -0.6144864152572402 
3.710000000003405, -0.6136338232557261 
3.720000000003426, -0.6124491153822069 
3.730000000003447, -0.6108689977491621 
3.740000000003468, -0.6088637500142257 
3.750000000003489, -0.6064713213215386 
3.7600000000035103, -0.6038101182388843 
3.7700000000035314, -0.6010522762787154 
3.7800000000035525, -0.5983704346474051 
3.7900000000035736, -0.5958929988095705 
3.8000000000035947, -0.5936896576399902 
3.810000000003616, -0.5917821040822621 
3.820000000003637, -0.5901635860914654 
3.830000000003658, -0.5888156321463441 
3.840000000003679, -0.587718296892043 
3.8500000000037002, -0.5868548556852106 
3.8600000000037213, -0.5862131024933713 
3.8700000000037424, -0.5857850823759848 
3.8800000000037635, -0.5855664318198083 
3.8900000000037847, -0.5855559587355967 
3.9000000000038058, -0.5857557211579307 
3.910000000003827, -0.5861715863017563 
3.920000000003848, -0.5868139784366653 
3.930000000003869, -0.5876981612711232 
3.94000000000389, -0.5888428725031274 
3.9500000000039113, -0.5902654969984031 
3.9600000000039324, -0.5919717086622367 
3.9700000000039535, -0.5939388589610278 
3.9800000000039746, -0.5960970667841641 
3.9900000000039957, -0.5983197467609982 
4.000000000004016, -0.6004392334503257 
4.010000000003993, -0.6022910816999112 
4.02000000000397, -0.6037646913642961 
4.030000000003946, -0.6048270094137089 
4.040000000003923, -0.6055086307010367 
4.0500000000039, -0.6058707542961738 
4.0600000000038765, -0.6059758921905571 
4.070000000003853, -0.6058713315361635 
4.08000000000383, -0.6055826338400367 
4.090000000003807, -0.6051112783941235 
4.100000000003783, -0.6044317500320513 
4.11000000000376, -0.6034848651583232 
4.120000000003737, -0.6021647265613653 
4.130000000003713, -0.6002972495135761 
4.14000000000369, -0.5976120350433451 
4.150000000003667, -0.5937245094613108 
4.1600000000036434, -0.5881810083214903 
4.17000000000362, -0.5806525631706398 
4.180000000003597, -0.5712801896564653 
4.1900000000035735, -0.5609014606884587 
4.20000000000355, -0.5507909711053827 
4.210000000003527, -0.5420448927339258 
4.220000000003504, -0.5351770048691977 
4.23000000000348, -0.5301611518473132 
4.240000000003457, -0.5266864639255864 
4.250000000003434, -0.5243744848600002 
4.26000000000341, -0.5228890511644472 
4.270000000003387, -0.521969327662617 
4.280000000003364, -0.5214268069770925 
4.2900000000033405, -0.5211308064191351 
4.300000000003317, -0.5209931722337748 
4.310000000003294, -0.5209557251435701 
4.320000000003271, -0.5209810661512098 
4.330000000003247, -0.5210464254537392 
4.340000000003224, -0.5211400134989098 
4.350000000003201, -0.5212591969429763 
4.360000000003177, -0.5214094953744737 
4.370000000003154, -0.5216029365674205 
4.380000000003131, -0.5218541941321923 
4.390000000003107, -0.5221738000192139 
4.400000000003084, -0.5225597082377982 
4.410000000003061, -0.5229907703905619 
4.4200000000030375, -0.5234266516510366 
4.430000000003014, -0.5238165133553329 
4.440000000002991, -0.5241133046734185 
4.450000000002968, -0.5242858759136617 
4.460000000002944, -0.5243226179520714 
4.470000000002921, -0.5242267737369994 
4.480000000002898, -0.5240082416488844 
4.490000000002874, -0.5236763385666571 
4.500000000002851, -0.523235162461473 
4.510000000002828, -0.5226810335155735 
4.520000000002804, -0.5220006761937674 
4.530000000002781, -0.5211684660504249 
4.540000000002758, -0.520140099942243 
4.5500000000027345, -0.5188375138024842 
4.560000000002711, -0.5171160364092086 
4.570000000002688, -0.5147064879835141 
4.580000000002665, -0.5111573357035973 
4.590000000002641, -0.5058962172589416 
4.600000000002618, -0.49859072163383444 
4.610000000002595, -0.48968401759973307 
4.620000000002571, -0.4804441878084861 
4.630000000002548, -0.47224078128067337 
4.640000000002525, -0.4658224608814433 
4.6500000000025015, -0.46123877335229463 
4.660000000002478, -0.45816173975166335 
4.670000000002455, -0.4561818505464146 
4.6800000000024315, -0.45494885577796546 
4.690000000002408, -0.4542052720467117 
4.700000000002385, -0.45377552475208044 
4.710000000002362, -0.453544742040915 
4.720000000002338, -0.45343975102518563 
4.730000000002315, -0.45341515620483286 
4.740000000002292, -0.45344414938347305 
4.750000000002268, -0.4535130115061216 
4.760000000002245, -0.45361829270500953 
4.770000000002222, -0.4537656550169828 
4.7800000000021985, -0.45396910187876693 
4.790000000002175, -0.454248954056102 
4.800000000002152, -0.45462695982938267 
4.810000000002129, -0.4551178821950054 
4.820000000002105, -0.4557189390090248 
4.830000000002082, -0.45640117854511547 
4.840000000002059, -0.4571088164721527 
4.850000000002035, -0.45777065975010034 
4.860000000002012, -0.4583202086297957 
4.870000000001989, -0.45871331742220073 
4.880000000001965, -0.4589336237975899 
4.890000000001942, -0.4589856250671911 
4.900000000001919, -0.45888252653705186 
4.9100000000018955, -0.45863529744613024 
4.920000000001872, -0.45824486049295715 
