t, s[1].omega / s[0].omega 
0, -0.9499980634463968 
0.009999999999999995, -0.9497410168267636 
0.019999999999999934, -0.9493496184870419 
0.029999999999999874, -0.9488140791867652 
0.04000000000000012, -0.9481545967021973 
0.050000000000000405, -0.9474393340457347 
0.06000000000000069, -0.9467814058595075 
0.07000000000000098, -0.9463116428848047 
0.08000000000000126, -0.9461307796295424 
0.09000000000000155, -0.9462709619842138 
0.10000000000000184, -0.9466913476918781 
0.11000000000000212, -0.9472995729919848 
0.12000000000000241, -0.9479857318306066 
0.130000000000002, -0.9486577006916109 
0.1400000000000009, -0.949260357739921 
0.1499999999999998, -0.9497682020705202 
0.1599999999999987, -0.9501576554487989 
0.1699999999999976, -0.9503852478167267 
0.1799999999999965, -0.950400499789645 
0.1899999999999954, -0.9501845690489973 
0.1999999999999943, -0.9497748872913797 
0.2099999999999932, -0.9492658820626231 
0.2199999999999921, -0.948803998395794 
0.229999999999991, -0.9485665933902887 
0.2399999999999899, -0.9487002695508993 
0.2499999999999888, -0.9492528290971014 
0.2599999999999877, -0.9501657278999315 
0.2699999999999866, -0.9513230776244035 
0.2799999999999855, -0.9526042525921757 
0.2899999999999844, -0.9539143196576391 
0.2999999999999833, -0.9551873370760279 
0.3099999999999822, -0.9563626799597152 
0.3199999999999811, -0.9573549393218153 
0.32999999999998, -0.9580592571811809 
0.3399999999999789, -0.9584050069065889 
0.3499999999999778, -0.9584014915669877 
0.35999999999997667, -0.958130105274564 
0.36999999999997557, -0.957721940536069 
0.37999999999997447, -0.9573640057438384 
0.38999999999997337, -0.9573003629288251 
0.39999999999997227, -0.9577586950148048 
0.40999999999997117, -0.9588284930347817 
0.41999999999997006, -0.9604254319437937 
0.42999999999996896, -0.9623750114286452 
0.43999999999996786, -0.9645071434047524 
0.44999999999996676, -0.9666911107416648 
0.45999999999996566, -0.9688166302792761 
0.46999999999996456, -0.9707510374335139 
0.47999999999996346, -0.9723249114802796 
0.48999999999996235, -0.9733932435230228 
0.49999999999996125, -0.9739228895340941 
0.5099999999999602, -0.9739988184215791 
0.519999999999959, -0.9737619913180434 
0.529999999999958, -0.9733812537443333 
0.5399999999999568, -0.973089717947071 
0.5499999999999557, -0.9732097209913725 
0.5599999999999546, -0.9740523715649864 
0.5699999999999535, -0.9757274785684973 
0.5799999999999524, -0.978089440541878 
0.5899999999999513, -0.9808758117779239 
0.5999999999999502, -0.9838480042622885 
0.6099999999999491, -0.9868217885036155 
0.619999999999948, -0.9896213080020474 
0.6299999999999469, -0.9920333430495335 
0.6399999999999458, -0.9938429379765503 
0.6499999999999447, -0.9949486846648946 
0.6599999999999436, -0.995418556208064 
0.6699999999999425, -0.9954179078367152 
0.6799999999999414, -0.9951271137610211 
0.6899999999999403, -0.9947484188575706 
0.6999999999999392, -0.9945740734936892 
0.7099999999999381, -0.994989068819468 
0.719999999999937, -0.9962922346808852 
0.7299999999999359, -0.998483740722055 
0.7399999999999348, -1.0013007392175852 
0.7499999999999337, -1.0044257381145667 
0.7599999999999326, -1.0076096390442528 
0.7699999999999315, -1.0106592899984401 
0.7799999999999304, -1.0133758201067382 
0.7899999999999293, -1.0155399215039176 
0.7999999999999282, -1.0169957293669252 
0.8099999999999271, -1.0177477543091835 
0.819999999999926, -1.0179385742453622 
0.8299999999999249, -1.017752817686009 
0.8399999999999238, -1.0173811834491568 
0.8499999999999227, -1.0170700929956458 
0.8599999999999216, -1.0171609222047857 
0.8699999999999205, -1.0179766141502395 
0.8799999999999194, -1.0196009556997228 
0.8899999999999183, -1.021836527318887 
0.8999999999999172, -1.0243858929394165 
0.9099999999999161, -1.0270054662909707 
0.919999999999915, -1.0295273573602701 
0.9299999999999139, -1.0318119671683437 
0.9399999999999128, -1.0337059526101007 
0.9499999999999117, -1.0350641467345472 
0.9599999999999106, -1.035828622464295 
0.9699999999999095, -1.036065393068627 
0.9799999999999084, -1.0359158364096277 
0.9899999999999073, -1.0355488194528988 
0.9999999999999062, -1.0351757061178406 
1.0099999999999052, -1.0350721677994692 
1.019999999999904, -1.0354938442663395 
1.029999999999903, -1.036514121206631 
1.039999999999902, -1.037992919281271 
1.0499999999999008, -1.0397082287476844 
1.0599999999998997, -1.0414711586259227 
1.0699999999998986, -1.043154011268602 
1.0799999999998975, -1.0446697535761191 
1.0899999999998964, -1.0459371924727119 
1.0999999999998953, -1.0468657861662483 
1.1099999999998942, -1.0473868813579983 
1.119999999999893, -1.0475010190500436 
1.129999999999892, -1.047284119987044 
1.1399999999998909, -1.0468642377517858 
1.1499999999998898, -1.046416459838915 
1.1599999999998887, -1.046155495841082 
1.1699999999998876, -1.0462619853631732 
1.1799999999998865, -1.046781884649771 
1.1899999999998854, -1.0476230210761628 
1.1999999999998843, -1.0486357626472425 
1.2099999999998832, -1.0496774565117284 
1.219999999999882, -1.05064090222368 
1.229999999999881, -1.0514604109448333 
1.2399999999998799, -1.0520961412164749 
1.2499999999998788, -1.0525096139446395 
1.2599999999998777, -1.0526589598336824 
1.2699999999998766, -1.0525243728890823 
1.2799999999998755, -1.0521356689907222 
1.2899999999998744, -1.0515789388028838 
1.2999999999998733, -1.0509913856684083 
1.3099999999998722, -1.0505380204422035 
1.319999999999871, -1.0503508074361445 
1.32999999999987, -1.0504713627130104 
1.3399999999998689, -1.0508516476210505 
1.3499999999998678, -1.0513863340503682 
1.3599999999998666, -1.0519467583434072 
1.3699999999998655, -1.052419354900651 
1.3799999999998644, -1.0527327019169546 
1.3899999999998633, -1.0528583463167305 
1.3999999999998622, -1.0527905409109108 
1.4099999999998611, -1.0525235904618129 
1.41999999999986, -1.052050692400496 
1.429999999999859, -1.051386013778096 
1.4399999999998578, -1.0505870536358524 
1.4499999999998567, -1.0497596060046273 
1.4599999999998556, -1.0490368680877908 
1.4699999999998545, -1.0485357910497983 
1.4799999999998534, -1.0483190920763454 
1.4899999999998523, -1.0483755456787682 
1.4999999999998512, -1.0486128613060632 
1.5099999999998501, -1.0488865792974822 
1.519999999999849, -1.0490576990487765 
1.529999999999848, -1.0490311761532853 
1.5399999999998468, -1.048765677819391 
1.5499999999998457, -1.0482659392487672 
1.5599999999998446, -1.0475582953024354 
1.5699999999998435, -1.046666731890102 
1.5799999999998424, -1.0456151230353736 
1.5899999999998413, -1.0444505361281662 
1.5999999999998402, -1.0432607169483505 
1.6099999999998391, -1.0421682532621697 
1.619999999999838, -1.0413042940126138 
1.629999999999837, -1.0407700832990687 
1.6399999999998358, -1.040582474205598 
1.6499999999998347, -1.0406380390704848 
1.6599999999998336, -1.0407570675845805 
1.6699999999998325, -1.0407659556343571 
1.6799999999998314, -1.0405371376746249 
1.6899999999998303, -1.0399965903549715 
1.6999999999998292, -1.0391324497970997 
1.709999999999828, -1.0379878699895086 
1.719999999999827, -1.036625241162443 
1.729999999999826, -1.0350990482085005 
1.7399999999998248, -1.0334655096673044 
1.7499999999998237, -1.0318094531111657 
1.7599999999998226, -1.0302588206799075 
1.7699999999998215, -1.028974892754381 
1.7799999999998204, -1.0281058261297966 
1.7899999999998193, -1.0276956177359564 
1.7999999999998182, -1.0276239553590623 
1.809999999999817, -1.0276700030568973 
1.819999999999816, -1.0276235021636737 
1.8299999999998149, -1.0273254604204434 
1.8399999999998138, -1.0266626219822494 
1.8499999999998127, -1.0255821284573914 
1.8599999999998116, -1.02411452890801 
1.8699999999998105, -1.0223507795088422 
1.8799999999998094, -1.0203878686867962 
1.8899999999998083, -1.0183079750465096 
1.8999999999998072, -1.0162024420399323 
1.909999999999806, -1.0142036808592356 
1.919999999999805, -1.0124936467055858 
1.9299999999998039, -1.01126151576518 
1.9399999999998028, -1.010594332282227 
1.9499999999998017, -1.010385376712104 
1.9599999999998006, -1.010390066710251 
1.9699999999997995, -1.0103634361875657 
1.9799999999997984, -1.0101203196173263 
1.9899999999997973, -1.0095207856364148 
1.9999999999997962, -1.008471124346833 
2.0099999999998173, -1.0069624970913884 
2.0199999999998384, -1.0050811655288692 
2.0299999999998595, -1.0029527802323999 
2.0399999999998806, -1.0006869225728117 
2.0499999999999017, -0.9983792701955553 
2.059999999999923, -0.9961479256527178 
2.069999999999944, -0.9941589593214473 
2.079999999999965, -0.9926092323944213 
2.089999999999986, -0.9916406466849175 
2.100000000000007, -0.9912251673240816 
2.1100000000000283, -0.9911561065448607 
2.1200000000000494, -0.9911726517556123 
2.1300000000000705, -0.9910633565457794 
2.1400000000000916, -0.9906743210528085 
2.1500000000001127, -0.9898940661008423 
2.160000000000134, -0.9886767274316179 
2.170000000000155, -0.987071783709125 
2.180000000000176, -0.9851945430949094 
2.190000000000197, -0.9831599592897686 
2.2000000000002182, -0.981056916523518 
2.2100000000002393, -0.9789732629542358 
2.2200000000002604, -0.9770279790881595 
2.2300000000002815, -0.9753776087257429 
2.2400000000003026, -0.9741798357074529 
2.2500000000003237, -0.9735092708254048 
2.260000000000345, -0.9732836884885466 
2.270000000000366, -0.9732962754384197 
2.280000000000387, -0.9733246464065319 
2.290000000000408, -0.9731967952848338 
2.3000000000004293, -0.972793779519943 
2.3100000000004504, -0.9720508507109632 
2.3200000000004715, -0.9709766222584639 
2.3300000000004926, -0.9696460912727439 
2.3400000000005137, -0.96815079848717 
2.3500000000005348, -0.9665601338563806 
2.360000000000556, -0.9649299674058502 
2.370000000000577, -0.9633330402456673 
2.380000000000598, -0.961874657397736 
2.390000000000619, -0.9606811578087301 
2.4000000000006403, -0.9598629422191549 
2.4100000000006614, -0.9594577210188537 
2.4200000000006825, -0.9593890116683662 
2.4300000000007036, -0.9594928283813955 
2.4400000000007247, -0.9595934773452749 
2.450000000000746, -0.9595556754045916 
2.460000000000767, -0.9592979702394463 
2.470000000000788, -0.9587974471299466 
2.480000000000809, -0.9580855014006043 
2.49000000000083, -0.9572167134151474 
2.5000000000008513, -0.9562326802015675 
2.5100000000008724, -0.9551588082333026 
2.5200000000008935, -0.9540305460277415 
2.5300000000009146, -0.9529168597059775 
2.5400000000009357, -0.9519195785345511 
2.550000000000957, -0.9511480685803484 
2.560000000000978, -0.9506830920558641 
2.570000000000999, -0.950543816023921 
2.58000000000102, -0.9506699307499944 
2.5900000000010412, -0.9509389336784572 
2.6000000000010624, -0.9512157133064507 
2.6100000000010835, -0.951396906039511 
2.6200000000011046, -0.9514292285974264 
2.6300000000011257, -0.9513065016153793 
2.6400000000011468, -0.9510469516636447 
2.650000000001168, -0.9506619911321552 
2.660000000001189, -0.9501463142713926 
2.67000000000121, -0.9494997145502124 
2.680000000001231, -0.9487564059048295 
2.6900000000012523, -0.9479979731294129 
2.7000000000012734, -0.947343149806285 
2.7100000000012945, -0.9469126904006941 
2.7200000000013156, -0.9467834971739963 
2.7300000000013367, -0.9469623414931894 
2.740000000001358, -0.9473892008913691 
2.750000000001379, -0.9479609634849687 
2.7600000000014, -0.9485680611991283 
2.770000000001421, -0.949128276922484 
2.780000000001442, -0.949599258203683 
2.7900000000014633, -0.9499645429357785 
2.8000000000014844, -0.9502042083846235 
2.8100000000015055, -0.9502787964616802 
2.8200000000015266, -0.9501488313398048 
2.8300000000015477, -0.9498114059963645 
2.840000000001569, -0.9493189658495949 
2.85000000000159, -0.9487791397583365 
2.860000000001611, -0.9483456103165714 
2.870000000001632, -0.9481822330413221 
2.8800000000016532, -0.9483961106688732 
2.8900000000016743, -0.9489924082312748 
2.9000000000016954, -0.9498911465754749 
2.9100000000017165, -0.9509762377304269 
2.9200000000017377, -0.9521378196872461 
2.9300000000017588, -0.9532952071755295 
2.94000000000178, -0.9543939610933121 
2.950000000001801, -0.9553788110267669 
2.960000000001822, -0.9561685952738747 
2.970000000001843, -0.9566719793437526 
2.9800000000018643, -0.956840843417217 
2.9900000000018854, -0.9567027071623988 
3.0000000000019065, -0.9563486328276947 
3.0100000000019276, -0.9559206399843887 
3.0200000000019487, -0.9556187163266744 
3.03000000000197, -0.9556774917433221 
3.040000000001991, -0.9562706860449419 
3.050000000002012, -0.9574177574797403 
3.060000000002033, -0.9589994972174851 
3.070000000002054, -0.9608492672996262 
3.0800000000020753, -0.9628218084541397 
3.0900000000020964, -0.9648079255591412 
3.1000000000021175, -0.9667080889007019 
3.1100000000021386, -0.9683934953421408 
3.1200000000021597, -0.9697069734111404 
3.130000000002181, -0.9705333485013717 
3.140000000002202, -0.9708698082724071 
3.150000000002223, -0.9708123173196272 
3.160000000002244, -0.9705017241560253 
3.1700000000022652, -0.9701166307732935 
3.1800000000022863, -0.9699114934682378 
3.1900000000023074, -0.9702061046236721 
3.2000000000023285, -0.971246887856486 
3.2100000000023496, -0.9730516223640889 
3.2200000000023707, -0.975430972905809 
3.230000000002392, -0.9781382061054442 
3.240000000002413, -0.9809688693187801 
3.250000000002434, -0.9837609452151723 
3.260000000002455, -0.9863433790216342 
3.2700000000024763, -0.9885056537883463 
3.2800000000024974, -0.9900568015842602 
3.2900000000025185, -0.9909369925394462 
3.3000000000025396, -0.9912406810771734 
3.3100000000025607, -0.9911338171174301 
3.3200000000025818, -0.9907937065901615 
3.330000000002603, -0.9904379175801689 
3.340000000002624, -0.9903861128087472 
3.350000000002645, -0.991016653575259 
3.360000000002666, -0.9925556536707408 
3.3700000000026873, -0.9949197508318207 
3.3800000000027084, -0.9978202288424852 
3.3900000000027295, -1.000960450764506 
3.4000000000027506, -1.0041155028496713 
3.4100000000027717, -1.0070977090067739 
3.420000000002793, -1.0096990355419815 
3.430000000002814, -1.0117014989235755 
3.440000000002835, -1.0129804159911202 
3.450000000002856, -1.0135808798226182 
3.460000000002877, -1.013664343861848 
3.4700000000028983, -1.0134162073341288 
3.4800000000029194, -1.013033699184694 
3.4900000000029405, -1.0127870453558903 
3.5000000000029616, -1.0130365289649834 
3.5100000000029827, -1.0140777314221037 
3.520000000003004, -1.015929880965246 
3.530000000003025, -1.0183521987826174 
3.540000000003046, -1.0210438243306632 
3.550000000003067, -1.0237725012044179 
3.5600000000030882, -1.0263738219963099 
3.5700000000031094, -1.0286969368849475 
3.5800000000031305, -1.0305736420689244 
3.5900000000031516, -1.0318639485271237 
3.6000000000031727, -1.0325404731461119 
3.6100000000031938, -1.0327003518640432 
3.620000000003215, -1.0325000524504795 
3.630000000003236, -1.032117738988092 
3.640000000003257, -1.0317822711707514 
3.650000000003278, -1.0317876097229421 
3.6600000000032993, -1.0323812911234407 
3.6700000000033204, -1.0335985357909552 
3.6800000000033415, -1.0352638803983445 
3.6900000000033626, -1.0371421964497256 
3.7000000000033837, -1.0390461052953472 
3.710000000003405, -1.0408512063865847 
3.720000000003426, -1.0424661689214043 
3.730000000003447, -1.0437967431721662 
3.740000000003468, -1.044742884818142 
3.750000000003489, -1.045244800100234 
3.7600000000035103, -1.0453261258927142 
3.7700000000035314, -1.045083755645292 
3.7800000000035525, -1.0446606667649947 
3.7900000000035736, -1.0442473219402413 
3.8000000000035947, -1.0440711259940332 
3.810000000003616, -1.044307634142942 
3.820000000003637, -1.0449783075226624 
3.830000000003658, -1.0459656145664942 
3.840000000003679, -1.0471069009224576 
3.8500000000037002, -1.0482588531072732 
3.8600000000037213, -1.0493200172777108 
3.8700000000037424, -1.0502285107046054 
3.8800000000037635, -1.0509402403812487 
3.8900000000037847, -1.051406894124292 
3.9000000000038058, -1.0515823069859762 
3.910000000003827, -1.0514551470817441 
3.920000000003848, -1.051071145582511 
3.930000000003869, -1.0505322960491097 
3.94000000000389, -1.0499898988565026 
3.9500000000039113, -1.0496170324123741 
3.9600000000039324, -1.0495396102807253 
3.9700000000039535, -1.0497804648405595 
3.9800000000039746, -1.050271697674544 
3.9900000000039957, -1.0508967321379796 
4.000000000004016, -1.051527455669382 
4.010000000003993, -1.052059173857057 
4.02000000000397, -1.052430539689789 
4.030000000003946, -1.0526175602295889 
4.040000000003923, -1.0526102321544604 
4.0500000000039, -1.0523948899608069 
4.0600000000038765, -1.0519626035094354 
4.070000000003853, -1.0513347872232164 
4.08000000000383, -1.0505813676697042 
4.090000000003807, -1.0498199652233688 
4.100000000003783, -1.0491886833268658 
4.11000000000376, -1.0487972928171918 
4.120000000003737, -1.0486912627176652 
4.130000000003713, -1.0488405386609265 
4.14000000000369, -1.0491424161703795 
4.150000000003667, -1.0494551951305648 
4.1600000000036434, -1.0496514259533478 
4.17000000000362, -1.0496501985986566 
4.180000000003597, -1.0494223562541996 
4.1900000000035735, -1.0489768860207624 
4.20000000000355, -1.0483343944975105 
4.210000000003527, -1.0475107577058824 
4.220000000003504, -1.0465285129307225 
4.23000000000348, -1.0454413246735013 
4.240000000003457, -1.0443456682376397 
4.250000000003434, -1.0433672693421403 
4.26000000000341, -1.042629524107178 
4.270000000003387, -1.0422152586679607 
4.280000000003364, -1.0421196692033268 
4.2900000000033405, -1.042227975541211 
4.300000000003317, -1.0423654969760046 
4.310000000003294, -1.0423721122873202 
4.320000000003271, -1.0421355389055864 
4.330000000003247, -1.0415990320050308 
4.340000000003224, -1.0407655886277565 
4.350000000003201, -1.039681023670014 
4.360000000003177, -1.0383985364526227 
4.370000000003154, -1.0369636018481319 
4.380000000003131, -1.0354318452574436 
4.390000000003107, -1.0338934678701552 
4.400000000003084, -1.0324797801765648 
4.410000000003061, -1.0313459057682461 
4.4200000000030375, -1.0306199917493162 
4.430000000003014, -1.030317821732539 
4.440000000002991, -1.0303023052529565 
4.450000000002968, -1.0303579153226212 
4.460000000002944, -1.0302895465419541 
4.470000000002921, -1.0299521668044043 
4.480000000002898, -1.0292489320106104 
4.490000000002874, -1.0281490498740211 
4.500000000002851, -1.0266991780665162 
4.510000000002828, -1.0249883737339798 
4.520000000002804, -1.0231011901272145 
4.530000000002781, -1.0211122715608116 
4.540000000002758, -1.0191152131991839 
4.5500000000027345, -1.0172487629066447 
4.560000000002711, -1.015695544943527 
4.570000000002688, -1.0146282900014023 
4.580000000002665, -1.0140983304489541 
4.590000000002641, -1.0139677396320286 
4.600000000002618, -1.0139893636286959 
4.610000000002595, -1.0139339865243195 
4.620000000002571, -1.0136302148653258 
4.630000000002548, -1.01294922579864 
4.640000000002525, -1.0118163296174412 
4.6500000000025015, -1.0102475314130892 
4.660000000002478, -1.0083415546992645 
4.670000000002455, -1.0062178914622235 
4.6800000000024315, -1.0039762356486197 
4.690000000002408, -1.001712013070494 
4.700000000002385, -0.9995529124572977 
4.710000000002362, -0.9976761235167053 
4.720000000002338, -0.996276254509924 
4.730000000002315, -0.9954640810189483 
4.740000000002292, -0.9951632299793258 
4.750000000002268, -0.9951403625885002 
4.760000000002245, -0.9951411689174237 
4.770000000002222, -0.9949699251039775 
4.7800000000021985, -0.9944825730849659 
4.790000000002175, -0.9935787495674303 
4.800000000002152, -0.9922338363269816 
4.810000000002129, -0.9905190359206358 
4.820000000002105, -0.9885561619576769 
4.830000000002082, -0.9864552285375808 
4.840000000002059, -0.9843038541596739 
4.850000000002035, -0.9821988367729544 
4.860000000002012, -0.9802745460143597 
4.870000000001989, -0.9786996938045128 
4.880000000001965, -0.977624210175361 
4.890000000001942, -0.977082991168295 
4.900000000001919, -0.9769435022531638 
4.9100000000018955, -0.9769758154723484 
4.920000000001872, -0.9769641110316812 
4.930000000001849, -0.9767493688573659 
