t, s[1].omega / s[0].omega 
0, -1.12999584206672 
0.009999999999999995, -1.129454833277199 
0.019999999999999934, -1.1286661018939048 
0.029999999999999874, -1.1276304467882108 
0.04000000000000012, -1.1263502680537778 
0.050000000000000405, -1.1248311524929766 
0.06000000000000069, -1.1230835911974812 
0.07000000000000098, -1.1211245392257174 
0.08000000000000126, -1.1189786024131887 
0.09000000000000155, -1.11667868643376 
0.10000000000000184, -1.1142659532730468 
0.11000000000000212, -1.1117889555021099 
0.12000000000000241, -1.1093019399847117 
0.130000000000002, -1.1068625429666463 
0.1400000000000009, -1.1045293134147884 
0.1499999999999998, -1.1023594859374137 
0.1599999999999987, -1.1004070572776816 
0.1699999999999976, -1.0987206655131283 
0.1799999999999965, -1.0973404675508729 
0.1899999999999954, -1.0962935765394597 
0.1999999999999943, -1.0955886567946762 
0.2099999999999932, -1.0952114011719325 
0.2199999999999921, -1.0951229839101635 
0.229999999999991, -1.0952627198438956 
0.2399999999999899, -1.0955544562388642 
0.2499999999999888, -1.0959147129078763 
0.2599999999999877, -1.0962601561048744 
0.2699999999999866, -1.096512732018698 
0.2799999999999855, -1.0966020718551173 
0.2899999999999844, -1.0964658667440903 
0.2999999999999833, -1.0960494046468952 
0.3099999999999822, -1.0953053724454322 
0.3199999999999811, -1.0941945596575697 
0.32999999999998, -1.0926874804322082 
0.3399999999999789, -1.0907663584532843 
0.3499999999999778, -1.0884265869526408 
0.35999999999997667, -1.0856768324773403 
0.36999999999997557, -1.0825374061249333 
0.37999999999997447, -1.079037187183741 
0.38999999999997337, -1.0752099334860608 
0.39999999999997227, -1.0710909971293052 
0.40999999999997117, -1.066715244990913 
0.41999999999997006, -1.0621165254910292 
0.42999999999996896, -1.0573285575414522 
0.43999999999996786, -1.0523868079502188 
0.44999999999996676, -1.0473308169584772 
0.45999999999996566, -1.0422064854441169 
0.46999999999996456, -1.037067966868785 
0.47999999999996346, -1.0319789197554479 
0.48999999999996235, -1.0270128943727803 
0.49999999999996125, -1.0222525167708574 
0.5099999999999602, -1.0177869496625485 
0.519999999999959, -1.0137070264194301 
0.529999999999958, -1.0100977184771287 
0.5399999999999568, -1.007028371449925 
0.5499999999999557, -1.0045422988731314 
0.5599999999999546, -1.0026483278178493 
0.5699999999999535, -1.001317031945243 
0.5799999999999524, -1.0004832589208328 
0.5899999999999513, -1.0000545030247587 
0.5999999999999502, -0.9999226975503458 
0.6099999999999491, -0.9999761169307679 
0.619999999999948, -1.0001086050505228 
0.6299999999999469, -1.0002247876773003 
0.6399999999999458, -1.0002414501268253 
0.6499999999999447, -1.0000862686786052 
0.6599999999999436, -0.9996954357213125 
0.6699999999999425, -0.9990115864435474 
0.6799999999999414, -0.9979830482621987 
0.6899999999999403, -0.99656492559139 
0.6999999999999392, -0.9947219385067765 
0.7099999999999381, -0.9924322943454549 
0.719999999999937, -0.9896913319381578 
0.7299999999999359, -0.9865134922309365 
0.7399999999999348, -0.9829315475558936 
0.7499999999999337, -0.97899291798832 
0.7599999999999326, -0.974753940378043 
0.7699999999999315, -0.9702736298172269 
0.7799999999999304, -0.965608490932217 
0.7899999999999293, -0.9608093873120883 
0.7999999999999282, -0.9559207114171803 
0.8099999999999271, -0.950981460665977 
0.819999999999926, -0.9460274883252121 
0.8299999999999249, -0.9410941502133305 
0.8399999999999238, -0.9362187071872367 
0.8499999999999227, -0.9314420564295456 
0.8599999999999216, -0.9268095698088462 
0.8699999999999205, -0.9223709700845037 
0.8799999999999194, -0.9181792610626491 
0.8899999999999183, -0.914288757103164 
0.8999999999999172, -0.9107522656822117 
0.9099999999999161, -0.9076175166720636 
0.919999999999915, -0.9049230522577555 
0.9299999999999139, -0.9026940002911601 
0.9399999999999128, -0.9009383884346636 
0.9499999999999117, -0.8996447886147202 
0.9599999999999106, -0.8987819786006989 
0.9699999999999095, -0.8983009245796674 
0.9799999999999084, -0.8981388267579754 
0.9899999999999073, -0.8982244471308672 
0.9999999999999062, -0.8984836734581396 
1.0099999999999052, -0.8988443621082441 
1.019999999999904, -0.8992398736909724 
1.029999999999903, -0.8996111894209939 
1.039999999999902, -0.8999078892748653 
1.0499999999999008, -0.9000884742197877 
1.0599999999998997, -0.9001205016369774 
1.0699999999998986, -0.8999808173626427 
1.0799999999998975, -0.8996558884032645 
1.0899999999998964, -0.8991419694334184 
1.0999999999998953, -0.8984446851307966 
1.1099999999998942, -0.8975776647774119 
1.119999999999893, -0.8965601321034633 
1.129999999999892, -0.8954137311423431 
1.1399999999998909, -0.8941591875774045 
1.1499999999998898, -0.8928135193908578 
1.1599999999998887, -0.8913883809484932 
1.1699999999998876, -0.8898898229982423 
1.1799999999998865, -0.8883194019026327 
1.1899999999998854, -0.8866762862150906 
1.1999999999998843, -0.8849598541938509 
1.2099999999998832, -0.883172270290027 
1.219999999999882, -0.8813206454657952 
1.229999999999881, -0.8794185626617719 
1.2399999999998799, -0.8774869091220686 
1.2499999999998788, -0.8755540470316135 
1.2599999999998777, -0.873655364508778 
1.2699999999998766, -0.8718322167697484 
1.2799999999998755, -0.87013024820148 
1.2899999999998744, -0.8685971227835285 
1.2999999999998733, -0.8672797884673744 
1.3099999999998722, -0.8662215254217464 
1.319999999999871, -0.8654591198161864 
1.32999999999987, -0.8650205141210384 
1.3399999999998689, -0.8649232000504966 
1.3499999999998678, -0.8651734756831495 
1.3599999999998666, -0.8657665439673395 
1.3699999999998655, -0.8666873355627985 
1.3799999999998644, -0.8679119079623803 
1.3899999999998633, -0.8694092815677038 
1.3999999999998622, -0.8711435847593102 
1.4099999999998611, -0.873076370416474 
1.41999999999986, -0.8751689377619766 
1.429999999999859, -0.8773844651498205 
1.4399999999998578, -0.8796897501132186 
1.4499999999998567, -0.8820563684338179 
1.4599999999998556, -0.8844610991370753 
1.4699999999998545, -0.886885512971669 
1.4799999999998534, -0.8893146940051161 
1.4899999999998523, -0.8917351710873697 
1.4999999999998512, -0.8941322861719317 
1.5099999999998501, -0.8964874072759307 
1.519999999999849, -0.8987755639844195 
1.529999999999848, -0.900964174800941 
1.5399999999998468, -0.9030134662251995 
1.5499999999998457, -0.9048788885514228 
1.5599999999998446, -0.9065153218986459 
1.5699999999998435, -0.9078822758980833 
1.5799999999998424, -0.9089488736590261 
1.5899999999998413, -0.9096974219487048 
1.5999999999998402, -0.9101248605518028 
1.6099999999998391, -0.9102421414277491 
1.619999999999838, -0.9100722557262455 
1.629999999999837, -0.9096479340646336 
1.6399999999998358, -0.9090099476924194 
1.6499999999998347, -0.9082065715118532 
1.6599999999998336, -0.9072943118102527 
1.6699999999998325, -0.9063395677636309 
1.6799999999998314, -0.9054205308956031 
1.6899999999998303, -0.9046283572455841 
1.6999999999998292, -0.904066536625961 
1.709999999999828, -0.9038475412798296 
1.719999999999827, -0.9040863578717452 
1.729999999999826, -0.9048913661180003 
1.7399999999998248, -0.9063539947720247 
1.7499999999998237, -0.9085392659250499 
1.7599999999998226, -0.9114793626971944 
1.7699999999998215, -0.9151716231032601 
1.7799999999998204, -0.9195811474544211 
1.7899999999998193, -0.9246470152957174 
1.7999999999998182, -0.9302903897855661 
1.809999999999817, -0.936422705327134 
1.819999999999816, -0.9429525442847055 
1.8299999999998149, -0.9497904161274622 
1.8399999999998138, -0.9568512009479048 
1.8499999999998127, -0.964054395114064 
1.8599999999998116, -0.971322523830732 
1.8699999999998105, -0.9785782568392161 
1.8799999999998094, -0.9857409640226897 
1.8899999999998083, -0.9927236953629095 
1.8999999999998072, -0.9994317832626465 
1.909999999999806, -1.0057642636964388 
1.919999999999805, -1.0116188753814501 
1.9299999999998039, -1.01690041367344 
1.9399999999998028, -1.0215308884705083 
1.9499999999998017, -1.0254588445668824 
1.9599999999998006, -1.0286650532431298 
1.9699999999997995, -1.0311628753468387 
1.9799999999997984, -1.032993472517379 
1.9899999999997973, -1.0342177419308554 
1.9999999999997962, -1.0349075916798185 
2.0099999999998173, -1.0351388503644052 
2.0199999999998384, -1.0349871734515086 
2.0299999999998595, -1.0345273291190737 
2.0399999999998806, -1.03383551612282 
2.0499999999999017, -1.0329938704538195 
2.059999999999923, -1.0320958847551867 
2.069999999999944, -1.0312509749709362 
2.079999999999965, -1.0305859823724566 
2.089999999999986, -1.03024137812329 
2.100000000000007, -1.0303608590141382 
2.1100000000000283, -1.0310751146443498 
2.1200000000000494, -1.0324832434767155 
2.1300000000000705, -1.0346371945133512 
2.1400000000000916, -1.0375342858061087 
2.1500000000001127, -1.0411200747025389 
2.160000000000134, -1.045300044206673 
2.170000000000155, -1.0499558106236966 
2.180000000000176, -1.0549610676234986 
2.190000000000197, -1.0601939384614456 
2.2000000000002182, -1.065544546320014 
2.2100000000002393, -1.0709182779314872 
2.2200000000002604, -1.0762359551956564 
2.2300000000002815, -1.0814321223731207 
2.2400000000003026, -1.086452328382273 
2.2500000000003237, -1.0912499824805444 
2.260000000000345, -1.0957832334884257 
2.270000000000366, -1.1000123425251493 
2.280000000000387, -1.1038980718473839 
2.290000000000408, -1.1074015640196058 
2.3000000000004293, -1.110485939268229 
2.3100000000004504, -1.1131193889252535 
2.3200000000004715, -1.1152790179734657 
2.3300000000004926, -1.1169543328408162 
2.3400000000005137, -1.118149316848532 
2.3500000000005348, -1.1188825387490149 
2.360000000000556, -1.1191854906955299 
2.370000000000577, -1.1190999908518133 
2.380000000000598, -1.1186757276584938 
2.390000000000619, -1.117968804919727 
2.4000000000006403, -1.117041598689704 
2.4100000000006614, -1.115963554322064 
2.4200000000006825, -1.1148119225532562 
2.4300000000007036, -1.1136710595645578 
2.4400000000007247, -1.112629046276454 
2.450000000000746, -1.1117712104288862 
2.460000000000767, -1.111171539352253 
2.470000000000788, -1.1108843198982168 
2.480000000000809, -1.1109387292454664 
2.49000000000083, -1.1113380475962253 
2.5000000000008513, -1.1120631829594243 
2.5100000000008724, -1.1130785214161405 
2.5200000000008935, -1.1143377281956768 
2.5300000000009146, -1.1157880292300253 
2.5400000000009357, -1.117372868349806 
2.550000000000957, -1.1190337409769775 
2.560000000000978, -1.1207120689928518 
2.570000000000999, -1.122351456635184 
2.58000000000102, -1.1239000896544376 
2.5900000000010412, -1.1253127897677795 
2.6000000000010624, -1.1265523434339049 
2.6100000000010835, -1.1275899812073247 
2.6200000000011046, -1.1284050834425925 
2.6300000000011257, -1.1289842625676465 
2.6400000000011468, -1.1293199790238022 
2.650000000001168, -1.1294088709143355 
2.660000000001189, -1.129250044211071 
2.67000000000121, -1.1288436379740168 
2.680000000001231, -1.1281899772164954 
2.6900000000012523, -1.1272895169142052 
2.7000000000012734, -1.1261435902500987 
2.7100000000012945, -1.1247557783514943 
2.7200000000013156, -1.1231335964651235 
2.7300000000013367, -1.1212901764104803 
2.740000000001358, -1.1192456869878915 
2.750000000001379, -1.1170283047675647 
2.7600000000014, -1.1146745782706893 
2.770000000001421, -1.1122290353276194 
2.780000000001442, -1.1097429418179017 
2.7900000000014633, -1.1072722935976296 
2.8000000000014844, -1.1048753695873812 
2.8100000000015055, -1.1026103152883044 
2.8200000000015266, -1.100533061493031 
2.8300000000015477, -1.0986953987582515 
2.840000000001569, -1.0971425238158747 
2.85000000000159, -1.095909324465473 
2.860000000001611, -1.0950153523750683 
2.870000000001632, -1.0944595956983072 
2.8800000000016532, -1.094217051424761 
2.8900000000016743, -1.0942389480446157 
2.9000000000016954, -1.0944571578662787 
2.9100000000017165, -1.0947915964192336 
2.9200000000017377, -1.095158302432018 
2.9300000000017588, -1.0954760048773082 
2.94000000000178, -1.0956700463705074 
2.950000000001801, -1.0956737973305593 
2.960000000001822, -1.0954285409690157 
2.970000000001843, -1.0948830325134264 
2.9800000000018643, -1.093993657153839 
2.9900000000018854, -1.0927255556896012 
3.0000000000019065, -1.0910544682929784 
3.0100000000019276, -1.0889685616371627 
3.0200000000019487, -1.0864693340411598 
3.03000000000197, -1.0835709361782153 
3.040000000001991, -1.080297821730662 
3.050000000002012, -1.076681287829854 
3.060000000002033, -1.0727558676814986 
3.070000000002054, -1.0685565315942553 
3.0800000000020753, -1.0641173008899774 
3.0900000000020964, -1.059471394255943 
3.1000000000021175, -1.054652619415762 
3.1100000000021386, -1.04969750579653 
3.1200000000021597, -1.0446476479081452 
3.130000000002181, -1.0395518286566843 
3.140000000002202, -1.0344676268977577 
3.150000000002223, -1.0294622965508062 
3.160000000002244, -1.0246126720571327 
3.1700000000022652, -1.0200037035906637 
3.1800000000022863, -1.0157250561171864 
3.1900000000023074, -1.0118652311958682 
3.2000000000023285, -1.0085031244332472 
3.2100000000023496, -1.005697882389832 
3.2200000000023707, -1.0034790811266092 
3.230000000002392, -1.0018399756345249 
3.240000000002413, -1.000736216310071 
3.250000000002434, -1.0000908615983546 
3.260000000002455, -0.9998043837800092 
3.2700000000024763, -0.9997667577749969 
3.2800000000024974, -0.9998684229134528 
3.2900000000025185, -1.000007881148827 
3.3000000000025396, -1.0000952452047573 
3.3100000000025607, -1.0000523950990152 
3.3200000000025818, -0.9998111307417212 
3.330000000002603, -0.9993108351864621 
3.340000000002624, -0.9984969058206441 
3.350000000002645, -0.9973207654492694 
3.360000000002666, -0.9957417183921151 
3.3700000000026873, -0.9937302958234459 
3.3800000000027084, -0.9912721189392047 
3.3900000000027295, -0.9883708976847106 
3.4000000000027506, -0.985049232493616 
3.4100000000027717, -0.9813465132676135 
3.420000000002793, -0.9773142153962113 
3.430000000002814, -0.9730098115216594 
3.440000000002835, -0.9684909083324126 
3.450000000002856, -0.9638109553861219 
3.460000000002877, -0.9590171885492315 
3.4700000000028983, -0.9541507375719366 
3.4800000000029194, -0.949248320623227 
3.4900000000029405, -0.9443447504822352 
3.5000000000029616, -0.9394755256293578 
3.5100000000029827, -0.9346789616273661 
3.520000000003004, -0.9299975339013699 
3.530000000003025, -0.9254782878014759 
3.540000000003046, -0.9211722950133261 
3.550000000003067, -0.9171331934139471 
3.5600000000030882, -0.9134148610045063 
3.5700000000031094, -0.9100682867748852 
3.5800000000031305, -0.9071377668680771 
3.5900000000031516, -0.9046567107288687 
3.6000000000031727, -0.902643571617795 
3.6100000000031938, -0.9010986265069362 
3.620000000003215, -0.9000023821306072 
3.630000000003236, -0.8993161682849884 
3.640000000003257, -0.8989850065797441 
3.650000000003278, -0.8989422698721934 
3.6600000000032993, -0.8991152089117572 
3.6700000000033204, -0.8994302991787646 
3.6800000000033415, -0.8998175800220796 
3.6900000000033626, -0.9002135936633467 
3.7000000000033837, -0.9005629899139259 
3.710000000003405, -0.9008191837356239 
3.720000000003426, -0.900944563353217 
3.730000000003447, -0.9009106542257281 
3.740000000003468, -0.900698408833782 
3.750000000003489, -0.900298504298393 
3.7600000000035103, -0.8997112983897445 
3.7700000000035314, -0.898946025636498 
3.7800000000035525, -0.8980189664208904 
3.7900000000035736, -0.8969506532928267 
3.8000000000035947, -0.8957625505756617 
3.810000000003616, -0.8944738843311973 
3.820000000003637, -0.8930993048706317 
3.830000000003658, -0.8916478462871938 
3.840000000003679, -0.8901233103418362 
3.8500000000037002, -0.8885258702005516 
3.8600000000037213, -0.8868544566112425 
3.8700000000037424, -0.8851094005713247 
3.8800000000037635, -0.8832948605817402 
3.8900000000037847, -0.8814207149058008 
3.9000000000038058, -0.8795037773714931 
3.910000000003827, -0.877568328450814 
3.920000000003848, -0.8756460057181544 
3.930000000003869, -0.8737750827088564 
3.94000000000389, -0.8719991319674244 
3.9500000000039113, -0.8703650707566427 
3.9600000000039324, -0.8689206545907463 
3.9700000000039535, -0.8677116007804215 
3.9800000000039746, -0.8667786420260216 
3.9900000000039957, -0.8661548693216993 
4.000000000004016, -0.8658636883901237 
4.010000000003993, -0.8659175946343024 
4.02000000000397, -0.8663178186431526 
4.030000000003946, -0.8670547680078989 
4.040000000003923, -0.8681091268942261 
4.0500000000039, -0.8694534670308343 
4.0600000000038765, -0.8710542386432266 
4.070000000003853, -0.872874013188854 
4.08000000000383, -0.8748738293340295 
4.090000000003807, -0.8770154616603274 
4.100000000003783, -0.8792634098096479 
4.11000000000376, -0.881586407905937 
4.120000000003737, -0.8839582797569894 
4.130000000003713, -0.8863580078531617 
4.14000000000369, -0.888768942984694 
4.150000000003667, -0.8911771667891254 
4.1600000000036434, -0.8935691450182174 
4.17000000000362, -0.8959289754098466 
4.180000000003597, -0.8982357159237019 
4.1900000000035735, -0.9004614229199048 
4.20000000000355, -0.9025705583756245 
4.210000000003527, -0.9045212616164222 
4.220000000003504, -0.9062685851341802 
4.23000000000348, -0.907769227184691 
4.240000000003457, -0.9089867523557867 
4.250000000003434, -0.909896045875066 
4.26000000000341, -0.9104859782436289 
4.270000000003387, -0.9107598989325427 
4.280000000003364, -0.9107343319532079 
4.2900000000033405, -0.9104367702009405 
4.300000000003317, -0.9099035844942546 
4.310000000003294, -0.9091788255449343 
4.320000000003271, -0.9083142725300452 
4.330000000003247, -0.9073706265431198 
4.340000000003224, -0.9064193418244759 
4.350000000003201, -0.905544262807844 
4.360000000003177, -0.9048420310584646 
4.370000000003154, -0.9044202308125936 
4.380000000003131, -0.9043925670840576 
4.390000000003107, -0.9048710652644765 
4.400000000003084, -0.9059562259500814 
4.410000000003061, -0.9077269409094965 
4.4200000000030375, -0.9102323662259287 
4.430000000003014, -0.9134875956614162 
4.440000000002991, -0.9174739647280024 
4.450000000002968, -0.9221435590100654 
4.460000000002944, -0.9274265104416017 
4.470000000002921, -0.933239264895548 
4.480000000002898, -0.9394921943330147 
4.490000000002874, -0.9460954656897129 
4.500000000002851, -0.9529626732428311 
4.510000000002828, -0.9600122011114113 
4.520000000002804, -0.9671665682907389 
4.530000000002781, -0.9743501882591996 
4.540000000002758, -0.9814861465095027 
4.5500000000027345, -0.9884928212933285 
4.560000000002711, -0.99528142093904 
4.570000000002688, -1.001755658288711 
4.580000000002665, -1.0078146208826457 
4.590000000002641, -1.0133592313216002 
4.600000000002618, -1.0183015285313641 
4.610000000002595, -1.0225747047807794 
4.620000000002571, -1.0261410832857418 
4.630000000002548, -1.0289956052854858 
4.640000000002525, -1.0311639006679127 
4.6500000000025015, -1.0326959120240442 
4.660000000002478, -1.0336573719693023 
4.670000000002455, -1.0341216878489807 
4.6800000000024315, -1.0341641421505867 
4.690000000002408, -1.0338593217498848 
4.700000000002385, -1.0332818096144571 
4.710000000002362, -1.0325095602628507 
4.720000000002338, -1.0316289304757131 
4.730000000002315, -1.030739881910436 
4.740000000002292, -1.0299593778437452 
4.750000000002268, -1.0294206898737326 
4.760000000002245, -1.029266683250835 
4.770000000002222, -1.0296366034692679 
4.7800000000021985, -1.0306483541366485 
4.790000000002175, -1.0323807575301787 
4.800000000002152, -1.0348612861974948 
4.810000000002129, -1.0380632523329278 
4.820000000002105, -1.0419129901524788 
4.830000000002082, -1.0463040458226578 
4.840000000002059, -1.051113626377704 
4.850000000002035, -1.0562170626559313 
4.860000000002012, -1.0614979488761767 
4.870000000001989, -1.066853622501348 
4.880000000001965, -1.072196889095066 
4.890000000001942, -1.0774552498233363 
4.900000000001919, -1.0825686889668764 
4.9100000000018955, -1.0874867381385287 
4.920000000001872, -1.0921653099902588 
4.930000000001849, -1.0965637465313067 
