t, s[1].omega / s[0].omega 
0, -0.3899977870270044 
0.009999999999999995, -0.38984004038359354 
0.019999999999999934, -0.38979337245817924 
0.029999999999999874, -0.3898180586948594 
0.04000000000000012, -0.38986112412246426 
0.050000000000000405, -0.38987119231724177 
0.06000000000000069, -0.38980994219424897 
0.07000000000000098, -0.38965553554471927 
0.08000000000000126, -0.389398626652227 
0.09000000000000155, -0.38903493769621955 
0.10000000000000184, -0.3885576828104916 
0.11000000000000212, -0.38795040405114856 
0.12000000000000241, -0.3871780805163962 
0.130000000000002, -0.3861714036269197 
0.1400000000000009, -0.38479380618079323 
0.1499999999999998, -0.38277096406457484 
0.1599999999999987, -0.3795530904295342 
0.1699999999999976, -0.37411463414952306 
0.1799999999999965, -0.36490675966706587 
0.1899999999999954, -0.3505889771487803 
0.1999999999999943, -0.3317729734305819 
0.2099999999999932, -0.31174490579530423 
0.2199999999999921, -0.29422724188312055 
0.229999999999991, -0.2809371922049141 
0.2399999999999899, -0.27164205708895184 
0.2499999999999888, -0.2653641755938316 
0.2599999999999877, -0.2611550491670107 
0.2699999999999866, -0.2583181254634758 
0.2799999999999855, -0.25639349457617844 
0.2899999999999844, -0.25509156930149474 
0.2999999999999833, -0.254236014131047 
0.3099999999999822, -0.2537256511480205 
0.3199999999999811, -0.25351215323261184 
0.32999999999998, -0.25358932243650256 
0.3399999999999789, -0.25399143638721033 
0.3499999999999778, -0.2548001104204138 
0.35999999999997667, -0.25616093083143976 
0.36999999999997557, -0.2583124243071907 
0.37999999999997447, -0.2616289491757069 
0.38999999999997337, -0.2666692620603669 
0.39999999999997227, -0.2741862797687342 
0.40999999999997117, -0.2849656037218028 
0.41999999999997006, -0.2992700441933714 
0.42999999999996896, -0.3159343380994783 
0.43999999999996786, -0.3321484125571084 
0.44999999999996676, -0.3450748050324166 
0.45999999999996566, -0.35375724931313457 
0.46999999999996456, -0.3589853247604474 
0.47999999999996346, -0.36199881128397005 
0.48999999999996235, -0.3637370721187831 
0.49999999999996125, -0.3647548007511864 
0.5099999999999602, -0.3653497004271171 
0.519999999999959, -0.36567758017066426 
0.529999999999958, -0.36581969210529436 
0.5399999999999568, -0.365817455680319 
0.5499999999999557, -0.3656904423822499 
0.5599999999999546, -0.3654472353263216 
0.5699999999999535, -0.36509432121506247 
0.5799999999999524, -0.3646450386203518 
0.5899999999999513, -0.3641274286243811 
0.5999999999999502, -0.3635870485088598 
0.6099999999999491, -0.36308107044313676 
0.619999999999948, -0.36266466204394676 
0.6299999999999469, -0.36237578273986193 
0.6399999999999458, -0.3622248497953078 
0.6499999999999447, -0.36219223787329946 
0.6599999999999436, -0.36223389244264514 
0.6699999999999425, -0.3622937403735217 
0.6799999999999414, -0.36231868795797617 
0.6899999999999403, -0.3622696412926008 
0.6999999999999392, -0.3621241653490713 
0.7099999999999381, -0.3618717179683655 
0.719999999999937, -0.36150548855031284 
0.7299999999999359, -0.3610138193668552 
0.7399999999999348, -0.36037120049026955 
0.7499999999999337, -0.3595257971473748 
0.7599999999999326, -0.35837698142925256 
0.7699999999999315, -0.35673086776293567 
0.7799999999999304, -0.3542155182485689 
0.7899999999999293, -0.3501473768780792 
0.7999999999999282, -0.3434310853774264 
0.8099999999999271, -0.3328277790487159 
0.819999999999926, -0.3180179777851141 
0.8299999999999249, -0.30076985076447604 
0.8399999999999238, -0.2842389816055835 
0.8499999999999227, -0.27075134720789384 
0.8599999999999216, -0.2608425833305583 
0.8699999999999205, -0.2539408899562185 
0.8799999999999194, -0.24921923102309745 
0.8899999999999183, -0.24598431470817247 
0.8999999999999172, -0.24374867331150596 
0.9099999999999161, -0.24219440822612254 
0.919999999999915, -0.24112293292815332 
0.9299999999999139, -0.2404165997730209 
0.9399999999999128, -0.24001460146487047 
0.9499999999999117, -0.23990051741511223 
0.9599999999999106, -0.24009934654630222 
0.9699999999999095, -0.24068364639058704 
0.9799999999999084, -0.24179055397104277 
0.9899999999999073, -0.2436538417133916 
0.9999999999999062, -0.24665680563676914 
1.0099999999999052, -0.2514076316006492 
1.019999999999904, -0.25881079471219476 
1.029999999999903, -0.27001100131276506 
1.039999999999902, -0.2858885198438645 
1.0499999999999008, -0.3057916853788209 
1.0599999999998997, -0.326405677966039 
1.0699999999998986, -0.3432602497077265 
1.0799999999998975, -0.3542410355599107 
1.0899999999998964, -0.3603333432262265 
1.0999999999998953, -0.363496306413679 
1.1099999999998942, -0.3651685175131579 
1.119999999999893, -0.36611180049897 
1.129999999999892, -0.3666793636886765 
1.1399999999998909, -0.3670302461045289 
1.1499999999998898, -0.3672381296324978 
1.1599999999998887, -0.3673387330420377 
1.1699999999998876, -0.3673497928469601 
1.1799999999998865, -0.3672802966509361 
1.1899999999998854, -0.3671362854127359 
1.1999999999998843, -0.36692630154144124 
1.2099999999998832, -0.3666671213151466 
1.219999999999882, -0.36638824595742 
1.229999999999881, -0.3661321375930467 
1.2399999999998799, -0.3659479678056058 
1.2499999999998788, -0.36587989171526364 
1.2599999999998777, -0.3659538412655246 
1.2699999999998766, -0.3661672583970346 
1.2799999999998755, -0.366485458385673 
1.2899999999998744, -0.3668477705193647 
1.2999999999998733, -0.3671835849844277 
1.3099999999998722, -0.3674317790112519 
1.319999999999871, -0.36755319249289514 
1.32999999999987, -0.3675307853648205 
1.3399999999998689, -0.3673606153093432 
1.3499999999998678, -0.36703998907394586 
1.3599999999998666, -0.36655628717438743 
1.3699999999998655, -0.3658756257807602 
1.3799999999998644, -0.36492723830350154 
1.3899999999998633, -0.36357675824678515 
1.3999999999998622, -0.3615793669518262 
1.4099999999998611, -0.35850834624632705 
1.41999999999986, -0.3536904109507359 
1.429999999999859, -0.34628716498633116 
1.4399999999998578, -0.3357723422639814 
1.4499999999998567, -0.32273304466597963 
1.4599999999998556, -0.3090498896921223 
1.4699999999998545, -0.29680061824669446 
1.4799999999998534, -0.2870794505401888 
1.4899999999998523, -0.27991162686454624 
1.4999999999998512, -0.2748071989901039 
1.5099999999998501, -0.2712064859750326 
1.519999999999849, -0.26865697571118885 
1.529999999999848, -0.2668385756753837 
1.5399999999998468, -0.2655395487487208 
1.5499999999998457, -0.2646271230948448 
1.5599999999998446, -0.26402530359602844 
1.5699999999998435, -0.2637014643323652 
1.5799999999998424, -0.26366090806963294 
1.5899999999998413, -0.2639490223097573 
1.5999999999998402, -0.2646620562780435 
1.6099999999998391, -0.2659694504312889 
1.619999999999838, -0.2681527561401029 
1.629999999999837, -0.27166664442257715 
1.6399999999998358, -0.2772184286461246 
1.6499999999998347, -0.285818950856433 
1.6599999999998336, -0.29862942903161976 
1.6699999999998325, -0.3162351784701366 
1.6799999999998314, -0.3372324105154768 
1.6899999999998303, -0.3576298099198797 
1.6999999999998292, -0.3732789869382847 
1.709999999999828, -0.383026028692736 
1.719999999999827, -0.3883563480567517 
1.729999999999826, -0.39117079232456764 
1.7399999999998248, -0.3927157726562043 
1.7499999999998237, -0.3936236359005153 
1.7599999999998226, -0.39418606431206615 
1.7699999999998215, -0.39453707605838384 
1.7799999999998204, -0.394740839342066 
1.7899999999998193, -0.39482921401083493 
1.7999999999998182, -0.3948176717366606 
1.809999999999817, -0.39471301995073416 
1.819999999999816, -0.3945188680067577 
1.8299999999998149, -0.39424141166911186 
1.8399999999998138, -0.3938958772750716 
1.8499999999998127, -0.3935116080658015 
1.8599999999998116, -0.3931321311464423 
1.8699999999998105, -0.3928077685924157 
1.8799999999998094, -0.3925825947139495 
1.8899999999998083, -0.3924811005206889 
1.8999999999998072, -0.3924997611134823 
1.909999999999806, -0.3926064872678577 
1.919999999999805, -0.3927488977795024 
1.9299999999998039, -0.3928692346742191 
1.9399999999998028, -0.3929194958854859 
1.9499999999998017, -0.39286953137092373 
1.9599999999998006, -0.3927057370452608 
1.9699999999997995, -0.39242366964529024 
1.9799999999997984, -0.3920191914271465 
1.9899999999997973, -0.3914802436578982 
1.9999999999997962, -0.39077814815291545 
2.0099999999998173, -0.389854516008281 
2.0199999999998384, -0.3885960908535902 
2.0299999999998595, -0.3867831727188358 
2.0399999999998806, -0.38398924769425713 
2.0499999999999017, -0.37942247968860743 
2.059999999999923, -0.3718170529709581 
2.069999999999944, -0.3597953381808063 
2.079999999999965, -0.3431647799155562 
2.089999999999986, -0.32415043193977194 
2.100000000000007, -0.3063129698869763 
2.1100000000000283, -0.2920330730625467 
2.1200000000000494, -0.28169438106971617 
2.1300000000000705, -0.2745726668629305 
2.1400000000000916, -0.2697463923386834 
2.1500000000001127, -0.2664717423223649 
2.160000000000134, -0.2642348099783576 
2.170000000000155, -0.26270336951601614 
2.180000000000176, -0.2616705062060883 
2.190000000000197, -0.2610131073473456 
2.2000000000002182, -0.26066594866650467 
2.2100000000002393, -0.26060784622291333 
2.2200000000002604, -0.2608570881798883 
2.2300000000002815, -0.2614750755911251 
2.2400000000003026, -0.2625788606694689 
2.2500000000003237, -0.26436482076065715 
2.260000000000345, -0.26714610897023605 
2.270000000000366, -0.27140187963704676 
2.280000000000387, -0.277814626998247 
2.290000000000408, -0.2872084632004556 
2.3000000000004293, -0.3001910435617109 
2.3100000000004504, -0.31633798670570146 
2.3200000000004715, -0.3334591144123255 
2.3300000000004926, -0.3483858503740381 
2.3400000000005137, -0.35915543879804646 
2.3500000000005348, -0.3659155151749561 
2.360000000000556, -0.36986690748759066 
2.370000000000577, -0.37214172038964 
2.380000000000598, -0.3734682417497892 
2.390000000000619, -0.37424978159227534 
2.4000000000006403, -0.3746989353981967 
2.4100000000006614, -0.3749269005418471 
2.4200000000006825, -0.37499123524981426 
2.4300000000007036, -0.37492010569662926 
2.4400000000007247, -0.3747255589344773 
2.450000000000746, -0.37441286478194324 
2.460000000000767, -0.3739894729639911 
2.470000000000788, -0.37347409258998093 
2.480000000000809, -0.3729030724174504 
2.49000000000083, -0.3723294149980053 
2.5000000000008513, -0.3718123618120591 
2.5100000000008724, -0.3714015648550827 
2.5200000000008935, -0.37112334311512873 
2.5300000000009146, -0.37097424724217837 
2.5400000000009357, -0.3709231136204949 
2.550000000000957, -0.3709205828867435 
2.560000000000978, -0.37091313726482095 
2.570000000000999, -0.3708561468640616 
2.58000000000102, -0.3707204288794223 
2.5900000000010412, -0.37049091324995076 
2.6000000000010624, -0.3701603048537153 
2.6100000000010835, -0.3697213893468532 
2.6200000000011046, -0.369159465265504 
2.6300000000011257, -0.36844356803433687 
2.6400000000011468, -0.36751223106783126 
2.650000000001168, -0.3662450359652388 
2.660000000001189, -0.3644031148823048 
2.67000000000121, -0.3615130331138993 
2.680000000001231, -0.3566899649587283 
2.6900000000012523, -0.3485528644882162 
2.7000000000012734, -0.3357464709708192 
2.7100000000012945, -0.3184507884054585 
2.7200000000013156, -0.29939256736307357 
2.7300000000013367, -0.28218355501211645 
2.740000000001358, -0.26881895772677983 
2.750000000001379, -0.25933191092195346 
2.7600000000014, -0.25286556068582045 
2.770000000001421, -0.2485017101564392 
2.780000000001442, -0.24554168867501508 
2.7900000000014633, -0.2435167149727066 
2.8000000000014844, -0.24212924457385446 
2.8100000000015055, -0.24119724967866363 
2.8200000000015266, -0.240615859035737 
2.8300000000015477, -0.24033463241360442 
2.840000000001569, -0.24034668272460658 
2.85000000000159, -0.24068732471766013 
2.860000000001611, -0.2414420054122956 
2.870000000001632, -0.2427654430158171 
2.8800000000016532, -0.2449159381065326 
2.8900000000016743, -0.24830905753682622 
2.9000000000016954, -0.25358616010555624 
2.9100000000017165, -0.2616534267560534 
2.9200000000017377, -0.2735340768668265 
2.9300000000017588, -0.289716407242287 
2.94000000000178, -0.30892869804858847 
2.950000000001801, -0.327659415769671 
2.960000000001822, -0.34225662134547497 
2.970000000001843, -0.35161191581337364 
2.9800000000018643, -0.3569147103022253 
2.9900000000018854, -0.3598015173196942 
3.0000000000019065, -0.3614047573366722 
3.0100000000019276, -0.362334590918833 
3.0200000000019487, -0.36289083312944287 
3.03000000000197, -0.3632191513278643 
3.040000000001991, -0.3633919511256727 
3.050000000002012, -0.36344585683293534 
3.060000000002033, -0.3633991534321978 
3.070000000002054, -0.363261153061531 
3.0800000000020753, -0.36303913129726395 
3.0900000000020964, -0.3627451296266068 
3.1000000000021175, -0.36240233713210607 
3.1100000000021386, -0.3620484349583782 
3.1200000000021597, -0.36173264607328015 
3.130000000002181, -0.3615057831189419 
3.140000000002202, -0.36140666804373855 
3.150000000002223, -0.3614500560644517 
3.160000000002244, -0.3616200144624362 
3.1700000000022652, -0.36187140584441974 
3.1800000000022863, -0.36214080954010186 
3.1900000000023074, -0.36236399907273753 
3.2000000000023285, -0.36249175568531056 
3.2100000000023496, -0.3624961284083853 
3.2200000000023707, -0.3623661252932661 
3.230000000002392, -0.36209771427056403 
3.240000000002413, -0.361682979975107 
3.250000000002434, -0.36109963141318213 
3.260000000002455, -0.36029838115611107 
3.2700000000024763, -0.3591827148096297 
3.2800000000024974, -0.3575723757520027 
3.2900000000025185, -0.35514022859987937 
3.3000000000025396, -0.3513255717018179 
3.3100000000025607, -0.34529579867547044 
3.3200000000025818, -0.3361831193617798 
3.330000000002603, -0.3238299667538223 
3.340000000002624, -0.3095529490077312 
3.350000000002645, -0.29568481080830344 
3.360000000002666, -0.2840675560187123 
3.3700000000026873, -0.27526891441721346 
3.3800000000027084, -0.268958816671209 
3.3900000000027295, -0.2645274187603359 
3.4000000000027506, -0.2614193849117942 
3.4100000000027717, -0.259223737157914 
3.420000000002793, -0.25766266412911987 
3.430000000002814, -0.25655805756099537 
3.440000000002835, -0.25580242394373265 
3.450000000002856, -0.25533951008830724 
3.460000000002877, -0.25515408289071423 
3.4700000000028983, -0.2552698221469217 
3.4800000000029194, -0.25575545370488617 
3.4900000000029405, -0.25674105917301 
3.5000000000029616, -0.25844873895143483 
3.5100000000029827, -0.2612437215386022 
3.520000000003004, -0.2657094821125112 
3.530000000003025, -0.27272799694534083 
3.540000000003046, -0.28346236204946085 
3.550000000003067, -0.2989464119034817 
3.5600000000030882, -0.31889582341557837 
3.5700000000031094, -0.3403320875949023 
3.5800000000031305, -0.3585435931283184 
3.5900000000031516, -0.37074158190117723 
3.6000000000031727, -0.3775690214453796 
3.6100000000031938, -0.3810838920705918 
3.620000000003215, -0.3829152961893504 
3.630000000003236, -0.3839408855332724 
3.640000000003257, -0.3845624458016626 
3.650000000003278, -0.3849557710356824 
3.6600000000032993, -0.3851997976073 
3.6700000000033204, -0.38533195377781443 
3.6800000000033415, -0.38537052780074377 
3.6900000000033626, -0.3853242091953978 
3.7000000000033837, -0.3851974621110211 
3.710000000003405, -0.3849954043980907 
3.720000000003426, -0.3847293968933873 
3.730000000003447, -0.38442244425849936 
3.740000000003468, -0.38411155478073167 
3.750000000003489, -0.3838439451361771 
3.7600000000035103, -0.3836666927042675 
3.7700000000035314, -0.38361331335715615 
3.7800000000035525, -0.3836923153970174 
3.7900000000035736, -0.383881792866966 
3.8000000000035947, -0.384132819460485 
3.810000000003616, -0.38438221219178925 
3.820000000003637, -0.3845702194328163 
3.830000000003658, -0.38465433015753936 
3.840000000003679, -0.38461274643265586 
3.8500000000037002, -0.384438385017896 
3.8600000000037213, -0.38412878553603413 
3.8700000000037424, -0.3836760620375817 
3.8800000000037635, -0.38305727508052895 
3.8900000000037847, -0.3822222603090468 
3.9000000000038058, -0.3810729073308382 
3.910000000003827, -0.3794236879967022 
3.920000000003848, -0.37692883328724336 
3.930000000003869, -0.37297062112766793 
3.94000000000389, -0.3665754139738201 
3.9500000000039113, -0.35662424807096144 
3.9600000000039324, -0.3427242829488207 
3.9700000000039535, -0.32628021186721573 
3.9800000000039746, -0.31011340937108955 
3.9900000000039957, -0.2965610091226656 
4.000000000004016, -0.2863733351286187 
4.010000000003993, -0.27915527355484515 
4.02000000000397, -0.274159033335103 
4.030000000003946, -0.27070962796574066 
4.040000000003923, -0.2683136301096719 
4.0500000000039, -0.26664101264256085 
4.0600000000038765, -0.26548126927967786 
4.070000000003853, -0.26470636495220246 
4.08000000000383, -0.26424608110661907 
4.090000000003807, -0.26407421886268 
4.100000000003783, -0.2642036171865713 
4.11000000000376, -0.2646891768752418 
4.120000000003737, -0.2656397324522421 
4.130000000003713, -0.2672413805901026 
4.14000000000369, -0.26979613770386546 
4.150000000003667, -0.27377762766257585 
4.1600000000036434, -0.2798896109749681 
4.17000000000362, -0.2890572809476406 
4.180000000003597, -0.30215540750803116 
4.1900000000035735, -0.31919788941127386 
4.20000000000355, -0.3382559671964482 
4.210000000003527, -0.35571099146531504 
4.220000000003504, -0.36869791809981667 
4.23000000000348, -0.3768927892666428 
4.240000000003457, -0.3816138223103312 
4.250000000003434, -0.38427678371683527 
4.26000000000341, -0.38581067486328247 
4.270000000003387, -0.3867201534272099 
4.280000000003364, -0.3872627710902842 
4.2900000000033405, -0.38756964706145514 
4.300000000003317, -0.38770824471553483 
4.310000000003294, -0.3877125649353283 
4.320000000003271, -0.3875981631422364 
4.330000000003247, -0.38737121099935046 
4.340000000003224, -0.3870362700855618 
4.350000000003201, -0.38660456558509965 
4.360000000003177, -0.38610161001828686 
4.370000000003154, -0.3855702840752177 
4.380000000003131, -0.38506550264859657 
4.390000000003107, -0.38464101822835967 
4.400000000003084, -0.3843342316547588 
4.410000000003061, -0.3841556991656438 
4.4200000000030375, -0.38408670439359277 
4.430000000003014, -0.38408517392208225 
4.440000000002991, -0.3840981437985538 
4.450000000002968, -0.38407619967700796 
4.460000000002944, -0.3839836066948968 
4.470000000002921, -0.3838004218638333 
4.480000000002898, -0.3835179062659296 
4.490000000002874, -0.3831311706268699 
4.500000000002851, -0.3826318485402406 
4.510000000002828, -0.3820008855395215 
4.520000000002804, -0.381198876165742 
4.530000000002781, -0.3801481224395916 
4.540000000002758, -0.3786944758083802 
4.5500000000027345, -0.37652623340004515 
4.560000000002711, -0.37302064029573845 
4.570000000002688, -0.36704334705489916 
4.580000000002665, -0.35698957265536146 
4.590000000002641, -0.34174222906560603 
4.600000000002618, -0.32246155679707766 
4.610000000002595, -0.302766143864443 
4.620000000002571, -0.2861050205153781 
4.630000000002548, -0.27373072534588516 
4.640000000002525, -0.2651666691162052 
4.6500000000025015, -0.2594017405588721 
4.660000000002478, -0.2555340672967468 
4.670000000002455, -0.2529215724913636 
4.6800000000024315, -0.25114615540141777 
4.690000000002408, -0.24994673094059666 
4.700000000002385, -0.24916600256293284 
4.710000000002362, -0.24871608959831448 
4.720000000002338, -0.24855907873932037 
4.730000000002315, -0.24869858040930293 
4.740000000002292, -0.24918025870829266 
4.750000000002268, -0.2501013275374668 
4.760000000002245, -0.2516308826748184 
4.770000000002222, -0.2540441795971203 
4.7800000000021985, -0.25777200021913826 
4.790000000002175, -0.2634520193806623 
4.800000000002152, -0.2719196662780217 
4.810000000002129, -0.2839658601667605 
4.820000000002105, -0.2996197888376405 
4.830000000002082, -0.31718350059553657 
4.840000000002059, -0.33341414435360645 
4.850000000002035, -0.34565715341757397 
4.860000000002012, -0.35350383597940394 
4.870000000001989, -0.3580837208061002 
