t, s[1].omega / s[0].omega 
0, -1.4499911203978466 
0.009999999999999995, -1.4488662707496653 
0.019999999999999934, -1.4472727755959887 
0.029999999999999874, -1.4452113519649763 
0.04000000000000012, -1.4426828323862282 
0.050000000000000405, -1.4396882354289224 
0.06000000000000069, -1.4362288604823812 
0.07000000000000098, -1.4323064064579534 
0.08000000000000126, -1.4279231137313904 
0.09000000000000155, -1.4230819281726994 
0.10000000000000184, -1.417786685605868 
0.11000000000000212, -1.4120423146577594 
0.12000000000000241, -1.4058550559233307 
0.130000000000002, -1.399232695972444 
0.1400000000000009, -1.3921848162159722 
0.1499999999999998, -1.384723059177253 
0.1599999999999987, -1.3768614181598753 
0.1699999999999976, -1.36861656014595 
0.1799999999999965, -1.3600081949945002 
0.1899999999999954, -1.351059505164605 
0.1999999999999943, -1.3417976475024527 
0.2099999999999932, -1.332254330415047 
0.2199999999999921, -1.3224664548819764 
0.229999999999991, -1.312476786220911 
0.2399999999999899, -1.302334596887201 
0.2499999999999888, -1.2920961922210685 
0.2599999999999877, -1.2818252059983735 
0.2699999999999866, -1.2715925370498522 
0.2799999999999855, -1.2614757983753888 
0.2899999999999844, -1.2515581711817956 
0.2999999999999833, -1.241926600522723 
0.3099999999999822, -1.232669335121534 
0.3199999999999811, -1.2238728951462956 
0.32999999999998, -1.2156186372488615 
0.3399999999999789, -1.2079791620147984 
0.3499999999999778, -1.2010148604992241 
0.35999999999997667, -1.1947709118673615 
0.36999999999997557, -1.1892750172229154 
0.37999999999997447, -1.1845360871028132 
0.38999999999997337, -1.1805440012633512 
0.39999999999997227, -1.1772704446676836 
0.40999999999997117, -1.1746707110681645 
0.41999999999997006, -1.1726862721727858 
0.42999999999996896, -1.1712478485387503 
0.43999999999996786, -1.1702786939933076 
0.44999999999996676, -1.169697817585489 
0.45999999999996566, -1.16942290907077 
0.46999999999996456, -1.1693727953096809 
0.47999999999996346, -1.1694693241531708 
0.48999999999996235, -1.1696386389325681 
0.49999999999996125, -1.1698118627946412 
0.5099999999999602, -1.1699252534324251 
0.519999999999959, -1.1699199141454866 
0.529999999999958, -1.1697411580948713 
0.5399999999999568, -1.1693376222074245 
0.5499999999999557, -1.1686602192221955 
0.5599999999999546, -1.1676610045697435 
0.5699999999999535, -1.1662920222741924 
0.5799999999999524, -1.1645041832080172 
0.5899999999999513, -1.162246221316272 
0.5999999999999502, -1.1594637696101058 
0.6099999999999491, -1.156098597919432 
0.619999999999948, -1.1520880581602326 
0.6299999999999469, -1.1473647892900165 
0.6399999999999458, -1.1418567417783072 
0.6499999999999447, -1.1354875883610902 
0.6599999999999436, -1.1281775915757306 
0.6699999999999425, -1.1198449960671006 
0.6799999999999414, -1.1104080015668303 
0.6899999999999403, -1.0997873475011606 
0.6999999999999392, -1.0879094998597423 
0.7099999999999381, -1.0747103744417141 
0.719999999999937, -1.0601394598711245 
0.7299999999999359, -1.044164124613396 
0.7399999999999348, -1.0267738146612895 
0.7499999999999337, -1.0079837863765937 
0.7599999999999326, -0.9878379878471417 
0.7699999999999315, -0.966410716370856 
0.7799999999999304, -0.9438067481691137 
0.7899999999999293, -0.9201597586765022 
0.7999999999999282, -0.8956290157225887 
0.8099999999999271, -0.8703945107721578 
0.819999999999926, -0.8446508655732755 
0.8299999999999249, -0.8186004834710744 
0.8399999999999238, -0.7924464838750939 
0.8499999999999227, -0.7663859552039272 
0.8599999999999216, -0.7406039909490778 
0.8699999999999205, -0.7152688526039033 
0.8799999999999194, -0.6905284565935204 
0.8899999999999183, -0.6665082353670744 
0.8999999999999172, -0.6433102962334839 
0.9099999999999161, -0.6210137083028083 
0.919999999999915, -0.5996756925774984 
0.9299999999999139, -0.5793334703310162 
0.9399999999999128, -0.5600065333722948 
0.9499999999999117, -0.5416991276416436 
0.9599999999999106, -0.5244027800059962 
0.9699999999999095, -0.5080987398058643 
0.9799999999999084, -0.49276024640592453 
0.9899999999999073, -0.47835456853147224 
0.9999999999999062, -0.4648447890736816 
1.0099999999999052, -0.4521913301100563 
1.019999999999904, -0.44035322769321084 
1.029999999999903, -0.42928917549735124 
1.039999999999902, -0.4189583617928423 
1.0499999999999008, -0.40932112651470137 
1.0599999999998997, -0.4003394653305493 
1.0699999999998986, -0.3919774063511033 
1.0799999999998975, -0.38420128303877915 
1.0899999999998964, -0.37697992437720507 
1.0999999999998953, -0.3702847807566299 
1.1099999999998942, -0.3640900014966509 
1.119999999999893, -0.3583724775827918 
1.129999999999892, -0.35311186109861875 
1.1399999999998909, -0.34829057101550837 
1.1499999999998898, -0.34389379345982 
1.1599999999998887, -0.33990948329978127 
1.1699999999998876, -0.3363283728616556 
1.1799999999998865, -0.333143992772658 
1.1899999999998854, -0.3303527093111699 
1.1999999999998843, -0.32795378219764 
1.2099999999998832, -0.32594944645709695 
1.219999999999882, -0.32434502180164787 
1.229999999999881, -0.3231490528934193 
1.2399999999998799, -0.3223734838280786 
1.2499999999998788, -0.3220338701957806 
1.2599999999998777, -0.3221496320935903 
1.2699999999998766, -0.3227443514354429 
1.2799999999998755, -0.3238461167734337 
1.2899999999998744, -0.32548791852996856 
1.2999999999998733, -0.3277080969406658 
1.3099999999998722, -0.3305508439855137 
1.319999999999871, -0.33406675895867777 
1.32999999999987, -0.33831345485684927 
1.3399999999998689, -0.3433562091430545 
1.3499999999998678, -0.3492686472743022 
1.3599999999998666, -0.3561334401789475 
1.3699999999998655, -0.3640429870458289 
1.3799999999998644, -0.37310004166742144 
1.3899999999998633, -0.38341822344231524 
1.3999999999998622, -0.395122332310343 
1.4099999999998611, -0.4083483598992227 
1.41999999999986, -0.42324305702980575 
1.429999999999859, -0.4399628814151192 
1.4399999999998578, -0.4586721114190717 
1.4499999999998567, -0.4795398770375369 
1.4599999999998556, -0.5027358361212018 
1.4699999999998545, -0.5284242248324723 
1.4799999999998534, -0.5567560536083465 
1.4899999999998523, -0.5878593244078801 
1.4999999999998512, -0.6218273331790071 
1.5099999999998501, -0.6587054085571848 
1.519999999999849, -0.6984768223473709 
1.529999999999848, -0.7410490578331361 
1.5399999999998468, -0.7862420650059855 
1.5499999999998457, -0.8337804495501364 
1.5599999999998446, -0.8832915888464876 
1.5699999999998435, -0.9343113106431687 
1.5799999999998424, -0.9862979501907088 
1.5899999999998413, -1.0386543946791713 
1.5999999999998402, -1.0907563594053356 
1.6099999999998391, -1.1419839569827168 
1.619999999999838, -1.1917529562951685 
1.629999999999837, -1.239542185228466 
1.6399999999998358, -1.2849142932415007 
1.6499999999998347, -1.3275283256276473 
1.6599999999998336, -1.367143923577481 
1.6699999999998325, -1.403618123282477 
1.6799999999998314, -1.4368964754896276 
1.6899999999998303, -1.4670004932347571 
1.6999999999998292, -1.4940133360676233 
1.709999999999828, -1.5180652943895425 
1.719999999999827, -1.539320191944728 
1.729999999999826, -1.5579633885727342 
1.7399999999998248, -1.5741917034392903 
1.7499999999998237, -1.5882053149155282 
1.7599999999998226, -1.6002015235204123 
1.7699999999998215, -1.6103701714182421 
1.7799999999998204, -1.618890474466662 
1.7899999999998193, -1.6259290211646893 
1.7999999999998182, -1.6316387117224456 
1.809999999999817, -1.6361584390703539 
1.819999999999816, -1.6396133449444057 
1.8299999999998149, -1.6421155139530885 
1.8399999999998138, -1.6437649942236863 
1.8499999999998127, -1.6446510533303598 
1.8599999999998116, -1.6448535918064977 
1.8699999999998105, -1.6444446431964548 
1.8799999999998094, -1.6434898894956453 
1.8899999999998083, -1.6420501151662843 
1.8999999999998072, -1.6401825144049353 
1.909999999999806, -1.637941759564478 
1.919999999999805, -1.6353807399834401 
1.9299999999998039, -1.6325508971928013 
1.9399999999998028, -1.629502120574354 
1.9499999999998017, -1.6262822287799452 
1.9599999999998006, -1.6229361409187981 
1.9699999999997995, -1.6195049229691327 
1.9799999999997984, -1.6160249569276843 
1.9899999999997973, -1.6125274989278708 
1.9999999999997962, -1.6090388506159328 
2.0099999999998173, -1.60558126276915 
2.0199999999998384, -1.6021745370229261 
2.0299999999998595, -1.598838121551227 
2.0399999999998806, -1.5955933475047595 
2.0499999999999017, -1.5924653597937466 
2.059999999999923, -1.5894842826031288 
2.069999999999944, -1.586685236965346 
2.079999999999965, -1.5841069902620821 
2.089999999999986, -1.5817892462710799 
2.100000000000007, -1.5797688441900872 
2.1100000000000283, -1.5780753759428536 
2.1200000000000494, -1.5767268947616664 
2.1300000000000705, -1.5757264229121701 
2.1400000000000916, -1.575059847261138 
2.1500000000001127, -1.5746955351178236 
2.160000000000134, -1.5745856697958913 
2.170000000000155, -1.5746689819902069 
2.180000000000176, -1.5748743213910315 
2.190000000000197, -1.5751244218223572 
2.2000000000002182, -1.5753392643986663 
2.2100000000002393, -1.5754385977497944 
2.2200000000002604, -1.5753433730795174 
2.2300000000002815, -1.5749760386582115 
2.2400000000003026, -1.5742597763503718 
2.2500000000003237, -1.5731168387192023 
2.260000000000345, -1.5714661651556474 
2.270000000000366, -1.5692204360838233 
2.280000000000387, -1.566282685035814 
2.290000000000408, -1.5625425463269744 
2.3000000000004293, -1.5578721840327732 
2.3100000000004504, -1.552121935057198 
2.3200000000004715, -1.5451157122590369 
2.3300000000004926, -1.5366462595324886 
2.3400000000005137, -1.5264704371639843 
2.3500000000005348, -1.5143048519960662 
2.360000000000556, -1.4998223428099862 
2.370000000000577, -1.4826500942204466 
2.380000000000598, -1.4623704804928628 
2.390000000000619, -1.438526111897573 
2.4000000000006403, -1.410630911104127 
2.4100000000006614, -1.3781892680759034 
2.4200000000006825, -1.3407252151349345 
2.4300000000007036, -1.2978228610941351 
2.4400000000007247, -1.2491777321229016 
2.450000000000746, -1.1946560023586617 
2.460000000000767, -1.1343550057296503 
2.470000000000788, -1.0686546345892947 
2.480000000000809, -0.9982466756503694 
2.49000000000083, -0.9241296250299902 
2.5000000000008513, -0.8475614122530478 
2.5100000000008724, -0.7699714927367679 
2.5200000000008935, -0.6928444399429194 
2.5300000000009146, -0.6175954302735024 
2.5400000000009357, -0.545460281818987 
2.550000000000957, -0.4774179831841381 
2.560000000000978, -0.41415413329572115 
2.570000000000999, -0.3560634327864013 
2.58000000000102, -0.30328189554600266 
2.5900000000010412, -0.25573635719346277 
2.6000000000010624, -0.21319964118384713 
2.6100000000010835, -0.17534277638561763 
2.6200000000011046, -0.1417792688555607 
2.6300000000011257, -0.11209950864634122 
2.6400000000011468, -0.08589549437215621 
2.650000000001168, -0.0627772041329571 
2.660000000001189, -0.042382368181116736 
2.67000000000121, -0.0243813804985463 
2.680000000001231, -0.008478845927492732 
2.6900000000012523, 0.004869139736986746 
2.7000000000012734, 0.015585684016506405 
2.7100000000012945, 0.024899762036236582 
2.7200000000013156, 0.03298749931760401 
2.7300000000013367, 0.04000129086180586 
2.740000000001358, 0.04607276368495683 
2.750000000001379, 0.05131546562596392 
2.7600000000014, 0.05582725575972577 
2.770000000001421, 0.05969239845681155 
2.780000000001442, 0.06298337819303765 
2.7900000000014633, 0.06576245972289188 
2.8000000000014844, 0.06808302101652577 
2.8100000000015055, 0.06999068632347802 
2.8200000000015266, 0.07152428511815542 
2.8300000000015477, 0.07271666030612804 
2.840000000001569, 0.07359534643118268 
2.85000000000159, 0.07418313603084606 
2.860000000001611, 0.07449854993074982 
2.870000000001632, 0.07455622526234011 
2.8800000000016532, 0.07436723341498208 
2.8900000000016743, 0.0739393390644792 
2.9000000000016954, 0.0732772109402463 
2.9100000000017165, 0.0723825952209058 
2.9200000000017377, 0.07125446355625145 
2.9300000000017588, 0.06988914995776033 
2.94000000000178, 0.06828049455274691 
2.950000000001801, 0.06642001799630379 
2.960000000001822, 0.06429715894849856 
2.970000000001843, 0.06189961954204576 
2.9800000000018643, 0.05921388172659205 
2.9900000000018854, 0.05622598294180955 
3.0000000000019065, 0.052922675766839886 
3.0100000000019276, 0.04929314722803492 
3.0200000000019487, 0.04533154514659371 
3.03000000000197, 0.04104065927575919 
3.040000000001991, 0.03643724489634093 
3.050000000002012, 0.03155967059470256 
3.060000000002033, 0.026478839259417214 
3.070000000002054, 0.02131369606501176 
3.0800000000020753, 0.016253127877428938 
3.0900000000020964, 0.011586703910915142 
3.1000000000021175, 0.007747523937810796 
3.1100000000021386, 0.005371397793273716 
3.1200000000021597, 0.00537751685732594 
3.130000000002181, 0.009076198530043489 
3.140000000002202, 0.018307890322711552 
3.150000000002223, 0.03561129685703311 
3.160000000002244, 0.06440033262123472 
3.1700000000022652, 0.10908590572747653 
3.1800000000022863, 0.17498768957559202 
3.1900000000023074, 0.2677287223233294 
3.2000000000023285, 0.39165763126748 
3.2100000000023496, 0.5470167658971512 
3.2200000000023707, 0.7266854622264146 
3.230000000002392, 0.9152965223224593 
3.240000000002413, 1.0936071699476737 
3.250000000002434, 1.2463095012858474 
3.260000000002455, 1.3669959124519524 
3.2700000000024763, 1.4572037328958134 
3.2800000000024974, 1.5224436825479504 
3.2900000000025185, 1.5688776445161254 
3.3000000000025396, 1.6017376221461348 
3.3100000000025607, 1.6249572336898397 
3.3200000000025818, 1.641322775894889 
3.330000000002603, 1.6527500865544167 
3.340000000002624, 1.6605349808924406 
3.350000000002645, 1.6655406972016507 
3.360000000002666, 1.6683266525652276 
3.3700000000026873, 1.669232086800892 
3.3800000000027084, 1.6684269427227996 
3.3900000000027295, 1.665938703948725 
3.4000000000027506, 1.6616604356478217 
3.4100000000027717, 1.655342523945184 
3.420000000002793, 1.646568669876444 
3.430000000002814, 1.6347158136276687 
3.440000000002835, 1.6188987614239774 
3.450000000002856, 1.5979056236085125 
3.460000000002877, 1.5701442065294535 
3.4700000000028983, 1.5336488602626406 
3.4800000000029194, 1.4862458122755833 
3.4900000000029405, 1.4260248841698488 
3.5000000000029616, 1.3522397393360306 
3.5100000000029827, 1.2665127092131634 
3.520000000003004, 1.1737128946369704 
3.530000000003025, 1.0815419897343959 
3.540000000003046, 0.9984737157196271 
3.550000000003067, 0.931082118156796 
3.5600000000030882, 0.8823947741031268 
3.5700000000031094, 0.8519483380647166 
3.5800000000031305, 0.836961271654728 
3.5900000000031516, 0.8336936672905979 
3.6000000000031727, 0.8384467268959345 
3.6100000000031938, 0.8480947552639518 
3.620000000003215, 0.8602593174321731 
3.630000000003236, 0.8732748701953927 
3.640000000003257, 0.8860620919360673 
3.650000000003278, 0.8979800260987914 
3.6600000000032993, 0.9086926242345786 
3.6700000000033204, 0.9180627459321615 
3.6800000000033415, 0.9260745800675204 
3.6900000000033626, 0.9327801909115843 
3.7000000000033837, 0.9382644743491649 
3.710000000003405, 0.94262321608362 
3.720000000003426, 0.9459500030511908 
3.730000000003447, 0.9483288659790796 
3.740000000003468, 0.9498304883450659 
3.750000000003489, 0.9505105480049212 
3.7600000000035103, 0.9504092839679693 
3.7700000000035314, 0.9495517492450422 
3.7800000000035525, 0.9479484702245735 
3.7900000000035736, 0.9455964261972453 
3.8000000000035947, 0.9424804247587959 
3.810000000003616, 0.9385751097728475 
3.820000000003637, 0.9338480250869017 
3.830000000003658, 0.928264393987938 
3.840000000003679, 0.9217945828280337 
3.8500000000037002, 0.9144256091238188 
3.8600000000037213, 0.906178517001696 
3.8700000000037424, 0.8971339095892917 
3.8800000000037635, 0.8874682279232731 
3.8900000000037847, 0.8775031468780504 
3.9000000000038058, 0.8677690885206593 
3.910000000003827, 0.859080332959036 
3.920000000003848, 0.8526121846365398 
3.930000000003869, 0.849958749582291 
3.94000000000389, 0.8531327493589485 
3.9500000000039113, 0.8644496510038098 
3.9600000000039324, 0.8862287173171695 
3.9700000000039535, 0.9202685488081686 
3.9800000000039746, 0.9671493019926001 
3.9900000000039957, 1.0255870262664248 
4.000000000004016, 1.0922257829873132 
4.010000000003993, 1.1621880620195808 
4.02000000000397, 1.2302894967604965 
4.030000000003946, 1.2923359010360123 
4.040000000003923, 1.3458633434064589 
4.0500000000039, 1.3901259556886916 
4.0600000000038765, 1.4256026699398554 
4.070000000003853, 1.4534097027256212 
4.08000000000383, 1.4748512337123088 
4.090000000003807, 1.491159189636249 
4.100000000003783, 1.503379660047556 
4.11000000000376, 1.5123458382287116 
4.120000000003737, 1.518691707937233 
4.130000000003713, 1.5228793360756814 
4.14000000000369, 1.525226117479788 
4.150000000003667, 1.5259259971040664 
4.1600000000036434, 1.5250623228145153 
4.17000000000362, 1.5226112306746449 
4.180000000003597, 1.5184343863428749 
4.1900000000035735, 1.512259031412635 
4.20000000000355, 1.5036418322312453 
4.210000000003527, 1.4919111322273946 
4.220000000003504, 1.476080230680282 
4.23000000000348, 1.454723516867249 
4.240000000003457, 1.4258113435716981 
4.250000000003434, 1.386517458068563 
4.26000000000341, 1.3330630801715917 
4.270000000003387, 1.2607707025264034 
4.280000000003364, 1.164669380231063 
4.2900000000033405, 1.0410840690886043 
4.300000000003317, 0.8902378022798707 
4.310000000003294, 0.7186262602091734 
4.320000000003271, 0.5387591240262157 
4.330000000003247, 0.3652190290163241 
4.340000000003224, 0.20954206348355076 
4.350000000003201, 0.07752023174802117 
4.360000000003177, -0.02973122856931098 
4.370000000003154, -0.11405165446566681 
4.380000000003131, -0.18037719719569706 
4.390000000003107, -0.232448526719066 
4.400000000003084, -0.27350932077716006 
4.410000000003061, -0.30616865181909325 
4.4200000000030375, -0.332440705786304 
4.430000000003014, -0.3538457010035075 
4.440000000002991, -0.3715177539516682 
4.450000000002968, -0.3862989396901441 
4.460000000002944, -0.3988144058410685 
4.470000000002921, -0.40952969360382074 
4.480000000002898, -0.41879339418001854 
4.490000000002874, -0.4268684463577352 
4.500000000002851, -0.43395492453070117 
4.510000000002828, -0.4402065706684673 
4.520000000002804, -0.44574277569147036 
4.530000000002781, -0.45065726960743896 
4.540000000002758, -0.45502443734012565 
4.5500000000027345, -0.458903922574225 
4.560000000002711, -0.4623439960621446 
4.570000000002688, -0.4653840305787382 
4.580000000002665, -0.4680563283287256 
4.590000000002641, -0.47038747765479483 
4.600000000002618, -0.47239936664396165 
4.610000000002595, -0.47410994608529755 
4.620000000002571, -0.47553380917188115 
4.630000000002548, -0.4766826374920827 
4.640000000002525, -0.47756555017477254 
4.6500000000025015, -0.47818938408273637 
4.660000000002478, -0.4785589266466402 
4.670000000002455, -0.47867711854725903 
4.6800000000024315, -0.47854524043605806 
4.690000000002408, -0.47816309581914496 
4.700000000002385, -0.4775292007915214 
4.710000000002362, -0.4766409902266303 
4.720000000002338, -0.47549504906097584 
4.730000000002315, -0.47408737624225833 
4.740000000002292, -0.4724136875199244 
4.750000000002268, -0.4704697613513451 
4.760000000002245, -0.46825182960461487 
4.770000000002222, -0.46575701134122555 
4.7800000000021985, -0.46298378372399424 
4.790000000002175, -0.45993247910634355 
4.800000000002152, -0.4566057918678131 
4.810000000002129, -0.4530092730034167 
4.820000000002105, -0.4491517854739701 
4.830000000002082, -0.44504588965142455 
4.840000000002059, -0.44070812667904063 
4.850000000002035, -0.4361591689674064 
4.860000000002012, -0.4314238118766712 
4.870000000001989, -0.426530788992116 
4.880000000001965, -0.42151240484309876 
4.890000000001942, -0.41640399242662723 
4.900000000001919, -0.41124321696885724 
4.9100000000018955, -0.4060692602084556 
4.920000000001872, -0.40092192936636095 
4.930000000001849, -0.3958407404959208 
4.940000000001826, -0.3908640263483475 
