t, s[1].omega / s[0].omega 
0, -0.999991207341829 
0.009999999999999995, -0.9990321531886069 
0.019999999999999934, -0.9979152689035814 
0.029999999999999874, -0.9966404638770865 
0.04000000000000012, -0.9952072524580406 
0.050000000000000405, -0.9936148588632892 
0.06000000000000069, -0.991862359144162 
0.07000000000000098, -0.9899488524841396 
0.08000000000000126, -0.987873652902733 
0.09000000000000155, -0.9856364919180871 
0.10000000000000184, -0.9832377228833569 
0.11000000000000212, -0.9806785185000135 
0.12000000000000241, -0.9779610543025241 
0.130000000000002, -0.9750886725324766 
0.1400000000000009, -0.9720660225781821 
0.1499999999999998, -0.9688991758485284 
0.1599999999999987, -0.9655957144022228 
0.1699999999999976, -0.9621647937362106 
0.1799999999999965, -0.9586171807807776 
0.1899999999999954, -0.9549652683496085 
0.1999999999999943, -0.9512230671073064 
0.2099999999999932, -0.9474061756496376 
0.2199999999999921, -0.9435317286791957 
0.229999999999991, -0.9396183226487841 
0.2399999999999899, -0.9356859177761987 
0.2499999999999888, -0.9317557151221194 
0.2599999999999877, -0.9278500075445237 
0.2699999999999866, -0.923992003830189 
0.2799999999999855, -0.9202056261394096 
0.2899999999999844, -0.9165152820217652 
0.2999999999999833, -0.9129456135678711 
0.3099999999999822, -0.9095212276275879 
0.3199999999999811, -0.906266412310749 
0.32999999999998, -0.9032048460581648 
0.3399999999999789, -0.900359306315232 
0.3499999999999778, -0.8977513851779811 
0.35999999999997667, -0.895401219274887 
0.36999999999997557, -0.8933272406061736 
0.37999999999997447, -0.8915459541391225 
0.38999999999997337, -0.8900717467426791 
0.39999999999997227, -0.8889167306523797 
0.40999999999997117, -0.8880906232127419 
0.41999999999997006, -0.8876006632706204 
0.42999999999996896, -0.8874515633944389 
0.43999999999996786, -0.8876454961481028 
0.44999999999996676, -0.8881821119984841 
0.45999999999996566, -0.8890585860892557 
0.46999999999996456, -0.8902696910453288 
0.47999999999996346, -0.8918078931263798 
0.48999999999996235, -0.893663469350423 
0.49999999999996125, -0.8958246435744988 
0.5099999999999602, -0.8982777398656172 
0.519999999999959, -0.901007351748371 
0.529999999999958, -0.903996526022488 
0.5399999999999568, -0.9072269597755053 
0.5499999999999557, -0.9106792089717191 
0.5599999999999546, -0.9143329066039418 
0.5699999999999535, -0.9181669878966383 
0.5799999999999524, -0.9221599195095556 
0.5899999999999513, -0.926289929177252 
0.5999999999999502, -0.930535231795146 
0.6099999999999491, -0.9348742476775123 
0.619999999999948, -0.9392858085995652 
0.6299999999999469, -0.9437493473055859 
0.6399999999999458, -0.9482450664095184 
0.6499999999999447, -0.9527540830099885 
0.6599999999999436, -0.9572585458566625 
0.6699999999999425, -0.9617417225077505 
0.6799999999999414, -0.9661880545850863 
0.6899999999999403, -0.9705831799515214 
0.6999999999999392, -0.9749139214073168 
0.7099999999999381, -0.9791682423406934 
0.719999999999937, -0.9833351706909402 
0.7299999999999359, -0.9874046936052446 
0.7399999999999348, -0.9913676262943785 
0.7499999999999337, -0.9952154597980576 
0.7599999999999326, -0.9989401936114968 
0.7699999999999315, -1.0025341603250768 
0.7799999999999304, -1.0059898504886058 
0.7899999999999293, -1.0092997467116764 
0.7999999999999282, -1.012456176427596 
0.8099999999999271, -1.0154511926633658 
0.819999999999926, -1.018276491479053 
0.8299999999999249, -1.0209233734122516 
0.8399999999999238, -1.0233827542863934 
0.8499999999999227, -1.0256452281792177 
0.8599999999999216, -1.0277011823345303 
0.8699999999999205, -1.0295409605418673 
0.8799999999999194, -1.0311550682693462 
0.8899999999999183, -1.0325344099176252 
0.8999999999999172, -1.0336705462749343 
0.9099999999999161, -1.0345559588661883 
0.919999999999915, -1.0351843075957614 
0.9299999999999139, -1.0355506689603171 
0.9399999999999128, -1.0356517440929525 
0.9499999999999117, -1.0354860287909309 
0.9599999999999106, -1.0350539411562716 
0.9699999999999095, -1.0343579061461903 
0.9799999999999084, -1.0334023997738735 
0.9899999999999073, -1.032193958542615 
0.9999999999999062, -1.030741161648474 
1.0099999999999052, -1.0290545943778635 
1.019999999999904, -1.0271468009173017 
1.029999999999903, -1.025032233565585 
1.039999999999902, -1.0227272032767858 
1.0499999999999008, -1.0202498338187278 
1.0599999999998997, -1.017620018897894 
1.0699999999998986, -1.0148593786817934 
1.0799999999998975, -1.0119912095369066 
1.0899999999998964, -1.0090404187603264 
1.0999999999998953, -1.0060334348404485 
1.1099999999998942, -1.0029980835059 
1.119999999999893, -0.9999634206124156 
1.129999999999892, -0.9969595147905524 
1.1399999999998909, -0.9940171756521217 
1.1499999999998898, -0.9911676270449681 
1.1599999999998887, -0.9884421290679908 
1.1699999999998876, -0.9858715569401146 
1.1799999999998865, -0.9834859489343455 
1.1899999999998854, -0.9813140390091281 
1.1999999999998843, -0.9793827921068118 
1.2099999999998832, -0.9777169610538543 
1.219999999999882, -0.9763386834419275 
1.229999999999881, -0.9752671348136742 
1.2399999999998799, -0.974518251112862 
1.2499999999998788, -0.9741045290270861 
1.2599999999998777, -0.9740349079993355 
1.2699999999998766, -0.974314732808572 
1.2799999999998755, -0.9749457912000953 
1.2899999999998744, -0.9759264174904153 
1.2999999999998733, -0.9772516506643127 
1.3099999999998722, -0.9789134343591943 
1.319999999999871, -0.9809008462720078 
1.32999999999987, -0.9832003457606506 
1.3399999999998689, -0.9857960304646974 
1.3499999999998678, -0.9886698952879758 
1.3599999999998666, -0.9918020896944888 
1.3699999999998655, -0.9951711716225976 
1.3799999999998644, -0.9987543581426012 
1.3899999999998633, -1.0025277740926453 
1.3999999999998622, -1.0064667002658205 
1.4099999999998611, -1.010545822341219 
1.41999999999986, -1.0147394808048693 
1.429999999999859, -1.0190219208114801 
1.4399999999998578, -1.023367539542 
1.4499999999998567, -1.0277511273507391 
1.4599999999998556, -1.0321480980586717 
1.4699999999998545, -1.0365347032554726 
1.4799999999998534, -1.0408882254610008 
1.4899999999998523, -1.0451871454315904 
1.4999999999998512, -1.0494112796853678 
1.5099999999998501, -1.0535418853400347 
1.519999999999849, -1.0575617304790954 
1.529999999999848, -1.0614551293815184 
1.5399999999998468, -1.0652079429950023 
1.5499999999998457, -1.068807545976007 
1.5599999999998446, -1.0722427624695063 
1.5699999999998435, -1.0755037735916273 
1.5799999999998424, -1.0785820003492927 
1.5899999999998413, -1.081469966512286 
1.5999999999998402, -1.0841611467481576 
1.6099999999998391, -1.0866498061086793 
1.619999999999838, -1.0889308376528453 
1.629999999999837, -1.0909996055134443 
1.6399999999998358, -1.092851800956624 
1.6499999999998347, -1.0944833188460086 
1.6599999999998336, -1.09589016132798 
1.6699999999998325, -1.0970683744664138 
1.6799999999998314, -1.0980140219897978 
1.6899999999998303, -1.0987231983464114 
1.6999999999998292, -1.0991920810253635 
1.709999999999828, -1.0994170197711228 
1.719999999999827, -1.0993946581037908 
1.729999999999826, -1.0991220806694895 
1.7399999999998248, -1.0985969785752774 
1.7499999999998237, -1.0978178241519305 
1.7599999999998226, -1.0967840466034973 
1.7699999999998215, -1.0954962007250468 
1.7799999999998204, -1.09395612219007 
1.7899999999998193, -1.0921670646388753 
1.7999999999998182, -1.090133815698648 
1.809999999999817, -1.087862790874375 
1.819999999999816, -1.085362105726624 
1.8299999999998149, -1.0826416277090285 
1.8399999999998138, -1.0797130093678118 
1.8499999999998127, -1.076589704294511 
1.8599999999998116, -1.0732869663541555 
1.8699999999998105, -1.069821831451724 
1.8799999999998094, -1.0662130796797478 
1.8899999999998083, -1.0624811743734615 
1.8999999999998072, -1.0586481736518352 
1.909999999999806, -1.0547376096744698 
1.919999999999805, -1.0507743312609932 
1.9299999999998039, -1.0467843067721045 
1.9399999999998028, -1.042794386197381 
1.9499999999998017, -1.0388320240716045 
1.9599999999998006, -1.0349249678755592 
1.9699999999997995, -1.0311009196128778 
1.9799999999997984, -1.0273871808973725 
1.9899999999997973, -1.023810293759523 
1.9999999999997962, -1.0203956901892166 
2.0099999999998173, -1.017167363008907 
2.0199999999998384, -1.0141475690182444 
2.0299999999998595, -1.0113565726447995 
2.0399999999998806, -1.0088124349081755 
2.0499999999999017, -1.006530848797224 
2.059999999999923, -1.0045250186555108 
2.069999999999944, -1.002805578321215 
2.079999999999965, -1.0013805409286323 
2.089999999999986, -1.0002552726543084 
2.100000000000007, -0.9994324833096515 
2.1100000000000283, -0.9989122283946669 
2.1200000000000494, -0.998691919733129 
2.1300000000000705, -0.9987663447007783 
2.1400000000000916, -0.9991276968803696 
2.1500000000001127, -0.9997656232930611 
2.160000000000134, -1.0006672948046114 
2.170000000000155, -1.0018175066539068 
2.180000000000176, -1.003198815225506 
2.190000000000197, -1.0047917152794308 
2.2000000000002182, -1.006574859105266 
2.2100000000002393, -1.0085253158440417 
2.2200000000002604, -1.0106188659421793 
2.2300000000002815, -1.0128303227877018 
2.2400000000003026, -1.015133871388086 
2.2500000000003237, -1.017503412727575 
2.260000000000345, -1.0199129022925122 
2.270000000000366, -1.022336672130161 
2.280000000000387, -1.024749727530463 
2.290000000000408, -1.027128011715546 
2.3000000000004293, -1.0294486344633262 
2.3100000000004504, -1.0316900630545294 
2.3200000000004715, -1.0338322760375511 
2.3300000000004926, -1.0358568818521057 
2.3400000000005137, -1.0377472052375523 
2.3500000000005348, -1.0394883445742475 
2.360000000000556, -1.0410672029578958 
2.370000000000577, -1.042472495053238 
2.380000000000598, -1.0436947308267266 
2.390000000000619, -1.0447261763471036 
2.4000000000006403, -1.0455607911819425 
2.4100000000006614, -1.046194141677529 
2.4200000000006825, -1.0466232896916932 
2.4300000000007036, -1.0468466571745512 
2.4400000000007247, -1.0468638682943752 
2.450000000000746, -1.0466755724402106 
2.460000000000767, -1.0462832531963808 
2.470000000000788, -1.0456890300439345 
2.480000000000809, -1.0448954608714107 
2.49000000000083, -1.0439053541789394 
2.5000000000008513, -1.042721600004379 
2.5100000000008724, -1.041347028034218 
2.5200000000008935, -1.0397843001133427 
2.5300000000009146, -1.0380358425389704 
2.5400000000009357, -1.0361038212766698 
2.550000000000957, -1.033990160769426 
2.560000000000978, -1.0316966045381577 
2.570000000000999, -1.0292248134993653 
2.58000000000102, -1.026576496030269 
2.5900000000010412, -1.0237535624262386 
2.6000000000010624, -1.020758295595926 
2.6100000000010835, -1.0175935296401772 
2.6200000000011046, -1.0142628283141166 
2.6300000000011257, -1.0107706561766876 
2.6400000000011468, -1.007122536348089 
2.650000000001168, -1.0033251900629652 
2.660000000001189, -0.9993866544681269 
2.67000000000121, -0.9953163762336656 
2.680000000001231, -0.9911252794317773 
2.6900000000012523, -0.9868258067454316 
2.7000000000012734, -0.9824319334091843 
2.7100000000012945, -0.9779591534139291 
2.7200000000013156, -0.9734244375172407 
2.7300000000013367, -0.9688461625989954 
2.740000000001358, -0.9642440119936995 
2.750000000001379, -0.9596388467018426 
2.7600000000014, -0.9550525478834162 
2.770000000001421, -0.9505078317755897 
2.780000000001442, -0.9460280391158721 
2.7900000000014633, -0.9416369022142999 
2.8000000000014844, -0.9373582938959604 
2.8100000000015055, -0.9332159635073026 
2.8200000000015266, -0.9292332659288245 
2.8300000000015477, -0.9254328899670495 
2.840000000001569, -0.9218365925501792 
2.85000000000159, -0.9184649448097005 
2.860000000001611, -0.9153370954273774 
2.870000000001632, -0.9124705556394292 
2.8800000000016532, -0.9098810091255999 
2.8900000000016743, -0.9075821487958183 
2.9000000000016954, -0.9055855413467769 
2.9100000000017165, -0.9039005195043023 
2.9200000000017377, -0.9025341011740562 
2.9300000000017588, -0.9014909343333768 
2.94000000000178, -0.9007732664090529 
2.950000000001801, -0.9003809370578335 
2.960000000001822, -0.9003113936238426 
2.970000000001843, -0.900559728993391 
2.9800000000018643, -0.9011187419979143 
2.9900000000018854, -0.9019790208301318 
3.0000000000019065, -0.9031290500551036 
3.0100000000019276, -0.9045553416634737 
3.0200000000019487, -0.9062425902104951 
3.03000000000197, -0.908173851430749 
3.040000000001991, -0.9103307428690064 
3.050000000002012, -0.9126936641048019 
3.060000000002033, -0.9152420331713523 
3.070000000002054, -0.9179545348823422 
3.0800000000020753, -0.9208093760767946 
3.0900000000020964, -0.9237845423448278 
3.1000000000021175, -0.926858050646216 
3.1100000000021386, -0.9300081923837172 
3.1200000000021597, -0.9332137619127432 
3.130000000002181, -0.936454266096723 
3.140000000002202, -0.9397101112721294 
3.150000000002223, -0.9429627647802217 
3.160000000002244, -0.9461948889726456 
3.1700000000022652, -0.9493904462430945 
3.1800000000022863, -0.9525347741443172 
3.1900000000023074, -0.9556146300197726 
3.2000000000023285, -0.9586182048467247 
3.2100000000023496, -0.9615351062145374 
3.2200000000023707, -0.9643563106272408 
3.230000000002392, -0.9670740857045 
3.240000000002413, -0.9696818834286605 
3.250000000002434, -0.9721742063887984 
3.260000000002455, -0.9745464500087131 
3.2700000000024763, -0.9767947249734903 
3.2800000000024974, -0.9789156654045712 
3.2900000000025185, -0.980906229656403 
3.3000000000025396, -0.9827635017763185 
3.3100000000025607, -0.9844845025347567 
3.3200000000025818, -0.9860660193580021 
3.330000000002603, -0.9875044643708298 
3.340000000002624, -0.9887957690132119 
3.350000000002645, -0.9899353223159608 
3.360000000002666, -0.9909179579435328 
3.3700000000026873, -0.9917379926350318 
3.3800000000027084, -0.9923893158493351 
3.3900000000027295, -0.992865527448234 
3.4000000000027506, -0.9931601173690658 
3.4100000000027717, -0.9932666786977643 
3.420000000002793, -0.9931791435969928 
3.430000000002814, -0.9928920303741474 
3.440000000002835, -0.9924006897228244 
3.450000000002856, -0.9917015388763062 
3.460000000002877, -0.9907922740027495 
3.4700000000028983, -0.9896720534737244 
3.4800000000029194, -0.9883416473899718 
3.4900000000029405, -0.9868035516384712 
3.5000000000029616, -0.9850620674621074 
3.5100000000029827, -0.9831233497607489 
3.520000000003004, -0.9809954288946781 
3.530000000003025, -0.9786882115058984 
3.540000000003046, -0.9762134657899171 
3.550000000003067, -0.9735847958147943 
3.5600000000030882, -0.9708176080473624 
3.5700000000031094, -0.9679290714130454 
3.5800000000031305, -0.9649380702170512 
3.5900000000031516, -0.9618651473254598 
3.6000000000031727, -0.9587324333626437 
3.6100000000031938, -0.9555635565116273 
3.620000000003215, -0.9523835269471344 
3.630000000003236, -0.9492185900742781 
3.640000000003257, -0.9460960436159128 
3.650000000003278, -0.9430440151515695 
3.6600000000032993, -0.9400911988590455 
3.6700000000033204, -0.9372665527848681 
3.6800000000033415, -0.9345989607616568 
3.6900000000033626, -0.932116865856068 
3.7000000000033837, -0.9298478847179721 
3.710000000003405, -0.9278184141731612 
3.720000000003426, -0.9260532426636814 
3.730000000003447, -0.9245751795621535 
3.740000000003468, -0.9234047149201825 
3.750000000003489, -0.9225597208940328 
3.7600000000035103, -0.9220552040439218 
3.7700000000035314, -0.9219031151156406 
3.7800000000035525, -0.9221122200200739 
3.7900000000035736, -0.9226880327820581 
3.8000000000035947, -0.9236328084804498 
3.810000000003616, -0.9249455918571379 
3.820000000003637, -0.926622315489916 
3.830000000003658, -0.9286559402904622 
3.840000000003679, -0.9310366306193638 
3.8500000000037002, -0.9337519564512696 
3.8600000000037213, -0.9367871156629395 
3.8700000000037424, -0.9401251705020011 
3.8800000000037635, -0.9437472934507912 
3.8900000000037847, -0.947633018854716 
3.9000000000038058, -0.9517604976869306 
3.910000000003827, -0.9561067535575974 
3.920000000003848, -0.9606479384832118 
3.930000000003869, -0.9653595869995615 
3.94000000000389, -0.9702168669715098 
3.9500000000039113, -0.9751948250050478 
3.9600000000039324, -0.9802686238082833 
3.9700000000039535, -0.985413768292481 
3.9800000000039746, -0.9906063167567465 
3.9900000000039957, -0.9958230732419764 
4.000000000004016, -1.0010417571212846 
4.010000000003993, -1.0062411462315433 
4.02000000000397, -1.011401190330694 
4.030000000003946, -1.0165030923540193 
4.040000000003923, -1.0215293557953211 
4.0500000000039, -1.0264637975116089 
4.0600000000038765, -1.0312915263053155 
4.070000000003853, -1.035998888748868 
4.08000000000383, -1.040573384863195 
4.090000000003807, -1.0450035574268535 
4.100000000003783, -1.0492788598524383 
4.11000000000376, -1.0533895086841985 
4.120000000003737, -1.0573263277890048 
4.130000000003713, -1.0610805921547866 
4.14000000000369, -1.0646438797831232 
4.150000000003667, -1.0680079403646319 
4.1600000000036434, -1.0711645891619017 
4.17000000000362, -1.0741056337205133 
4.180000000003597, -1.0768228396476065 
4.1900000000035735, -1.0793079397547363 
4.20000000000355, -1.0815526884356201 
4.210000000003527, -1.0835489603847726 
4.220000000003504, -1.0852888898669983 
4.23000000000348, -1.0867650439746819 
4.240000000003457, -1.087970620935867 
4.250000000003434, -1.0888996628252565 
4.26000000000341, -1.0895472711953598 
4.270000000003387, -1.089909814311701 
4.280000000003364, -1.0899851158542666 
4.2900000000033405, -1.0897726170206148 
4.300000000003317, -1.0892735066989772 
4.310000000003294, -1.0884908174472145 
4.320000000003271, -1.0874294880446067 
4.330000000003247, -1.086096396013718 
4.340000000003224, -1.0845003654305718 
4.350000000003201, -1.0826521563405782 
4.360000000003177, -1.0805644420813607 
4.370000000003154, -1.0782517798125402 
4.380000000003131, -1.075730577710708 
4.390000000003107, -1.073019059841829 
4.400000000003084, -1.0701372269735245 
4.410000000003061, -1.0671068088718398 
4.4200000000030375, -1.063951201282102 
4.430000000003014, -1.0606953791401055 
4.440000000002991, -1.057365776866019 
4.450000000002968, -1.0539901270476837 
4.460000000002944, -1.050597250504066 
4.470000000002921, -1.0472167935840193 
4.480000000002898, -1.043878912404868 
4.490000000002874, -1.0406139082298498 
4.500000000002851, -1.037451822860884 
4.510000000002828, -1.0344220072450097 
4.520000000002804, -1.031552679911283 
4.530000000002781, -1.0288704938918065 
4.540000000002758, -1.026400131106028 
4.5500000000027345, -1.0241639416814672 
4.560000000002711, -1.0221816424689085 
4.570000000002688, -1.0204700844427832 
4.580000000002665, -1.0190430933038168 
4.590000000002641, -1.0179113820768486 
4.600000000002618, -1.017082529490858 
4.610000000002595, -1.0165610140250836 
4.620000000002571, -1.0163482911219401 
4.630000000002548, -1.0164429004007036 
4.640000000002525, -1.016840590712608 
4.6500000000025015, -1.0175344532919945 
4.660000000002478, -1.0185150566383228 
4.670000000002455, -1.0197705805624442 
4.6800000000024315, -1.0212869504740691 
4.690000000002408, -1.023047975955745 
4.700000000002385, -1.0250354995654551 
4.710000000002362, -1.0272295624113617 
4.720000000002338, -1.0296085923222458 
4.730000000002315, -1.0321496185624741 
4.740000000002292, -1.0348285143376763 
4.750000000002268, -1.037620265237733 
4.760000000002245, -1.040499258732198 
4.770000000002222, -1.043439587296036 
4.7800000000021985, -1.0464153560246925 
4.790000000002175, -1.049400984876208 
4.800000000002152, -1.0523714959723955 
4.810000000002129, -1.0553027775698873 
4.820000000002105, -1.0581718181300381 
4.830000000002082, -1.0609569060661963 
4.840000000002059, -1.0636377929119647 
4.850000000002035, -1.066195819561778 
4.860000000002012, -1.068614006692312 
4.870000000001989, -1.0708771113871278 
4.880000000001965, -1.0729716523669603 
4.890000000001942, -1.0748859061725657 
4.900000000001919, -1.0766098763175767 
4.9100000000018955, -1.0781352370180164 
4.920000000001872, -1.0794552528021928 
4.930000000001849, -1.0805646752640166 
