t, s[1].omega / s[0].omega 
0, -1.589994832600194 
0.009999999999999995, -1.5891920895417848 
0.019999999999999934, -1.5878210849967986 
0.029999999999999874, -1.585875800352221 
0.04000000000000012, -1.5833461781071705 
0.050000000000000405, -1.5802184169095643 
0.06000000000000069, -1.5764754339992286 
0.07000000000000098, -1.5720976087268324 
0.08000000000000126, -1.567064114522906 
0.09000000000000155, -1.561355577331651 
0.10000000000000184, -1.5549595063530535 
0.11000000000000212, -1.5478807114591275 
0.12000000000000241, -1.5401590759690373 
0.130000000000002, -1.5318954383159598 
0.1400000000000009, -1.5232817395272618 
0.1499999999999998, -1.5146239208668442 
0.1599999999999987, -1.5063383505295034 
0.1699999999999976, -1.4989024887619622 
0.1799999999999965, -1.4927569923473833 
0.1899999999999954, -1.4881881713547251 
0.1999999999999943, -1.4852450570535565 
0.2099999999999932, -1.483735833547692 
0.2199999999999921, -1.4833031337762552 
0.229999999999991, -1.4835333889272233 
0.2399999999999899, -1.4840475607657178 
0.2499999999999888, -1.4845462099693065 
0.2599999999999877, -1.4848119013912102 
0.2699999999999866, -1.4846861544348129 
0.2799999999999855, -1.4840367432761041 
0.2899999999999844, -1.4827234351770815 
0.2999999999999833, -1.4805630702894161 
0.3099999999999822, -1.4772901364601558 
0.3199999999999811, -1.472505874941074 
0.32999999999998, -1.4656061615215923 
0.3399999999999789, -1.4556751824656677 
0.3499999999999778, -1.4413286905404805 
0.35999999999997667, -1.4204902470430671 
0.36999999999997557, -1.3900943648999737 
0.37999999999997447, -1.3457491151334326 
0.38999999999997337, -1.281484705605747 
0.39999999999997227, -1.1898834991061136 
0.40999999999997117, -1.0630938362223123 
0.41999999999997006, -0.8953443183577056 
0.42999999999996896, -0.6873817562305417 
0.43999999999996786, -0.45198107056901726 
0.44999999999996676, -0.21562151862570028 
0.45999999999996566, -0.008796390654782188 
0.46999999999996456, 0.14956890054682778 
0.47999999999996346, 0.26051904724785824 
0.48999999999996235, 0.3344435696363197 
0.49999999999996125, 0.3828646181447258 
0.5099999999999602, 0.4146794682680518 
0.519999999999959, 0.43584965403974335 
0.529999999999958, 0.4501553452833552 
0.5399999999999568, 0.4599599080868891 
0.5499999999999557, 0.4667500689557631 
0.5599999999999546, 0.47147650069612546 
0.5699999999999535, 0.4747604125291769 
0.5799999999999524, 0.47701796938572816 
0.5899999999999513, 0.47853580514129873 
0.5999999999999502, 0.4795175512246705 
0.6099999999999491, 0.4801130594354788 
0.619999999999948, 0.48043716687014193 
0.6299999999999469, 0.480582061955985 
0.6399999999999458, 0.4806256942562933 
0.6499999999999447, 0.48063771613683975 
0.6599999999999436, 0.4806838580821228 
0.6699999999999425, 0.48082925178809827 
0.6799999999999414, 0.48114092601095343 
0.6899999999999403, 0.4816894503320841 
0.6999999999999392, 0.48254946225138995 
0.7099999999999381, 0.48379858664094105 
0.719999999999937, 0.48551409250963584 
0.7299999999999359, 0.48776663985055524 
0.7399999999999348, 0.4906108147061843 
0.7499999999999337, 0.4940729934880826 
0.7599999999999326, 0.4981384210927057 
0.7699999999999315, 0.5027408704535259 
0.7799999999999304, 0.5077590591905357 
0.7899999999999293, 0.5130231613695533 
0.7999999999999282, 0.51833189619665 
0.8099999999999271, 0.5234767354126348 
0.819999999999926, 0.5282667831540159 
0.8299999999999249, 0.532547625733709 
0.8399999999999238, 0.5362100264401828 
0.8499999999999227, 0.5391881149218574 
0.8599999999999216, 0.5414496592673822 
0.8699999999999205, 0.5429820607857978 
0.8799999999999194, 0.543777099339835 
0.8899999999999183, 0.5438160457209203 
0.8999999999999172, 0.5430553302636537 
0.9099999999999161, 0.5414119089213573 
0.919999999999915, 0.5387468886853034 
0.9299999999999139, 0.5348458899538178 
0.9399999999999128, 0.5293952656667149 
0.9499999999999117, 0.5219553924092872 
0.9599999999999106, 0.5119373312899645 
0.9699999999999095, 0.4985995872965586 
0.9799999999999084, 0.48109908793991074 
0.9899999999999073, 0.45864953336229003 
0.9999999999999062, 0.4308357535904176 
1.0099999999999052, 0.3980535748467425 
1.019999999999904, 0.3618653844828585 
1.029999999999903, 0.32491543113046295 
1.039999999999902, 0.29022678106912847 
1.0499999999999008, 0.2602177624734163 
1.0599999999998997, 0.23606882517370462 
1.0699999999998986, 0.2177404891670348 
1.0799999999998975, 0.20441964962494868 
1.0899999999998964, 0.19501209470594127 
1.0999999999998953, 0.18846934030115786 
1.1099999999998942, 0.1839323587706424 
1.119999999999893, 0.1807567587792204 
1.129999999999892, 0.1784838097326901 
1.1399999999998909, 0.1767966631151584 
1.1499999999998898, 0.1754796165429864 
1.1599999999998887, 0.17438598090072205 
1.1699999999998876, 0.17341465072068438 
1.1799999999998865, 0.1724936689997617 
1.1899999999998854, 0.17156885037114064 
1.1999999999998843, 0.17059583443501664 
1.2099999999998832, 0.16953433938029988 
1.219999999999882, 0.16834371939793275 
1.229999999999881, 0.16697916168007654 
1.2399999999998799, 0.16538799403324272 
1.2499999999998788, 0.1635056235318651 
1.2599999999998777, 0.1612505962059304 
1.2699999999998766, 0.15851815373366537 
1.2799999999998755, 0.155171449826006 
1.2899999999998744, 0.15102924736498846 
1.2999999999998733, 0.14584840526159618 
1.3099999999998722, 0.13929873436657347 
1.319999999999871, 0.1309268353286175 
1.32999999999987, 0.12010443671490949 
1.3399999999998689, 0.10595603386536269 
1.3499999999998678, 0.08726183675780937 
1.3599999999998666, 0.06233913667052862 
1.3699999999998655, 0.028926866272413934 
1.3799999999998644, -0.015539253414972316 
1.3899999999998633, -0.07400056310025045 
1.3999999999998622, -0.15009882861104173 
1.4099999999998611, -0.2450668923069505 
1.41999999999986, -0.3565464311657506 
1.429999999999859, -0.47765156433033407 
1.4399999999998578, -0.5983988492722819 
1.4499999999998567, -0.7091439682753218 
1.4599999999998556, -0.8036213006398252 
1.4699999999998545, -0.8797595164731778 
1.4799999999998534, -0.9386306298435545 
1.4899999999998523, -0.9828840680123876 
1.4999999999998512, -1.015549202085258 
1.5099999999998501, -1.039390558458325 
1.519999999999849, -1.056669697494729 
1.529999999999848, -1.0691268722711604 
1.5399999999998468, -1.0780535270160545 
1.5499999999998457, -1.084387074760691 
1.5599999999998446, -1.088798297511858 
1.5699999999998435, -1.0917619539791374 
1.5799999999998424, -1.0936101219039869 
1.5899999999998413, -1.0945710015082968 
1.5999999999998402, -1.0947965681102239 
1.6099999999998391, -1.0943821997896794 
1.619999999999838, -1.0933809641748533 
1.629999999999837, -1.091814952697711 
1.6399999999998358, -1.0896860487521713 
1.6499999999998347, -1.0869888865942756 
1.6599999999998336, -1.083729534101689 
1.6699999999998325, -1.0799545561192088 
1.6799999999998314, -1.0757963104570671 
1.6899999999998303, -1.0715409018690152 
1.6999999999998292, -1.0677238365430852 
1.709999999999828, -1.0652530109792133 
1.719999999999827, -1.0655466409926868 
1.729999999999826, -1.0706524975872016 
1.7399999999998248, -1.0832824871184519 
1.7499999999998237, -1.1066542688363308 
1.7599999999998226, -1.1439937605220232 
1.7699999999998215, -1.1975761849507134 
1.7799999999998204, -1.2673954987863967 
1.7899999999998193, -1.3500427167143918 
1.7999999999998182, -1.438816965763451 
1.809999999999817, -1.5256260613827823 
1.819999999999816, -1.6037125113821946 
1.8299999999998149, -1.669380590667961 
1.8399999999998138, -1.7219503131464529 
1.8499999999998127, -1.7626572201512967 
1.8599999999998116, -1.793510482337555 
1.8699999999998105, -1.816568832207791 
1.8799999999998094, -1.833618452039891 
1.8899999999998083, -1.84609114518385 
1.8999999999998072, -1.855089464571488 
1.909999999999806, -1.86144507449251 
1.919999999999805, -1.8657784288471464 
1.9299999999998039, -1.868549346583664 
1.9399999999998028, -1.870097132370386 
1.9499999999998017, -1.8706719258377638 
1.9599999999998006, -1.87045943506896 
1.9699999999997995, -1.869600631822216 
1.9799999999997984, -1.868206939644815 
1.9899999999997973, -1.8663703711256738 
1.9999999999997962, -1.8641678090995772 
2.0099999999998173, -1.8616603252038457 
2.0199999999998384, -1.858892245713199 
2.0299999999998595, -1.8558980739765785 
2.0399999999998806, -1.8527237759667186 
2.0499999999999017, -1.8494597652450533 
2.059999999999923, -1.8462691919720793 
2.069999999999944, -1.843385375622142 
2.079999999999965, -1.8410587227986202 
2.089999999999986, -1.8394643953316405 
2.100000000000007, -1.8386212757268963 
2.1100000000000283, -1.8383774899688308 
2.1200000000000494, -1.8384693327779535 
2.1300000000000705, -1.8386058017596005 
2.1400000000000916, -1.8385250920993828 
2.1500000000001127, -1.8380035839128628 
2.160000000000134, -1.8368273864043785 
2.170000000000155, -1.8347414210198076 
2.180000000000176, -1.8313804203641741 
2.190000000000197, -1.8261723141912027 
2.2000000000002182, -1.8181909958872033 
2.2100000000002393, -1.8059214689801921 
2.2200000000002604, -1.7868888657363118 
2.2300000000002815, -1.757115512369553 
2.2400000000003026, -1.7104768688656926 
2.2500000000003237, -1.638365791686797 
2.260000000000345, -1.5306663671149745 
2.270000000000366, -1.3789925134088243 
2.280000000000387, -1.180304265133527 
2.290000000000408, -0.9348603524923875 
2.3000000000004293, -0.637562484906844 
2.3100000000004504, -0.2796414977463011 
2.3200000000004715, 0.11631787932672949 
2.3300000000004926, 0.4686660443702265 
2.3400000000005137, 0.7095552553284609 
2.3500000000005348, 0.8470000560544687 
2.360000000000556, 0.9206731238802249 
2.370000000000577, 0.9605490372445047 
2.380000000000598, 0.9829176529737776 
2.390000000000619, 0.995942173285132 
2.4000000000006403, 1.0037372564344624 
2.4100000000006614, 1.0084516453560783 
2.4200000000006825, 1.0112567022062011 
2.4300000000007036, 1.0128185463238808 
2.4400000000007247, 1.0135311211200049 
2.450000000000746, 1.0136362092131508 
2.460000000000767, 1.0132881317593252 
2.470000000000788, 1.0125903497137048 
2.480000000000809, 1.0116172075679166 
2.49000000000083, 1.0104274017779131 
2.5000000000008513, 1.009072438008962 
2.5100000000008724, 1.007601633618763 
2.5200000000008935, 1.006064372515539 
2.5300000000009146, 1.0045099968995452 
2.5400000000009357, 1.0029857454173794 
2.550000000000957, 1.0015333608705077 
2.560000000000978, 1.0001852118759684 
2.570000000000999, 0.9989608313186176 
2.58000000000102, 0.9978645790303955 
2.5900000000010412, 0.9968847200645349 
2.6000000000010624, 0.9959937066846692 
2.6100000000010835, 0.995149012432101 
2.6200000000011046, 0.9942935702945679 
2.6300000000011257, 0.993354679868899 
2.6400000000011468, 0.992240027275055 
2.650000000001168, 0.9908289681008287 
2.660000000001189, 0.9889560889545318 
2.67000000000121, 0.9863816347713618 
2.680000000001231, 0.9827383425818876 
2.6900000000012523, 0.9774336653176048 
2.7000000000012734, 0.9694637911506033 
2.7100000000012945, 0.9570466364356053 
2.7200000000013156, 0.9368742425584209 
2.7300000000013367, 0.902571824336669 
2.740000000001358, 0.8416654379769791 
2.750000000001379, 0.7308575326750356 
2.7600000000014, 0.5349576105038278 
2.770000000001421, 0.22964935190427335 
2.780000000001442, -0.1508084867801222 
2.7900000000014633, -0.5326923348258475 
2.8000000000014844, -0.8872439085996574 
2.8100000000015055, -1.233325345194769 
2.8200000000015266, -1.577362122241022 
2.8300000000015477, -1.8806502495918762 
2.840000000001569, -2.0992152154003265 
2.85000000000159, -2.2319542245722657 
2.860000000001611, -2.305704237856958 
2.870000000001632, -2.3457356751501326 
2.8800000000016532, -2.367636046232847 
2.8900000000016743, -2.3797687346570275 
2.9000000000016954, -2.3864723777274035 
2.9100000000017165, -2.3900175865483133 
2.9200000000017377, -2.39162486545696 
2.9300000000017588, -2.3919792226239727 
2.94000000000178, -2.3914969889337776 
2.950000000001801, -2.390467273264863 
2.960000000001822, -2.389116488538742 
2.970000000001843, -2.3876136583071634 
2.9800000000018643, -2.3860437347522976 
2.9900000000018854, -2.384402778991837 
3.0000000000019065, -2.382657874288112 
3.0100000000019276, -2.3808504733975413 
3.0200000000019487, -2.3791622737524944 
3.03000000000197, -2.3778628754438307 
3.040000000001991, -2.3771412080688687 
3.050000000002012, -2.3769519909186068 
3.060000000002033, -2.37702070143248 
3.070000000002054, -2.376977672013748 
3.0800000000020753, -2.3764680060088894 
3.0900000000020964, -2.3751523106404338 
3.1000000000021175, -2.372613998877157 
3.1100000000021386, -2.3681991537416325 
3.1200000000021597, -2.3607749944880805 
3.130000000002181, -2.3483798805958553 
3.140000000002202, -2.3278838826604553 
3.150000000002223, -2.2955114535435595 
3.160000000002244, -2.2511396957130785 
3.1700000000022652, -2.2103871561071546 
3.1800000000022863, -2.2145191710212213 
3.1900000000023074, -2.300627361074983 
3.2000000000023285, -2.443030148912647 
3.2100000000023496, -2.5748714504844887 
3.2200000000023707, -2.6641924082252246 
3.230000000002392, -2.7171632018396306 
3.240000000002413, -2.747620062196561 
3.250000000002434, -2.7652857357436353 
3.260000000002455, -2.7756451171621808 
3.2700000000024763, -2.7816413057974225 
3.2800000000024974, -2.784853945631791 
3.2900000000025185, -2.786131022112558 
3.3000000000025396, -2.7859046611598544 
3.3100000000025607, -2.7843413605866285 
3.3200000000025818, -2.7813997892042663 
3.330000000002603, -2.776823945909582 
3.340000000002624, -2.770080138184264 
3.350000000002645, -2.760266881264082 
3.360000000002666, -2.7461430512289966 
3.3700000000026873, -2.726726670836189 
3.3800000000027084, -2.7032173737720604 
3.3900000000027295, -2.681497159987163 
3.4000000000027506, -2.6698057112368487 
3.4100000000027717, -2.670099239141249 
3.420000000002793, -2.676561225432216 
3.430000000002814, -2.6833234317221257 
3.440000000002835, -2.6881015913995694 
3.450000000002856, -2.690774296349221 
3.460000000002877, -2.6917825367764454 
3.4700000000028983, -2.6915314794634706 
3.4800000000029194, -2.690328755085284 
3.4900000000029405, -2.688524925169821 
3.5000000000029616, -2.6867129720828675 
3.5100000000029827, -2.685767536745685 
3.520000000003004, -2.686433479149941 
3.530000000003025, -2.688695806367778 
3.540000000003046, -2.6917663835005037 
3.550000000003067, -2.6947600405953342 
3.5600000000030882, -2.697203383241522 
3.5700000000031094, -2.6990184754156084 
3.5800000000031305, -2.7002773205901307 
3.5900000000031516, -2.7010108940066697 
3.6000000000031727, -2.7011435355115556 
3.6100000000031938, -2.700492907660772 
3.620000000003215, -2.6987488446657952 
3.630000000003236, -2.6953736372830646 
3.640000000003257, -2.6893702831825683 
3.650000000003278, -2.6787928698344974 
3.6600000000032993, -2.6596812711920474 
3.6700000000033204, -2.6236969335358773 
3.6800000000033415, -2.553195192254378 
3.6900000000033626, -2.4140387608979483 
3.7000000000033837, -2.160897913096924 
3.710000000003405, -1.7928818503044768 
3.720000000003426, -1.402795378310792 
3.730000000003447, -1.078300964551023 
3.740000000003468, -0.8226392352056746 
3.750000000003489, -0.600856337273644 
3.7600000000035103, -0.38754206193282464 
3.7700000000035314, -0.18018770973872467 
3.7800000000035525, 0.007339233055611246 
3.7900000000035736, 0.15939319367611976 
3.8000000000035947, 0.27225326495928387 
3.810000000003616, 0.3509389851954147 
3.820000000003637, 0.4041211081122287 
3.830000000003658, 0.4397743601401991 
3.840000000003679, 0.4637954198272761 
3.8500000000037002, 0.4801503544850017 
3.8600000000037213, 0.49140726843628396 
3.8700000000037424, 0.49921339352981714 
3.8800000000037635, 0.504630256997826 
3.8900000000037847, 0.508349394210316 
3.9000000000038058, 0.5108267858025671 
3.910000000003827, 0.5123660449905262 
3.920000000003848, 0.5131701790363675 
3.930000000003869, 0.5133742500011843 
3.94000000000389, 0.5130665144155511 
3.9500000000039113, 0.5123028453754164 
3.9600000000039324, 0.5111177808866666 
3.9700000000039535, 0.5095350240616786 
3.9800000000039746, 0.5075805148762504 
3.9900000000039957, 0.5053023585900109 
4.000000000004016, 0.5028040733393928 
4.010000000003993, 0.500300710862021 
4.02000000000397, 0.49821012733408376 
4.030000000003946, 0.49728923725734436 
4.040000000003923, 0.4988048837125093 
4.0500000000039, 0.5046676028708497 
4.0600000000038765, 0.5173356081926698 
4.070000000003853, 0.5391775467221924 
4.08000000000383, 0.5711356978378037 
4.090000000003807, 0.6112936030251006 
4.100000000003783, 0.6548167059413683 
4.11000000000376, 0.6959910496528344 
4.120000000003737, 0.7307852320188767 
4.130000000003713, 0.7578264205457128 
4.14000000000369, 0.77769418165358 
4.150000000003667, 0.7917782297425189 
4.1600000000036434, 0.8015150295868306 
4.17000000000362, 0.8080762824211598 
4.180000000003597, 0.8123159966998295 
4.1900000000035735, 0.8148150255296933 
4.20000000000355, 0.8159435126928164 
4.210000000003527, 0.8159130626275799 
4.220000000003504, 0.8148130287104647 
4.23000000000348, 0.8126332267063948 
4.240000000003457, 0.8092778793167216 
4.250000000003434, 0.8045771115931256 
4.26000000000341, 0.7983046541368914 
4.270000000003387, 0.7902136234232675 
4.280000000003364, 0.7801038849359293 
4.2900000000033405, 0.7679281475990896 
4.300000000003317, 0.7539206833419791 
4.310000000003294, 0.7386923169518371 
4.320000000003271, 0.7232064798055992 
4.330000000003247, 0.7085863695506638 
4.340000000003224, 0.6958140292536242 
4.350000000003201, 0.68547764414151 
4.360000000003177, 0.6776943768165721 
4.370000000003154, 0.672208176136389 
4.380000000003131, 0.6685653116734187 
4.390000000003107, 0.66627062388105 
4.400000000003084, 0.6648817741362295 
4.410000000003061, 0.6640453050968831 
4.4200000000030375, 0.663496137224075 
4.430000000003014, 0.6630404729669356 
4.440000000002991, 0.6625343380017711 
4.450000000002968, 0.6618631973223117 
4.460000000002944, 0.6609238922366579 
4.470000000002921, 0.6596079544034271 
4.480000000002898, 0.6577841637707957 
4.490000000002874, 0.6552772001201138 
4.500000000002851, 0.6518377171958256 
4.510000000002828, 0.6470964025981933 
4.520000000002804, 0.6404894726980324 
4.530000000002781, 0.6311337875940094 
4.540000000002758, 0.6176137313348655 
4.5500000000027345, 0.5976172667174384 
4.560000000002711, 0.5673330661392365 
4.570000000002688, 0.5205485683722118 
4.580000000002665, 0.44767578080711457 
4.590000000002641, 0.33595736474002863 
4.600000000002618, 0.17392173307131614 
4.610000000002595, -0.03792690169310232 
4.620000000002571, -0.27960382148497903 
4.630000000002548, -0.5262246732307069 
4.640000000002525, -0.770496603981241 
4.6500000000025015, -1.0340998978088152 
4.660000000002478, -1.3524575874899107 
4.670000000002455, -1.7289453492784537 
4.6800000000024315, -2.0897167815052797 
4.690000000002408, -2.3460386299387395 
4.700000000002385, -2.4908366930473402 
4.710000000002362, -2.5650238883993035 
4.720000000002338, -2.602680311893783 
4.730000000002315, -2.6222305766143497 
4.740000000002292, -2.632576387915627 
4.750000000002268, -2.6379926537242397 
4.760000000002245, -2.640593068408315 
4.770000000002222, -2.64146562454161 
4.7800000000021985, -2.64120051961618 
4.790000000002175, -2.6401441261025966 
4.800000000002152, -2.6385153535716865 
4.810000000002129, -2.636438154753353 
4.820000000002105, -2.633935515668319 
4.830000000002082, -2.630957936365831 
4.840000000002059, -2.627510560530324 
4.850000000002035, -2.6238526468662813 
4.860000000002012, -2.620596115986493 
4.870000000001989, -2.618456609021557 
4.880000000001965, -2.6177185248574255 
4.890000000001942, -2.6179892339150017 
4.900000000001919, -2.6185377751593863 
4.9100000000018955, -2.6187332967528505 
4.920000000001872, -2.6181585966214795 
4.930000000001849, -2.616481219371136 
4.940000000001826, -2.6132826720567697 
4.950000000001802, -2.607957497957108 
4.960000000001779, -2.5998605313954806 
4.970000000001756, -2.5892305940214424 
