t, s[1].omega / s[0].omega 
0, -0.9199705745706315 
0.009999999999999995, -0.9169073071819058 
0.019999999999999934, -0.9137088742069952 
0.029999999999999874, -0.9105291557450135 
0.04000000000000012, -0.9075109976101643 
0.050000000000000405, -0.9047811402709038 
0.06000000000000069, -0.9024452068304789 
0.07000000000000098, -0.9005771592022238 
0.08000000000000126, -0.8992051550062354 
0.09000000000000155, -0.8983022695328321 
0.10000000000000184, -0.8977909714761203 
0.11000000000000212, -0.8975625189305475 
0.12000000000000241, -0.8975023425890439 
0.130000000000002, -0.8975094452872723 
0.1400000000000009, -0.8975038863139293 
0.1499999999999998, -0.8974245978259047 
0.1599999999999987, -0.8972237559528555 
0.1699999999999976, -0.8968633118565563 
0.1799999999999965, -0.8963163459538445 
0.1899999999999954, -0.8955720358857933 
0.1999999999999943, -0.8946396178105044 
0.2099999999999932, -0.8935466315697124 
0.2199999999999921, -0.8923312830237577 
0.229999999999991, -0.8910338634639834 
0.2399999999999899, -0.8896924254327523 
0.2499999999999888, -0.8883437654319728 
0.2599999999999877, -0.8870269989766107 
0.2699999999999866, -0.8857862225357375 
0.2799999999999855, -0.8846699314604569 
0.2899999999999844, -0.8837264341142228 
0.2999999999999833, -0.8829960488293503 
0.3099999999999822, -0.8825023669071607 
0.3199999999999811, -0.8822458114251717 
0.32999999999998, -0.8822023655093337 
0.3399999999999789, -0.8823283924794932 
0.3499999999999778, -0.8825697118507929 
0.35999999999997667, -0.882871317982783 
0.36999999999997557, -0.8831846346086378 
0.37999999999997447, -0.8834712790962106 
0.38999999999997337, -0.883703969404413 
0.39999999999997227, -0.8838653696875787 
0.40999999999997117, -0.8839451651517558 
0.41999999999997006, -0.88393600694736 
0.42999999999996896, -0.8838302626124778 
0.43999999999996786, -0.8836198898065739 
0.44999999999996676, -0.883299846976693 
0.45999999999996566, -0.8828728027127457 
0.46999999999996456, -0.882352409825948 
0.47999999999996346, -0.8817644470191979 
0.48999999999996235, -0.8811470414971222 
0.49999999999996125, -0.8805508458656404 
0.5099999999999602, -0.8800381006517304 
0.519999999999959, -0.8796781616021038 
0.529999999999958, -0.8795380602788981 
0.5399999999999568, -0.8796699254273224 
0.5499999999999557, -0.8801001715630952 
0.5599999999999546, -0.8808252467954931 
0.5699999999999535, -0.8818151886184253 
0.5799999999999524, -0.8830222001955537 
0.5899999999999513, -0.8843896883696163 
0.5999999999999502, -0.8858579978620877 
0.6099999999999491, -0.8873653187617749 
0.619999999999948, -0.888845087328893 
0.6299999999999469, -0.8902240524344659 
0.6399999999999458, -0.8914264047725207 
0.6499999999999447, -0.8923862424014173 
0.6599999999999436, -0.893063236388306 
0.6699999999999425, -0.8934513357923517 
0.6799999999999414, -0.8935747786745705 
0.6899999999999403, -0.893475724515383 
0.6999999999999392, -0.893202860433477 
0.7099999999999381, -0.892807498112863 
0.719999999999937, -0.8923485482002441 
0.7299999999999359, -0.891904309073451 
0.7399999999999348, -0.8915863286747342 
0.7499999999999337, -0.8915470890438149 
0.7599999999999326, -0.8919710115689531 
0.7699999999999315, -0.8930429616545311 
0.7799999999999304, -0.8949019254214674 
0.7899999999999293, -0.8975999393193697 
0.7999999999999282, -0.90108369780252 
0.8099999999999271, -0.9051998799944165 
0.819999999999926, -0.9097127060131532 
0.8299999999999249, -0.9143258494610297 
0.8399999999999238, -0.9187143208190705 
0.8499999999999227, -0.9225768636093372 
0.8599999999999216, -0.9257019379371391 
0.8699999999999205, -0.9280136008191068 
0.8799999999999194, -0.9295652401100263 
0.8899999999999183, -0.9304876916176505 
0.8999999999999172, -0.9309291735828523 
0.9099999999999161, -0.9310167229895663 
0.919999999999915, -0.9308440719368578 
0.9299999999999139, -0.9304776942271733 
0.9399999999999128, -0.9299739442840076 
0.9499999999999117, -0.9294061722416531 
0.9599999999999106, -0.928903730770225 
0.9699999999999095, -0.9286994430887535 
0.9799999999999084, -0.9291647136328514 
0.9899999999999073, -0.9307896820592558 
0.9999999999999062, -0.9340689011675559 
1.0099999999999052, -0.9393078516433805 
1.019999999999904, -0.9464402824585012 
1.029999999999903, -0.9549620845621888 
1.039999999999902, -0.9640260178036325 
1.0499999999999008, -0.9726675687274524 
1.0599999999998997, -0.9800819297720423 
1.0699999999998986, -0.9858346054771461 
1.0799999999998975, -0.9899014747906874 
1.0899999999998964, -0.9925408045918193 
1.0999999999998953, -0.9941094664838825 
1.1099999999998942, -0.9949314798369612 
1.119999999999893, -0.9952463793816676 
1.129999999999892, -0.9952100112076515 
1.1399999999998909, -0.9949161115118168 
1.1499999999998898, -0.9944236638728234 
1.1599999999998887, -0.9937902098242043 
1.1699999999998876, -0.9931195398326491 
1.1799999999998865, -0.9926301158899176 
1.1899999999998854, -0.9927281272938213 
1.1999999999998843, -0.9940224596813648 
1.2099999999998832, -0.9971901383181858 
1.219999999999882, -1.0026772501191976 
1.229999999999881, -1.0103935716850336 
1.2399999999998799, -1.0196306458198168 
1.2499999999998788, -1.0292777243823374 
1.2599999999998777, -1.038202094952236 
1.2699999999998766, -1.0455935224468884 
1.2799999999998755, -1.0511274590984336 
1.2899999999998744, -1.0549092460138045 
1.2999999999998733, -1.0572823760212908 
1.3099999999998722, -1.058636252004575 
1.319999999999871, -1.059295019962524 
1.32999999999987, -1.0594867560903631 
1.3399999999998689, -1.0593566928059925 
1.3499999999998678, -1.0589959401908318 
1.3599999999998666, -1.058476007043207 
1.3699999999998655, -1.0578918891813556 
1.3799999999998644, -1.057416408483158 
1.3899999999998633, -1.0573490620762314 
1.3999999999998622, -1.0581074245076805 
1.4099999999998611, -1.0601046746076273 
1.41999999999986, -1.0635450100849029 
1.429999999999859, -1.0682845230573352 
1.4399999999998578, -1.0738712913383925 
1.4499999999998567, -1.079713750276356 
1.4599999999998556, -1.0852500219244536 
1.4699999999998545, -1.090054075960506 
1.4799999999998534, -1.093883885490349 
1.4899999999998523, -1.0966849586495342 
1.4999999999998512, -1.0985516284329213 
1.5099999999998501, -1.0996590965501076 
1.519999999999849, -1.1001961830976557 
1.529999999999848, -1.1003237081163237 
1.5399999999998468, -1.1001631351146997 
1.5499999999998457, -1.0998070778228997 
1.5599999999998446, -1.0993427023918987 
1.5699999999998435, -1.0988809367514942 
1.5799999999998424, -1.0985788930089564 
1.5899999999998413, -1.098632058886895 
1.5999999999998402, -1.0992186663487051 
1.6099999999998391, -1.1004201527422406 
1.619999999999838, -1.1021797965376272 
1.629999999999837, -1.1043324705754778 
1.6399999999998358, -1.106672406877496 
1.6499999999998347, -1.1090080889367397 
1.6599999999998336, -1.111185646748749 
1.6699999999998325, -1.1130909673940557 
1.6799999999998314, -1.1146461951599123 
1.6899999999998303, -1.115808961246859 
1.6999999999998292, -1.1165733948396808 
1.709999999999828, -1.1169671574027848 
1.719999999999827, -1.1170416839065425 
1.729999999999826, -1.1168597605192454 
1.7399999999998248, -1.116487697406526 
1.7499999999998237, -1.1159960583273185 
1.7599999999998226, -1.115466459977233 
1.7699999999998215, -1.114995681770908 
1.7799999999998204, -1.1146861318237993 
1.7899999999998193, -1.114620083188947 
1.7999999999998182, -1.1148319607893744 
1.809999999999817, -1.1152988886902193 
1.819999999999816, -1.1159540305903173 
1.8299999999998149, -1.116710138571056 
1.8399999999998138, -1.117480231331573 
1.8499999999998127, -1.1181902522998857 
1.8599999999998116, -1.1187838404704524 
1.8699999999998105, -1.1192215692374998 
1.8799999999998094, -1.1194777401845866 
1.8899999999998083, -1.1195373443272971 
1.8999999999998072, -1.1193946926739506 
1.909999999999806, -1.1190538944744544 
1.919999999999805, -1.1185302705256757 
1.9299999999998039, -1.1178517821698575 
1.9399999999998028, -1.1170603892386368 
1.9499999999998017, -1.1162130665314955 
1.9599999999998006, -1.1153802818516443 
1.9699999999997995, -1.1146386276473785 
1.9799999999997984, -1.1140570359727382 
1.9899999999997973, -1.1136807290717328 
1.9999999999997962, -1.113518767725878 
2.0099999999998173, -1.1135399426180244 
2.0199999999998384, -1.1136801542778865 
2.0299999999998595, -1.1138593519238467 
2.0399999999998806, -1.1139991663300477 
2.0499999999999017, -1.1140328576397538 
2.059999999999923, -1.113907181064211 
2.069999999999944, -1.1135814427591881 
2.079999999999965, -1.1130279124424294 
2.089999999999986, -1.1122335688392746 
2.100000000000007, -1.1112008822421078 
2.1100000000000283, -1.1099467249308126 
2.1200000000000494, -1.1085011660678232 
2.1300000000000705, -1.1069084528895377 
2.1400000000000916, -1.1052304216398945 
2.1500000000001127, -1.1035498600444258 
2.160000000000134, -1.1019693752387434 
2.170000000000155, -1.100600440709169 
2.180000000000176, -1.0995389534376612 
2.190000000000197, -1.098831924769118 
2.2000000000002182, -1.0984539141428222 
2.2100000000002393, -1.0983140478329954 
2.2200000000002604, -1.0982911658771886 
2.2300000000002815, -1.0982699877527433 
2.2400000000003026, -1.0981562137647236 
2.2500000000003237, -1.097871197683925 
2.260000000000345, -1.097339423013607 
2.270000000000366, -1.0964808176531384 
2.280000000000387, -1.0952145302432288 
2.290000000000408, -1.0934747489519616 
2.3000000000004293, -1.0912319253025453 
2.3100000000004504, -1.0885084500027031 
2.3200000000004715, -1.0853825898549263 
2.3300000000004926, -1.0819847635282307 
2.3400000000005137, -1.0784937534196668 
2.3500000000005348, -1.07513209479943 
2.360000000000556, -1.0721472706523882 
2.370000000000577, -1.069762630839692 
2.380000000000598, -1.0681034013106891 
2.390000000000619, -1.0671418076361003 
2.4000000000006403, -1.0667123971265828 
2.4100000000006614, -1.0665918318026326 
2.4200000000006825, -1.066579966155944 
2.4300000000007036, -1.0665334492600917 
2.4400000000007247, -1.0663547434515852 
2.450000000000746, -1.0659629833943802 
2.460000000000767, -1.0652656136697367 
2.470000000000788, -1.0641387422395903 
2.480000000000809, -1.0624222007425992 
2.49000000000083, -1.059938317986896 
2.5000000000008513, -1.0565402944476334 
2.5100000000008724, -1.0521790852537898 
2.5200000000008935, -1.046958044429632 
2.5300000000009146, -1.0411476082717432 
2.5400000000009357, -1.0351578115932614 
2.550000000000957, -1.0294800804722677 
2.560000000000978, -1.0245985546352085 
2.570000000000999, -1.020870152589431 
2.58000000000102, -1.018411583132759 
2.5900000000010412, -1.0170705967641016 
2.6000000000010624, -1.0165185674406692 
2.6100000000010835, -1.0164001183773992 
2.6200000000011046, -1.0164384949945175 
2.6300000000011257, -1.0164588207249572 
2.6400000000011468, -1.0163587240711345 
2.650000000001168, -1.0160661679375105 
2.660000000001189, -1.0155036306073957 
2.67000000000121, -1.014561770296162 
2.680000000001231, -1.0130833846280078 
2.6900000000012523, -1.010865160642316 
2.7000000000012734, -1.0076916368303088 
2.7100000000012945, -1.0034091323715895 
2.7200000000013156, -0.9980182092423199 
2.7300000000013367, -0.9917333236002751 
2.740000000001358, -0.9849698123923993 
2.750000000001379, -0.9782661849022096 
2.7600000000014, -0.9721765603480593 
2.770000000001421, -0.9671567037291654 
2.780000000001442, -0.9634607040086347 
2.7900000000014633, -0.9610847187497502 
2.8000000000014844, -0.9597983808174708 
2.8100000000015055, -0.9592561893768655 
2.8200000000015266, -0.9591224225629388 
2.8300000000015477, -0.9591443787710185 
2.840000000001569, -0.9591614714554243 
2.85000000000159, -0.9590775702679707 
2.860000000001611, -0.9588257424035789 
2.870000000001632, -0.958339344715611 
2.8800000000016532, -0.9575327088002888 
2.8900000000016743, -0.9562932281343819 
2.9000000000016954, -0.9544902030479794 
2.9100000000017165, -0.9520064870896181 
2.9200000000017377, -0.948788363148752 
2.9300000000017588, -0.944889626127825 
2.94000000000178, -0.940479993896498 
2.950000000001801, -0.9358120599774663 
2.960000000001822, -0.9311709437785136 
2.970000000001843, -0.9268322018571986 
2.9800000000018643, -0.9230324956065165 
2.9900000000018854, -0.9199436447353913 
3.0000000000019065, -0.9176462550103326 
3.0100000000019276, -0.9161137839891493 
3.0200000000019487, -0.915223291981093 
3.03000000000197, -0.9147953190515 
3.040000000001991, -0.9146442239632331 
3.050000000002012, -0.9146144718620427 
3.060000000002033, -0.9145920993254799 
3.070000000002054, -0.9144971034343239 
3.0800000000020753, -0.9142685692714722 
3.0900000000020964, -0.9138518342101097 
3.1000000000021175, -0.913192968704806 
3.1100000000021386, -0.9122430484618265 
3.1200000000021597, -0.9109711732737343 
3.130000000002181, -0.9093794639653863 
3.140000000002202, -0.9075094425078811 
3.150000000002223, -0.905434022164074 
3.160000000002244, -0.9032405904400964 
3.1700000000022652, -0.9010164439438993 
3.1800000000022863, -0.8988428467371199 
3.1900000000023074, -0.8967956534987185 
3.2000000000023285, -0.8949466023778145 
3.2100000000023496, -0.893360595839807 
3.2200000000023707, -0.8920877084458363 
3.230000000002392, -0.8911523566804489 
3.240000000002413, -0.8905448910625845 
3.250000000002434, -0.8902211075807637 
3.260000000002455, -0.8901115006803758 
3.2700000000024763, -0.8901363520928346 
3.2800000000024974, -0.890219685339612 
3.2900000000025185, -0.8902972527854273 
3.3000000000025396, -0.8903185112116532 
3.3100000000025607, -0.8902457807640077 
3.3200000000025818, -0.8900537552080982 
3.330000000002603, -0.8897301695898021 
3.340000000002624, -0.8892758586169356 
3.350000000002645, -0.8887020111530255 
3.360000000002666, -0.8880248847854286 
3.3700000000026873, -0.8872610697174814 
3.3800000000027084, -0.8864262822700668 
3.3900000000027295, -0.8855378450775655 
3.4000000000027506, -0.8846186447550469 
3.4100000000027717, -0.8837002383227146 
3.420000000002793, -0.8828238025787523 
3.430000000002814, -0.8820382163544729 
3.440000000002835, -0.8813948050546001 
3.450000000002856, -0.8809391656290707 
3.460000000002877, -0.8807021214867529 
3.4700000000028983, -0.8806929902355787 
3.4800000000029194, -0.8808978057626824 
3.4900000000029405, -0.8812831084018843 
3.5000000000029616, -0.8818036446675513 
3.5100000000029827, -0.8824110164642789 
3.520000000003004, -0.8830604978638759 
3.530000000003025, -0.8837144633316987 
3.540000000003046, -0.8843422032835851 
3.550000000003067, -0.8849169229504786 
3.5600000000030882, -0.8854117967091595 
3.5700000000031094, -0.885798008495061 
3.5800000000031305, -0.8860473140042477 
3.5900000000031516, -0.8861386843535566 
3.6000000000031727, -0.8860650129134487 
3.6100000000031938, -0.8858356890109652 
3.620000000003215, -0.8854747239294862 
3.630000000003236, -0.8850178663526271 
3.640000000003257, -0.8845122262751319 
3.650000000003278, -0.8840190436611067 
3.6600000000032993, -0.8836168422042826 
3.6700000000033204, -0.8834000793284874 
3.6800000000033415, -0.8834691267782333 
3.6900000000033626, -0.8839120359839763 
3.7000000000033837, -0.884784859827843 
3.710000000003405, -0.8860997092634533 
3.720000000003426, -0.8878250657646239 
3.730000000003447, -0.8898950843977336 
3.740000000003468, -0.8922203443387206 
3.750000000003489, -0.8946941318982342 
3.7600000000035103, -0.8971937966960832 
3.7700000000035314, -0.8995828311691927 
3.7800000000035525, -0.9017222416300852 
3.7900000000035736, -0.903494675825707 
3.8000000000035947, -0.9048318300340567 
3.810000000003616, -0.9057271821640172 
3.820000000003637, -0.9062250428187719 
3.830000000003658, -0.9063951869237377 
3.840000000003679, -0.9063097927292695 
3.8500000000037002, -0.9060325751745764 
3.8600000000037213, -0.9056210668877451 
3.8700000000037424, -0.9051396116335783 
3.8800000000037635, -0.9046806328656695 
3.8900000000037847, -0.9043898905958881 
3.9000000000038058, -0.9044848703198906 
3.910000000003827, -0.9052476323603436 
3.920000000003848, -0.9069759703521021 
3.930000000003869, -0.9098987955297236 
3.94000000000389, -0.9140901839234937 
3.9500000000039113, -0.9194214401634232 
3.9600000000039324, -0.9255655592511347 
3.9700000000039535, -0.9320445829648595 
3.9800000000039746, -0.9383109259762801 
3.9900000000039957, -0.9438596991861312 
4.000000000004016, -0.9483480806362763 
4.010000000003993, -0.9516645102609956 
4.02000000000397, -0.9539044931850655 
4.030000000003946, -0.9552769787755278 
4.040000000003923, -0.9560076570596039 
4.0500000000039, -0.9562825688188594 
4.0600000000038765, -0.9562328879407931 
4.070000000003853, -0.9559434730416682 
4.08000000000383, -0.9554721536533753 
4.090000000003807, -0.9548770884100357 
4.100000000003783, -0.954256739222941 
4.11000000000376, -0.9538063014510125 
4.120000000003737, -0.9538789367231058 
4.130000000003713, -0.9550073493591453 
4.14000000000369, -0.9578164823777244 
4.150000000003667, -0.9627982221072546 
4.1600000000036434, -0.9700356888497007 
4.17000000000362, -0.979049614046523 
4.180000000003597, -0.9888820386454972 
4.1900000000035735, -0.9983879778078857 
4.20000000000355, -1.0065981265322381 
4.210000000003527, -1.01298261128763 
4.220000000003504, -1.0174964875407329 
4.23000000000348, -1.0204256511666452 
4.240000000003457, -1.0221713521504865 
4.250000000003434, -1.0230981646491835 
4.26000000000341, -1.0234750899646214 
4.270000000003387, -1.0234769353648283 
4.280000000003364, -1.023209020387068 
4.2900000000033405, -1.0227376469651515 
4.300000000003317, -1.022125884287581 
4.310000000003294, -1.0214827884251885 
4.320000000003271, -1.0210303903299558 
4.330000000003247, -1.0211667532764657 
4.340000000003224, -1.0224571426733378 
4.350000000003201, -1.0254743388779046 
4.360000000003177, -1.0305145420672375 
4.370000000003154, -1.0373744771864037 
4.380000000003131, -1.0453681849705267 
4.390000000003107, -1.05356371217275 
4.400000000003084, -1.0610790923688704 
4.410000000003061, -1.0673046860265323 
4.4200000000030375, -1.0719951588991168 
4.430000000003014, -1.075226053236618 
4.440000000002991, -1.0772610682215498 
4.450000000002968, -1.078410934705988 
4.460000000002944, -1.078943606733357 
4.470000000002921, -1.0790540896716987 
4.480000000002898, -1.078872150467814 
4.490000000002874, -1.078487063293688 
4.500000000002851, -1.077980967147362 
4.510000000002828, -1.077469910419977 
4.520000000002804, -1.0771454828507028 
4.530000000002781, -1.0772884067746198 
4.540000000002758, -1.0782110819197492 
4.5500000000027345, -1.0801268170127174 
4.560000000002711, -1.0830304035276106 
4.570000000002688, -1.0866896384140432 
4.580000000002665, -1.090743374828072 
4.590000000002641, -1.0948173156420657 
4.600000000002618, -1.0985954525775026 
4.610000000002595, -1.1018483913204242 
4.620000000002571, -1.1044426978682436 
4.630000000002548, -1.1063416369742254 
4.640000000002525, -1.1075919805527616 
4.6500000000025015, -1.108294129990314 
4.660000000002478, -1.108566224995022 
4.670000000002455, -1.1085178798620332 
4.6800000000024315, -1.1082415309635634 
4.690000000002408, -1.1078199962160258 
4.700000000002385, -1.1073439927955113 
4.710000000002362, -1.1069292982149455 
4.720000000002338, -1.1067173532761614 
4.730000000002315, -1.1068451958814538 
4.740000000002292, -1.107394067131493 
4.750000000002268, -1.108354059135751 
4.760000000002245, -1.1096331883425072 
4.770000000002222, -1.1110984025674173 
4.7800000000021985, -1.1126160086543995 
4.790000000002175, -1.1140737521885018 
4.800000000002152, -1.115386080744175 
4.810000000002129, -1.116490998761013 
4.820000000002105, -1.1173458083005534 
4.830000000002082, -1.1179256152180952 
4.840000000002059, -1.118224442947011 
4.850000000002035, -1.1182558491535712 
4.860000000002012, -1.1180505249553367 
4.870000000001989, -1.117652019425869 
4.880000000001965, -1.1171142591356698 
4.890000000001942, -1.1165026947228198 
4.900000000001919, -1.1158958248554616 
4.9100000000018955, -1.115379993920145 
4.920000000001872, -1.1150332871595885 
4.930000000001849, -1.1149044851932093 
