t, s[1].omega / s[0].omega 
0, -0.5699977386678794 
0.009999999999999995, -0.5697990110835564 
0.019999999999999934, -0.5696428615665764 
0.029999999999999874, -0.5694992208355958 
0.04000000000000012, -0.5693315264438933 
0.050000000000000405, -0.5691094676432911 
0.06000000000000069, -0.5688167184943452 
0.07000000000000098, -0.5684521161655022 
0.08000000000000126, -0.568027346939879 
0.09000000000000155, -0.567565603152396 
0.10000000000000184, -0.5671045419457139 
0.11000000000000212, -0.5667057455808032 
0.12000000000000241, -0.5664730520390969 
0.130000000000002, -0.5665834202425484 
0.1400000000000009, -0.5673355541266647 
0.1499999999999998, -0.5692214304606391 
0.1599999999999987, -0.5730187231051264 
0.1699999999999976, -0.5798734434762064 
0.1799999999999965, -0.5912641489231392 
0.1899999999999954, -0.6086022249899085 
0.1999999999999943, -0.6321986984077274 
0.2099999999999932, -0.6599589983879925 
0.2199999999999921, -0.6874381479346752 
0.229999999999991, -0.7102883071505331 
0.2399999999999899, -0.7267333028272573 
0.2499999999999888, -0.7374755121778825 
0.2599999999999877, -0.7441311324382749 
0.2699999999999866, -0.7481514900450048 
0.2799999999999855, -0.7505385972007104 
0.2899999999999844, -0.7519130682293146 
0.2999999999999833, -0.752639596016326 
0.3099999999999822, -0.7529216748490863 
0.3199999999999811, -0.7528582276718638 
0.32999999999998, -0.7524712166339242 
0.3399999999999789, -0.751711680131986 
0.3499999999999778, -0.7504478750354899 
0.35999999999997667, -0.7484388158464571 
0.36999999999997557, -0.7453055368342698 
0.37999999999997447, -0.7405392189985753 
0.38999999999997337, -0.7336226997222788 
0.39999999999997227, -0.7243210302669425 
0.40999999999997117, -0.7130142355674439 
0.41999999999997006, -0.7007353404749731 
0.42999999999996896, -0.6887642578944896 
0.43999999999996786, -0.6781119154053911 
0.44999999999996676, -0.6692888266487051 
0.45999999999996566, -0.6623767981446094 
0.46999999999996456, -0.6572061346825974 
0.47999999999996346, -0.6535012619597123 
0.48999999999996235, -0.650965427806074 
0.49999999999996125, -0.6493215974628485 
0.5099999999999602, -0.6483298901149736 
0.519999999999959, -0.6477935171206197 
0.529999999999958, -0.647558500138105 
0.5399999999999568, -0.6475094983085568 
0.5499999999999557, -0.6475634156548522 
0.5599999999999546, -0.6476625049942537 
0.5699999999999535, -0.647768576730923 
0.5799999999999524, -0.6478593658803339 
0.5899999999999513, -0.647926991661565 
0.5999999999999502, -0.647976872797037 
0.6099999999999491, -0.6480243183328518 
0.619999999999948, -0.6480868466633682 
0.6299999999999469, -0.6481735331052335 
0.6399999999999458, -0.6482761897190821 
0.6499999999999447, -0.6483678423274022 
0.6599999999999436, -0.6484105522981449 
0.6699999999999425, -0.6483688013927301 
0.6799999999999414, -0.6482208882702198 
0.6899999999999403, -0.6479630404394047 
0.6999999999999392, -0.6476071886102 
0.7099999999999381, -0.6471774840318609 
0.719999999999937, -0.6467103237236665 
0.7299999999999359, -0.6462604907849545 
0.7399999999999348, -0.6459146589275107 
0.7499999999999337, -0.6458132207950484 
0.7599999999999326, -0.646181109899287 
0.7699999999999315, -0.6473667241889877 
0.7799999999999304, -0.6498837048929437 
0.7899999999999293, -0.6544403927664295 
0.7999999999999282, -0.6619210580553286 
0.8099999999999271, -0.673247238870228 
0.819999999999926, -0.6890167497909232 
0.8299999999999249, -0.7088925205502314 
0.8399999999999238, -0.7310586602076554 
0.8499999999999227, -0.7524921117734079 
0.8599999999999216, -0.7703566243311415 
0.8699999999999205, -0.7833874891564385 
0.8799999999999194, -0.7919689466106343 
0.8899999999999183, -0.7972464209467742 
0.8999999999999172, -0.8003482103473626 
0.9099999999999161, -0.8020931858693034 
0.919999999999915, -0.8029953128772908 
0.9299999999999139, -0.8033495806667478 
0.9399999999999128, -0.8033070515077021 
0.9499999999999117, -0.8029195331670312 
0.9599999999999106, -0.8021560252622569 
0.9699999999999095, -0.8008936292684623 
0.9799999999999084, -0.7988804020190681 
0.9899999999999073, -0.7956630261963898 
0.9999999999999062, -0.7904774478614123 
1.0099999999999052, -0.7821427607071276 
1.019999999999904, -0.769127125171337 
1.029999999999903, -0.7501397979226558 
1.039999999999902, -0.7254184109498105 
1.0499999999999008, -0.6977426811225257 
1.0599999999998997, -0.6714698544889595 
1.0699999999998986, -0.6500492748724986 
1.0799999999998975, -0.6346172141501409 
1.0899999999998964, -0.624502839764933 
1.0999999999998953, -0.6183478323499307 
1.1099999999998942, -0.614840408496073 
1.119999999999893, -0.6129773905686646 
1.129999999999892, -0.6120756981516379 
1.1399999999998909, -0.6117013517992116 
1.1499999999998898, -0.6115910521857406 
1.1599999999998887, -0.611589665258014 
1.1699999999998876, -0.611606446772629 
1.1799999999998865, -0.6115867553350802 
1.1899999999998854, -0.6114953822418996 
1.1999999999998843, -0.6113086677235532 
1.2099999999998832, -0.6110134835157742 
1.219999999999882, -0.6106107729522764 
1.229999999999881, -0.6101194418969869 
1.2399999999998799, -0.6095750303279627 
1.2499999999998788, -0.6090201660349882 
1.2599999999998777, -0.6084901484593235 
1.2699999999998766, -0.6080014404367053 
1.2799999999998755, -0.6075490416776267 
1.2899999999998744, -0.6071130577900533 
1.2999999999998733, -0.6066700040064513 
1.3099999999998722, -0.6062030314427723 
1.319999999999871, -0.60570758004343 
1.32999999999987, -0.6051929241681238 
1.3399999999998689, -0.6046826218822774 
1.3499999999998678, -0.6042168952274306 
1.3599999999998666, -0.6038587177474991 
1.3699999999998655, -0.603704302355238 
1.3799999999998644, -0.6038981247630171 
1.3899999999998633, -0.6046522332388876 
1.3999999999998622, -0.6062688133189243 
1.4099999999998611, -0.6091627940290757 
1.41999999999986, -0.6138753904456867 
1.429999999999859, -0.6210554361298051 
1.4399999999998578, -0.6313590850179895 
1.4499999999998567, -0.6451922464418061 
1.4599999999998556, -0.6622632975958112 
1.4699999999998545, -0.6811548497775428 
1.4799999999998534, -0.6994719216058113 
1.4899999999998523, -0.7148814232411386 
1.4999999999998512, -0.7262573898452224 
1.5099999999998501, -0.7338407128000928 
1.519999999999849, -0.7385566189678194 
1.529999999999848, -0.7413548929156581 
1.5399999999998468, -0.7429396963148904 
1.5499999999998457, -0.7437587454869778 
1.5599999999998446, -0.7440705608965024 
1.5699999999998435, -0.7440064346131363 
1.5799999999998424, -0.7436073243888883 
1.5899999999998413, -0.7428359437961687 
1.5999999999998402, -0.7415654291677609 
1.6099999999998391, -0.7395422002871583 
1.619999999999838, -0.7363197559726589 
1.629999999999837, -0.7311755220830125 
1.6399999999998358, -0.7230830287560952 
1.6499999999998347, -0.710930994542435 
1.6599999999998336, -0.6942060152614128 
1.6699999999998325, -0.6738828637278299 
1.6799999999998314, -0.6525033611645078 
1.6899999999998303, -0.6329352808322686 
1.6999999999998292, -0.6169832474565424 
1.709999999999828, -0.6050623636739297 
1.719999999999827, -0.5966985836604689 
1.729999999999826, -0.5911057148822235 
1.7399999999998248, -0.5875183545364212 
1.7499999999998237, -0.5853141122274991 
1.7599999999998226, -0.5840290473662507 
1.7699999999998215, -0.5833343017802953 
1.7799999999998204, -0.5830045889701226 
1.7899999999998193, -0.582889502767168 
1.7999999999998182, -0.5828905998498755 
1.809999999999817, -0.5829444936920078 
1.819999999999816, -0.5830114646156351 
1.8299999999998149, -0.5830689222276185 
1.8399999999998138, -0.5831087391827617 
1.8499999999998127, -0.5831366169832684 
1.8599999999998116, -0.5831705309053855 
1.8699999999998105, -0.5832352342615205 
1.8799999999998094, -0.5833520478953377 
1.8899999999998083, -0.5835269401484329 
1.8999999999998072, -0.5837425722218829 
1.909999999999806, -0.5839595042324612 
1.919999999999805, -0.5841275982834475 
1.9299999999998039, -0.5842022649657523 
1.9399999999998028, -0.5841565748402081 
1.9499999999998017, -0.5839838492475452 
1.9599999999998006, -0.5836928253544149 
1.9699999999997995, -0.5833015180601525 
1.9799999999997984, -0.5828347926277201 
1.9899999999997973, -0.5823282133054504 
1.9999999999997962, -0.5818400204142767 
2.0099999999998173, -0.581474469589421 
2.0199999999998384, -0.5814223772790428 
2.0299999999998595, -0.5820270840268319 
2.0399999999998806, -0.5838821286572939 
2.0499999999999017, -0.5879485207716886 
2.059999999999923, -0.595615687802667 
2.069999999999944, -0.6084867482353389 
2.079999999999965, -0.6275359617150654 
2.089999999999986, -0.6516775771913884 
2.100000000000007, -0.6771589458432005 
2.1100000000000283, -0.6994882563439597 
2.1200000000000494, -0.7162718964980409 
2.1300000000000705, -0.7276978159174516 
2.1400000000000916, -0.7350969685658002 
2.1500000000001127, -0.7397844930995652 
2.160000000000134, -0.742714873175549 
2.170000000000155, -0.7445121004607664 
2.180000000000176, -0.745567442433738 
2.190000000000197, -0.7461180369670475 
2.2000000000002182, -0.7462978866226795 
2.2100000000002393, -0.7461669917159789 
2.2200000000002604, -0.7457238414514961 
2.2300000000002815, -0.7449043964594804 
2.2400000000003026, -0.7435702629696045 
2.2500000000003237, -0.7414930071431313 
2.260000000000345, -0.7383548204684152 
2.270000000000366, -0.7338062328950956 
2.280000000000387, -0.7276199583036869 
2.290000000000408, -0.7198999515893981 
2.3000000000004293, -0.7111756560705992 
2.3100000000004504, -0.7022401863017216 
2.3200000000004715, -0.6938412246959382 
2.3300000000004926, -0.6864684781715179 
2.3400000000005137, -0.6803290007401926 
2.3500000000005348, -0.6754292188761042 
2.360000000000556, -0.6716664237312127 
2.370000000000577, -0.6688904062811565 
2.380000000000598, -0.6669364393611167 
2.390000000000619, -0.6656417112994365 
2.4000000000006403, -0.664854532014397 
2.4100000000006614, -0.6644405024034642 
2.4200000000006825, -0.6642864580145496 
2.4300000000007036, -0.6643019080474121 
2.4400000000007247, -0.6644180879973336 
2.450000000000746, -0.6645855410781747 
2.460000000000767, -0.664771537908498 
2.470000000000788, -0.6649582599025388 
2.480000000000809, -0.6651414963251933 
2.49000000000083, -0.6653281597121399 
2.5000000000008513, -0.6655304840093602 
2.5100000000008724, -0.6657565640874377 
2.5200000000008935, -0.6660003511405985 
2.5300000000009146, -0.6662366665114599 
2.5400000000009357, -0.6664255531576442 
2.550000000000957, -0.6665249396677322 
2.560000000000978, -0.666504602251266 
2.570000000000999, -0.666353655707323 
2.58000000000102, -0.6660796492879176 
2.5900000000010412, -0.6657037219361749 
2.6000000000010624, -0.6652577651974563 
2.6100000000010835, -0.6647873570181387 
2.6200000000011046, -0.6643620821731988 
2.6300000000011257, -0.6640941182145047 
2.6400000000011468, -0.6641657383647609 
2.650000000001168, -0.6648652117460737 
2.660000000001189, -0.6666271275152278 
2.67000000000121, -0.6700657837471415 
2.680000000001231, -0.6759759666071448 
2.6900000000012523, -0.6852502309268014 
2.7000000000012734, -0.6986312704168137 
2.7100000000012945, -0.7162335577238688 
2.7200000000013156, -0.7369611094383063 
2.7300000000013367, -0.7583531779598118 
2.740000000001358, -0.7774505190593277 
2.750000000001379, -0.792264664176295 
2.7600000000014, -0.8024850404467679 
2.770000000001421, -0.8089637908789828 
2.780000000001442, -0.8128455630340309 
2.7900000000014633, -0.8150703046846622 
2.8000000000014844, -0.8162667778462585 
2.8100000000015055, -0.8168113947328756 
2.8200000000015266, -0.8169090793864677 
2.8300000000015477, -0.8166501969545914 
2.840000000001569, -0.81603863603757 
2.85000000000159, -0.8149943098696127 
2.860000000001611, -0.8133303282145865 
2.870000000001632, -0.8106999249256457 
2.8800000000016532, -0.8065065830195322 
2.8900000000016743, -0.7997866683413941 
2.9000000000016954, -0.7891443796624473 
2.9100000000017165, -0.7729900453762397 
2.9200000000017377, -0.7504725475908105 
2.9300000000017588, -0.7229584470373231 
2.94000000000178, -0.6944590699014775 
2.950000000001801, -0.66960543187275 
2.960000000001822, -0.6510136202745669 
2.970000000001843, -0.638723329169284 
2.9800000000018643, -0.6313566988158799 
2.9900000000018854, -0.6273012865318781 
3.0000000000019065, -0.6252610209044627 
3.0100000000019276, -0.624354396980424 
3.0200000000019487, -0.6240361259883758 
3.03000000000197, -0.6239890462545475 
3.040000000001991, -0.6240360081512447 
3.050000000002012, -0.6240794422741348 
3.060000000002033, -0.6240634859333644 
3.070000000002054, -0.6239519832803513 
3.0800000000020753, -0.6237175480859872 
3.0900000000020964, -0.6233390978560421 
3.1000000000021175, -0.6228061881319973 
3.1100000000021386, -0.6221269535898492 
3.1200000000021597, -0.6213332872054064 
3.130000000002181, -0.6204763766117466 
3.140000000002202, -0.6196118147863453 
3.150000000002223, -0.6187821568569492 
3.160000000002244, -0.6180068840372741 
3.1700000000022652, -0.6172837118872732 
3.1800000000022863, -0.6165980409645602 
3.1900000000023074, -0.6159344018939291 
3.2000000000023285, -0.6152850954736647 
3.2100000000023496, -0.6146546610258294 
3.2200000000023707, -0.6140617274203903 
3.230000000002392, -0.6135406676949338 
3.240000000002413, -0.6131446692471146 
3.250000000002434, -0.6129506169753153 
3.260000000002455, -0.6130653606161107 
3.2700000000024763, -0.6136326058755827 
3.2800000000024974, -0.6148396117012759 
3.2900000000025185, -0.6169226409527299 
3.3000000000025396, -0.620168765151609 
3.3100000000025607, -0.6249075101361224 
3.3200000000025818, -0.6314770331012215 
3.330000000002603, -0.6401370534734746 
3.340000000002624, -0.650898711936199 
3.350000000002645, -0.6632913853528237 
3.360000000002666, -0.6762268570811583 
3.3700000000026873, -0.6882311690501053 
3.3800000000027084, -0.6980662796738426 
3.3900000000027295, -0.7052527586811751 
3.4000000000027506, -0.7100431726848013 
3.4100000000027717, -0.7130238412513608 
3.420000000002793, -0.7147698833269303 
3.430000000002814, -0.7157064944024262 
3.440000000002835, -0.7161034059548468 
3.450000000002856, -0.7161101463688567 
3.460000000002877, -0.7157874879846698 
3.4700000000028983, -0.7151221525597766 
3.4800000000029194, -0.714021821398365 
3.4900000000029405, -0.7122869586648768 
3.5000000000029616, -0.7095529662444509 
3.5100000000029827, -0.7052000351894734 
3.520000000003004, -0.6982622322919941 
3.530000000003025, -0.6874744384087397 
3.540000000003046, -0.6717489783944853 
3.550000000003067, -0.6512117504027216 
3.5600000000030882, -0.628000633815207 
3.5700000000031094, -0.6055064210147815 
3.5800000000031305, -0.5864819389353737 
3.5900000000031516, -0.5719840374995988 
3.6000000000031727, -0.5617105572682004 
3.6100000000031938, -0.5547852745092124 
3.620000000003215, -0.5502881335898877 
3.630000000003236, -0.5474641513401385 
3.640000000003257, -0.5457563538009641 
3.650000000003278, -0.5447753684619631 
3.6600000000032993, -0.5442572510616348 
3.6700000000033204, -0.5440267283121221 
3.6800000000033415, -0.5439693048917169 
3.6900000000033626, -0.544011469304465 
3.7000000000033837, -0.5441074704006452 
3.710000000003405, -0.5442313176369412 
3.720000000003426, -0.5443727913502744 
3.730000000003447, -0.5445358912382952 
3.740000000003468, -0.5447373301842766 
3.750000000003489, -0.5450021816132564 
3.7600000000035103, -0.5453548137051897 
3.7700000000035314, -0.5458060838719306 
3.7800000000035525, -0.5463411854702833 
3.7900000000035736, -0.5469147830845532 
3.8000000000035947, -0.5474589956711505 
3.810000000003616, -0.5479031379867904 
3.820000000003637, -0.5481948734980076 
3.830000000003658, -0.5483104504420516 
3.840000000003679, -0.5482507287226754 
3.8500000000037002, -0.5480296851275394 
3.8600000000037213, -0.5476637176297636 
3.8700000000037424, -0.5471658200194254 
3.8800000000037635, -0.5465450082770638 
3.8900000000037847, -0.545810550228352 
3.9000000000038058, -0.5449814538204195 
3.910000000003827, -0.5441022487176539 
3.920000000003848, -0.5432626305771653 
3.930000000003869, -0.5426012850302607 
3.94000000000389, -0.5422232969849612 
3.9500000000039113, -0.5418741725596383 
3.9600000000039324, -0.5402734708299747 
3.9700000000039535, -0.534774681392584 
3.9800000000039746, -0.523097920842497 
3.9900000000039957, -0.5065474374495619 
4.000000000004016, -0.48969738264305995 
4.010000000003993, -0.47629220822806567 
4.02000000000397, -0.4672473354854961 
4.030000000003946, -0.4617397451097129 
4.040000000003923, -0.4585993471029477 
4.0500000000039, -0.45689740192559114 
4.0600000000038765, -0.45602417273925766 
4.070000000003853, -0.4556110291243202 
4.08000000000383, -0.455443405348494 
4.090000000003807, -0.4553984615466623 
4.100000000003783, -0.45540626621339025 
4.11000000000376, -0.4554272923471906 
4.120000000003737, -0.4554404075701723 
4.130000000003713, -0.45543767084895004 
4.14000000000369, -0.4554234529570822 
4.150000000003667, -0.4554154065017208 
4.1600000000036434, -0.4554441563891632 
4.17000000000362, -0.45554862797225465 
4.180000000003597, -0.4557658303327556 
4.1900000000035735, -0.45611699620039614 
4.20000000000355, -0.4565945247403123 
4.210000000003527, -0.45715571064521043 
4.220000000003504, -0.45772909634080117 
4.23000000000348, -0.458234169920493 
4.240000000003457, -0.45860526301896487 
4.250000000003434, -0.458805765864879 
4.26000000000341, -0.45882649663244485 
4.270000000003387, -0.4586736171071042 
4.280000000003364, -0.45835491438047454 
4.2900000000033405, -0.457868934160945 
4.300000000003317, -0.45719620423382007 
4.310000000003294, -0.45628856637079246 
4.320000000003271, -0.45504975586093055 
4.330000000003247, -0.45329447322177413 
4.340000000003224, -0.4506612196699213 
4.350000000003201, -0.44644153342908643 
4.360000000003177, -0.4393276710735655 
4.370000000003154, -0.4273460358462371 
4.380000000003131, -0.40879586282060015 
4.390000000003107, -0.3845442009189176 
4.400000000003084, -0.35896904701413745 
4.410000000003061, -0.3369107846560704 
4.4200000000030375, -0.3204538982375714 
4.430000000003014, -0.3091422163932974 
4.440000000002991, -0.30163267340176125 
4.450000000002968, -0.2966839952668249 
4.460000000002944, -0.29340817061394275 
4.470000000002921, -0.2912283958934247 
4.480000000002898, -0.2897844736954013 
4.490000000002874, -0.28885642048237614 
4.500000000002851, -0.28831450731661246 
4.510000000002828, -0.2880896195695041 
4.520000000002804, -0.28815750362799036 
4.530000000002781, -0.2885328006931248 
4.540000000002758, -0.2892709732631615 
4.5500000000027345, -0.2904778914617945 
4.560000000002711, -0.29232781804518615 
4.570000000002688, -0.2950898756136895 
4.580000000002665, -0.2991573973048153 
4.590000000002641, -0.30505511882033587 
4.600000000002618, -0.31335318332939277 
4.610000000002595, -0.3243618831404812 
4.620000000002571, -0.3375727655888484 
4.630000000002548, -0.351298811133747 
4.640000000002525, -0.3633316689709064 
4.6500000000025015, -0.3723119272526031 
4.660000000002478, -0.37825282469260013 
4.670000000002455, -0.38191627555802937 
4.6800000000024315, -0.38410333927869783 
4.690000000002408, -0.3853840774749967 
4.700000000002385, -0.3861045136831731 
4.710000000002362, -0.38645975075254957 
4.720000000002338, -0.38655376221005466 
4.730000000002315, -0.3864360202462923 
4.740000000002292, -0.3861226654126356 
4.750000000002268, -0.3856107620820141 
4.760000000002245, -0.38489216553867645 
4.770000000002222, -0.38397038889845525 
4.7800000000021985, -0.38287795991392387 
4.790000000002175, -0.381684581535673 
4.800000000002152, -0.38048620762256175 
4.810000000002129, -0.3793776598707314 
4.820000000002105, -0.37842519205594327 
4.830000000002082, -0.3776536906713353 
4.840000000002059, -0.37704999444887377 
4.850000000002035, -0.37657540611248885 
4.860000000002012, -0.376180712024165 
4.870000000001989, -0.3758193584603625 
4.880000000001965, -0.3754558179244097 
4.890000000001942, -0.37506811187864886 
4.900000000001919, -0.37464602764582866 
4.9100000000018955, -0.37418791759893977 
